Data from mixed_try1_USB4F045381__24__00172.txt Node

Date: Thu Apr 03 20:12:02 EDT 2025
User: mmckonesweet
Spectrometer: USB4F04538
Trigger mode: 4
Integration Time (sec): 2.700000E-3
Scans to average: 1
Electric dark correction enabled: true
Nonlinearity correction enabled: true
Boxcar width: 0
XAxis mode: Wavelengths
Number of Pixels in Spectrum: 3648
>>>>>Begin Spectral Data<<<<<
345.52	-24.93558
345.736	-24.93558
345.952	-24.93558
346.168	23.53386
346.384	-8.0781
346.6	-83.9242
346.816	-10.18537
347.032	-43.89836
347.248	23.53386
347.464	23.53386
347.68	8.78094
347.896	44.61145
348.112	25.64151
348.328	-5.9708
348.544	-10.18537
348.76	25.64151
348.975	2.45862
349.191	-52.32561
349.407	-52.32561
349.623	-27.04265
349.839	-5.9708
350.055	61.47521
350.27	-67.07234
350.486	19.31862
350.702	86.77357
350.918	-18.61421
351.133	-10.18537
351.349	-10.18537
351.565	-10.18537
351.781	-35.47071
351.996	17.21104
352.212	23.53386
352.428	-14.39983
352.644	-69.17891
352.859	-8.0781
353.075	-62.85911
353.291	4.56604
353.506	48.82725
353.722	23.53386
353.938	44.61145
354.153	15.10348
354.369	27.74919
354.584	-18.61421
354.8	-27.04265
355.016	-20.72135
355.231	23.53386
355.447	-14.39983
355.662	-81.81781
355.878	40.39575
356.093	-43.89836
356.309	-33.36373
356.524	-3.86348
356.74	-10.18537
356.955	10.88843
357.171	-46.00521
357.386	15.10348
357.602	0.35123
357.817	17.21104
358.033	-1.75614
358.248	10.88843
358.464	40.39575
358.679	59.36716
358.895	-52.32561
359.11	15.10348
359.325	-10.18537
359.541	-123.94071
359.756	82.55695
359.972	34.07236
360.187	25.64151
360.402	6.67348
360.618	2.45862
360.833	-31.25673
361.048	-86.03057
361.264	53.04315
361.479	-10.18537
361.694	-41.79148
361.909	-39.68458
362.125	-24.93558
362.34	-81.81781
362.555	17.21104
362.77	-33.36373
362.986	-22.82848
363.201	-24.93558
363.416	27.74919
363.631	36.18013
363.847	-18.61421
364.062	4.56604
364.277	-109.19889
364.492	44.61145
364.707	8.78094
364.922	4.56604
365.138	107.85801
365.353	23.53386
365.568	-41.79148
365.783	31.96461
365.998	-27.04265
366.213	-27.04265
366.428	-22.82848
366.643	-14.39983
366.858	-16.50703
367.073	-8.0781
367.288	-1.75614
367.503	-35.47071
367.718	-54.43236
367.933	59.36716
368.148	-22.82848
368.363	-58.64579
368.578	-52.32561
368.793	57.25913
369.008	-14.39983
369.223	0.35123
369.438	48.82725
369.653	-8.0781
369.868	2.45862
370.083	-18.61421
370.298	-10.18537
370.513	25.64151
370.728	-5.9708
370.943	-31.25673
371.157	-37.57766
371.372	53.04315
371.587	-14.39983
371.802	-39.68458
372.017	-16.50703
372.232	-79.71139
372.446	23.53386
372.661	-27.04265
372.876	53.04315
373.091	-35.47071
373.306	57.25913
373.52	-31.25673
373.735	-41.79148
373.95	-20.72135
374.165	67.79949
374.379	-14.39983
374.594	-5.9708
374.809	40.39575
375.023	-27.04265
375.238	-22.82848
375.453	-56.53909
375.667	15.10348
375.882	-10.18537
376.097	-14.39983
376.311	8.78094
376.526	-10.18537
376.741	-10.18537
376.955	8.78094
377.17	-24.93558
377.384	65.69137
377.599	-3.86348
377.813	10.88843
378.028	-27.04265
378.242	15.10348
378.457	-67.07234
378.672	-41.79148
378.886	15.10348
379.101	-16.50703
379.315	-24.93558
379.53	31.96461
379.744	19.31862
379.958	15.10348
380.173	-33.36373
380.387	23.53386
380.602	42.50359
380.816	-10.18537
381.031	-3.86348
381.245	67.79949
381.459	8.78094
381.674	8.78094
381.888	17.21104
382.103	50.93519
382.317	-24.93558
382.531	15.10348
382.746	-75.49848
382.96	-14.39983
383.174	-5.9708
383.388	15.10348
383.603	23.53386
383.817	65.69137
384.031	-90.24323
384.246	55.15113
384.46	48.82725
384.674	-14.39983
384.888	-18.61421
385.103	-22.82848
385.317	-43.89836
385.531	23.53386
385.745	-24.93558
385.959	-52.32561
386.174	-3.86348
386.388	29.85689
386.602	-31.25673
386.816	4.56604
387.03	-33.36373
387.244	-14.39983
387.458	23.53386
387.672	21.42623
387.887	-1.75614
388.101	57.25913
388.315	-109.19889
388.529	19.31862
388.743	10.88843
388.957	31.96461
389.171	34.07236
389.385	-10.18537
389.599	-18.61421
389.813	12.99594
390.027	-1.75614
390.241	48.82725
390.455	-33.36373
390.669	-5.9708
390.883	-27.04265
391.097	-5.9708
391.311	38.28793
391.525	40.39575
391.738	-24.93558
391.952	2.45862
392.166	29.85689
392.38	2.45862
392.594	-3.86348
392.808	-37.57766
393.022	-24.93558
393.236	15.10348
393.449	-50.21884
393.663	0.35123
393.877	8.78094
394.091	-18.61421
394.305	31.96461
394.518	8.78094
394.732	38.28793
394.946	-64.96574
395.16	-35.47071
395.373	15.10348
395.587	8.78094
395.801	17.21104
396.015	-29.1497
396.228	10.88843
396.442	-1.75614
396.656	42.50359
396.869	-75.49848
397.083	48.82725
397.297	40.39575
397.51	50.93519
397.724	-35.47071
397.938	-16.50703
398.151	-24.93558
398.365	-22.82848
398.578	-1.75614
398.792	10.88843
399.005	10.88843
399.219	-58.64579
399.433	46.71934
399.646	65.69137
399.86	-77.60495
400.073	-67.07234
400.287	29.85689
400.5	-10.18537
400.714	-86.03057
400.927	-16.50703
401.141	27.74919
401.354	15.10348
401.567	0.35123
401.781	-67.07234
401.994	-43.89836
402.208	-18.61421
402.421	-8.0781
402.635	15.10348
402.848	-35.47071
403.061	-1.75614
403.275	-10.18537
403.488	-100.77442
403.701	0.35123
403.915	6.67348
404.128	-3.86348
404.341	-48.11204
404.555	-39.68458
404.768	-1.75614
404.981	17.21104
405.195	-27.04265
405.408	57.25913
405.621	-16.50703
405.834	15.10348
406.048	44.61145
406.261	-10.18537
406.474	17.21104
406.687	-54.43236
406.9	-52.32561
407.114	40.39575
407.327	-41.79148
407.54	-18.61421
407.753	31.96461
407.966	53.04315
408.179	40.39575
408.392	10.88843
408.605	-29.1497
408.819	-5.9708
409.032	-1.75614
409.245	6.67348
409.458	17.21104
409.671	-16.50703
409.884	19.31862
410.097	-50.21884
410.31	90.99028
410.523	-5.9708
410.736	38.28793
410.949	48.82725
411.162	12.99594
411.375	-46.00521
411.588	-3.86348
411.801	6.67348
412.014	-43.89836
412.227	27.74919
412.44	-35.47071
412.653	-58.64579
412.865	21.42623
413.078	-24.93558
413.291	15.10348
413.504	-69.17891
413.717	6.67348
413.93	23.53386
414.143	-73.39198
414.356	27.74919
414.568	27.74919
414.781	31.96461
414.994	34.07236
415.207	-27.04265
415.42	-10.18537
415.632	-1.75614
415.845	-10.18537
416.058	-43.89836
416.271	-27.04265
416.483	8.78094
416.696	17.21104
416.909	27.74919
417.121	31.96461
417.334	-1.75614
417.547	40.39575
417.759	31.96461
417.972	65.69137
418.185	-33.36373
418.397	-56.53909
418.61	-5.9708
418.823	36.18013
419.035	88.88192
419.248	-43.89836
419.46	29.85689
419.673	-35.47071
419.885	-10.18537
420.098	57.25913
420.311	10.88843
420.523	42.50359
420.736	-56.53909
420.948	53.04315
421.161	27.74919
421.373	-102.88057
421.586	-35.47071
421.798	2.45862
422.01	-14.39983
422.223	63.58328
422.435	-10.18537
422.648	38.28793
422.86	-16.50703
423.073	-22.82848
423.285	-3.86348
423.497	-52.32561
423.71	2.45862
423.922	23.53386
424.134	65.69137
424.347	-35.47071
424.559	-31.25673
424.771	29.85689
424.984	-39.68458
425.196	27.74919
425.408	2.45862
425.621	21.42623
425.833	-64.96574
426.045	48.82725
426.257	-39.68458
426.47	-10.18537
426.682	6.67348
426.894	-10.18537
427.106	-16.50703
427.318	42.50359
427.531	36.18013
427.743	-33.36373
427.955	53.04315
428.167	6.67348
428.379	17.21104
428.591	15.10348
428.804	-37.57766
429.016	2.45862
429.228	-5.9708
429.44	-41.79148
429.652	-27.04265
429.864	-39.68458
430.076	2.45862
430.288	61.47521
430.5	-27.04265
430.712	31.96461
430.924	57.25913
431.136	-31.25673
431.348	-18.61421
431.56	-20.72135
431.772	-3.86348
431.984	31.96461
432.196	23.53386
432.408	19.31862
432.62	-12.29261
432.832	-43.89836
433.044	69.90763
433.256	-5.9708
433.468	-10.18537
433.679	-3.86348
433.891	31.96461
434.103	-18.61421
434.315	-20.72135
434.527	-18.61421
434.739	31.96461
434.95	-1.75614
435.162	-27.04265
435.374	-14.39983
435.586	-64.96574
435.798	4.56604
436.009	25.64151
436.221	40.39575
436.433	-39.68458
436.645	-1.75614
436.856	15.10348
437.068	-18.61421
437.28	23.53386
437.491	61.47521
437.703	0.35123
437.915	34.07236
438.126	19.31862
438.338	-50.21884
438.55	15.10348
438.761	63.58328
438.973	-29.1497
439.184	78.34042
439.396	-1.75614
439.608	34.07236
439.819	0.35123
440.031	65.69137
440.242	10.88843
440.454	-33.36373
440.665	6.67348
440.877	63.58328
441.088	27.74919
441.3	-8.0781
441.511	36.18013
441.723	53.04315
441.934	10.88843
442.146	-14.39983
442.357	6.67348
442.569	65.69137
442.78	40.39575
442.991	42.50359
443.203	15.10348
443.414	-123.94071
443.626	-37.57766
443.837	55.15113
444.048	-14.39983
444.26	-14.39983
444.471	0.35123
444.682	-56.53909
444.894	25.64151
445.105	19.31862
445.316	-52.32561
445.528	67.79949
445.739	-52.32561
445.95	101.53244
446.161	17.21104
446.373	-1.75614
446.584	57.25913
446.795	82.55695
447.006	61.47521
447.217	-1.75614
447.429	-14.39983
447.64	65.69137
447.851	40.39575
448.062	-18.61421
448.273	-60.75247
448.484	-20.72135
448.695	-10.18537
448.907	8.78094
449.118	0.35123
449.329	95.20708
449.54	-5.9708
449.751	-12.29261
449.962	-50.21884
450.173	-10.18537
450.384	23.53386
450.595	23.53386
450.806	-20.72135
451.017	15.10348
451.228	67.79949
451.439	-14.39983
451.65	-24.93558
451.861	-18.61421
452.072	46.71934
452.283	23.53386
452.494	40.39575
452.705	-1.75614
452.915	0.35123
453.126	15.10348
453.337	42.50359
453.548	6.67348
453.759	40.39575
453.97	23.53386
454.181	40.39575
454.391	-14.39983
454.602	29.85689
454.813	-3.86348
455.024	19.31862
455.235	-10.18537
455.445	74.12398
455.656	-14.39983
455.867	36.18013
456.078	2.45862
456.288	93.09867
456.499	-1.75614
456.71	17.21104
456.921	-1.75614
457.131	23.53386
457.342	65.69137
457.553	59.36716
457.763	-1.75614
457.974	-67.07234
458.184	29.85689
458.395	23.53386
458.606	90.99028
458.816	40.39575
459.027	42.50359
459.237	36.18013
459.448	10.88843
459.659	42.50359
459.869	-56.53909
460.08	25.64151
460.29	15.10348
460.501	-18.61421
460.711	107.85801
460.922	-5.9708
461.132	-10.18537
461.343	25.64151
461.553	-5.9708
461.764	65.69137
461.974	19.31862
462.184	63.58328
462.395	-41.79148
462.605	-18.61421
462.816	15.10348
463.026	10.88843
463.236	31.96461
463.447	15.10348
463.657	57.25913
463.867	40.39575
464.078	-31.25673
464.288	57.25913
464.498	-8.0781
464.709	34.07236
464.919	25.64151
465.129	25.64151
465.339	-24.93558
465.55	120.50972
465.76	95.20708
465.97	63.58328
466.18	57.25913
466.391	65.69137
466.601	-12.29261
466.811	82.55695
467.021	48.82725
467.231	50.93519
467.441	25.64151
467.651	42.50359
467.862	99.42397
468.072	99.42397
468.282	48.82725
468.492	-1.75614
468.702	6.67348
468.912	-33.36373
469.122	61.47521
469.332	40.39575
469.542	23.53386
469.752	-1.75614
469.962	31.96461
470.172	63.58328
470.382	65.69137
470.592	38.28793
470.802	57.25913
471.012	34.07236
471.222	103.64094
471.432	65.69137
471.642	69.90763
471.852	27.74919
472.062	65.69137
472.272	31.96461
472.482	50.93519
472.691	40.39575
472.901	-10.18537
473.111	118.40105
473.321	124.72714
473.531	86.77357
473.741	65.69137
473.95	67.79949
474.16	61.47521
474.37	38.28793
474.58	57.25913
474.79	105.74946
474.999	50.93519
475.209	-24.93558
475.419	38.28793
475.628	57.25913
475.838	61.47521
476.048	78.34042
476.258	59.36716
476.467	23.53386
476.677	124.72714
476.886	74.12398
477.096	31.96461
477.306	80.44868
477.515	67.79949
477.725	36.18013
477.935	86.77357
478.144	135.27105
478.354	65.69137
478.563	93.09867
478.773	158.46953
478.982	120.50972
479.192	101.53244
479.401	65.69137
479.611	179.56125
479.82	109.96657
480.03	158.46953
480.239	46.71934
480.449	124.72714
480.658	107.85801
480.868	145.81549
481.077	154.25143
481.287	101.53244
481.496	219.64116
481.705	82.55695
481.915	160.57861
482.124	124.72714
482.333	230.1897
482.543	114.18377
482.752	154.25143
482.961	166.90597
483.171	198.54556
483.38	124.72714
483.589	230.1897
483.799	200.65503
484.008	141.59765
484.217	225.97022
484.426	204.87403
484.636	194.32669
484.845	270.27857
485.054	228.07995
485.263	247.06838
485.472	253.3982
485.682	327.25857
485.891	225.97022
486.1	293.49103
486.309	278.71921
486.518	276.60902
486.727	354.69804
486.936	314.5952
487.146	297.71172
487.355	318.81625
487.564	282.93964
487.773	325.14796
487.982	306.15332
488.191	329.36919
488.4	301.93248
488.609	344.14405
488.818	310.37423
489.027	299.82209
489.236	382.14042
489.445	420.14221
489.654	394.80709
489.863	411.69691
490.072	363.14154
490.281	504.60887
490.49	403.25187
490.698	428.58776
490.907	462.37249
491.116	466.59585
491.325	403.25187
491.534	496.16112
491.743	375.80731
491.952	447.59118
492.16	377.91833
492.369	420.14221
492.578	525.72925
492.787	472.93102
492.996	597.54891
493.204	582.76124
493.413	475.04277
493.622	698.96638
493.831	557.41247
494.039	741.23147
494.248	667.27047
494.457	586.98623
494.665	548.96331
494.874	599.66148
495.083	633.46441
495.291	656.70575
495.5	692.62699
495.709	726.4382
495.917	544.73881
496.126	673.60945
496.335	722.21165
496.543	760.25215
496.752	705.30587
496.96	707.41905
497.169	682.06158
497.377	743.34484
497.586	817.319
497.794	732.77811
498.003	665.1575
498.211	878.6205
498.42	813.09159
498.628	825.77394
498.837	777.16011
499.045	916.67325
499.254	785.61432
499.462	952.61424
499.671	884.96245
499.879	929.35806
500.087	946.27156
500.296	1018.15885
500.504	980.09991
500.713	1045.6471
500.921	937.81475
501.129	1032.96009
501.338	844.79808
501.546	1066.79256
501.754	891.30447
501.962	1098.51175
502.171	1079.4801
502.379	1094.28246
502.587	942.04314
502.795	1202.13491
503.004	1013.92998
503.212	1227.51339
503.42	1083.70932
503.628	1149.26471
503.837	1130.23204
504.045	1193.67552
504.253	1166.18291
504.461	1293.07638
504.669	1178.87173
504.877	1261.35204
505.085	1227.51339
505.294	1369.21656
505.502	1172.5273
505.71	1394.597
505.918	1252.89232
506.126	1441.12806
506.334	1303.65127
506.542	1506.69461
506.75	1307.88124
506.958	1396.71204
507.166	1373.44662
507.374	1500.34947
507.582	1409.40231
507.79	1536.30513
507.998	1398.82708
508.206	1578.6055
508.414	1466.50869
508.622	1474.96889
508.83	1441.12806
509.037	1532.07507
509.245	1424.20765
509.453	1716.07618
509.661	1557.45538
509.869	1553.22534
510.077	1502.46452
510.285	1639.93984
510.492	1529.96003
510.7	1775.29046
510.908	1354.41137
511.116	1671.66375
511.324	1616.67529
511.531	1747.79847
511.739	1548.9953
511.947	1849.30387
512.155	1620.90523
512.362	1631.48003
512.57	1570.14547
512.778	1775.29046
512.985	1756.25761
513.193	1807.01115
513.401	1591.29549
513.608	1832.387
513.816	1851.41846
514.024	1692.81269
514.231	1811.2405
514.439	1859.87676
514.646	1984.62671
514.854	1938.11209
515.061	1826.0431
515.269	2054.39283
515.477	1885.25118
515.684	1978.28398
515.892	1885.25118
516.099	1995.19779
516.307	1845.07468
516.514	2157.97058
516.722	1876.79312
516.929	2094.55778
517.136	1933.88335
517.344	2136.83376
517.551	2026.91008
517.759	2162.19785
517.966	1912.73928
518.173	2107.2409
518.381	2054.39283
518.588	2322.80836
518.796	2126.26506
519.003	2314.35649
519.21	2231.94293
519.418	2377.74165
519.625	2181.22015
519.832	2343.93734
520.039	2172.76588
520.247	2498.14773
520.454	2350.27584
520.661	2377.74165
520.868	2229.82958
521.076	2660.74281
521.283	2234.05627
521.49	2584.73317
521.697	2375.62896
521.904	2502.37186
522.112	2553.05785
522.319	2588.95635
522.526	2458.01627
522.733	2398.86802
522.94	2400.9806
523.147	2601.62558
523.354	2479.13859
523.561	2848.5836
523.768	2447.4547
523.975	2728.29321
524.183	2745.17872
524.39	2838.0336
524.597	2643.85316
524.804	2882.34122
525.011	2542.49882
525.218	2861.24313
525.425	2669.18733
525.632	2626.96272
525.838	2854.91343
526.045	2698.74153
526.252	2669.18733
526.459	3027.87814
526.666	2831.70343
526.873	2958.28236
527.08	2728.29321
527.287	2998.35467
527.494	2740.95742
527.701	3086.91602
527.907	2966.71909
528.114	3154.37273
528.321	2941.40819
528.528	3097.4572
528.735	2922.42363
528.941	3032.09554
529.148	2816.93255
529.355	3112.2142
529.562	3011.00796
529.768	3082.69943
529.975	2956.17314
530.182	3270.27496
530.388	3124.86243
530.595	3274.48864
530.802	3065.83246
531.008	3398.76117
531.215	3379.80825
531.422	3504.02888
531.628	3179.66474
531.835	3436.6627
532.042	3297.66264
532.248	3468.2429
532.455	3221.81285
532.661	3445.08448
532.868	3360.85392
533.074	3579.79349
533.281	3322.94101
533.487	3495.60912
533.694	3310.30213
533.9	3663.94809
534.107	3386.12605
534.313	3666.05156
534.52	3457.71662
534.726	3596.62682
534.933	3596.62682
535.139	3790.1227
535.345	3626.08225
535.552	3655.53399
535.758	3573.48069
535.965	3628.18607
536.171	3461.92718
536.377	3756.48295
536.584	3676.56867
536.79	3941.43889
536.996	3752.27763
537.203	4000.25591
537.409	3731.24987
537.615	3958.24538
537.821	3750.17494
538.028	3983.45268
538.234	3748.07224
538.44	4126.2381
538.646	3865.79371
538.853	4033.85844
539.059	3834.26724
539.265	3979.25166
539.471	3962.4468
539.677	3909.92323
539.883	3779.61081
540.09	4080.05329
540.296	4050.65773
540.502	4371.6852
540.708	4149.3267
540.914	4323.45808
541.12	4216.47906
541.326	4394.74629
541.532	4235.36175
541.738	4505.82173
541.944	4109.44479
542.15	4491.15492
542.356	4231.16575
542.562	4346.52465
542.768	4306.68074
542.974	4445.05223
543.18	4210.18445
543.386	4621.02309
543.592	4304.58348
543.798	4556.09968
544.004	4260.53599
544.21	4516.29735
544.415	4388.45716
544.621	4744.52751
544.827	4245.85139
545.033	4499.53609
545.239	4491.15492
545.445	4583.32823
545.651	4340.23403
545.856	4662.89777
546.062	4518.39241
546.268	4570.76167
546.474	4554.00502
546.679	4348.62148
546.885	4629.39874
547.091	4847.03915
547.297	4394.74629
547.502	4505.82173
547.708	4821.93931
547.914	4616.83513
548.119	4740.34221
548.325	5024.73527
548.531	4629.39874
548.736	4725.69292
548.942	4771.72979
549.147	4909.77437
549.353	4836.58128
549.559	4966.21842
549.764	4872.13571
549.97	4884.68275
550.175	4916.04676
550.381	5087.4118
550.586	4719.41432
550.792	5281.57613
550.997	4976.66919
551.203	5051.89766
551.408	4916.04676
551.614	5072.78914
551.819	4901.41086
552.025	5168.86008
552.23	5070.7001
552.435	5260.70793
552.641	5256.53401
552.846	5269.05549
553.052	5108.29934
553.257	5350.42461
553.462	5264.88176
553.668	5425.50291
553.873	5333.73641
554.078	5450.52225
554.283	5218.96451
554.489	5552.64937
554.694	5298.26902
554.899	5483.87609
555.105	5369.19704
555.31	5306.61489
555.515	5283.66283
555.72	5525.55993
555.925	5317.04672
556.131	5510.97166
556.336	5325.39175
556.541	5556.81662
556.746	5444.26773
556.951	5565.15085
557.156	5521.39197
557.361	5592.23447
557.567	5708.85681
557.772	5590.15125
557.977	5402.56555
558.182	5700.5291
558.387	5565.15085
558.592	5954.3545
558.797	5552.64937
559.002	5856.61089
559.207	5540.14705
559.412	5727.59279
559.617	5806.67917
559.822	5821.24399
560.027	5785.87027
560.232	5692.20101
560.437	5548.48202
560.642	5823.32459
560.847	5508.88752
561.051	5881.57166
561.256	5827.4857
561.461	5867.01163
561.666	5771.30263
561.871	6052.04603
562.076	5839.9685
562.281	6257.65182
562.485	5864.93153
562.69	5881.57166
562.895	5790.03223
563.1	6103.98841
563.305	5752.57112
563.509	6058.27989
563.714	6087.36845
563.919	5908.60866
564.123	5968.9076
564.328	6074.90249
564.533	6060.3578
564.737	6126.83841
564.942	6153.83928
565.147	6297.08523
565.351	6299.16043
565.556	6255.57614
565.761	6155.9161
565.965	6259.72747
566.17	6056.20196
566.374	6290.85946
566.579	6288.78416
566.784	6189.14212
566.988	6303.31078
567.193	6407.03909
567.397	6085.29085
567.602	6340.6597
567.806	6241.04575
568.011	6483.76055
568.215	6392.52064
568.42	6367.62921
568.624	6160.06969
568.828	6251.42472
569.033	6305.38592
569.237	6545.9438
569.442	6643.32237
569.646	6340.6597
569.85	6236.894
570.055	6690.95716
570.259	6263.87871
570.463	6587.38772
570.668	6400.81704
570.872	6595.6754
571.076	6541.7989
571.281	6597.74726
571.485	6525.21836
571.689	6622.60779
571.893	6606.03447
572.098	6786.19033
572.302	6504.49061
572.506	6672.31891
572.71	6521.073
572.914	6695.09874
573.119	6632.96537
573.323	6918.60833
573.527	6746.86076
573.731	6811.02581
573.935	6910.33493
574.139	6800.67809
574.343	6645.3937
574.547	6837.9272
574.751	6833.78877
574.955	7162.51164
575.159	7028.19678
575.364	6984.78252
575.568	6885.51256
575.772	7046.79986
575.976	6815.16473
576.18	6993.05267
576.383	6813.09528
576.587	7127.39225
576.791	7003.38984
576.995	7294.6684
577.199	7048.86676
577.403	6962.03775
577.607	7063.3344
577.811	7150.1173
578.015	6993.05267
578.219	7286.41125
578.422	7075.73437
578.626	7238.9258
578.83	7094.33282
579.034	6953.76625
579.238	7129.45827
579.442	7340.07645
579.645	7183.16711
579.849	7375.15724
580.053	7274.02487
580.257	7630.85134
580.46	7360.71298
580.664	7529.85047
580.868	7251.31443
581.071	7498.92155
581.275	7311.18165
581.479	7515.41758
581.682	7406.10564
581.886	7447.36257
582.09	7323.56566
582.293	7373.09384
582.497	7377.22062
582.7	7476.23726
582.904	7737.98014
583.107	7655.57845
583.311	7443.23727
583.515	7645.27586
583.718	7443.23727
583.922	7459.73796
584.125	7606.12117
584.329	7686.48304
584.532	7377.22062
584.735	7682.36271
584.939	7556.65162
585.142	7925.31927
585.346	7733.86086
585.549	7661.75975
585.753	7735.92051
585.956	7902.683
586.159	7653.51798
586.363	7950.01054
586.566	7768.87209
586.769	7933.55002
586.973	7939.72287
587.176	7707.08346
587.379	7754.45644
587.582	7789.46411
587.786	7826.52448
587.989	8098.09654
588.192	7775.04992
588.395	7999.38425
588.599	7906.79887
588.802	8344.67581
589.005	7952.06802
589.208	8054.91565
589.411	8188.54207
589.615	7970.58435
589.818	8104.26451
590.021	8219.36696
590.224	8024.0667
590.427	8106.32046
590.63	8100.15255
590.833	8106.32046
591.036	8073.42283
591.239	8174.1556
591.442	7845.05214
591.645	8159.76814
591.848	8190.5972
592.051	8365.2113
592.254	7941.78045
592.457	8063.14127
592.66	8015.83954
592.863	8566.35737
593.066	8276.89485
593.269	8515.062
593.472	8467.85979
593.675	8837.00397
593.878	8422.70038
594.081	8572.51202
594.284	8254.29645
594.486	8527.37397
594.689	8701.72083
594.892	8455.54451
595.095	8625.84526
595.298	8504.80151
595.5	8420.64746
595.703	8779.62083
595.906	8636.1002
596.109	8517.11404
596.311	8500.69718
596.514	8644.30382
596.717	8494.54054
596.92	8812.41294
597.122	8590.97496
597.325	8519.16607
597.528	8617.64097
597.73	8865.69023
597.933	8673.01414
598.136	8888.22697
598.338	8683.26695
598.541	8908.71303
598.743	8683.26695
598.946	9041.82927
599.148	9070.49076
599.351	8800.11644
599.554	9000.87835
599.756	8681.21642
599.959	8724.27356
600.161	8877.98327
600.363	8851.34754
600.566	8820.61024
600.768	8906.66451
600.971	9009.06909
601.173	8914.8585
601.376	9191.24137
601.578	8945.58346
601.78	9207.60976
601.983	8957.87232
602.185	9074.58499
602.388	8980.40026
602.59	8787.81929
602.792	9088.91422
602.995	9025.44974
603.197	9021.35468
603.399	9172.82564
603.601	8828.80725
603.804	8929.19731
604.006	8964.01652
604.208	8814.46229
604.41	9017.25955
604.613	9277.16338
604.815	9019.30713
605.017	9485.70947
605.219	9262.84511
605.421	9279.20878
605.623	9252.61726
605.826	9387.59134
606.028	9164.64042
606.23	9371.23467
606.432	8996.78287
606.634	9510.2332
606.836	9060.25491
607.038	9266.93613
607.24	9142.12968
607.442	9600.13398
607.644	9493.8843
607.846	9422.34578
608.048	9052.06591
608.25	9457.09553
608.452	9385.54681
608.654	9608.30527
608.856	9510.2332
609.058	9549.05775
609.26	9127.80358
609.462	9412.12437
609.664	9555.18742
609.866	9645.07296
610.067	9508.18965
610.269	9424.39001
610.471	9213.74763
610.673	9497.97162
610.875	9346.69771
611.077	9589.91952
611.278	9303.7523
611.48	9567.44633
611.682	9119.61686
611.884	9747.17917
612.085	9450.96356
612.287	9569.48943
612.489	9542.92794
612.69	9653.24288
612.892	9426.43423
613.094	9704.29924
613.295	9172.82564
613.497	9538.84132
613.699	9279.20878
613.9	9920.67298
614.102	9469.35903
614.304	9983.92067
614.505	9665.49728
614.707	9745.13742
614.908	9602.17683
615.11	9961.47954
615.311	9736.97027
615.513	9645.07296
615.714	9755.34602
615.916	9863.53396
616.117	9667.53963
616.319	9949.23818
616.52	9638.94536
616.722	9640.98791
616.923	9785.96953
617.124	9708.38333
617.326	9399.85815
617.527	9808.42461
617.729	9583.79066
617.93	9806.38331
618.131	9910.47043
618.333	9924.7539
618.534	9716.55134
618.735	9928.83476
618.937	9596.04825
619.138	9741.05388
619.339	9647.11547
619.54	10022.67851
619.742	9824.75444
619.943	10071.62841
620.144	9967.60002
620.345	9932.91556
620.546	9700.21508
620.748	10098.13954
620.949	9841.08331
621.15	9898.22688
621.351	9806.38331
621.552	10071.62841
621.753	9775.76207
621.954	9814.54841
622.155	9667.53963
622.356	10092.0218
622.558	9918.6325
622.759	9720.63525
622.96	9837.00118
623.161	10083.86461
623.362	9655.28532
623.563	10140.96019
623.764	9945.15761
623.965	10145.03802
624.166	9808.42461
624.366	9981.88064
624.567	9802.30068
624.768	9992.08064
624.969	9873.7382
625.17	9998.20047
625.371	9936.9963
625.572	10030.8374
625.773	9949.23818
625.973	9928.83476
626.174	9939.03665
626.375	10261.23318
626.576	10034.91675
626.777	10010.43975
626.977	9610.34805
627.178	9828.83675
627.379	9673.66658
627.58	9971.68027
627.78	9949.23818
627.981	10236.77473
628.182	10200.08339
628.382	10053.27316
628.583	9955.35892
628.784	10232.69813
628.984	9910.47043
629.185	10128.72634
629.386	9941.07699
629.586	10006.36005
629.787	9932.91556
629.987	10185.81333
630.188	9892.10491
630.388	9941.07699
630.589	9624.64709
630.79	10122.60923
630.99	9904.34872
631.191	10167.46513
631.391	9967.60002
631.591	10181.73605
631.792	10075.7072
631.992	10283.65171
632.193	10198.04485
632.393	10452.75788
632.594	10228.62148
632.794	10428.31438
632.994	10483.30965
633.195	10609.55999
633.395	10244.92777
633.595	10385.53375
633.796	10063.47066
633.996	10522.00442
634.196	10149.1158
634.397	10650.27568
634.597	10208.2374
634.797	10422.20321
634.997	10308.10643
635.198	10196.0063
635.398	10359.04761
635.598	10601.41626
635.798	10357.01012
635.998	10253.08058
636.199	10304.03078
636.399	10528.1137
636.599	10218.42961
636.799	10414.05481
636.999	10332.55923
637.199	10234.73644
637.399	10185.81333
637.599	10240.85128
637.799	10161.34881
637.999	10369.23485
638.199	10359.04761
638.399	10316.25758
638.599	10420.16613
638.799	10684.88016
638.999	10754.07864
639.199	10625.84686
639.399	10422.20321
639.599	10424.24028
639.799	10367.19742
639.999	10717.44588
640.199	10595.30833
640.399	10660.45384
640.599	10275.49971
640.799	11315.32086
640.998	10833.43643
641.198	10597.34432
641.398	10664.52501
641.598	10927.01518
641.798	10715.41062
641.997	10924.98111
642.197	10579.01998
642.397	10861.9195
642.597	10684.88016
642.796	10929.04923
642.996	10772.39357
643.196	10788.6727
643.395	10495.52955
643.595	10823.26335
643.795	10760.18372
643.994	10929.04923
644.194	10894.4688
644.394	10918.87886
644.593	10900.57147
644.793	11057.1719
644.992	10617.70352
645.192	10849.71275
645.392	10731.69242
645.591	11081.57126
645.791	10758.14871
645.99	11120.20038
646.19	10690.98647
646.389	10955.49087
646.589	10806.98582
646.788	10811.05527
646.987	10821.2287
647.187	11014.46924
647.386	10837.50558
647.586	10975.8293
647.785	10819.19404
647.984	11034.80445
648.184	10941.2533
648.383	11093.77035
648.582	10636.02575
648.782	11254.35597
648.981	10725.58683
649.18	11244.19426
649.38	11057.1719
649.579	11000.23394
649.778	10957.52476
649.977	11455.50594
650.177	10992.09924
650.376	11234.03229
650.575	10874.12583
650.774	11036.83791
650.973	10943.28727
651.173	11057.1719
651.372	10682.8447
651.571	10981.93061
651.77	11209.64251
651.969	10975.8293
652.168	10959.55865
652.367	10939.21932
652.566	11034.80445
652.765	10967.69406
652.964	11394.56167
653.163	11437.22358
653.362	11118.16736
653.561	11152.72716
653.76	10878.19452
653.959	11075.47157
654.158	11144.59572
654.357	11110.0352
654.556	11010.40207
654.755	11552.99878
654.954	11303.12862
655.153	11333.60855
655.352	11219.8051
655.551	11158.82563
655.749	11292.96813
655.948	11544.87521
656.147	11134.43118
656.346	11386.4351
656.545	11272.6464
656.743	11335.64047
656.942	11175.08775
657.141	11540.81337
657.34	10920.91295
657.538	11353.92725
657.737	11455.50594
657.936	11524.56562
658.135	11130.36529
658.333	11280.77522
658.532	11183.21855
658.731	11420.97193
658.929	11414.8774
659.128	11384.40344
659.326	11345.79989
659.525	11490.03716
659.724	11317.35287
659.922	11593.61441
660.121	11079.53804
660.319	11475.81876
660.518	11211.67505
660.716	11364.08623
660.915	11315.32086
661.113	11492.06832
661.312	11199.47966
661.51	11473.78752
661.709	11463.63118
661.907	11471.75627
662.105	11362.05445
662.304	11557.06051
662.502	11286.87172
662.701	11305.16068
662.899	11154.76
663.097	11362.05445
663.296	11357.99087
663.494	11532.68957
663.692	11284.83956
663.891	11467.69374
664.089	11406.75123
664.287	11414.8774
664.485	11244.19426
664.684	11841.2919
664.882	11396.59329
665.08	11548.93702
665.278	11475.81876
665.476	11839.26228
665.675	11475.81876
665.873	11577.36861
666.071	11412.84587
666.269	11333.60855
666.467	11256.38828
666.665	11672.80435
666.863	11282.8074
667.061	11613.92085
667.259	11717.46956
667.457	12127.38649
667.655	11333.60855
667.853	11573.30706
668.051	11077.50481
668.249	11416.90892
668.447	11211.67505
668.645	11425.0349
668.843	11388.46676
669.041	11658.59179
669.239	11687.01648
669.437	11538.78243
669.635	11756.04063
669.833	11640.31784
670.031	11408.78279
670.229	11433.16072
670.426	11569.24548
670.624	11593.61441
670.822	11378.30838
671.02	11896.08841
671.218	11337.67237
671.415	11634.22636
671.613	11455.50594
671.811	11658.59179
672.009	11546.90612
672.206	11660.62218
672.404	11349.86359
672.602	11331.57663
672.799	11617.98202
672.997	11739.80056
673.195	11552.99878
673.392	11583.46085
673.59	11524.56562
673.788	11473.78752
673.985	11396.59329
674.183	11611.89024
674.38	11441.28639
674.578	11500.19287
674.775	11492.06832
674.973	11670.77401
675.17	11327.51275
675.368	11504.25509
675.565	11349.86359
675.763	11628.1348
675.96	11225.90253
676.158	11455.50594
676.355	11301.09654
676.553	11597.67577
676.75	11307.19274
676.947	11640.31784
677.145	11085.63766
677.342	11548.93702
677.539	11526.59662
677.737	11831.14373
677.934	11284.83956
678.131	11628.1348
678.329	11642.34832
678.526	11743.86063
678.723	11660.62218
678.92	11841.2919
679.118	11691.077
679.315	11731.68032
679.512	11585.49158
679.709	11532.68957
679.906	11101.90286
680.104	11471.75627
680.301	11238.09711
680.498	11475.81876
680.695	11463.63118
680.892	11776.33992
681.089	11345.79989
681.286	11538.78243
681.483	11227.93499
681.68	11343.76803
681.877	11437.22358
682.075	11534.72053
682.272	11258.42058
682.469	11650.47012
682.665	11327.51275
682.862	11500.19287
683.059	11490.03716
683.256	11490.03716
683.453	11154.76
683.65	11089.70403
683.847	11183.21855
684.044	11081.57126
684.241	11156.79282
684.438	11538.78243
684.635	11270.61417
684.831	11526.59662
685.028	11110.0352
685.225	11309.22479
685.422	11156.79282
685.619	11183.21855
685.815	10922.94704
686.012	11244.19426
686.209	10965.66023
686.405	11223.87007
686.602	11069.37178
686.799	10927.01518
686.996	11138.49703
687.192	11087.67085
687.389	11091.73719
687.586	11128.33233
687.782	11309.22479
687.979	11376.27667
688.175	10955.49087
688.372	11112.06826
688.568	11108.00213
688.765	11136.46411
688.962	10969.72789
689.158	11398.6249
689.355	11118.16736
689.551	11225.90253
689.748	11138.49703
689.944	11250.29132
690.14	11183.21855
690.337	11181.18587
690.533	11038.87136
690.73	10959.55865
690.926	11083.60447
691.123	11160.85843
691.319	10837.50558
691.515	11067.33849
691.712	10918.87886
691.908	11231.99987
692.104	11014.46924
692.301	11116.13434
692.497	11020.56992
692.693	11292.96813
692.889	11020.56992
693.086	11270.61417
693.282	11236.06471
693.478	11185.25123
693.674	10927.01518
693.87	10870.0571
694.067	11124.26638
694.263	10994.13293
694.459	11154.76
694.655	11049.03844
694.851	10918.87886
695.047	10973.79551
695.243	11020.56992
695.439	11097.83663
695.635	10868.02272
695.831	10829.36723
696.027	10935.15132
696.224	11091.73719
696.42	10865.98832
696.615	11110.0352
696.811	10890.4003
697.007	11012.43566
697.203	10792.74236
697.399	11130.36529
697.595	10902.60567
697.791	11097.83663
697.987	10914.81063
698.183	10983.96436
698.379	10914.81063
698.575	11177.12047
698.77	10831.40184
698.966	11032.77098
699.162	11118.16736
699.358	11124.26638
699.554	10809.02055
699.749	11028.704
699.945	10872.09147
700.141	10904.63986
700.337	10782.56811
700.532	10835.47101
700.728	10633.99
700.924	11158.82563
701.119	11034.80445
701.315	10870.0571
701.511	10528.1137
701.706	10969.72789
701.902	10583.09214
702.097	10772.39357
702.293	10695.05728
702.489	10652.31134
702.684	10621.77522
702.88	10825.29799
703.075	10424.24028
703.271	10591.23632
703.466	10369.23485
703.662	10804.95108
703.857	10709.30474
704.053	10849.71275
704.248	10678.77375
704.443	11101.90286
704.639	10800.88155
704.834	11034.80445
705.03	10587.16426
705.225	10829.36723
705.42	10619.73938
705.616	10849.71275
705.811	10444.61025
706.006	10638.06149
706.202	10501.63932
706.397	10585.12821
706.592	10458.86846
706.787	10823.26335
706.983	10528.1137
707.178	10658.41823
707.373	10511.82203
707.568	10843.60921
707.763	10493.49293
707.959	10878.19452
708.154	10731.69242
708.349	10804.95108
708.544	10760.18372
708.739	10739.83303
708.934	10497.56615
709.129	10680.80923
709.324	10336.63451
709.519	10621.77522
709.714	10715.41062
709.909	10792.74236
710.104	10495.52955
710.299	10633.99
710.494	10609.55999
710.689	10613.63178
710.884	10456.83161
711.079	10731.69242
711.274	10464.97893
711.469	10792.74236
711.664	10707.26943
711.859	10815.12468
712.054	10432.38842
712.249	10454.79475
712.443	10389.60834
712.638	10352.9351
712.833	10153.19353
713.028	10381.4591
713.223	10216.3912
713.417	10503.67589
713.612	10550.51343
713.807	10627.88266
714.002	10416.09193
714.196	10365.15999
714.391	10096.1003
714.586	10442.57331
714.78	10442.57331
714.975	10246.96599
715.17	10293.84141
715.364	10585.12821
715.559	10556.62218
715.754	10275.49971
715.948	10092.0218
716.143	10183.7747
716.337	10108.33549
716.532	10414.05481
716.726	10261.23318
716.921	10277.53773
717.115	10279.57573
717.31	10324.40851
717.504	10308.10643
717.699	10391.64562
717.893	10220.46801
718.088	10354.97262
718.282	10030.8374
718.476	10161.34881
718.671	10149.1158
718.865	10112.41377
719.059	9957.39914
719.254	9910.47043
719.448	9902.30812
719.642	10114.45289
719.837	9855.37029
720.031	10210.27587
720.225	10006.36005
720.419	10393.68288
720.614	10226.58314
720.808	10314.21981
721.002	9916.592
721.196	9928.83476
721.39	9990.04067
721.585	9992.08064
721.779	10020.63875
721.973	10130.76535
722.167	9900.26751
722.361	10032.87708
722.555	10006.36005
722.749	10051.23362
722.943	10016.55919
723.137	10051.23362
723.331	10073.66781
723.525	10401.83181
723.719	9875.77901
723.913	10291.8035
724.107	10100.17875
724.301	10161.34881
724.495	10065.51012
724.689	10116.492
724.883	9906.38931
725.077	9871.69738
725.271	10063.47066
725.465	9914.55149
725.659	9565.40322
725.853	9979.84059
726.046	9777.80359
726.24	9975.76046
726.434	9822.71326
726.628	10002.28029
726.822	9932.91556
727.015	10022.67851
727.209	9834.9601
727.403	10043.0753
727.596	9975.76046
727.79	9828.83675
727.984	9845.16538
728.177	10047.15449
728.371	9839.04225
728.565	9720.63525
728.758	9647.11547
728.952	9877.8198
729.146	9932.91556
729.339	10096.1003
729.533	9869.65655
729.726	10049.19406
729.92	9696.13087
730.113	9943.11731
730.307	9704.29924
730.5	9912.51097
730.694	10057.3522
730.887	9716.55134
731.081	9834.9601
731.274	9877.8198
731.468	9553.14421
731.661	9653.24288
731.854	9528.62449
732.048	9851.28837
732.241	9620.56173
732.435	10092.0218
732.628	9867.6157
732.821	9914.55149
733.014	9830.87788
733.208	9653.24288
733.401	9761.47099
733.594	9985.96068
733.788	9883.94208
733.981	9965.55987
734.174	9918.6325
734.367	9998.20047
734.56	10032.87708
734.754	10149.1158
734.947	9888.02352
735.14	10098.13954
735.333	9765.55423
735.526	9843.12435
735.719	9859.45215
735.912	9796.17661
736.105	9649.15795
736.298	9779.8451
736.491	9888.02352
736.684	9839.04225
736.877	9961.47954
737.07	9665.49728
737.263	9859.45215
737.456	9734.92845
737.649	9806.38331
737.842	10028.7977
738.035	9830.87788
738.228	9837.00118
738.421	9581.74767
738.614	9622.60442
738.807	9820.67207
739	9753.30433
739.192	9638.94536
739.385	9714.50936
739.578	9653.24288
739.771	9720.63525
739.964	9690.00443
740.156	9879.86057
740.349	9806.38331
740.542	9877.8198
740.735	9802.30068
740.927	9785.96953
741.12	9551.10099
741.313	9757.38769
741.505	9438.69918
741.698	9720.63525
741.891	9818.63086
742.083	9632.81763
742.276	9820.67207
742.468	9773.72053
742.661	9344.65285
742.854	9667.53963
743.046	9567.44633
743.239	9712.46737
743.431	9687.96225
743.624	9428.47843
743.816	9540.88464
744.009	9706.34129
744.201	9379.41313
744.393	9383.50227
744.586	9581.74767
744.778	9837.00118
744.971	9663.45492
745.163	9632.81763
745.355	9547.0145
745.548	9361.01122
745.74	9426.43423
745.932	9540.88464
746.125	9477.53438
746.317	9871.69738
746.509	9785.96953
746.702	9773.72053
746.894	9585.83363
747.086	9377.36854
747.278	9514.32027
747.471	9248.52601
747.663	9285.34489
747.855	9440.74329
748.047	9007.02143
748.239	9297.61665
748.431	9205.56377
748.623	9410.08004
748.815	9266.93613
749.008	9442.78737
749.2	9332.38338
749.392	9338.51819
749.584	9058.20768
749.776	9187.14911
749.968	9397.81372
750.16	9258.75402
750.352	9183.05677
750.544	9248.52601
750.736	9168.73306
750.928	9320.11332
751.12	9131.89684
751.311	9367.14534
751.503	9704.29924
751.695	9350.78736
751.887	8880.03204
752.079	9375.32394
752.271	8972.20853
752.463	9035.68708
752.654	9017.25955
752.846	9307.84265
753.038	8880.03204
753.23	9344.65285
753.421	9289.43554
753.613	9123.71026
753.805	9056.16044
753.997	8992.68732
754.188	9068.44363
754.38	8988.5917
754.572	8914.8585
754.763	8927.14897
754.955	8527.37397
755.146	9017.25955
755.338	8828.80725
755.53	8904.61596
755.721	9320.11332
755.913	9107.33627
756.104	9140.08314
756.296	9140.08314
756.487	9004.97375
756.679	9074.58499
756.87	8875.93447
757.062	8783.72009
757.253	8798.06696
757.445	8584.82082
757.636	8716.07282
757.827	8814.46229
758.019	8986.54387
758.21	8886.17827
758.401	8644.30382
758.593	8736.5741
758.784	8822.65952
758.975	8771.42207
759.167	8558.15091
759.358	9097.10197
759.549	8798.06696
759.74	8849.29852
759.932	8525.32202
760.123	8716.07282
760.314	8471.96473
760.505	8558.15091
760.696	8631.99828
760.888	8644.30382
761.079	8537.63342
761.27	8597.12894
761.461	8500.69718
761.652	8527.37397
761.843	8352.89024
762.034	8461.70223
762.225	8363.15784
762.416	8508.90576
762.607	8527.37397
762.798	8865.69023
762.989	8469.91227
763.18	8732.47399
763.371	8398.06406
763.562	8689.41841
763.753	8816.51162
763.944	8855.44555
764.135	8537.63342
764.326	8722.2234
764.517	8820.61024
764.708	8646.35468
764.899	8455.54451
765.089	8402.17031
765.28	8527.37397
765.471	8422.70038
765.662	8213.20234
765.853	8258.40542
766.043	7958.24031
766.234	8194.70741
766.425	8157.71271
766.615	8412.43559
766.806	8207.03754
766.997	8416.54156
767.187	8159.76814
767.378	8414.48858
767.569	8159.76814
767.759	8081.64772
767.95	8287.16606
768.141	8367.26475
768.331	8334.40733
768.522	8167.98967
768.712	8081.64772
768.903	8221.42179
769.093	7900.62503
769.284	7966.46975
769.474	8114.54406
769.665	8159.76814
769.855	7880.04424
770.046	8139.21295
770.236	7795.64131
770.426	7941.78045
770.617	7995.27022
770.807	8087.81618
770.998	8001.44123
771.188	7904.74094
771.378	8083.7039
771.569	7995.27022
771.759	7964.41242
771.949	7923.26153
772.139	7993.21318
772.33	7875.92783
772.52	7601.99918
772.71	7719.4427
772.9	7434.9864
773.09	7674.12178
773.281	7696.78352
773.471	7707.08346
773.661	7688.54318
773.851	7729.74149
774.041	7529.85047
774.231	7476.23726
774.421	7643.21528
774.611	7552.52861
774.802	7546.34392
774.992	7408.16869
775.182	7484.4864
775.372	7571.08151
775.562	7513.35565
775.752	7569.02017
775.942	7342.14021
776.131	7618.48664
776.321	7389.60044
776.511	7630.85134
776.701	7420.54655
776.891	7228.60133
777.081	7077.80096
777.271	7422.60945
777.461	7278.15375
777.651	7558.7131
777.84	7401.97947
778.03	7587.57154
778.22	7492.73518
778.41	7707.08346
778.599	7447.36257
778.789	7331.82123
778.979	7207.95074
779.169	7286.41125
779.358	7261.63769
779.548	7348.33133
779.738	7218.27631
779.927	7395.79005
780.117	7282.28254
780.307	7236.86095
780.496	7437.04915
780.686	7290.53987
780.875	7121.19404
781.065	7323.56566
781.254	7174.90519
781.444	7154.24883
781.633	7079.86752
781.823	7009.59188
782.012	6922.7449
782.202	7263.70227
782.391	6877.23771
782.581	7117.06179
782.77	7063.3344
782.96	7282.28254
783.149	6860.68691
783.338	7094.33282
783.528	7249.24972
783.717	7150.1173
783.906	7057.13412
784.096	6957.90204
784.285	6765.49159
784.474	6773.77136
784.663	6751.00111
784.853	6893.78705
785.042	6719.9463
785.231	6717.8758
785.42	6804.81724
785.61	6786.19033
785.799	6618.4646
785.988	6941.35832
786.177	6661.96352
786.366	6906.1981
786.555	6670.24788
786.744	6593.60351
786.933	6355.18223
787.122	6740.65008
787.312	6624.67935
787.501	6639.17964
787.69	6560.45022
787.879	6860.68691
788.068	6690.95716
788.257	6670.24788
788.445	6568.7391
788.634	6647.46501
788.823	6672.31891
789.012	6835.858
789.201	6421.5564
789.39	6475.46787
789.579	6357.25678
789.768	6628.82241
789.957	6504.49061
790.145	6589.45968
790.334	6475.46787
790.523	6730.29847
790.712	6355.18223
790.9	6429.8515
791.089	6176.68307
791.278	6473.39464
791.467	6454.73455
791.655	6703.38163
791.844	6338.58495
792.033	6342.73441
792.221	6369.70362
792.41	6554.23332
792.599	6116.4524
792.787	6421.5564
792.976	6380.07534
793.164	6297.08523
793.353	6340.6597
793.541	6487.90675
793.73	6319.91123
793.918	6438.14622
794.107	6093.60111
794.295	6444.36702
794.484	6106.0658
794.672	6174.60648
794.861	5939.80024
795.049	6139.30084
795.238	5891.97098
795.426	6288.78416
795.614	6141.37783
795.803	6446.44057
795.991	6083.21322
796.179	6386.2981
796.368	5954.3545
796.556	6016.7168
796.744	5867.01163
796.932	5919.00644
797.121	5800.43674
797.309	5738.00084
797.497	5819.16337
797.685	6049.96802
797.874	5923.16539
798.062	6047.89
798.25	5556.81662
798.438	5894.05077
798.626	5906.52903
798.814	6151.76243
799.002	6000.08893
799.19	5956.43358
799.378	5765.05901
799.566	5956.43358
799.755	5785.87027
799.943	5815.00206
800.131	5760.89647
800.318	5663.04972
800.506	5742.16389
800.694	5993.85309
800.882	5819.16337
801.07	6089.44603
801.258	5887.81132
801.446	5787.95126
801.634	5713.02053
801.822	6093.60111
802.01	5869.0917
802.197	5808.75993
802.385	5852.45044
802.573	6085.29085
802.761	5815.00206
802.949	6010.48152
803.136	5935.64167
803.324	5935.64167
803.512	5823.32459
803.699	5946.03792
803.887	5829.56623
804.075	6027.10846
804.262	5912.76784
804.45	5823.32459
804.638	5733.83769
804.825	5821.24399
805.013	5640.14188
805.201	6064.51354
805.388	5881.57166
805.576	6014.6384
805.763	5794.19411
805.951	5958.51265
806.138	5983.45955
806.326	5925.24483
806.513	5725.51111
806.701	6022.95186
806.888	6139.30084
807.075	6367.62921
807.263	5989.69574
807.45	5998.01034
807.638	5900.29001
807.825	6022.95186
808.012	5808.75993
808.2	5898.21029
808.387	5731.75608
808.574	6068.66919
808.761	6097.7561
808.949	6058.27989
809.136	5733.83769
809.323	6097.7561
809.51	5837.88809
809.698	6008.40305
809.885	5858.69109
810.072	6089.44603
810.259	5958.51265
810.446	6070.74698
810.633	6039.57766
810.82	5977.22314
811.008	5767.14024
811.195	5983.45955
811.382	5735.91928
811.569	5983.45955
811.756	5756.73384
811.943	6062.43568
812.13	6135.14679
812.317	6141.37783
812.504	5981.38077
812.691	6284.63348
812.878	5873.25178
813.064	6222.36213
813.251	6008.40305
813.438	6187.06567
813.625	5910.68826
813.812	6243.12159
813.999	5956.43358
814.186	5987.61703
814.372	5856.61089
814.559	5987.61703
814.746	5681.79036
814.933	5919.00644
815.12	5873.25178
815.306	5929.40364
815.493	5962.6707
815.68	5831.64673
815.866	6081.13557
816.053	5900.29001
816.24	5891.97098
816.426	6114.37513
816.613	6106.0658
816.799	6027.10846
816.986	5750.48972
817.173	5864.93153
817.359	5669.29681
817.546	5681.79036
817.732	5613.06531
817.919	6047.89
818.105	5652.63742
818.292	5891.97098
818.478	5694.28307
818.665	5831.64673
818.851	5842.04888
819.037	5964.74969
819.224	5844.12924
819.41	5906.52903
819.597	5775.46493
819.783	5991.77442
819.969	5690.11893
820.156	5937.72097
820.342	5740.08238
820.528	5873.25178
820.714	5696.3651
820.901	5752.57112
821.087	5575.5681
821.273	5906.52903
821.459	5621.39699
821.646	6047.89
821.832	5629.72829
822.018	5692.20101
822.204	5692.20101
822.39	5760.89647
822.576	5508.88752
822.762	5706.77492
822.948	5596.40083
823.134	5702.61106
823.32	5496.38223
823.507	5742.16389
823.693	5544.31458
823.879	5998.01034
824.065	5533.89557
824.25	5681.79036
824.436	5392.13853
824.622	5750.48972
824.808	5698.44711
824.994	5560.98378
825.18	5317.04672
825.366	5700.5291
825.552	5233.57577
825.738	5640.14188
825.923	5223.13927
826.109	5833.72721
826.295	5477.6227
826.481	5794.19411
826.667	5640.14188
826.852	5844.12924
827.038	5508.88752
827.224	5610.98233
827.409	5435.92804
827.595	5390.05306
827.781	5452.60704
827.966	5394.22398
828.152	5289.92276
828.338	5467.19992
828.523	5083.23401
828.709	5438.013
828.894	5164.6841
829.08	5314.9604
829.266	5039.36166
829.451	5350.42461
829.637	5317.04672
829.822	5269.05549
830.008	4995.47911
830.193	5191.82627
830.378	4930.68153
830.564	5227.31394
830.749	5281.57613
830.935	5485.96051
831.12	5258.62098
831.305	5410.90673
831.491	5091.58949
831.676	5323.30553
831.861	4941.13424
832.047	5118.74224
832.232	4951.58639
832.417	5160.50804
832.602	4930.68153
832.788	5125.0077
832.973	5093.67831
833.158	5058.16535
833.343	4821.93931
833.528	5014.28716
833.714	4970.3988
833.899	5162.59608
834.084	4752.89785
834.269	4934.86268
834.454	4646.14897
834.639	4767.54508
834.824	4591.70549
835.009	4765.45268
835.194	4909.77437
835.379	4884.68275
835.564	4646.14897
835.749	4911.86519
835.934	4807.29622
836.119	4675.45842
836.304	4235.36175
836.489	4811.48007
836.674	4463.91371
836.859	4803.11228
837.044	4738.24952
837.228	4993.38921
837.413	4794.74411
837.598	4993.38921
837.783	4570.76167
837.968	4579.13947
838.152	4401.03522
838.337	4535.15208
838.522	4463.91371
838.707	4696.39104
838.891	4352.81508
839.076	4463.91371
839.261	4461.81808
839.445	4637.77404
839.63	4394.74629
839.815	4681.73844
839.999	4361.20202
840.184	4501.63132
840.368	4486.96421
840.553	4662.89777
840.737	4566.57264
840.922	4570.76167
841.106	4480.67798
841.291	4438.76468
841.475	4411.51634
841.66	4453.43533
841.844	4357.00859
842.029	4587.51691
842.213	4250.04709
842.397	4486.96421
842.582	4344.4278
842.766	4390.55356
842.951	4216.47906
843.135	4463.91371
843.319	4294.09684
843.504	4388.45716
843.688	4210.18445
843.872	4359.10532
844.056	4273.12195
844.241	4289.90203
844.425	4296.19421
844.609	4281.51216
844.793	4134.63425
844.977	4279.41464
845.161	3886.80887
845.346	4004.45651
845.53	3968.74878
845.714	4294.09684
845.898	3985.55315
846.082	4151.42554
846.266	3996.05522
846.45	4235.36175
846.634	4071.65498
846.818	4252.14492
847.002	4086.35182
847.186	4216.47906
847.37	3928.83317
847.554	4077.95375
847.738	3983.45268
847.922	4153.52436
848.106	4035.95842
848.29	4067.45569
848.473	3914.12558
848.657	4048.55789
848.841	3668.15502
849.025	3933.03516
849.209	3806.94069
849.392	3907.82203
849.576	3991.85446
849.76	3996.05522
849.944	3718.63229
850.127	3733.35274
850.311	3886.80887
850.495	3783.81563
850.678	3539.80959
850.862	4008.65703
851.046	3739.66121
851.229	3840.57289
851.413	3539.80959
851.596	3886.80887
851.78	3651.32682
851.964	3840.57289
852.147	3598.7309
852.331	3745.96951
852.514	3529.2864
852.698	3586.10613
852.881	3335.57927
853.065	3579.79349
853.248	3464.03244
853.431	3676.56867
853.615	3310.30213
853.798	3413.50134
853.982	3506.13377
854.165	3760.68819
854.348	3333.47294
854.532	3672.36188
854.715	3322.94101
854.898	3396.65536
855.081	3348.21691
855.265	3706.01401
855.448	3358.74779
855.631	3560.85458
855.814	3453.50598
855.997	3674.46528
856.181	3455.61131
856.364	3651.32682
856.547	3310.30213
856.73	3615.56287
856.913	3373.4903
857.096	3634.49741
857.279	3472.45328
857.462	3310.30213
857.645	3192.30987
857.828	3516.65797
858.011	3179.66474
858.194	3285.02253
858.377	3226.0273
858.56	3466.13768
858.743	3226.0273
858.926	3270.27496
859.109	3015.22559
859.292	3158.58822
859.475	3051.07305
859.658	3177.55716
859.841	2973.04647
860.023	3297.66264
860.206	2880.23148
860.389	3198.63221
860.572	2947.73612
860.755	3011.00796
860.937	2989.91885
861.12	3192.30987
861.303	3116.43034
861.486	3200.73962
861.668	2913.98566
861.851	2846.47363
862.034	2698.74153
862.216	3078.48278
862.399	2827.48325
862.581	2768.39491
862.764	2694.51966
862.947	3036.31287
863.129	2584.73317
863.312	2865.46287
863.494	2616.40579
863.677	3036.31287
863.859	2884.45095
864.042	2871.79236
864.224	2728.29321
864.406	2721.96092
864.589	2498.14773
864.771	2778.94718
864.954	2538.27512
865.136	2681.85372
865.318	2356.61426
865.501	2620.6286
865.683	2660.74281
865.865	2542.49882
866.048	2635.40804
866.23	2578.39832
866.412	2595.29102
866.594	2534.05138
866.777	2462.24082
866.959	2726.18246
867.141	2367.17808
867.323	2373.51625
867.505	2553.05785
867.687	2656.52047
867.869	2523.49183
868.052	2599.51407
868.234	2405.20573
868.416	2664.96509
868.598	2436.89286
868.78	2686.07575
868.962	2618.5172
869.144	2660.74281
869.326	2381.96701
869.508	2550.94607
869.69	2525.60376
869.872	2483.36292
870.054	2441.11763
870.236	2631.18541
870.417	2339.71162
870.599	2586.84477
870.781	2477.02641
870.963	2441.11763
871.145	2407.31828
871.327	2390.4176
871.508	2305.90447
871.69	2544.61065
871.872	2303.79144
872.054	2548.83427
872.235	2229.82958
872.417	2468.57757
872.599	2189.67429
872.78	2544.61065
872.962	2288.99998
873.144	2616.40579
873.325	2375.62896
873.507	2517.15596
873.689	2464.35308
873.87	2409.43082
874.052	2130.49256
874.233	2308.01749
874.415	2119.92374
874.596	2434.78046
874.778	2348.16302
874.959	2381.96701
875.141	2318.58244
875.322	2477.02641
875.503	2166.42508
875.685	2567.84
875.866	2400.9806
876.048	2343.93734
876.229	2064.96281
876.41	2398.86802
876.592	2348.16302
876.773	2599.51407
876.954	2196.0148
877.136	2390.4176
877.317	2212.92247
877.498	2348.16302
877.679	2172.76588
877.86	2392.53022
878.042	2221.3761
878.223	2523.49183
878.404	2221.3761
878.585	2462.24082
878.766	2356.61426
878.947	2624.85136
879.128	2297.4523
879.309	2468.57757
879.49	2297.4523
879.672	2517.15596
879.853	2113.58235
880.034	2286.88687
880.215	2187.56076
880.396	2417.88087
880.576	2170.65229
880.757	2643.85316
880.938	2185.44723
881.119	2652.29809
881.3	2212.92247
881.481	2405.20573
881.662	2400.9806
881.843	2411.54335
882.023	2504.48391
882.204	2553.05785
882.385	2365.06534
882.566	2362.95258
882.747	2138.94748
882.927	2629.07407
883.108	2288.99998
883.289	2324.9213
883.469	2250.96268
883.65	2403.09317
883.831	2229.82958
884.011	2686.07575
884.192	2411.54335
884.373	2515.04398
884.553	2299.56536
884.734	2610.07149
884.914	2360.83982
885.095	2396.75543
885.275	2318.58244
885.456	2639.63063
885.636	2358.72704
885.817	2588.95635
885.997	2398.86802
886.178	2694.51966
886.358	2265.75532
886.538	2483.36292
886.719	2348.16302
886.899	2743.06808
887.08	2534.05138
887.26	2504.48391
887.44	2441.11763
887.621	2548.83427
887.801	2373.51625
887.981	2572.06336
888.161	2506.59595
888.342	2588.95635
888.522	2527.71569
888.702	2574.17503
888.882	2415.76837
889.062	2474.91422
889.242	2339.71162
889.423	2447.4547
889.603	2113.58235
889.783	2529.8276
889.963	2310.1305
890.143	2686.07575
890.323	2358.72704
890.503	2472.80201
890.683	2365.06534
890.863	2474.91422
891.043	2293.22616
891.223	2510.81999
891.403	2263.64211
891.583	2274.20805
891.763	2185.44723
891.943	2398.86802
892.122	2183.33369
892.302	2384.07967
892.482	2204.4687
892.662	2250.96268
892.842	2151.62962
893.022	2212.92247
893.201	2103.01322
893.381	2255.1892
893.561	1974.05546
893.741	2333.37297
893.92	2314.35649
894.1	2396.75543
894.28	2316.46947
894.459	2439.00525
894.639	2274.20805
894.819	2470.6898
894.998	2229.82958
895.178	2381.96701
895.357	2130.49256
895.537	2052.27882
895.716	2026.91008
895.896	2234.05627
896.075	2041.70863
896.255	2181.22015
896.434	2096.67165
896.614	2259.41567
896.793	1950.79818
896.973	2276.32121
897.152	2255.1892
897.331	2288.99998
897.511	1986.74094
897.69	2229.82958
897.87	2067.07678
898.049	2272.09488
898.228	1986.74094
898.407	2170.65229
898.587	1883.13667
898.766	2111.46854
898.945	1828.15774
899.124	2056.50684
899.304	1967.71264
899.483	2096.67165
899.662	1876.79312
899.841	2081.8744
900.02	1781.63467
900.199	1995.19779
900.378	1728.76519
900.557	1868.33498
900.737	1688.58293
900.916	1885.25118
901.095	1551.11032
901.274	1809.12583
901.453	1443.24311
901.632	1697.04245
901.811	1445.35816
901.989	1635.70994
902.168	1616.67529
902.347	1777.4052
902.526	1439.01301
902.705	1690.69781
902.884	1673.77866
903.063	1705.50191
903.242	1606.10041
903.42	1701.27219
903.599	1629.36507
903.778	1747.79847
903.957	1523.61493
904.135	1650.51454
904.314	1485.54414
904.493	1519.38485
904.672	1485.54414
904.85	1496.11938
905.029	1240.2028
905.207	1345.95129
905.386	1405.17222
905.565	1360.75644
905.743	1240.2028
905.922	1487.65919
906.1	1320.5712
906.279	1403.05717
906.457	1248.66247
906.636	1329.0312
906.814	1174.64211
906.993	1265.58192
907.171	1054.10521
907.35	1295.19135
907.528	1068.90714
907.707	1318.4562
907.885	1096.3971
908.063	1151.37947
908.242	1056.21976
908.42	1026.61666
908.598	901.87466
908.777	1049.87614
908.955	997.01474
909.133	1062.56342
909.311	937.81475
909.49	1079.4801
909.668	901.87466
909.846	1077.36549
910.024	944.15735
910.202	1113.31442
910.38	1062.56342
910.559	1153.49423
910.737	969.52836
910.915	1197.90521
911.093	999.12912
911.271	1159.83855
911.449	1081.5947
911.627	1136.57623
911.805	1056.21976
911.983	1231.74319
912.161	1020.27329
912.339	1252.89232
912.517	1123.8879
912.695	1202.13491
912.872	1085.82394
913.05	1142.92045
913.228	982.21424
913.406	1100.6264
913.584	1016.04441
913.762	1147.14995
913.939	1011.81555
914.117	1132.34677
914.295	1060.44886
914.473	1166.18291
914.65	1081.5947
914.828	1180.98655
915.006	990.67163
915.184	1271.92676
915.361	1079.4801
915.539	1176.75692
915.716	920.90149
915.894	1071.02172
916.072	977.98559
916.249	1130.23204
916.427	1035.07458
916.604	1087.93856
916.782	914.55914
916.959	948.38578
917.137	1013.92998
917.314	1032.96009
917.492	889.19045
917.669	1001.24351
917.847	766.59256
918.024	994.90036
918.201	859.59512
918.379	982.21424
918.556	851.13962
918.733	908.21687
918.911	859.59512
919.088	961.07124
919.265	838.45662
919.442	946.27156
919.62	825.77394
919.797	1037.18907
919.974	961.07124
920.151	980.09991
920.328	834.22902
920.506	935.70057
920.683	800.40958
920.86	884.96245
921.037	671.49644
921.214	914.55914
921.391	637.69
921.568	855.36735
921.745	741.23147
921.922	971.64266
922.099	715.8719
922.276	954.72848
922.453	743.34484
922.63	791.95509
922.807	777.16011
922.984	791.95509
923.161	756.02526
923.338	889.19045
923.514	749.685
923.691	726.4382
923.868	669.38345
924.045	787.7279
924.222	758.1387
924.399	783.50075
924.575	694.74011
924.752	783.50075
924.929	656.70575
925.105	802.52322
925.282	610.22455
925.459	817.319
925.635	658.81867
925.812	874.39258
925.989	720.09839
926.165	707.41905
926.342	703.19269
926.518	705.30587
926.695	591.21126
926.871	572.19902
927.048	494.04922
927.224	677.83549
927.401	529.9535
927.577	565.86185
927.754	534.1778
927.93	580.64877
928.107	525.72925
928.283	622.90065
928.459	525.72925
928.636	572.19902
928.812	449.70275
928.988	496.16112
929.165	555.30016
929.341	546.85105
929.517	487.7136
929.693	551.07558
929.87	411.69691
930.046	439.14506
930.222	428.58776
930.398	432.81063
930.574	453.92593
930.751	538.40216
930.927	363.14154
931.103	445.47962
931.279	430.69919
931.455	403.25187
931.631	327.25857
931.807	390.5848
931.983	270.27857
932.159	361.03064
932.335	339.92257
932.511	327.25857
932.687	344.14405
932.863	458.14918
933.039	356.80889
933.215	358.91976
933.391	361.03064
933.566	422.25357
933.742	327.25857
933.918	369.47435
934.094	253.3982
934.27	318.81625
934.445	278.71921
934.621	297.71172
934.797	232.29947
934.973	268.16846
935.148	272.3887
935.324	266.05836
935.5	128.94464
935.675	209.09311
935.851	145.81549
936.027	238.62888
936.202	251.28824
936.378	272.3887
936.553	221.75083
936.729	116.2924
936.904	211.20268
937.08	200.65503
937.255	169.01513
937.431	169.01513
937.606	48.82725
937.782	150.03342
937.957	219.64116
938.133	154.25143
938.308	152.14241
938.483	128.94464
938.659	42.50359
938.834	82.55695
939.009	86.77357
939.185	31.96461
939.36	181.67054
939.535	23.53386
939.71	126.83588
939.886	74.12398
940.061	63.58328
940.236	25.64151
940.411	116.2924
940.586	69.90763
940.761	40.39575
940.937	150.03342
941.112	-8.0781
941.287	17.21104
941.462	82.55695
941.637	90.99028
941.812	69.90763
941.987	76.23219
942.162	90.99028
942.337	53.04315
942.512	44.61145
942.687	40.39575
942.862	25.64151
943.037	107.85801
943.212	53.04315
943.386	80.44868
943.561	90.99028
943.736	99.42397
943.911	114.18377
944.086	90.99028
944.26	82.55695
944.435	69.90763
944.61	27.74919
944.785	44.61145
944.959	97.31551
945.134	107.85801
945.309	17.21104
945.483	135.27105
945.658	-52.32561
945.833	137.37989
946.007	34.07236
946.182	90.99028
946.357	69.90763
946.531	44.61145
946.706	65.69137
946.88	40.39575
947.055	124.72714
947.229	84.66525
947.404	-35.47071
947.578	107.85801
947.752	107.85801
947.927	86.77357
948.101	-18.61421
948.276	145.81549
948.45	46.71934
948.624	23.53386
948.799	50.93519
948.973	101.53244
949.147	103.64094
949.321	76.23219
949.496	74.12398
949.67	2.45862
949.844	105.74946
950.018	31.96461
950.193	103.64094
950.367	0.35123
950.541	97.31551
950.715	36.18013
950.889	53.04315
951.063	42.50359
951.237	78.34042
951.411	40.39575
951.585	19.31862
951.759	44.61145
951.933	131.05342
952.107	50.93519
952.281	84.66525
952.455	61.47521
952.629	40.39575
952.803	118.40105
952.977	6.67348
953.151	118.40105
953.325	36.18013
953.499	84.66525
953.672	88.88192
953.846	82.55695
954.02	25.64151
954.194	44.61145
954.368	59.36716
954.541	78.34042
954.715	23.53386
954.889	82.55695
955.062	27.74919
955.236	95.20708
955.41	120.50972
955.583	59.36716
955.757	103.64094
955.93	53.04315
956.104	29.85689
956.278	116.2924
956.451	65.69137
956.625	17.21104
956.798	34.07236
956.972	69.90763
957.145	65.69137
957.319	17.21104
957.492	78.34042
957.665	74.12398
957.839	48.82725
958.012	78.34042
958.185	21.42623
958.359	-27.04265
958.532	109.96657
958.705	48.82725
958.879	107.85801
959.052	95.20708
959.225	38.28793
959.398	116.2924
959.572	48.82725
959.745	133.16222
959.918	76.23219
960.091	23.53386
960.264	74.12398
960.438	59.36716
960.611	107.85801
960.784	55.15113
960.957	74.12398
961.13	116.2924
961.303	-27.04265
961.476	76.23219
961.649	8.78094
961.822	40.39575
961.995	36.18013
962.168	8.78094
962.341	65.69137
962.514	101.53244
962.686	-1.75614
962.859	74.12398
963.032	93.09867
963.205	82.55695
963.378	31.96461
963.551	21.42623
963.723	38.28793
963.896	4.56604
964.069	86.77357
964.242	82.55695
964.414	99.42397
964.587	8.78094
964.76	78.34042
964.932	84.66525
965.105	25.64151
965.278	42.50359
965.45	53.04315
965.623	19.31862
965.795	82.55695
965.968	25.64151
966.14	34.07236
966.313	57.25913
966.485	-8.0781
966.658	95.20708
966.83	131.05342
967.003	36.18013
967.175	48.82725
967.348	78.34042
967.52	78.34042
967.692	42.50359
967.865	141.59765
968.037	84.66525
968.209	90.99028
968.382	101.53244
968.554	-10.18537
968.726	86.77357
968.898	82.55695
969.071	67.79949
969.243	80.44868
969.415	84.66525
969.587	-18.61421
969.759	36.18013
969.932	15.10348
970.104	50.93519
970.276	61.47521
970.448	65.69137
970.62	90.99028
970.792	-1.75614
970.964	84.66525
971.136	57.25913
971.308	42.50359
971.48	31.96461
971.652	44.61145
971.824	12.99594
971.996	34.07236
972.168	50.93519
972.339	-18.61421
972.511	57.25913
972.683	21.42623
972.855	15.10348
973.027	48.82725
973.199	40.39575
973.37	78.34042
973.542	46.71934
973.714	2.45862
973.886	65.69137
974.057	-1.75614
974.229	42.50359
974.401	6.67348
974.572	15.10348
974.744	-27.04265
974.915	76.23219
975.087	48.82725
975.259	78.34042
975.43	40.39575
975.602	31.96461
975.773	34.07236
975.945	31.96461
976.116	25.64151
976.288	31.96461
976.459	25.64151
976.63	90.99028
976.802	50.93519
976.973	42.50359
977.145	8.78094
977.316	-5.9708
977.487	61.47521
977.659	15.10348
977.83	99.42397
978.001	48.82725
978.172	76.23219
978.344	8.78094
978.515	84.66525
978.686	12.99594
978.857	48.82725
979.028	17.21104
979.2	-10.18537
979.371	59.36716
979.542	23.53386
979.713	25.64151
979.884	23.53386
980.055	25.64151
980.226	19.31862
980.397	103.64094
980.568	-16.50703
980.739	-12.29261
980.91	50.93519
981.081	48.82725
981.252	23.53386
981.423	65.69137
981.594	40.39575
981.765	38.28793
981.936	48.82725
982.106	99.42397
982.277	90.99028
982.448	6.67348
982.619	-64.96574
982.79	55.15113
982.96	8.78094
983.131	15.10348
983.302	53.04315
983.472	15.10348
983.643	10.88843
983.814	17.21104
983.984	38.28793
984.155	19.31862
984.326	-35.47071
984.496	17.21104
984.667	34.07236
984.837	17.21104
985.008	31.96461
985.178	84.66525
985.349	-16.50703
985.519	4.56604
985.69	-43.89836
985.86	40.39575
986.031	-12.29261
986.201	46.71934
986.371	-18.61421
986.542	15.10348
986.712	57.25913
986.882	65.69137
987.053	34.07236
987.223	99.42397
987.393	-10.18537
987.563	50.93519
987.734	27.74919
987.904	17.21104
988.074	57.25913
988.244	12.99594
988.414	15.10348
988.585	48.82725
988.755	15.10348
988.925	53.04315
989.095	57.25913
989.265	-37.57766
989.435	40.39575
989.605	6.67348
989.775	65.69137
989.945	-10.18537
990.115	29.85689
990.285	29.85689
990.455	31.96461
990.625	-64.96574
990.795	65.69137
990.965	-1.75614
991.134	-10.18537
991.304	-5.9708
991.474	42.50359
991.644	27.74919
991.814	38.28793
991.984	-33.36373
992.153	8.78094
992.323	38.28793
992.493	50.93519
992.662	-1.75614
992.832	25.64151
993.002	10.88843
993.171	-10.18537
993.341	50.93519
993.511	15.10348
993.68	-27.04265
993.85	-1.75614
994.019	19.31862
994.189	93.09867
994.358	23.53386
994.528	8.78094
994.697	31.96461
994.867	-22.82848
995.036	34.07236
995.206	40.39575
995.375	19.31862
995.544	82.55695
995.714	-27.04265
995.883	67.79949
996.052	-18.61421
996.222	34.07236
996.391	50.93519
996.56	74.12398
996.73	29.85689
996.899	82.55695
997.068	2.45862
997.237	65.69137
997.406	48.82725
997.576	-18.61421
997.745	-18.61421
997.914	59.36716
998.083	10.88843
998.252	-39.68458
998.421	40.39575
998.59	-24.93558
998.759	-1.75614
998.928	-58.64579
999.097	-20.72135
999.266	-1.75614
999.435	8.78094
999.604	-43.89836
999.773	19.31862
999.942	17.21104
1000.111	34.07236
1000.28	67.79949
1000.448	6.67348
1000.617	-10.18537
1000.786	-10.18537
1000.955	-52.32561
1001.124	-60.75247
1001.292	15.10348
1001.461	27.74919
1001.63	-1.75614
1001.798	40.39575
1001.967	8.78094
1002.136	4.56604
1002.304	25.64151
1002.473	-14.39983
1002.642	0.35123
1002.81	23.53386
1002.979	12.99594
1003.147	36.18013
1003.316	36.18013
1003.484	-20.72135
1003.653	25.64151
1003.821	-3.86348
1003.99	-43.89836
1004.158	-52.32561
1004.327	-27.04265
1004.495	76.23219
1004.663	-1.75614
1004.832	25.64151
1005	31.96461
1005.168	40.39575
1005.337	10.88843
1005.505	-5.9708
1005.673	48.82725
1005.842	6.67348
1006.01	25.64151
1006.178	15.10348
1006.346	10.88843
1006.514	2.45862
1006.683	36.18013
1006.851	27.74919
1007.019	40.39575
1007.187	8.78094
1007.355	38.28793
1007.523	8.78094
1007.691	48.82725
1007.859	10.88843
1008.027	19.31862
1008.195	-1.75614
1008.363	99.42397
1008.531	6.67348
1008.699	23.53386
1008.867	-54.43236
1009.035	-52.32561
1009.203	-52.32561
1009.37	8.78094
1009.538	25.64151
1009.706	31.96461
1009.874	-1.75614
1010.042	38.28793
1010.209	-41.79148
1010.377	38.28793
1010.545	-71.28546
1010.713	-16.50703
1010.88	36.18013
1011.048	25.64151
1011.216	-18.61421
1011.383	78.34042
1011.551	23.53386
1011.718	57.25913
1011.886	50.93519
1012.054	50.93519
1012.221	31.96461
1012.389	0.35123
1012.556	15.10348
1012.724	21.42623
1012.891	-52.32561
1013.058	50.93519
1013.226	-37.57766
1013.393	10.88843
1013.561	8.78094
1013.728	-1.75614
1013.895	23.53386
1014.063	8.78094
1014.23	21.42623
1014.397	-52.32561
1014.565	-1.75614
1014.732	-50.21884
1014.899	34.07236
1015.066	-33.36373
1015.233	84.66525
1015.401	-35.47071
1015.568	-1.75614
1015.735	50.93519
1015.902	-67.07234
1016.069	27.74919
1016.236	40.39575
1016.403	-1.75614
1016.57	-35.47071
1016.737	-1.75614
1016.904	57.25913
1017.071	2.45862
1017.238	2.45862
1017.405	36.18013
1017.572	44.61145
1017.739	-22.82848
1017.906	53.04315
1018.073	-1.75614
1018.24	-5.9708
1018.407	48.82725
1018.573	25.64151
1018.74	44.61145
1018.907	-10.18537
1019.074	61.47521
1019.241	-1.75614
1019.407	31.96461
1019.574	-60.75247
1019.741	-1.75614
1019.907	-8.0781
1020.074	0.35123
1020.241	-43.89836
1020.407	-10.18537
1020.574	19.31862
1020.74	-31.25673
1020.907	19.31862
1021.073	23.53386
1021.24	-27.04265
1021.406	17.21104
1021.573	-43.89836
1021.739	78.34042
1021.906	-1.75614
1022.072	15.10348
1022.239	63.58328
1022.405	-12.29261
1022.571	17.21104
1022.738	8.78094
1022.904	10.88843
1023.07	-16.50703
1023.237	-86.03057
1023.403	-58.64579
1023.569	-88.13691
1023.735	-12.29261
1023.902	31.96461
1024.068	-3.86348
1024.234	-35.47071
1024.4	8.78094
1024.566	-35.47071
1024.732	53.04315
1024.898	-8.0781
1025.065	25.64151
1025.231	-14.39983
1025.397	48.82725
1025.563	17.21104
1025.729	15.10348
1025.895	50.93519
1026.061	-8.0781
1026.227	76.23219
1026.392	48.82725
1026.558	67.79949
1026.724	74.12398
1026.89	15.10348
1027.056	82.55695
1027.222	6.67348
1027.388	-5.9708
1027.553	44.61145
1027.719	-8.0781
1027.885	6.67348
1028.051	10.88843
1028.216	2.45862
1028.382	15.10348
1028.548	-10.18537
1028.713	-43.89836
1028.879	48.82725
1029.045	-14.39983
1029.21	27.74919
1029.376	-64.96574
1029.541	40.39575
1029.707	23.53386
1029.873	8.78094
1030.038	-24.93558
1030.204	-8.0781
1030.369	10.88843
1030.534	-60.75247
1030.7	-22.82848
1030.865	40.39575
1031.031	34.07236
1031.196	-67.07234
1031.361	15.10348
1031.527	27.74919
1031.692	-24.93558
1031.857	-67.07234
1032.023	-60.75247
1032.188	-1.75614
1032.353	15.10348
1032.518	17.21104
1032.684	-16.50703
1032.849	-1.75614
1033.014	31.96461
1033.179	-77.60495
1033.344	12.99594
1033.509	-1.75614
1033.674	23.53386
1033.839	15.10348
1034.004	59.36716
1034.17	19.31862
1034.335	-18.61421
1034.5	25.64151
1034.664	19.31862
1034.829	-16.50703
1034.994	2.45862
1035.159	-5.9708
1035.324	0.35123
1035.489	61.47521
1035.654	-8.0781
1035.819	19.31862
1035.984	8.78094
1036.148	-5.9708
1036.313	-5.9708
1036.478	-48.11204
1036.643	57.25913
1036.807	-31.25673
1036.972	-33.36373
1037.137	19.31862
1037.301	0.35123
1037.466	40.39575
1037.631	-8.0781
1037.795	-3.86348
1037.96	-1.75614
1038.124	21.42623
1038.289	23.53386
1038.454	10.88843
1038.618	21.42623
1038.783	-8.0781
1038.947	6.67348
1039.111	-39.68458
1039.276	-22.82848
1039.44	-1.75614
1039.605	-16.50703
1039.769	0.35123
1039.933	-5.9708
1040.098	44.61145
1040.262	-119.7289
1040.426	-14.39983
1040.591	42.50359
1040.755	10.88843
1040.919	15.10348
1041.083	40.39575
1041.248	-35.47071
1041.412	-10.18537
1041.576	-10.18537
1041.74	-1.75614
1041.904	-14.39983
1042.068	50.93519
1042.232	53.04315
1042.397	29.85689
1042.561	-16.50703
1042.725	-39.68458
1042.889	69.90763
1043.053	-5.9708
1043.217	-5.9708
1043.381	38.28793
1043.544	42.50359
1043.708	2.45862
1043.872	-1.75614
1044.036	-10.18537
1044.2	-71.28546
1044.364	31.96461
1044.528	25.64151
1044.691	17.21104
1044.855	-31.25673
1045.019	-52.32561
1045.183	6.67348
1045.346	31.96461
1045.51	25.64151
1045.674	-18.61421
1045.837	46.71934
1046.001	-35.47071
1046.165	10.88843
1046.328	-22.82848
1046.492	-39.68458
1046.655	27.74919
1046.819	-8.0781
1046.983	-12.29261
1047.146	6.67348
1047.31	57.25913
1047.473	-60.75247
1047.636	8.78094
1047.8	-39.68458
1047.963	-62.85911
1048.127	8.78094
1048.29	61.47521
