Data from mixed_try1_USB4F045381__30__00178.txt Node

Date: Thu Apr 03 20:12:51 EDT 2025
User: mmckonesweet
Spectrometer: USB4F04538
Trigger mode: 4
Integration Time (sec): 2.700000E-3
Scans to average: 1
Electric dark correction enabled: true
Nonlinearity correction enabled: true
Boxcar width: 0
XAxis mode: Wavelengths
Number of Pixels in Spectrum: 3648
>>>>>Begin Spectral Data<<<<<
345.52	-37.75323
345.736	-37.75323
345.952	-37.75323
346.168	-23.00407
346.384	-6.14641
346.6	14.92785
346.816	-12.46822
347.032	-35.64629
347.248	21.25059
347.464	6.49786
347.68	10.7128
347.896	-12.46822
348.112	6.49786
348.328	-48.28761
348.544	10.7128
348.76	69.73195
348.975	-31.43231
349.191	-33.53931
349.407	-41.96706
349.623	27.57355
349.839	-4.03909
350.055	-4.03909
350.27	-31.43231
350.486	21.25059
350.702	21.25059
350.918	21.25059
351.133	4.39042
351.349	-65.14129
351.565	-52.50118
351.781	-39.86016
351.996	36.00449
352.212	8.60532
352.428	120.334
352.644	2.283
352.859	54.97546
353.075	-37.75323
353.291	-10.36097
353.506	21.25059
353.722	2.283
353.938	-23.00407
354.153	-29.32529
354.369	36.00449
354.584	23.35822
354.8	17.0354
355.016	-20.89695
355.231	-1.93175
355.447	-23.00407
355.662	-16.68263
355.878	36.00449
356.093	0.17561
356.309	19.14299
356.524	-8.2537
356.74	61.29953
356.955	69.73195
357.171	54.97546
357.386	2.283
357.602	-63.03467
357.817	-56.71465
358.033	95.03138
358.248	-20.89695
358.464	19.14299
358.679	-65.14129
358.895	-65.14129
359.11	-44.07393
359.325	-90.41875
359.541	-56.71465
359.756	27.57355
359.972	-37.75323
360.187	-12.46822
360.402	-1.93175
360.618	0.17561
360.833	6.49786
361.048	10.7128
361.264	86.59788
361.479	0.17561
361.694	21.25059
361.909	4.39042
362.125	-18.7898
362.34	36.00449
362.555	-77.78048
362.77	46.54368
362.986	21.25059
363.201	21.25059
363.416	40.22009
363.631	12.82031
363.847	78.16474
364.062	52.86748
364.277	29.68125
364.492	44.4358
364.707	36.00449
364.922	-23.00407
365.138	-37.75323
365.353	0.17561
365.568	-1.93175
365.783	40.22009
365.998	42.32793
366.213	-6.14641
366.428	29.68125
366.643	2.283
366.858	31.78897
367.073	-6.14641
367.288	4.39042
367.503	46.54368
367.718	29.68125
367.933	-14.57544
368.148	69.73195
368.363	46.54368
368.578	14.92785
368.793	-37.75323
369.008	2.283
369.223	6.49786
369.438	-8.2537
369.653	50.75953
369.868	-27.21824
370.083	8.60532
370.298	31.78897
370.513	2.283
370.728	-27.21824
370.943	10.7128
371.157	4.39042
371.372	6.49786
371.587	-14.57544
371.802	36.00449
372.017	69.73195
372.232	-50.3944
372.446	31.78897
372.661	6.49786
372.876	19.14299
373.091	36.00449
373.306	52.86748
373.52	54.97546
373.735	-14.57544
373.95	61.29953
374.165	-10.36097
374.379	-29.32529
374.594	-39.86016
374.809	-18.7898
375.023	6.49786
375.238	-77.78048
375.453	-35.64629
375.667	86.59788
375.882	61.29953
376.097	10.7128
376.311	52.86748
376.526	19.14299
376.741	19.14299
376.955	71.84011
377.17	-4.03909
377.384	4.39042
377.599	21.25059
377.813	19.14299
378.028	57.08346
378.242	2.283
378.457	-16.68263
378.672	63.4076
378.886	-44.07393
379.101	21.25059
379.315	-10.36097
379.53	23.35822
379.744	-14.57544
379.958	42.32793
380.173	52.86748
380.387	31.78897
380.602	-94.6313
380.816	-6.14641
381.031	-23.00407
381.245	-1.93175
381.459	63.4076
381.674	6.49786
381.888	-31.43231
382.103	-12.46822
382.317	10.7128
382.531	-52.50118
382.746	12.82031
382.96	36.00449
383.174	-39.86016
383.388	27.57355
383.603	61.29953
383.817	10.7128
384.031	-4.03909
384.246	31.78897
384.46	19.14299
384.674	19.14299
384.888	-18.7898
385.103	27.57355
385.317	19.14299
385.531	36.00449
385.745	-8.2537
385.959	2.283
386.174	-10.36097
386.388	-6.14641
386.602	4.39042
386.816	-23.00407
387.03	8.60532
387.244	23.35822
387.458	19.14299
387.672	84.48956
387.887	-48.28761
388.101	19.14299
388.315	-41.96706
388.529	52.86748
388.743	40.22009
388.957	-14.57544
389.171	-20.89695
389.385	-4.03909
389.599	-63.03467
389.813	61.29953
390.027	-6.14641
390.241	21.25059
390.455	27.57355
390.669	-20.89695
390.883	10.7128
391.097	21.25059
391.311	-6.14641
391.525	61.29953
391.738	-44.07393
391.952	6.49786
392.166	2.283
392.38	46.54368
392.594	10.7128
392.808	29.68125
393.022	12.82031
393.236	23.35822
393.449	88.70622
393.663	29.68125
393.877	-46.18078
394.091	59.19149
394.305	-8.2537
394.518	-14.57544
394.732	-20.89695
394.946	128.76891
395.16	-27.21824
395.373	-37.75323
395.587	-65.14129
395.801	4.39042
396.015	50.75953
396.228	111.89944
396.442	29.68125
396.656	-4.03909
396.869	19.14299
397.083	57.08346
397.297	-37.75323
397.51	99.24826
397.724	27.57355
397.938	40.22009
398.151	23.35822
398.365	48.65159
398.578	2.283
398.792	139.31302
399.005	6.49786
399.219	-50.3944
399.433	-31.43231
399.646	-48.28761
399.86	-4.03909
400.073	12.82031
400.287	-20.89695
400.5	-6.14641
400.714	-4.03909
400.927	8.60532
401.141	-39.86016
401.354	4.39042
401.567	52.86748
401.781	-25.11117
401.994	14.92785
402.208	73.9483
402.421	76.05651
402.635	21.25059
402.848	-54.60793
403.061	21.25059
403.275	-31.43231
403.488	71.84011
403.701	63.4076
403.915	4.39042
404.128	71.84011
404.341	21.25059
404.555	4.39042
404.768	-10.36097
404.981	-4.03909
405.195	38.11228
405.408	-29.32529
405.621	19.14299
405.834	10.7128
406.048	12.82031
406.261	14.92785
406.474	27.57355
406.687	-20.89695
406.9	-52.50118
407.114	33.89672
407.327	40.22009
407.54	10.7128
407.753	44.4358
407.966	19.14299
408.179	46.54368
408.392	-81.99334
408.605	54.97546
408.819	-37.75323
409.032	-6.14641
409.245	78.16474
409.458	-63.03467
409.671	59.19149
409.884	54.97546
410.097	36.00449
410.31	-16.68263
410.523	10.7128
410.736	46.54368
410.949	-20.89695
411.162	54.97546
411.375	21.25059
411.588	73.9483
411.801	-4.03909
412.014	19.14299
412.227	80.27299
412.44	14.92785
412.653	4.39042
412.865	-8.2537
413.078	-4.03909
413.291	10.7128
413.504	52.86748
413.717	42.32793
413.93	2.283
414.143	42.32793
414.356	27.57355
414.568	27.57355
414.781	-16.68263
414.994	-6.14641
415.207	-23.00407
415.42	17.0354
415.632	19.14299
415.845	44.4358
416.058	101.35674
416.271	-81.99334
416.483	-44.07393
416.696	-33.53931
416.909	82.38126
417.121	40.22009
417.334	44.4358
417.547	-8.2537
417.759	23.35822
417.972	10.7128
418.185	10.7128
418.397	36.00449
418.61	63.4076
418.823	25.46587
419.035	-31.43231
419.248	-16.68263
419.46	-4.03909
419.673	59.19149
419.885	36.00449
420.098	-58.82135
420.311	65.5157
420.523	-39.86016
420.736	67.62381
420.948	80.27299
421.161	57.08346
421.373	63.4076
421.586	-1.93175
421.798	-23.00407
422.01	-75.67402
422.223	-23.00407
422.435	-23.00407
422.648	6.49786
422.86	6.49786
423.073	-10.36097
423.285	-14.57544
423.497	61.29953
423.71	19.14299
423.922	36.00449
424.134	-4.03909
424.347	12.82031
424.559	23.35822
424.771	-10.36097
424.984	50.75953
425.196	6.49786
425.408	2.283
425.621	-6.14641
425.833	12.82031
426.045	8.60532
426.257	19.14299
426.47	-37.75323
426.682	19.14299
426.894	82.38126
427.106	52.86748
427.318	23.35822
427.531	-27.21824
427.743	-23.00407
427.955	31.78897
428.167	-6.14641
428.379	25.46587
428.591	54.97546
428.804	57.08346
429.016	23.35822
429.228	-44.07393
429.44	19.14299
429.652	44.4358
429.864	46.54368
430.076	-14.57544
430.288	2.283
430.5	12.82031
430.712	21.25059
430.924	19.14299
431.136	-1.93175
431.348	90.81458
431.56	78.16474
431.772	-6.14641
431.984	10.7128
432.196	-39.86016
432.408	46.54368
432.62	10.7128
432.832	27.57355
433.044	0.17561
433.256	31.78897
433.468	54.97546
433.679	12.82031
433.891	-16.68263
434.103	61.29953
434.315	-23.00407
434.527	31.78897
434.739	-14.57544
434.95	-6.14641
435.162	36.00449
435.374	-6.14641
435.586	-1.93175
435.798	27.57355
436.009	10.7128
436.221	2.283
436.433	-12.46822
436.645	31.78897
436.856	42.32793
437.068	38.11228
437.28	61.29953
437.491	-25.11117
437.703	-6.14641
437.915	2.283
438.126	6.49786
438.338	63.4076
438.55	27.57355
438.761	-25.11117
438.973	25.46587
439.184	86.59788
439.396	-29.32529
439.608	44.4358
439.819	6.49786
440.031	88.70622
440.242	10.7128
440.454	31.78897
440.665	-18.7898
440.877	84.48956
441.088	114.00805
441.3	0.17561
441.511	27.57355
441.723	128.76891
441.934	-29.32529
442.146	4.39042
442.357	38.11228
442.569	38.11228
442.78	90.81458
442.991	54.97546
443.203	6.49786
443.414	48.65159
443.626	42.32793
443.837	4.39042
444.048	-12.46822
444.26	27.57355
444.471	-41.96706
444.682	4.39042
444.894	19.14299
445.105	95.03138
445.316	27.57355
445.528	54.97546
445.739	48.65159
445.95	-23.00407
446.161	27.57355
446.373	52.86748
446.584	33.89672
446.795	4.39042
447.006	40.22009
447.217	4.39042
447.429	-10.36097
447.64	-6.14641
447.851	12.82031
448.062	86.59788
448.273	69.73195
448.484	38.11228
448.695	69.73195
448.907	10.7128
449.118	19.14299
449.329	-6.14641
449.54	27.57355
449.751	4.39042
449.962	31.78897
450.173	27.57355
450.384	86.59788
450.595	36.00449
450.806	54.97546
451.017	36.00449
451.228	44.4358
451.439	103.46523
451.65	120.334
451.861	111.89944
452.072	52.86748
452.283	59.19149
452.494	73.9483
452.705	63.4076
452.915	54.97546
453.126	52.86748
453.337	46.54368
453.548	36.00449
453.759	36.00449
453.97	-23.00407
454.181	61.29953
454.391	31.78897
454.602	82.38126
454.813	162.51195
455.024	-27.21824
455.235	44.4358
455.445	90.81458
455.656	46.54368
455.867	40.22009
456.078	109.79086
456.288	25.46587
456.499	27.57355
456.71	12.82031
456.921	61.29953
457.131	19.14299
457.342	107.68229
457.553	10.7128
457.763	107.68229
457.974	109.79086
458.184	31.78897
458.395	61.29953
458.606	57.08346
458.816	4.39042
459.027	46.54368
459.237	78.16474
459.448	14.92785
459.659	40.22009
459.869	105.57375
460.08	52.86748
460.29	46.54368
460.501	95.03138
460.711	25.46587
460.922	0.17561
461.132	14.92785
461.343	2.283
461.553	145.63975
461.764	-44.07393
461.974	107.68229
462.184	52.86748
462.395	95.03138
462.605	130.87769
462.816	90.81458
463.026	90.81458
463.236	128.76891
463.447	103.46523
463.657	147.7487
463.867	54.97546
464.078	105.57375
464.288	38.11228
464.498	57.08346
464.709	29.68125
464.919	82.38126
465.129	90.81458
465.339	63.4076
465.55	44.4358
465.76	69.73195
465.97	73.9483
466.18	116.11668
466.391	103.46523
466.601	137.20416
466.811	19.14299
467.021	82.38126
467.231	31.78897
467.441	54.97546
467.651	36.00449
467.862	145.63975
468.072	164.62107
468.282	141.42191
468.492	158.29377
468.702	122.44269
468.912	82.38126
469.122	111.89944
469.332	86.59788
469.542	149.85767
469.752	149.85767
469.962	170.94855
470.172	128.76891
470.382	120.334
470.592	187.82274
470.802	128.76891
471.012	147.7487
471.222	69.73195
471.432	192.04149
471.642	122.44269
471.852	164.62107
472.062	147.7487
472.272	120.334
472.482	170.94855
472.691	213.13647
472.901	206.80777
473.111	225.79441
473.321	162.51195
473.531	204.69824
473.741	206.80777
473.95	215.24608
474.16	202.58873
474.37	293.31517
474.58	265.88252
474.79	303.86702
474.999	145.63975
475.209	265.88252
475.419	219.46535
475.628	272.21286
475.838	192.04149
476.048	261.6624
476.258	263.77245
476.467	265.88252
476.677	251.11241
476.886	352.41131
477.096	324.97208
477.306	339.74668
477.515	339.74668
477.725	333.4146
477.935	422.07762
478.144	331.30395
478.354	316.52984
478.563	419.96626
478.773	373.52039
478.982	443.19213
479.192	443.19213
479.401	422.07762
479.611	517.10492
479.82	479.09034
480.03	500.20897
480.239	483.31395
480.449	493.87323
480.658	449.52678
480.868	593.14775
481.077	618.49918
481.287	565.68581
481.496	686.11162
481.705	677.6594
481.915	656.52967
482.124	694.56402
482.333	719.92228
482.543	677.6594
482.752	755.84914
482.961	660.75553
483.171	859.41896
483.38	736.82866
483.589	889.01429
483.799	829.82532
484.008	791.77895
484.217	787.55177
484.426	867.8746
484.636	880.55831
484.845	998.95292
485.054	817.14286
485.263	992.6098
485.472	1011.63935
485.682	1083.5331
485.891	1024.326
486.1	1024.326
486.309	1020.09709
486.518	1144.85897
486.727	1085.64772
486.936	1127.9411
487.146	1077.18928
487.355	1322.50994
487.564	1189.26961
487.773	1333.08496
487.982	1172.35107
488.191	1350.00508
488.4	1318.27995
488.609	1424.0314
488.818	1212.53298
489.027	1371.15534
489.236	1468.44748
489.445	1529.78378
489.654	1544.58899
489.863	1605.92416
490.072	1495.94313
490.281	1584.77425
490.49	1718.01479
490.698	1715.89994
490.907	1582.65925
491.116	1741.27784
491.325	1679.94712
491.534	1794.14676
491.743	1912.56308
491.952	1874.50238
492.16	1870.27331
492.369	2014.04916
492.578	1751.85182
492.787	1997.13581
492.996	2018.27744
493.204	2049.98862
493.413	1882.96046
493.622	2162.02171
493.831	1997.13581
494.039	2305.72839
494.248	2083.81215
494.457	2183.15757
494.665	2202.17912
494.874	2168.36256
495.083	2191.61167
495.291	2345.87412
495.5	2261.35279
495.709	2343.76127
495.917	2280.37141
496.126	2481.07475
496.335	2409.25477
496.543	2626.78678
496.752	2343.76127
496.96	2314.18041
497.169	2394.46678
497.377	2546.54648
497.586	2571.88739
497.794	2709.12009
498.003	2396.57938
498.211	2711.23095
498.42	2666.90029
498.628	2804.0954
498.837	2700.67654
499.045	2920.13837
499.254	2675.34466
499.462	2989.7431
499.671	2816.7567
499.879	3025.5937
500.087	2761.8875
500.296	3133.1186
500.504	2968.65247
500.713	2987.6341
500.921	3019.26744
501.129	2934.90436
501.338	2890.60425
501.546	3131.01067
501.754	2968.65247
501.962	3227.9589
502.171	3143.65804
502.379	3200.564
502.587	2970.7616
502.795	3331.19106
503.004	3173.16632
503.212	3314.33962
503.42	3348.04139
503.628	3364.89061
503.837	3474.38302
504.045	3402.79726
504.253	3371.20878
504.461	3701.6325
504.669	3440.69818
504.877	3566.99236
505.085	3529.11101
505.294	3550.15694
505.502	3465.96224
505.71	3484.90859
505.918	3566.99236
506.126	3617.49146
506.334	3411.22018
506.542	3741.58876
506.75	3611.17966
506.958	3926.55706
507.166	3796.2544
507.374	3705.83875
507.582	3724.76592
507.79	3911.84932
507.998	3758.41036
508.206	3987.47857
508.414	3804.66333
508.622	4002.1812
508.83	3861.4153
509.037	4117.66668
509.245	3802.56113
509.453	4050.48274
509.661	4037.88339
509.869	4069.38037
510.077	3987.47857
510.285	4123.96408
510.492	4113.46831
510.7	4224.69674
510.908	4107.1706
511.116	4113.46831
511.324	4203.71478
511.531	4147.05294
511.739	4107.1706
511.947	4293.92206
512.155	4115.56751
512.362	4216.30421
512.57	4121.86497
512.778	4308.60322
512.985	4180.63219
513.193	4306.50597
513.401	4239.38284
513.608	4423.91829
513.816	4432.30227
514.024	4652.25547
514.231	4348.44675
514.439	4516.12276
514.646	4560.11438
514.854	4602.00205
515.061	4476.31242
515.269	4583.1537
515.477	4618.75462
515.684	4696.21661
515.892	4593.62523
516.099	4846.86486
516.307	4578.96494
516.514	4798.7539
516.722	4765.27832
516.929	4884.50849
517.136	4694.12345
517.344	4888.69066
517.551	4677.37734
517.759	4888.69066
517.966	4836.40698
518.173	5028.74023
518.381	4859.41356
518.588	5200.00295
518.796	4968.13444
519.003	4995.30495
519.21	5009.93361
519.418	5302.26813
519.625	5095.59303
519.832	5112.30252
520.039	5085.14884
520.247	5243.83775
520.454	5068.43694
520.661	5481.61795
520.868	4968.13444
521.076	5369.02323
521.283	5252.18607
521.49	5429.49928
521.697	5172.86197
521.904	5433.66932
522.112	5051.72355
522.319	5583.72786
522.526	5414.90342
522.733	5744.07193
522.94	5431.58431
523.147	5510.79798
523.354	5377.36592
523.561	5712.84704
523.768	5569.1442
523.975	5860.59791
524.183	5567.06072
524.39	5771.1292
524.597	5702.43757
524.804	5762.80431
525.011	5812.74798
525.218	5696.1916
525.425	5735.74581
525.632	5704.51951
525.838	5781.53478
526.045	6047.71683
526.252	5931.30973
526.459	6037.32634
526.666	5895.95723
526.873	6134.9737
527.08	5937.5477
527.287	6232.56916
527.494	5920.91264
527.701	6180.66314
527.907	5910.51496
528.114	6195.1983
528.321	6143.28172
528.528	6060.18464
528.735	6255.40317
528.941	6313.51332
529.148	6139.12776
529.355	6269.93243
529.562	6116.27929
529.768	6352.93477
529.975	6253.32747
530.182	6232.56916
530.388	6161.97338
530.595	6379.90249
530.802	6325.96311
531.008	6781.87828
531.215	6400.6442
531.422	6616.22033
531.628	6479.44149
531.835	6568.56642
532.042	6342.56152
532.248	6641.0784
532.455	6607.93357
532.661	6620.36358
532.868	6665.93315
533.074	6798.43601
533.281	6678.35929
533.487	6723.9147
533.694	6680.43023
533.9	7106.55858
534.107	6680.43023
534.313	6982.54262
534.52	6874.99654
534.726	7054.89508
534.933	7104.49231
535.139	6976.3397
535.345	7145.81352
535.552	7282.11051
535.758	6978.40737
535.965	7114.82345
536.171	7267.65933
536.377	7211.90894
536.584	7236.68888
536.79	7364.66806
536.996	7131.35211
537.203	7195.38722
537.409	7147.87934
537.615	7403.87064
537.821	7079.6953
538.028	7418.31172
538.234	7308.94556
538.44	7706.9118
538.646	7443.06538
538.853	7453.37848
539.059	7236.68888
539.265	7723.39063
539.471	7640.98296
539.677	7418.31172
539.883	7414.18581
540.09	7713.09152
540.296	7612.13226
540.502	7673.95009
540.708	7682.19102
540.914	7739.86812
541.12	7616.25405
541.326	7914.85888
541.532	7781.05596
541.738	8050.63135
541.944	7937.49381
542.15	7949.83909
542.356	8023.8953
542.562	7945.72408
542.768	7776.93755
542.974	8062.9699
543.18	7867.52324
543.386	8077.36397
543.592	8065.02626
543.798	8239.74319
544.004	8221.25056
544.21	8210.97618
544.415	7970.41291
544.621	8377.36056
544.827	8077.36397
545.033	8484.10806
545.239	8190.42594
545.445	8422.52931
545.651	8239.74319
545.856	8457.42605
546.062	8397.89296
546.268	8467.68875
546.474	8192.48106
546.679	8282.88645
546.885	8527.20297
547.091	8541.56608
547.297	8412.2645
547.502	8603.11181
547.708	8317.8056
547.914	8715.90197
548.119	8590.80402
548.325	8432.79363
548.531	8422.52931
548.736	8549.77316
548.942	8449.21555
549.147	8646.18377
549.353	8660.53927
549.559	9017.08892
549.764	8627.72537
549.97	8939.2681
550.175	8545.66966
550.381	8857.32377
550.586	8660.53927
550.792	8963.84585
550.997	8705.65064
551.203	8816.34085
551.408	8736.40327
551.614	8941.31634
551.819	8849.12776
552.025	9135.81948
552.23	8922.88152
552.435	9004.80311
552.641	9189.02474
552.846	9070.32017
553.052	9250.40117
553.257	9103.07203
553.462	9242.21853
553.668	9456.9252
553.873	9191.07086
554.078	9522.32392
554.283	9135.81948
554.489	9546.84423
554.694	9446.70516
554.899	9297.44621
555.105	9326.078
555.31	9487.58289
555.515	9463.05703
555.72	9667.36944
555.925	9383.33189
556.131	9565.23296
556.336	9350.61696
556.541	9524.36737
556.746	9442.61703
556.951	9561.14668
557.156	9499.84496
557.361	9773.5504
557.567	9814.3783
557.772	9742.92551
557.977	9844.9953
558.182	9718.42314
558.387	9804.17189
558.592	9900.09746
558.797	9695.96069
559.002	9759.25921
559.207	9667.36944
559.412	9857.24115
559.617	9651.03022
559.822	9924.58386
560.027	9773.5504
560.232	9922.54341
560.437	9675.53867
560.642	10146.90701
560.847	9798.04786
561.051	10018.429
561.256	9883.77201
561.461	10173.41143
561.666	10232.52828
561.871	10126.5174
562.076	9969.47014
562.281	10073.49786
562.485	9891.93485
562.69	10206.02905
562.895	9987.83068
563.1	10179.5275
563.305	9877.64973
563.509	10165.25647
563.714	10118.36117
563.919	10157.10129
564.123	10032.70711
564.328	10460.73556
564.533	10411.84791
564.737	10397.5876
564.942	10104.08722
565.147	10515.72532
565.351	10407.7736
565.556	10491.28658
565.761	10291.63367
565.965	10529.98041
566.17	10242.71967
566.374	10458.69873
566.579	10371.10247
566.784	10399.62483
566.988	10589.03062
567.193	10664.35538
567.397	10246.79614
567.602	10825.12844
567.806	10548.30747
568.011	10658.2486
568.215	10672.49759
568.42	10637.89185
568.624	10859.71553
568.828	10711.17044
569.033	10472.95632
569.237	10963.45689
569.442	10906.50452
569.646	10540.16223
569.85	10611.42624
570.055	10723.38201
570.259	10656.21298
570.463	10741.69856
570.668	10851.57769
570.872	10841.40513
571.076	10849.5432
571.281	10939.04982
571.485	10841.40513
571.689	11004.13176
571.893	10835.30146
572.098	10873.9563
572.302	11120.03096
572.506	11107.83271
572.71	10768.15409
572.914	11054.96911
573.119	10937.01582
573.323	11164.75461
573.527	10896.33352
573.731	11323.27949
573.935	11211.50567
574.139	11280.60587
574.343	11048.86899
574.547	11288.73452
574.751	11077.33537
574.955	11337.50305
575.159	11244.0249
575.364	11471.587
575.568	11392.36074
575.772	11459.3993
575.976	11227.76562
576.18	11392.36074
576.383	11315.15153
576.587	11648.27048
576.791	11264.34807
576.995	11459.3993
577.199	11500.02361
577.403	11404.55036
577.607	11272.47705
577.811	11688.87756
578.015	11459.3993
578.219	11500.02361
578.422	11420.80264
578.626	11660.45298
578.83	11654.36177
579.034	11540.64412
579.238	11593.44519
579.442	11863.44801
579.645	11699.02877
579.849	11849.24116
580.053	12033.89895
580.257	11869.53654
580.46	11908.09548
580.664	12100.84648
580.868	11753.84148
581.071	12027.81239
581.275	11786.32009
581.479	12052.1582
581.682	11776.17077
581.886	11788.34993
582.09	12054.18697
582.293	12370.58326
582.497	12167.78569
582.7	12070.41683
582.904	11997.37853
583.107	12054.18697
583.311	11938.53464
583.515	11983.17545
583.718	12082.58889
583.922	12244.85719
584.125	11944.62226
584.329	12267.16541
584.532	11991.29154
584.735	12281.3611
584.939	12275.27728
585.142	12200.23814
585.346	12265.13743
585.549	12202.26635
585.753	12117.07492
585.956	12222.54811
586.159	12532.77187
586.363	12654.38647
586.566	12536.82605
586.769	12694.91981
586.973	12323.94609
587.176	12301.64005
587.379	12443.57336
587.582	12800.2956
587.786	12400.99686
587.989	12644.25277
588.192	12520.60917
588.395	12528.71766
588.599	12593.58195
588.802	12733.42431
589.005	12694.91981
589.208	12883.36966
589.411	12725.31827
589.615	12703.0262
589.818	12694.91981
590.021	12676.68011
590.224	12875.26527
590.427	12929.96822
590.63	12857.03009
590.833	12733.42431
591.036	12830.68961
591.239	13073.79881
591.442	12814.47963
591.645	13037.33709
591.848	13164.94632
592.051	13229.75665
592.254	12871.21305
592.457	13247.98374
592.66	12966.43472
592.863	13051.51684
593.066	13077.85001
593.269	13079.87561
593.472	12911.73433
593.675	13576.01468
593.878	13314.81339
594.081	13284.43685
594.284	13272.28597
594.486	13403.91256
594.689	13460.60801
594.892	13513.25113
595.095	13610.43197
595.298	13606.38293
595.5	13452.50885
595.703	13697.4831
595.906	13576.01468
596.109	13282.41172
596.311	13545.64565
596.514	13604.3584
596.717	13442.3848
596.92	13847.2784
597.122	13818.94
597.325	13584.11296
597.528	13618.53001
597.73	13764.28575
597.933	13677.23919
598.136	13859.42326
598.338	13424.16128
598.541	13729.87269
598.743	13986.93838
598.946	13822.98838
599.148	13871.56801
599.351	13859.42326
599.554	13835.13344
599.756	13859.42326
599.959	13924.19416
600.161	14001.10609
600.363	14118.49122
600.566	13952.53056
600.768	13825.01256
600.971	13995.03423
601.173	13962.65058
601.376	13944.4345
601.578	14057.77575
601.78	14031.46507
601.983	13964.67458
602.185	14207.53705
602.388	14288.48446
602.59	13968.72257
602.792	14177.18097
602.995	14158.9671
603.197	14075.99061
603.399	14187.29972
603.601	14090.15759
603.804	14094.20528
604.006	13940.38645
604.208	14069.91901
604.41	14130.63408
604.613	13940.38645
604.815	14296.57904
605.017	14345.14592
605.219	14039.56071
605.421	14114.44359
605.623	14217.65565
605.826	14326.93346
606.028	14343.12232
606.23	14511.07585
606.432	14466.55903
606.634	14531.31056
606.836	14183.25222
607.038	14549.52168
607.24	14486.79403
607.442	14551.54514
607.644	14349.19311
607.846	14571.77959
608.048	14229.79789
608.25	14337.05151
608.452	14096.22912
608.654	14857.07482
608.856	14438.22979
609.058	14612.24816
609.26	14515.1228
609.462	14365.38183
609.664	14685.09049
609.866	14774.11836
610.067	14298.60268
610.269	14788.28174
610.471	14602.13106
610.673	14703.30087
610.875	14337.05151
611.077	14776.14171
611.278	14632.48227
611.48	14790.30508
611.682	14622.36523
611.884	14757.9316
612.085	14290.50811
612.287	14796.37509
612.489	14579.87334
612.69	14974.42622
612.892	14780.18839
613.094	15079.63677
613.295	14668.90342
613.497	14533.33402
613.699	14606.1779
613.9	14944.07687
614.102	14567.73271
614.304	14806.49175
614.505	14828.74835
614.707	14731.62799
614.908	14531.31056
615.11	14761.97829
615.311	14583.92021
615.513	14889.44779
615.714	14587.96707
615.916	14948.12346
616.117	14871.23801
616.319	14994.65908
616.52	14776.14171
616.722	14810.53841
616.923	14687.11387
617.124	14885.40118
617.326	14636.52908
617.527	14980.49609
617.729	14721.51118
617.93	14685.09049
618.131	14984.54266
618.333	15016.91518
618.534	14980.49609
618.735	15186.87015
618.937	15027.03158
619.138	15304.22005
619.339	14729.60463
619.54	15031.07814
619.742	14822.67838
619.943	14901.58762
620.144	14901.58762
620.345	15083.68332
620.546	14950.14675
620.748	15037.14798
620.949	14998.70565
621.15	15107.96259
621.351	14579.87334
621.552	14988.58923
621.753	14911.70412
621.954	15146.40474
622.155	14970.37965
622.356	15016.91518
622.558	14832.795
622.759	15227.33558
622.96	14814.58507
623.161	14996.68236
623.362	14853.02819
623.563	15045.24109
623.764	14968.35636
623.965	15417.5242
624.166	15316.35973
624.366	15267.80105
624.567	15035.1247
624.768	15150.45128
624.969	14838.86496
625.17	15095.82295
625.371	14986.56594
625.572	15221.26576
625.773	14802.44509
625.973	15041.19453
626.174	15192.93996
626.375	15306.24333
626.576	15373.01172
626.777	15348.73226
626.977	14960.2632
627.178	15352.77884
627.379	15231.38212
627.58	15243.52176
627.78	15219.24249
627.981	15075.59022
628.182	15156.52109
628.382	15332.54599
628.583	15231.38212
628.784	15172.70726
628.984	15130.21857
629.185	15478.22341
629.386	15118.07895
629.586	15425.61741
629.787	15292.08037
629.987	15551.06314
630.188	15259.70795
630.388	15820.17443
630.589	15176.7538
630.79	15338.61584
630.99	15549.0398
631.191	15597.60009
631.391	15421.5708
631.591	15565.22652
631.792	15302.19677
631.992	15810.05715
632.193	15526.78314
632.393	15344.68569
632.594	15383.12818
632.794	15437.75722
632.994	15587.48333
633.195	15559.1565
633.395	15698.76883
633.595	15589.50668
633.796	15569.27321
633.996	15921.34884
634.196	15842.43255
634.397	15895.0432
634.597	15356.82541
634.797	15704.83902
634.997	15526.78314
635.198	15773.63517
635.398	15615.81031
635.598	15941.5841
635.798	15656.2777
635.998	15686.62846
636.199	15573.31989
636.399	15559.1565
636.599	15336.59255
636.799	15777.68204
636.999	15320.40629
637.199	15941.5841
637.399	15797.91645
637.599	15781.72892
637.799	15417.5242
637.999	15919.32532
638.199	15712.93263
638.399	15864.6908
638.599	15731.1433
638.799	15961.81949
638.999	16180.37088
639.199	16044.78602
639.399	15957.7724
639.599	15988.12569
639.799	15698.76883
639.999	15969.91368
640.199	16020.50288
640.399	15955.74886
640.599	15330.5227
640.799	16125.73135
640.998	15741.26037
641.198	15690.67525
641.398	15868.73777
641.598	15915.27829
641.798	16249.17795
641.997	16020.50288
642.197	15909.20775
642.397	16097.40021
642.597	16073.11661
642.796	16188.46573
642.996	15982.05501
643.196	16107.51844
643.395	16162.15757
643.595	16115.61305
643.795	15773.63517
643.994	16216.79791
644.194	16241.0829
644.394	16198.58433
644.593	16024.55006
644.793	16360.48788
644.992	16342.27314
645.192	16328.10623
645.392	15955.74886
645.591	15931.46645
645.791	16180.37088
645.99	16364.53562
646.19	16154.06281
646.389	16473.82757
646.589	16188.46573
646.788	16554.78844
646.987	16338.22544
647.187	16352.39242
647.386	16087.28201
647.586	16490.01948
647.785	16439.42022
647.984	16303.82031
648.184	16492.04347
648.383	16107.51844
648.582	16170.25236
648.782	16595.27016
648.981	16143.9444
649.18	16382.75054
649.38	16449.53997
649.579	16579.07737
649.778	16188.46573
649.977	16680.28469
650.177	16117.63671
650.376	16445.49206
650.575	16556.8125
650.774	16431.32445
650.973	16364.53562
651.173	16587.17375
651.372	16348.3447
651.571	16392.87001
651.77	16546.6922
651.969	16372.63112
652.168	16336.2016
652.367	16589.19785
652.566	16356.44014
652.765	16647.89773
652.964	16208.70297
653.163	16522.40368
653.362	16445.49206
653.561	16550.74031
653.76	16267.39193
653.959	16348.3447
654.158	16700.52685
654.357	16682.3089
654.556	16556.8125
654.755	16947.50072
654.954	16627.65618
655.153	16500.13948
655.352	16686.35732
655.551	16643.8494
655.749	16864.49714
655.948	16670.16371
656.147	16793.64381
656.346	16854.37505
656.545	16597.29427
656.743	16597.29427
656.942	16777.44919
657.141	16992.04104
657.34	16680.28469
657.538	16579.07737
657.737	16400.96562
657.936	16785.54648
658.135	16475.85155
658.333	16761.25472
658.532	16514.30758
658.731	16902.96168
658.929	16548.71625
659.128	16834.13105
659.326	16619.55962
659.525	16967.74616
659.724	16629.68032
659.922	17182.36455
660.121	16700.52685
660.319	16799.71683
660.518	16643.8494
660.716	16894.8638
660.915	16915.10856
661.113	16894.8638
661.312	16722.79349
661.51	17038.6073
661.709	16941.42714
661.907	16836.15544
662.105	16583.12555
662.304	16811.86295
662.502	16706.59954
662.701	17085.17501
662.899	16927.25554
663.097	16809.83859
663.296	16631.70447
663.494	17154.01693
663.692	16819.96041
663.891	17107.44704
664.089	16779.47351
664.287	16862.47272
664.485	16874.6193
664.684	16979.89355
664.882	16676.23629
665.08	17123.64509
665.278	16971.79528
665.476	16969.77072
665.675	17048.7306
665.873	17050.75526
666.071	16919.15755
666.269	16726.842
666.467	16585.14965
666.665	17050.75526
666.863	16684.33311
667.061	17034.55801
667.259	17182.36455
667.457	17068.97738
667.655	16913.08408
667.853	17016.3363
668.051	16902.96168
668.249	16828.0579
668.447	16807.81423
668.645	16858.42388
668.843	16890.81488
669.041	16971.79528
669.239	16591.22195
669.437	17056.82928
669.635	16874.6193
669.833	17040.63196
670.031	16603.36661
670.229	17064.928
670.426	16844.25302
670.624	16990.01645
670.822	16747.08469
671.02	17131.74419
671.218	16935.35358
671.415	17164.14101
671.613	16992.04104
671.811	16911.05959
672.009	16975.84441
672.206	17002.16402
672.404	16809.83859
672.602	16850.32623
672.799	16832.10667
672.997	17093.27389
673.195	16785.54648
673.392	16943.45167
673.59	16473.82757
673.788	16641.82524
673.985	16605.39073
674.183	16811.86295
674.38	16969.77072
674.578	17184.3894
674.775	16858.42388
674.973	16880.69262
675.17	16710.64801
675.368	16821.98478
675.565	16757.20613
675.763	16745.06041
675.96	16647.89773
676.158	16927.25554
676.355	16921.18204
676.553	17208.68785
676.75	16607.41485
676.947	16805.78988
677.145	16467.75564
677.342	16769.35194
677.539	16730.89052
677.737	16941.42714
677.934	16579.07737
678.131	16528.47578
678.329	16749.10898
678.526	16678.26049
678.723	16761.25472
678.92	16919.15755
679.118	16929.28005
679.315	16694.45418
679.512	16603.36661
679.709	16907.01063
679.906	16492.04347
680.104	16809.83859
680.301	16913.08408
680.498	16757.20613
680.695	16506.21151
680.892	16730.89052
681.089	16421.20479
681.286	16799.71683
681.483	16113.5894
681.68	16765.30332
681.877	16595.27016
682.075	16704.57531
682.272	16370.60724
682.469	16583.12555
682.665	16415.13302
682.862	16429.30052
683.059	16362.51175
683.256	16653.97024
683.453	16198.58433
683.65	16595.27016
683.847	16601.3425
684.044	16627.65618
684.241	16295.72506
684.438	16500.13948
684.635	16558.83657
684.831	16643.8494
685.028	16322.03473
685.225	16421.20479
685.422	16320.01089
685.619	16490.01948
685.815	16147.99176
686.012	16317.98706
686.209	15917.30181
686.405	16520.37966
686.602	16255.24926
686.799	16263.34437
686.996	16297.74887
687.192	16465.73167
687.389	16342.27314
687.586	16172.27606
687.782	16299.77268
687.979	16224.89288
688.175	16121.68403
688.372	16232.98788
688.568	16079.18749
688.765	16307.86795
688.962	15886.9492
689.158	16380.72665
689.355	16467.75564
689.551	16386.79832
689.748	16283.58225
689.944	16303.82031
690.14	16263.34437
690.337	16295.72506
690.533	16469.77962
690.73	16279.53466
690.926	16137.87337
691.123	16277.51086
691.319	15982.05501
691.515	16075.14023
691.712	15935.51351
691.908	15975.98434
692.104	15959.79594
692.301	15917.30181
692.497	16190.48945
692.693	16166.20497
692.889	16162.15757
693.086	15992.17282
693.282	16336.2016
693.478	16239.05914
693.674	16206.67924
693.87	16376.67888
694.067	16125.73135
694.263	16305.84413
694.459	16178.34718
694.655	16147.99176
694.851	15832.3152
695.047	15870.76126
695.243	15959.79594
695.439	16048.83322
695.635	15846.47949
695.831	16101.44749
696.027	16103.47114
696.224	15725.07307
696.42	15941.5841
696.615	16206.67924
696.811	15949.67824
697.007	16235.01163
697.203	15844.45602
697.399	15882.90221
697.595	15812.08061
697.791	16117.63671
697.987	15919.32532
698.183	16073.11661
698.379	15943.60763
698.575	15975.98434
698.77	15585.45998
698.966	15915.27829
699.162	15642.11407
699.358	15573.31989
699.554	15613.78695
699.749	15828.26828
699.945	15787.79924
700.141	15704.83902
700.337	15785.7758
700.532	15866.71429
700.728	15642.11407
700.924	15872.78475
701.119	15785.7758
701.315	15472.15347
701.511	15261.73123
701.706	15917.30181
701.902	15421.5708
702.097	15712.93263
702.293	15429.66401
702.489	15684.60507
702.684	15569.27321
702.88	15700.79223
703.075	15559.1565
703.271	15656.2777
703.466	15763.51802
703.662	15642.11407
703.857	15514.64317
704.053	15733.16671
704.248	15674.48813
704.443	15773.63517
704.639	15466.08353
704.834	15496.43327
705.03	15692.69864
705.225	15403.36112
705.42	15611.76359
705.616	15660.32446
705.811	15233.4054
706.006	15593.55338
706.202	15510.59652
706.397	15607.71687
706.592	15265.77778
706.787	15425.61741
706.983	15358.8487
707.178	15773.63517
707.373	15437.75722
707.568	15769.58831
707.763	15199.00978
707.959	15617.83367
708.154	15874.80824
708.349	15708.88582
708.544	15680.5583
708.739	15275.89416
708.934	15328.49942
709.129	15615.81031
709.324	15364.91856
709.519	15555.10982
709.714	15364.91856
709.909	15897.06671
710.104	15377.0583
710.299	15551.06314
710.494	15389.19805
710.689	15275.89416
710.884	15087.72986
711.079	15354.80212
711.274	14895.51771
711.469	15553.08648
711.664	15395.26794
711.859	15532.85313
712.054	14966.33307
712.249	15419.5475
712.443	15318.38301
712.638	15364.91856
712.833	15257.68468
713.028	15393.24464
713.223	14980.49609
713.417	15219.24249
713.612	14978.4728
713.807	15587.48333
714.002	15415.5009
714.196	15203.05632
714.391	14865.16808
714.586	15431.68731
714.78	15247.56831
714.975	15114.0324
715.17	14784.23507
715.364	15245.54504
715.559	15310.28989
715.754	15105.93932
715.948	14901.58762
716.143	15122.12549
716.337	15089.75314
716.532	15312.31317
716.726	15037.14798
716.921	15304.22005
717.115	14996.68236
717.31	15292.08037
717.504	15203.05632
717.699	15166.63744
717.893	14711.39435
718.088	14879.33125
718.282	14638.55249
718.476	14664.85664
718.671	14547.49823
718.865	14612.24816
719.059	14521.19322
719.254	14717.46445
719.448	14654.73968
719.642	15107.96259
719.837	14634.50568
720.031	15103.91604
720.225	14494.88799
720.419	14940.03028
720.614	14851.00488
720.808	14822.67838
721.002	14555.59204
721.196	14808.51508
721.39	14644.62269
721.585	14855.05151
721.779	14375.49972
721.973	14723.53455
722.167	14262.17688
722.361	14683.06711
722.555	14381.57044
722.749	14452.39445
722.943	14589.9905
723.137	14511.07585
723.331	14146.82443
723.525	14411.92381
723.719	14146.82443
723.913	14448.34741
724.107	14007.17793
724.301	14395.73539
724.495	14411.92381
724.689	14377.5233
724.883	14401.80606
725.077	14676.99696
725.271	14377.5233
725.465	14614.27157
725.659	14322.88622
725.853	14385.61758
726.046	14527.26363
726.24	14258.12954
726.434	14231.8216
726.628	14415.9709
726.822	14197.41841
727.015	14363.35825
727.209	14031.46507
727.403	14422.04153
727.596	14367.40541
727.79	14446.32389
727.984	14596.06079
728.177	14761.97829
728.371	14322.88622
728.565	14292.53176
728.758	14537.38094
728.952	14347.16952
729.146	14337.05151
729.339	14547.49823
729.533	14409.90027
729.726	14608.20132
729.92	14134.68168
730.113	14357.28749
730.307	14108.37212
730.5	14033.48898
730.694	13940.38645
730.887	14150.87199
731.081	14403.82962
731.274	14351.21671
731.468	14268.24789
731.661	14371.45257
731.854	14183.25222
732.048	14490.84101
732.241	14478.70005
732.435	14454.41796
732.628	14268.24789
732.821	14185.27597
733.014	14280.38986
733.208	14126.58647
733.401	14399.78251
733.594	14377.5233
733.788	14266.22422
733.981	14169.08594
734.174	14156.94333
734.367	14377.5233
734.56	14496.91148
734.754	14272.29522
734.947	13956.57858
735.14	14171.1097
735.333	14347.16952
735.526	14347.16952
735.719	14187.29972
735.912	14073.96674
736.105	14061.82351
736.298	14065.87127
736.491	13553.74414
736.684	13883.71267
736.877	14207.53705
737.07	14195.39467
737.263	13984.91441
737.456	14215.63193
737.649	13772.38281
737.842	14349.19311
738.035	14132.65788
738.228	13982.89044
738.421	14033.48898
738.614	14221.70307
738.807	14088.13374
739	14009.20187
739.192	14019.32154
739.385	14045.63241
739.578	13928.24225
739.771	13859.42326
739.964	13869.5439
740.156	14185.27597
740.349	13737.96996
740.542	14134.68168
740.735	13788.5768
740.927	14167.06218
741.12	13908.00169
741.313	13976.81851
741.505	13978.84249
741.698	14001.10609
741.891	14193.37094
742.083	14215.63193
742.276	14041.58461
742.468	13877.64036
742.661	13780.47983
742.854	13968.72257
743.046	13721.77537
743.239	14031.46507
743.431	13932.29032
743.624	13970.74656
743.816	14150.87199
744.009	14243.96376
744.201	13683.3124
744.393	13650.92163
744.586	13729.87269
744.778	13776.43133
744.971	13835.13344
745.163	13839.18177
745.355	13748.09148
745.548	13946.45852
745.74	13744.04288
745.932	13638.77487
746.125	13571.96553
746.317	14138.72927
746.509	13812.86741
746.702	14041.58461
746.894	13721.77537
747.086	13661.04384
747.278	13450.48405
747.471	13632.70145
747.663	13452.50885
747.855	13594.23572
748.047	13592.21118
748.239	13578.03926
748.431	13576.01468
748.623	13875.61624
748.815	13383.66343
749.008	13845.25425
749.2	13592.21118
749.392	13669.14154
749.584	13478.83092
749.776	13511.22644
749.968	13351.264
750.16	13373.53872
750.352	13369.48881
750.544	13258.10974
750.736	13444.40962
750.928	13693.43435
751.12	13460.60801
751.311	13541.59639
751.503	13739.99427
751.695	13476.80616
751.887	13367.46385
752.079	13541.59639
752.271	13270.26081
752.463	13523.37451
752.654	13233.80714
752.846	13521.34984
753.038	13389.73821
753.23	13359.36396
753.421	13326.96375
753.613	13215.57978
753.805	13434.2855
753.997	13268.23564
754.188	13189.25073
754.38	12990.7448
754.572	13197.35206
754.763	13302.66289
754.955	13100.13129
755.146	13057.5938
755.338	12893.50002
755.53	12964.40885
755.721	13142.66669
755.913	13106.2079
756.104	13397.83786
756.296	13335.0639
756.487	13006.95112
756.679	13235.83239
756.87	13063.67071
757.062	13011.00264
757.253	13069.74758
757.445	12705.05278
757.636	12838.79448
757.827	12984.66735
758.019	12881.34357
758.21	12984.66735
758.401	12798.26928
758.593	12686.81334
758.784	12275.27728
758.975	12640.19924
759.167	12824.61091
759.358	12893.50002
759.549	12587.50119
759.74	12871.21305
759.932	12603.71642
760.123	12579.39343
760.314	12595.60886
760.505	12692.8932
760.696	12538.85313
760.888	12666.54673
761.079	12593.58195
761.27	12812.45335
761.461	12626.01171
761.652	12518.58203
761.843	12437.49118
762.034	12392.88672
762.225	12457.76487
762.416	12459.79221
762.607	12206.32276
762.798	12443.57336
762.989	12360.44506
763.18	12652.35975
763.371	12271.22136
763.562	12530.74477
763.753	12711.13249
763.944	12486.14694
764.135	12023.75464
764.326	12510.47341
764.517	12248.9133
764.708	12400.99686
764.899	12084.61754
765.089	12338.1404
765.28	12368.55563
765.471	12319.89051
765.662	12029.84125
765.853	11930.41771
766.043	11820.8262
766.234	11940.56386
766.425	12003.46544
766.615	12143.44511
766.806	12257.02542
766.997	11932.44696
767.187	11971.00107
767.378	12169.81402
767.569	11745.72149
767.759	12044.04306
767.95	11688.87756
768.141	11934.47619
768.331	11818.7965
768.522	11658.42259
768.712	11956.79726
768.903	11820.8262
769.093	11544.70597
769.284	11432.99144
769.474	11597.50655
769.665	11573.13783
769.855	11615.78222
770.046	11763.99129
770.236	11664.51374
770.426	11601.56788
770.617	11516.27227
770.807	11737.60135
770.998	11613.75163
771.188	11808.64786
771.378	11374.07565
771.569	11751.8115
771.759	11550.79866
771.949	11213.5382
772.139	11713.24009
772.33	11374.07565
772.52	11487.83672
772.71	11542.67505
772.9	11390.3291
773.09	11264.34807
773.281	11181.01648
773.471	11199.31028
773.661	11461.43061
773.851	11183.04916
774.041	11111.89883
774.231	11229.79806
774.421	10998.03081
774.611	11065.13575
774.802	10772.22399
774.992	10890.23078
775.182	10904.47034
775.372	11040.73534
775.562	10853.61217
775.752	10928.87972
775.942	10788.50313
776.131	10924.81161
776.321	10890.23078
776.511	10900.40195
776.701	10898.36774
776.891	10892.26504
777.081	10983.79488
777.271	10800.71199
777.461	10849.5432
777.651	10904.47034
777.84	10894.29928
778.03	11142.39343
778.22	11205.40802
778.41	11061.06913
778.599	11150.52491
778.789	10703.02915
778.979	10751.874
779.169	10660.2842
779.358	10654.17734
779.548	11014.29978
779.738	10920.74345
779.927	10835.30146
780.117	10680.63961
780.307	10601.2466
780.496	10523.87116
780.686	10613.46213
780.875	10246.79614
781.065	10715.24101
781.254	10195.83642
781.444	10450.55125
781.633	10493.32321
781.823	10591.06665
782.012	10637.89185
782.202	10527.944
782.391	10426.10758
782.581	10493.32321
782.77	10564.59733
782.96	10428.14462
783.149	10195.83642
783.338	10367.02764
783.528	10434.25568
783.717	10487.21327
783.906	10303.86096
784.096	10417.95928
784.285	10344.61512
784.474	10199.91351
784.663	10130.59544
784.853	10108.16556
785.042	10157.10129
785.231	10030.66742
785.42	10144.86811
785.61	10046.98452
785.799	10051.06365
785.988	10305.89879
786.177	10010.26976
786.366	10042.90533
786.555	9855.20021
786.744	9728.63273
786.933	9947.02788
787.122	10193.79785
787.312	10128.55643
787.501	10059.22175
787.69	10136.71238
787.879	10079.61599
788.068	9728.63273
788.257	9751.09248
788.445	9387.42096
788.634	9806.2132
788.823	9612.22059
789.012	9789.88228
789.201	9806.2132
789.39	9736.80012
789.579	9818.46076
789.768	9851.11829
789.957	9569.31917
790.145	9785.7994
790.334	9730.6746
790.523	9565.23296
790.712	9934.78591
790.9	9767.4257
791.089	9524.36737
791.278	9604.04942
791.467	9532.54099
791.655	9411.95401
791.844	9475.32025
792.033	9691.87641
792.221	9501.88858
792.41	9665.32709
792.599	9270.85662
792.787	9536.62771
792.976	9516.19348
793.164	9673.49639
793.353	9430.35226
793.541	9452.83723
793.73	9526.4108
793.918	9849.07731
794.107	9522.32392
794.295	9467.14483
794.484	9381.28733
794.672	9577.4914
794.861	9340.39269
795.049	9442.61703
795.238	9227.89824
795.426	9348.57214
795.614	9426.26388
795.803	9454.88122
795.991	9272.90208
796.179	9369.01963
796.368	9078.50855
796.556	9221.76073
796.744	9176.74762
796.932	9037.56387
797.121	8906.4938
797.309	9010.9461
797.497	8898.29951
797.685	9070.32017
797.874	8922.88152
798.062	8924.9299
798.25	8890.10493
798.438	8972.03786
798.626	8793.79715
798.814	8949.50914
799.002	8955.65355
799.19	9172.65511
799.378	9000.7077
799.566	9033.46902
799.755	8888.05625
799.943	9010.9461
800.131	9004.80311
800.318	9062.13151
800.506	9047.80069
800.694	9103.07203
800.882	9058.03708
801.07	9274.94751
801.258	8730.25307
801.446	9045.75336
801.634	8859.37273
801.822	8886.00754
802.01	8804.04456
802.197	8955.65355
802.385	8881.91007
802.573	9166.51623
802.761	8855.2748
802.949	8922.88152
803.136	8736.40327
803.324	9023.23159
803.512	8664.64067
803.699	8734.35322
803.887	8826.58725
804.075	8935.17156
804.262	8715.90197
804.45	8795.84667
804.638	8744.60327
804.825	9217.66896
805.013	8705.65064
805.201	8943.36457
805.388	8873.71493
805.576	9160.37718
805.763	9090.7906
805.951	9131.72629
806.138	9266.76567
806.326	9141.95913
806.513	8824.53801
806.701	9029.3741
806.888	8808.14339
807.075	8974.08582
807.263	8783.54929
807.45	9115.35284
807.638	8902.39669
807.825	9119.4463
808.012	8838.88235
808.2	9033.46902
808.387	8568.23798
808.574	9041.65865
808.761	8845.02965
808.949	8922.88152
809.136	8906.4938
809.323	9201.30124
809.51	8865.51949
809.698	8783.54929
809.885	8812.24216
810.072	9094.88448
810.259	8910.59083
810.446	8875.76374
810.633	8754.85286
810.82	8996.61222
811.008	8832.73488
811.195	9295.40096
811.382	8959.74973
811.569	9062.13151
811.756	8787.64849
811.943	9135.81948
812.13	8916.73625
812.317	8961.7978
812.504	8890.10493
812.691	9221.76073
812.878	8955.65355
813.064	8947.46096
813.251	8873.71493
813.438	9107.1657
813.625	8955.65355
813.812	8795.84667
813.999	8939.2681
814.186	9047.80069
814.372	8941.31634
814.559	8969.98989
814.746	8861.42167
814.933	8955.65355
815.12	8957.70165
815.306	8781.49967
815.493	8865.51949
815.68	9002.75542
815.866	8726.15285
816.053	8906.4938
816.24	8871.6661
816.426	8988.42105
816.613	8734.35322
816.799	8881.91007
816.986	8845.02965
817.173	8849.12776
817.359	8412.2645
817.546	8650.28544
817.732	8605.16304
817.919	8746.65323
818.105	8560.03158
818.292	9064.1787
818.478	8615.41892
818.665	8824.53801
818.851	8832.73488
819.037	9041.65865
819.224	8812.24216
819.41	8845.02965
819.597	8580.54701
819.783	8826.58725
819.969	8633.87834
820.156	8670.79264
820.342	8323.96722
820.528	8728.20297
820.714	8441.00475
820.901	8668.742
821.087	8432.79363
821.273	8613.36778
821.459	8670.79264
821.646	8906.4938
821.832	8678.995
822.018	8945.41278
822.204	8297.26561
822.39	8767.15177
822.576	8369.14705
822.762	8492.31726
822.948	8545.66966
823.134	8599.00928
823.32	8387.627
823.507	8621.57223
823.693	8383.52048
823.879	8389.68023
824.065	8194.53615
824.25	8408.15844
824.436	8231.52444
824.622	8467.68875
824.808	8432.79363
824.994	8342.45101
825.18	8085.5887
825.366	8235.63385
825.552	8299.31969
825.738	8393.78664
825.923	8176.0396
826.109	8537.46243
826.295	8418.42344
826.481	8523.09906
826.667	8434.84644
826.852	8334.23619
827.038	8252.07072
827.224	8410.21148
827.409	8180.15008
827.595	8404.05231
827.781	7941.60898
827.966	8106.14913
828.152	7704.85185
828.338	8188.37081
828.523	7778.99676
828.709	8110.26098
828.894	7900.45353
829.08	8085.5887
829.266	7671.8898
829.451	7762.52247
829.637	7608.01039
829.822	7873.69807
830.008	7554.41833
830.193	7816.05904
830.378	7618.3149
830.564	8167.81839
830.749	7871.63982
830.935	7929.26321
831.12	7482.25229
831.305	8266.45194
831.491	7706.9118
831.676	7976.58466
831.861	7471.9407
832.047	7626.55813
832.232	7430.68894
832.417	7488.43898
832.602	7420.37464
832.788	7405.93372
832.973	7306.88146
833.158	7593.58318
833.343	7438.93998
833.528	7700.73189
833.714	7552.35681
833.899	7861.34822
834.084	7352.28666
834.269	7599.7664
834.454	7178.86407
834.639	7434.8145
834.824	7632.74033
835.009	7797.52875
835.194	7459.56608
835.379	7599.7664
835.564	7645.10415
835.749	7657.4672
835.934	7434.8145
836.119	7500.81179
836.304	7259.40103
836.489	7434.8145
836.674	7263.53023
836.859	7261.46564
837.044	7249.07766
837.228	7294.49638
837.413	7360.54101
837.598	7407.99677
837.783	7207.77864
837.968	7393.55494
838.152	7073.49555
838.337	7329.58539
838.522	7021.82308
838.707	7197.45251
838.891	7023.89025
839.076	7056.96189
839.261	6980.47501
839.445	7032.1587
839.63	7149.94515
839.815	7110.69106
839.999	6862.58343
840.184	6930.84541
840.368	6831.54709
840.553	6877.06531
840.737	6812.92282
840.922	7015.62145
841.106	6810.85335
841.291	6866.72123
841.475	6690.78459
841.66	6841.89311
841.844	6690.78459
842.029	6856.37657
842.213	6560.27753
842.397	6757.03894
842.582	6665.93315
842.766	6986.67779
842.951	6647.2924
843.135	6688.71377
843.319	6744.61804
843.504	6645.22109
843.688	6591.35895
843.872	6554.06063
844.056	6696.99694
844.241	6748.75843
844.425	6491.8801
844.609	6661.79092
844.793	6448.34131
844.977	6599.64644
845.161	6369.53075
845.346	6574.78284
845.53	6471.14862
845.714	6661.79092
845.898	6325.96311
846.082	6502.24497
846.266	6419.30975
846.45	6367.45634
846.634	6191.04551
846.818	6384.05101
847.002	6197.27466
847.186	6417.2359
847.37	6267.85689
847.554	6529.19092
847.738	6290.68652
847.922	6361.23295
848.106	6350.86017
848.29	6425.53118
848.473	6215.96083
848.657	6367.45634
848.841	5920.91264
849.025	6041.48261
849.209	6058.10673
849.392	6379.90249
849.576	6053.95084
849.76	6128.74245
849.944	5791.93977
850.127	6222.18913
850.311	5954.18124
850.495	5956.26033
850.678	5810.66727
850.862	6008.22984
851.046	6026.93527
851.229	6010.30832
851.413	5870.99842
851.596	6043.56071
851.78	5654.54638
851.964	5885.55814
852.147	5710.7652
852.331	5931.30973
852.514	5785.69685
852.698	5839.79513
852.881	5687.86331
853.065	5744.07193
853.248	5848.11653
853.431	5993.67986
853.615	5685.78118
853.798	5898.03698
853.982	5631.63749
854.165	5702.43757
854.348	5737.82738
854.532	5806.50577
854.715	5462.85692
854.898	5698.27361
855.081	5542.05718
855.265	5521.2183
855.448	5677.45242
855.631	5614.97469
855.814	5652.46388
855.997	5983.28631
856.181	5654.54638
856.364	5735.74581
856.547	5564.97722
856.73	5496.20854
856.913	5433.66932
857.096	5729.50098
857.279	5448.26369
857.462	5396.13562
857.645	5256.36009
857.828	5477.449
858.011	5321.04543
858.194	5412.8182
858.377	5202.09056
858.56	5496.20854
858.743	5341.90686
858.926	5231.31457
859.109	5141.54056
859.292	5208.35323
859.475	5239.66345
859.658	5252.18607
859.841	5151.98161
860.023	5233.40183
860.206	5256.36009
860.389	5421.15893
860.572	5164.5101
860.755	5160.33403
860.937	5080.97101
861.12	5289.74888
861.303	5095.59303
861.486	5268.88159
861.668	4926.32606
861.851	4905.41842
862.034	4901.23662
862.216	5009.93361
862.399	4859.41356
862.581	4838.4986
862.764	4604.0962
862.947	5101.85926
863.129	4750.63092
863.312	5030.82974
863.494	4541.26203
863.677	4767.37071
863.859	4692.03026
864.042	4934.68847
864.224	4782.01684
864.406	4861.50493
864.589	4482.59879
864.771	4750.63092
864.954	4423.91829
865.136	4650.16183
865.318	4440.6859
865.501	4633.41195
865.683	4344.25306
865.865	4694.12345
866.048	4340.05929
866.23	4717.147
866.412	4470.02585
866.594	4599.90788
866.777	4534.97751
866.959	4759.001
867.141	4367.31728
867.323	4484.6942
867.505	4402.9568
867.687	4568.49263
867.869	4340.05929
868.052	4549.64107
868.234	4245.67657
868.416	4470.02585
868.598	4379.89665
868.78	4486.7896
868.962	4503.55193
869.144	4476.31242
869.326	4277.1423
869.508	4419.72616
869.69	4214.20603
869.872	4277.1423
870.054	4176.43508
870.236	4392.47524
870.417	4247.77443
870.599	4258.26344
870.781	4079.87833
870.963	4237.28489
871.145	4023.1832
871.327	4308.60322
871.508	4239.38284
871.69	4373.60706
871.872	4163.84324
872.054	4281.33737
872.235	4132.36032
872.417	4358.93059
872.599	4138.65728
872.78	4411.34166
872.962	4147.05294
873.144	4283.43487
873.325	3964.37242
873.507	4394.5716
873.689	4180.63219
873.87	4109.26985
874.052	4151.25064
874.233	4193.22301
874.415	4138.65728
874.596	4222.59864
874.778	3983.27764
874.959	4226.79482
875.141	4065.18104
875.322	4163.84324
875.503	3934.96104
875.685	4180.63219
875.866	4021.0831
876.048	4293.92206
876.229	3806.76551
876.41	4042.08325
876.592	4067.28072
876.773	4222.59864
876.954	4016.88282
877.136	4107.1706
877.317	3937.06199
877.498	4369.41389
877.679	3874.02489
877.86	4119.76584
878.042	4128.16224
878.223	4180.63219
878.404	4138.65728
878.585	4375.70361
878.766	4239.38284
878.947	4289.72725
879.128	3907.64693
879.309	4363.12398
879.49	4023.1832
879.672	4281.33737
879.853	3947.56641
880.034	4266.65426
880.215	4016.88282
880.396	4113.46831
880.576	3802.56113
880.757	4400.86053
880.938	4071.48001
881.119	4245.67657
881.3	3903.44445
881.481	4254.0679
881.662	3949.66723
881.843	4207.91135
882.023	4012.68246
882.204	4394.5716
882.385	3970.67434
882.566	4096.67399
882.747	3920.25386
882.927	4140.75623
883.108	3955.96958
883.289	4306.50597
883.469	4102.97202
883.65	4361.02729
883.831	4079.87833
884.011	4381.99314
884.192	4147.05294
884.373	4268.75191
884.553	4277.1423
884.734	4520.31286
884.914	4079.87833
885.095	4495.17094
885.275	4216.30421
885.456	4348.44675
885.636	4029.48341
885.817	4340.05929
885.997	4293.92206
886.178	4262.45889
886.358	4023.1832
886.538	4182.73071
886.719	4239.38284
886.899	4444.87758
887.08	4272.94715
887.26	4358.93059
887.44	3955.96958
887.621	4264.55659
887.801	4105.07132
887.981	4369.41389
888.161	4000.08088
888.342	4224.69674
888.522	4111.36909
888.702	4331.67148
888.882	4220.50052
889.062	4186.92769
889.242	4073.57962
889.423	4159.64579
889.603	3911.84932
889.783	4180.63219
889.963	4088.27633
890.143	4176.43508
890.323	4016.88282
890.503	4373.60706
890.683	3974.87552
890.863	4277.1423
891.043	4170.13925
891.223	4054.68236
891.403	4197.41978
891.583	4432.30227
891.763	4056.78214
891.943	4220.50052
892.122	4121.86497
892.302	4511.93257
892.482	3945.46556
892.662	4291.82466
892.842	4035.78342
893.022	4176.43508
893.201	3798.35666
893.381	4151.25064
893.561	3945.46556
893.741	4098.77335
893.92	3880.32941
894.1	4142.85515
894.28	4100.87269
894.459	4180.63219
894.639	3937.06199
894.819	4121.86497
894.998	3970.67434
895.178	3955.96958
895.357	3865.61858
895.537	3869.82177
895.716	3783.64043
895.896	3943.3647
896.075	3682.70342
896.255	3958.07032
896.434	3878.22792
896.614	3913.95049
896.793	3583.82659
896.973	3913.95049
897.152	3768.92323
897.331	3838.29587
897.511	3661.6693
897.69	3796.2544
897.87	3785.74281
898.049	3903.44445
898.228	3682.70342
898.407	3634.3221
898.587	3634.3221
898.766	3619.59536
898.945	3432.27625
899.124	3508.06324
899.304	3440.69818
899.483	3813.07194
899.662	3531.21568
899.841	3373.3148
900.02	3232.17325
900.199	3377.52679
900.378	3312.23311
900.557	3419.64282
900.737	3236.38753
900.916	3550.15694
901.095	3400.69148
901.274	3335.40374
901.453	3352.2538
901.632	3124.68676
901.811	2993.96104
901.989	3394.37405
902.168	2888.49456
902.347	3267.99252
902.526	2899.04286
902.705	3293.27378
902.884	3099.38971
903.063	3179.48911
903.242	3149.98151
903.42	3240.60175
903.599	3038.24579
903.778	3158.41258
903.957	2934.90436
904.135	3198.45659
904.314	2823.08717
904.493	2901.15248
904.672	2829.41751
904.85	2903.26208
905.029	2563.44061
905.207	2861.06731
905.386	2666.90029
905.565	2808.31589
905.743	2559.21715
905.922	2637.3434
906.1	2516.97996
906.279	2561.32889
906.457	2402.91712
906.636	2609.89553
906.814	2326.85816
906.993	2616.22984
907.171	2267.69242
907.35	2478.96258
907.528	2347.98695
907.707	2679.56677
907.885	2320.51933
908.063	2495.85964
908.242	2381.79095
908.42	2424.04226
908.598	2109.17857
908.777	2436.71683
908.955	2075.35644
909.133	2407.14224
909.311	2176.8169
909.49	2305.72839
909.668	2049.98862
909.846	2153.56714
910.024	2242.33344
910.202	2284.59767
910.38	2121.86137
910.559	2364.88927
910.737	2132.43016
910.915	2369.11475
911.093	2056.33067
911.271	2214.85977
911.449	2115.52001
911.627	2445.16632
911.805	2178.93046
911.983	2335.30979
912.161	2145.11245
912.339	2352.21259
912.517	2246.56003
912.695	2398.69197
912.872	2318.40636
913.05	2250.78658
913.228	2145.11245
913.406	2293.05007
913.584	2443.05397
913.762	2487.4112
913.939	2204.29258
914.117	2307.84141
914.295	2197.95217
914.473	2320.51933
914.65	2377.56559
914.828	2265.57922
915.006	2225.42674
915.184	2204.29258
915.361	2200.06565
915.539	2483.18691
915.716	2075.35644
915.894	2284.59767
916.072	2250.78658
916.249	2312.06742
916.427	2301.50232
916.604	2352.21259
916.782	2092.26775
916.959	2360.66375
917.137	2174.70332
917.314	2062.67266
917.492	1806.83493
917.669	2060.55867
917.847	1908.3342
918.024	2115.52001
918.201	1781.45845
918.379	2107.06474
918.556	1904.1053
918.733	2047.87459
918.911	1794.14676
919.088	1965.42216
919.265	1921.02077
919.442	2052.10265
919.62	1711.67025
919.797	2113.4062
919.974	1832.21079
920.151	1954.85064
920.328	1760.31093
920.506	1859.70055
920.683	1821.63759
920.86	1789.91734
921.037	1796.26147
921.214	1908.3342
921.391	1701.09595
921.568	1861.81511
921.745	1692.63645
921.922	2092.26775
922.099	1726.47413
922.276	1838.55465
922.453	1660.91294
922.63	1844.89847
922.807	1506.51835
922.984	1660.91294
923.161	1438.83675
923.338	1787.80262
923.514	1489.59798
923.691	1624.95891
923.868	1525.55371
924.045	1758.19616
924.222	1485.36789
924.399	1756.08138
924.575	1474.79264
924.752	1667.25769
924.929	1434.60665
925.105	1546.70402
925.282	1356.35014
925.459	1599.57921
925.635	1385.96058
925.812	1618.61401
925.989	1233.68184
926.165	1527.66875
926.342	1320.39495
926.518	1565.7392
926.695	1404.99596
926.871	1472.67759
927.048	1322.50994
927.224	1481.13779
927.401	1161.7771
927.577	1295.01511
927.754	1100.45018
927.93	1347.89006
928.107	1102.56484
928.283	1286.55522
928.459	1159.66232
928.636	1210.41811
928.812	1301.36004
928.988	1305.59001
929.165	1108.90884
929.341	1210.41811
929.517	1028.55493
929.693	1227.33715
929.87	1068.73092
930.046	1168.12147
930.222	1134.28527
930.398	1176.58068
930.574	971.46647
930.751	1144.85897
930.927	986.26673
931.103	1121.59697
931.279	920.72532
931.455	1066.61634
931.631	831.93909
931.807	965.1236
931.983	829.82532
932.159	1100.45018
932.335	753.73571
932.511	899.58443
932.687	745.2821
932.863	914.38297
933.039	768.52992
933.215	935.52439
933.391	829.82532
933.566	829.82532
933.742	848.84961
933.918	728.37539
934.094	719.92228
934.27	738.94201
934.445	607.93586
934.621	829.82532
934.797	635.40113
934.973	639.62674
935.148	629.0628
935.324	508.65683
935.5	443.19213
935.675	546.67503
935.851	534.00179
936.027	610.0485
936.202	476.97856
936.378	451.63837
936.553	474.86679
936.729	483.31395
936.904	409.40968
937.08	436.85761
937.255	289.09456
937.431	375.63139
937.606	333.4146
937.782	331.30395
937.957	291.20486
938.133	396.74233
938.308	257.44235
938.483	293.31517
938.659	204.69824
938.834	238.45306
939.009	251.11241
939.185	189.93211
939.36	246.89255
939.535	280.65356
939.71	246.89255
939.886	215.24608
940.061	139.31302
940.236	170.94855
940.411	116.11668
940.586	198.36978
940.761	156.18471
940.937	230.01389
941.112	249.00247
941.287	97.13981
941.462	204.69824
941.637	217.35571
941.812	149.85767
941.987	198.36978
942.162	132.98649
942.337	154.07568
942.512	179.38548
942.687	160.40285
942.862	63.4076
943.037	120.334
943.212	141.42191
943.386	181.49477
943.561	179.38548
943.736	111.89944
943.911	128.76891
944.086	170.94855
944.26	118.22533
944.435	143.53082
944.61	141.42191
944.785	124.55141
944.959	78.16474
945.134	213.13647
945.309	166.73021
945.483	111.89944
945.658	95.03138
945.833	130.87769
946.007	128.76891
946.182	90.81458
946.357	135.09531
946.531	61.29953
946.706	137.20416
946.88	80.27299
947.055	128.76891
947.229	111.89944
947.404	86.59788
947.578	78.16474
947.752	189.93211
947.927	168.83937
948.101	137.20416
948.276	141.42191
948.45	149.85767
948.624	158.29377
948.799	103.46523
948.973	130.87769
949.147	173.05775
949.321	107.68229
949.496	105.57375
949.67	145.63975
949.844	78.16474
950.018	128.76891
950.193	120.334
950.367	128.76891
950.541	97.13981
950.715	177.27622
950.889	124.55141
951.063	175.16697
951.237	158.29377
951.411	208.91732
951.585	122.44269
951.759	126.66015
951.933	105.57375
952.107	181.49477
952.281	156.18471
952.455	162.51195
952.629	145.63975
952.803	111.89944
952.977	162.51195
953.151	162.51195
953.325	168.83937
953.499	149.85767
953.672	120.334
953.846	135.09531
954.02	128.76891
954.194	122.44269
954.368	162.51195
954.541	164.62107
954.715	78.16474
954.889	198.36978
955.062	177.27622
955.236	261.6624
955.41	97.13981
955.583	196.26033
955.757	173.05775
955.93	183.60407
956.104	175.16697
956.278	147.7487
956.451	166.73021
956.625	183.60407
956.798	82.38126
956.972	145.63975
957.145	196.26033
957.319	147.7487
957.492	69.73195
957.665	206.80777
957.839	160.40285
958.012	185.7134
958.185	145.63975
958.359	156.18471
958.532	230.01389
958.705	181.49477
958.879	135.09531
959.052	156.18471
959.225	97.13981
959.398	111.89944
959.572	54.97546
959.745	141.42191
959.918	61.29953
960.091	164.62107
960.264	162.51195
960.438	137.20416
960.611	111.89944
960.784	86.59788
960.957	187.82274
961.13	135.09531
961.303	105.57375
961.476	107.68229
961.649	54.97546
961.822	170.94855
961.995	154.07568
962.168	206.80777
962.341	80.27299
962.514	103.46523
962.686	162.51195
962.859	238.45306
963.032	137.20416
963.205	139.31302
963.378	147.7487
963.551	52.86748
963.723	118.22533
963.896	116.11668
964.069	143.53082
964.242	179.38548
964.414	120.334
964.587	111.89944
964.76	168.83937
964.932	101.35674
965.105	154.07568
965.278	160.40285
965.45	31.78897
965.623	122.44269
965.795	139.31302
965.968	124.55141
966.14	139.31302
966.313	78.16474
966.485	111.89944
966.658	204.69824
966.83	84.48956
967.003	86.59788
967.175	31.78897
967.348	132.98649
967.52	143.53082
967.692	196.26033
967.865	109.79086
968.037	116.11668
968.209	120.334
968.382	132.98649
968.554	118.22533
968.726	120.334
968.898	71.84011
969.071	105.57375
969.243	141.42191
969.415	88.70622
969.587	97.13981
969.759	114.00805
969.932	135.09531
970.104	114.00805
970.276	145.63975
970.448	80.27299
970.62	71.84011
970.792	103.46523
970.964	141.42191
971.136	103.46523
971.308	162.51195
971.48	130.87769
971.652	21.25059
971.824	25.46587
971.996	139.31302
972.168	61.29953
972.339	141.42191
972.511	54.97546
972.683	130.87769
972.855	44.4358
973.027	128.76891
973.199	86.59788
973.37	17.0354
973.542	116.11668
973.714	80.27299
973.886	82.38126
974.057	162.51195
974.229	69.73195
974.401	36.00449
974.572	103.46523
974.744	88.70622
974.915	40.22009
975.087	86.59788
975.259	158.29377
975.43	69.73195
975.602	36.00449
975.773	80.27299
975.945	137.20416
976.116	109.79086
976.288	126.66015
976.459	59.19149
976.63	111.89944
976.802	97.13981
976.973	86.59788
977.145	170.94855
977.316	44.4358
977.487	21.25059
977.659	120.334
977.83	99.24826
978.001	80.27299
978.172	164.62107
978.344	107.68229
978.515	-1.93175
978.686	65.5157
978.857	52.86748
979.028	80.27299
979.2	61.29953
979.371	6.49786
979.542	86.59788
979.713	95.03138
979.884	181.49477
980.055	128.76891
980.226	95.03138
980.397	19.14299
980.568	63.4076
980.739	59.19149
980.91	61.29953
981.081	71.84011
981.252	73.9483
981.423	82.38126
981.594	69.73195
981.765	120.334
981.936	76.05651
982.106	29.68125
982.277	44.4358
982.448	120.334
982.619	88.70622
982.79	128.76891
982.96	78.16474
983.131	52.86748
983.302	46.54368
983.472	59.19149
983.643	36.00449
983.814	69.73195
983.984	52.86748
984.155	84.48956
984.326	52.86748
984.496	4.39042
984.667	65.5157
984.837	36.00449
985.008	122.44269
985.178	40.22009
985.349	12.82031
985.519	103.46523
985.69	44.4358
985.86	69.73195
986.031	67.62381
986.201	14.92785
986.371	130.87769
986.542	63.4076
986.712	145.63975
986.882	71.84011
987.053	44.4358
987.223	31.78897
987.393	36.00449
987.563	25.46587
987.734	78.16474
987.904	111.89944
988.074	31.78897
988.244	14.92785
988.414	69.73195
988.585	42.32793
988.755	2.283
988.925	80.27299
989.095	-14.57544
989.265	118.22533
989.435	48.65159
989.605	109.79086
989.775	103.46523
989.945	10.7128
990.115	59.19149
990.285	27.57355
990.455	52.86748
990.625	40.22009
990.795	82.38126
990.965	88.70622
991.134	8.60532
991.304	27.57355
991.474	10.7128
991.644	57.08346
991.814	48.65159
991.984	19.14299
992.153	2.283
992.323	17.0354
992.493	14.92785
992.662	145.63975
992.832	36.00449
993.002	27.57355
993.171	86.59788
993.341	-1.93175
993.511	36.00449
993.68	52.86748
993.85	-29.32529
994.019	-12.46822
994.189	128.76891
994.358	27.57355
994.528	-27.21824
994.697	57.08346
994.867	116.11668
995.036	122.44269
995.206	73.9483
995.375	44.4358
995.544	14.92785
995.714	54.97546
995.883	40.22009
996.052	27.57355
996.222	36.00449
996.391	4.39042
996.56	99.24826
996.73	19.14299
996.899	78.16474
997.068	57.08346
997.237	29.68125
997.406	114.00805
997.576	54.97546
997.745	99.24826
997.914	10.7128
998.083	61.29953
998.252	111.89944
998.421	88.70622
998.59	88.70622
998.759	-10.36097
998.928	38.11228
999.097	-1.93175
999.266	4.39042
999.435	128.76891
999.604	95.03138
999.773	54.97546
999.942	78.16474
1000.111	38.11228
1000.28	44.4358
1000.448	10.7128
1000.617	78.16474
1000.786	4.39042
1000.955	14.92785
1001.124	71.84011
1001.292	95.03138
1001.461	-18.7898
1001.63	86.59788
1001.798	29.68125
1001.967	-14.57544
1002.136	29.68125
1002.304	107.68229
1002.473	-4.03909
1002.642	52.86748
1002.81	63.4076
1002.979	73.9483
1003.147	12.82031
1003.316	-14.57544
1003.484	-27.21824
1003.653	92.92297
1003.821	12.82031
1003.99	27.57355
1004.158	14.92785
1004.327	114.00805
1004.495	-1.93175
1004.663	82.38126
1004.832	50.75953
1005	4.39042
1005.168	-16.68263
1005.337	61.29953
1005.505	46.54368
1005.673	25.46587
1005.842	10.7128
1006.01	31.78897
1006.178	99.24826
1006.346	14.92785
1006.514	-20.89695
1006.683	52.86748
1006.851	-23.00407
1007.019	50.75953
1007.187	71.84011
1007.355	23.35822
1007.523	61.29953
1007.691	10.7128
1007.859	-31.43231
1008.027	10.7128
1008.195	23.35822
1008.363	71.84011
1008.531	10.7128
1008.699	29.68125
1008.867	31.78897
1009.035	40.22009
1009.203	21.25059
1009.37	54.97546
1009.538	44.4358
1009.706	19.14299
1009.874	21.25059
1010.042	50.75953
1010.209	23.35822
1010.377	25.46587
1010.545	44.4358
1010.713	38.11228
1010.88	10.7128
1011.048	67.62381
1011.216	-18.7898
1011.383	-1.93175
1011.551	25.46587
1011.718	46.54368
1011.886	44.4358
1012.054	52.86748
1012.221	-6.14641
1012.389	63.4076
1012.556	-23.00407
1012.724	50.75953
1012.891	46.54368
1013.058	71.84011
1013.226	-37.75323
1013.393	78.16474
1013.561	44.4358
1013.728	48.65159
1013.895	44.4358
1014.063	36.00449
1014.23	-48.28761
1014.397	73.9483
1014.565	-14.57544
1014.732	-37.75323
1014.899	57.08346
1015.066	71.84011
1015.233	-67.24789
1015.401	69.73195
1015.568	27.57355
1015.735	-20.89695
1015.902	31.78897
1016.069	-23.00407
1016.236	63.4076
1016.403	27.57355
1016.57	4.39042
1016.737	-6.14641
1016.904	12.82031
1017.071	-65.14129
1017.238	-14.57544
1017.405	10.7128
1017.572	44.4358
1017.739	31.78897
1017.906	-20.89695
1018.073	29.68125
1018.24	-46.18078
1018.407	-33.53931
1018.573	10.7128
1018.74	109.79086
1018.907	-4.03909
1019.074	31.78897
1019.241	6.49786
1019.407	46.54368
1019.574	36.00449
1019.741	48.65159
1019.907	44.4358
1020.074	48.65159
1020.241	-31.43231
1020.407	17.0354
1020.574	36.00449
1020.74	19.14299
1020.907	-29.32529
1021.073	78.16474
1021.24	-1.93175
1021.406	-48.28761
1021.573	69.73195
1021.739	2.283
1021.906	27.57355
1022.072	99.24826
1022.239	97.13981
1022.405	2.283
1022.571	19.14299
1022.738	46.54368
1022.904	10.7128
1023.07	38.11228
1023.237	-37.75323
1023.403	33.89672
1023.569	-23.00407
1023.735	65.5157
1023.902	-48.28761
1024.068	4.39042
1024.234	44.4358
1024.4	12.82031
1024.566	-27.21824
1024.732	50.75953
1024.898	-18.7898
1025.065	10.7128
1025.231	-10.36097
1025.397	36.00449
1025.563	23.35822
1025.729	54.97546
1025.895	54.97546
1026.061	4.39042
1026.227	50.75953
1026.392	0.17561
1026.558	-10.36097
1026.724	21.25059
1026.89	73.9483
1027.056	48.65159
1027.222	52.86748
1027.388	-16.68263
1027.553	-46.18078
1027.719	27.57355
1027.885	8.60532
1028.051	44.4358
1028.216	4.39042
1028.382	17.0354
1028.548	14.92785
1028.713	-23.00407
1028.879	105.57375
1029.045	27.57355
1029.21	46.54368
1029.376	-1.93175
1029.541	69.73195
1029.707	48.65159
1029.873	29.68125
1030.038	36.00449
1030.204	-18.7898
1030.369	92.92297
1030.534	69.73195
1030.7	14.92785
1030.865	0.17561
1031.031	-23.00407
1031.196	-37.75323
1031.361	44.4358
1031.527	6.49786
1031.692	29.68125
1031.857	38.11228
1032.023	88.70622
1032.188	-14.57544
1032.353	-6.14641
1032.518	27.57355
1032.684	73.9483
1032.849	19.14299
1033.014	33.89672
1033.179	27.57355
1033.344	105.57375
1033.509	61.29953
1033.674	63.4076
1033.839	4.39042
1034.004	-8.2537
1034.17	-39.86016
1034.335	128.76891
1034.5	44.4358
1034.664	57.08346
1034.829	-63.03467
1034.994	-29.32529
1035.159	29.68125
1035.324	105.57375
1035.489	36.00449
1035.654	-10.36097
1035.819	54.97546
1035.984	46.54368
1036.148	10.7128
1036.313	21.25059
1036.478	-6.14641
1036.643	17.0354
1036.807	-48.28761
1036.972	-20.89695
1037.137	-8.2537
1037.301	-1.93175
1037.466	-25.11117
1037.631	23.35822
1037.795	-8.2537
1037.96	69.73195
1038.124	36.00449
1038.289	-14.57544
1038.454	6.49786
1038.618	-10.36097
1038.783	10.7128
1038.947	27.57355
1039.111	54.97546
1039.276	29.68125
1039.44	14.92785
1039.605	-23.00407
1039.769	44.4358
1039.933	-23.00407
1040.098	19.14299
1040.262	-14.57544
1040.426	-12.46822
1040.591	-8.2537
1040.755	6.49786
1040.919	36.00449
1041.083	29.68125
1041.248	6.49786
1041.412	21.25059
1041.576	-29.32529
1041.74	-1.93175
1041.904	36.00449
1042.068	21.25059
1042.232	54.97546
1042.397	-6.14641
1042.561	69.73195
1042.725	63.4076
1042.889	19.14299
1043.053	4.39042
1043.217	-14.57544
1043.381	-20.89695
1043.544	12.82031
1043.708	-48.28761
1043.872	80.27299
1044.036	61.29953
1044.2	-14.57544
1044.364	-56.71465
1044.528	44.4358
1044.691	19.14299
1044.855	-18.7898
1045.019	0.17561
1045.183	21.25059
1045.346	44.4358
1045.51	-18.7898
1045.674	-14.57544
1045.837	84.48956
1046.001	40.22009
1046.165	-41.96706
1046.328	0.17561
1046.492	29.68125
1046.655	6.49786
1046.819	23.35822
1046.983	10.7128
1047.146	29.68125
1047.31	2.283
1047.473	54.97546
1047.636	12.82031
1047.8	31.78897
1047.963	-6.14641
1048.127	14.92785
1048.29	19.14299
