Data from mixed_try1_USB4F045381__2__00150.txt Node

Date: Thu Apr 03 20:07:16 EDT 2025
User: mmckonesweet
Spectrometer: USB4F04538
Trigger mode: 4
Integration Time (sec): 2.700000E-3
Scans to average: 1
Electric dark correction enabled: true
Nonlinearity correction enabled: true
Boxcar width: 0
XAxis mode: Wavelengths
Number of Pixels in Spectrum: 3648
>>>>>Begin Spectral Data<<<<<
345.52	2.10739
345.736	2.10739
345.952	2.10739
346.168	23.18258
346.384	-35.82187
346.6	-111.65595
346.816	-61.10358
347.032	75.88082
347.248	-10.53658
347.464	2.10739
347.68	25.29023
347.896	-10.53658
348.112	18.96735
348.328	16.85977
348.544	31.61332
348.76	-25.28676
348.975	48.47593
349.191	-33.71489
349.407	54.79979
349.623	42.15228
349.839	6.32224
350.055	31.61332
350.27	-25.28676
350.486	40.04444
350.702	-33.71489
350.918	-50.56997
351.133	-4.2147
351.349	-33.71489
351.565	18.96735
351.781	-27.39383
351.996	14.75222
352.212	25.29023
352.428	-12.64382
352.644	16.85977
352.859	29.5056
353.075	-48.46317
353.291	6.32224
353.506	18.96735
353.722	6.32224
353.938	23.18258
354.153	-48.46317
354.369	16.85977
354.584	56.90779
354.8	-42.14263
355.016	-65.31684
355.231	31.61332
355.447	-2.10736
355.662	42.15228
355.878	4.2148
356.093	-48.46317
356.309	23.18258
356.524	-90.59428
356.74	48.47593
356.955	31.61332
357.171	27.39791
357.386	-6.32202
357.602	42.15228
357.817	88.53052
358.033	-27.39383
358.248	29.5056
358.464	18.96735
358.679	42.15228
358.895	-42.14263
359.11	-56.89021
359.325	40.04444
359.541	-52.67674
359.756	75.88082
359.972	10.53718
360.187	18.96735
360.402	23.18258
360.618	14.75222
360.833	48.47593
361.048	-31.6079
361.264	86.42218
361.479	-46.35635
361.694	48.47593
361.909	23.18258
362.125	-10.53658
362.34	40.04444
362.555	86.42218
362.77	27.39791
362.986	-6.32202
363.201	56.90779
363.416	42.15228
363.631	23.18258
363.847	-14.75104
364.062	29.5056
364.277	31.61332
364.492	-16.85823
364.707	31.61332
364.922	40.04444
365.138	21.07496
365.353	2.10739
365.568	-23.17966
365.783	21.07496
365.998	16.85977
366.213	-2.10736
366.428	48.47593
366.643	40.04444
366.858	67.44814
367.073	-23.17966
367.288	-42.14263
367.503	-50.56997
367.718	-69.53
367.933	71.66443
368.148	23.18258
368.363	14.75222
368.578	42.15228
368.793	-27.39383
369.008	4.2148
369.223	-8.42931
369.438	-33.71489
369.653	-4.2147
369.868	-18.9654
370.083	33.72107
370.298	-18.9654
370.513	40.04444
370.728	-10.53658
370.943	-14.75104
371.157	-52.67674
371.372	-44.2495
371.587	33.72107
371.802	65.34002
372.017	-4.2147
372.232	23.18258
372.446	21.07496
372.661	-10.53658
372.876	-25.28676
373.091	73.77262
373.306	-48.46317
373.52	109.61514
373.735	-69.53
373.95	-16.85823
374.165	6.32224
374.379	48.47593
374.594	25.29023
374.809	16.85977
375.023	-0
375.238	-31.6079
375.453	-0
375.667	-10.53658
375.882	-35.82187
376.097	25.29023
376.311	6.32224
376.526	31.61332
376.741	-18.9654
376.955	-27.39383
377.17	23.18258
377.384	-14.75104
377.599	-31.6079
377.813	33.72107
378.028	44.26014
378.242	16.85977
378.457	31.61332
378.672	23.18258
378.886	31.61332
379.101	6.32224
379.315	-80.06246
379.53	-0
379.744	-61.10358
379.958	46.36803
380.173	-21.07254
380.387	50.58386
380.602	-27.39383
380.816	-0
381.031	56.90779
381.245	77.98905
381.459	4.2148
381.674	-14.75104
381.888	65.34002
382.103	-2.10736
382.317	-2.10736
382.531	23.18258
382.746	14.75222
382.96	35.82884
383.174	14.75222
383.388	-69.53
383.603	-0
383.817	23.18258
384.031	-14.75104
384.246	82.20557
384.46	-2.10736
384.674	25.29023
384.888	73.77262
385.103	27.39791
385.317	-27.39383
385.531	-65.31684
385.745	-27.39383
385.959	-10.53658
386.174	40.04444
386.388	-8.42931
386.602	-18.9654
386.816	107.50658
387.03	71.66443
387.244	23.18258
387.458	18.96735
387.672	-14.75104
387.887	33.72107
388.101	23.18258
388.315	37.93663
388.529	-86.38163
388.743	84.31387
388.957	-2.10736
389.171	-67.42343
389.385	73.77262
389.599	-18.9654
389.813	2.10739
390.027	37.93663
390.241	18.96735
390.455	84.31387
390.669	14.75222
390.883	-14.75104
391.097	-10.53658
391.311	56.90779
391.525	92.74727
391.738	37.93663
391.952	-18.9654
392.166	48.47593
392.38	40.04444
392.594	56.90779
392.808	-35.82187
393.022	27.39791
393.236	61.12386
393.449	42.15228
393.663	16.85977
393.877	-8.42931
394.091	82.20557
394.305	10.53718
394.518	-69.53
394.732	-14.75104
394.946	50.58386
395.16	6.32224
395.373	6.32224
395.587	2.10739
395.801	21.07496
396.015	2.10739
396.228	65.34002
396.442	40.04444
396.656	18.96735
396.869	77.98905
397.083	-10.53658
397.297	16.85977
397.51	-54.78349
397.724	-35.82187
397.938	-6.32202
398.151	14.75222
398.365	25.29023
398.578	-29.50088
398.792	56.90779
399.005	14.75222
399.219	-44.2495
399.433	8.4297
399.646	25.29023
399.86	88.53052
400.073	42.15228
400.287	31.61332
400.5	-50.56997
400.714	-0
400.927	44.26014
401.141	35.82884
401.354	44.26014
401.567	-2.10736
401.781	31.61332
401.994	40.04444
402.208	44.26014
402.421	59.01582
402.635	6.32224
402.848	42.15228
403.061	-6.32202
403.275	21.07496
403.488	-23.17966
403.701	82.20557
403.915	8.4297
404.128	27.39791
404.341	56.90779
404.555	52.69182
404.768	67.44814
404.981	33.72107
405.195	56.90779
405.408	-16.85823
405.621	25.29023
405.834	61.12386
406.048	14.75222
406.261	12.64469
406.474	42.15228
406.687	37.93663
406.9	-61.10358
407.114	2.10739
407.327	61.12386
407.54	-23.17966
407.753	33.72107
407.966	10.53718
408.179	109.61514
408.392	8.4297
408.605	50.58386
408.819	50.58386
409.032	40.04444
409.245	46.36803
409.458	-84.27527
409.671	61.12386
409.884	151.79091
410.097	25.29023
410.31	10.53718
410.523	35.82884
410.736	86.42218
410.949	115.94096
411.162	27.39791
411.375	37.93663
411.588	84.31387
411.801	107.50658
412.014	-35.82187
412.227	-25.28676
412.44	23.18258
412.653	107.50658
412.865	23.18258
413.078	-18.9654
413.291	115.94096
413.504	40.04444
413.717	4.2148
413.93	52.69182
414.143	-18.9654
414.356	88.53052
414.568	124.37568
414.781	33.72107
414.994	50.58386
415.207	-0
415.42	137.02842
415.632	35.82884
415.845	8.4297
416.058	25.29023
416.271	82.20557
416.483	128.59318
416.696	99.07256
416.909	65.34002
417.121	44.26014
417.334	120.15828
417.547	82.20557
417.759	52.69182
417.972	73.77262
418.185	35.82884
418.397	52.69182
418.61	56.90779
418.823	69.55627
419.035	35.82884
419.248	40.04444
419.46	141.24617
419.673	52.69182
419.885	92.74727
420.098	94.85568
420.311	90.63889
420.523	137.02842
420.736	115.94096
420.948	90.63889
421.161	82.20557
421.373	10.53718
421.586	107.50658
421.798	31.61332
422.01	103.28953
422.223	-10.53658
422.435	90.63889
422.648	61.12386
422.86	141.24617
423.073	147.57295
423.285	99.07256
423.497	107.50658
423.71	94.85568
423.922	113.83233
424.134	166.55444
424.347	90.63889
424.559	88.53052
424.771	42.15228
424.984	65.34002
425.196	77.98905
425.408	118.04961
425.621	84.31387
425.833	115.94096
426.045	158.11802
426.257	122.26697
426.47	77.98905
426.682	84.31387
426.894	103.28953
427.106	149.68192
427.318	99.07256
427.531	145.464
427.743	105.39804
427.955	109.61514
428.167	115.94096
428.379	96.96411
428.591	162.33619
428.804	99.07256
429.016	115.94096
429.228	137.02842
429.44	132.81075
429.652	183.42829
429.864	18.96735
430.076	145.464
430.288	107.50658
430.5	143.35507
430.712	158.11802
430.924	107.50658
431.136	143.35507
431.348	206.63197
431.56	151.79091
431.772	168.6636
431.984	132.81075
432.196	259.37653
432.408	227.72833
432.62	111.72373
432.832	179.20971
433.044	170.77278
433.256	234.05762
433.468	242.49695
433.679	174.9912
433.891	221.39921
434.103	191.86571
434.315	200.30345
434.527	177.10045
434.739	305.80158
434.95	227.72833
435.162	293.13931
435.374	215.07028
435.586	259.37653
435.798	234.05762
436.009	234.05762
436.221	236.16742
436.433	204.52245
436.645	267.81677
436.856	242.49695
437.068	280.47771
437.28	310.02248
437.491	352.2354
437.703	269.92688
437.915	284.69817
438.126	253.04654
438.338	318.4645
438.55	286.80843
438.761	316.35397
438.973	269.92688
439.184	259.37653
439.396	284.69817
439.608	333.23872
439.819	318.4645
440.031	301.58075
440.242	320.57505
440.454	263.59661
440.665	354.34623
440.877	377.56649
441.088	432.45872
441.3	388.12183
441.511	278.36751
441.723	386.01073
441.934	405.01123
442.146	470.46733
442.357	440.90465
442.569	470.46733
442.78	379.67753
442.991	407.12248
443.203	449.35082
443.414	329.01742
443.626	424.01305
443.837	470.46733
444.048	438.79314
444.26	493.69724
444.471	411.34503
444.682	538.05013
444.894	424.01305
445.105	438.79314
445.316	443.01617
445.528	421.90167
445.739	546.49901
445.95	472.57906
446.161	506.36885
446.373	487.36163
446.584	434.57018
446.795	462.02054
447.006	565.50978
447.217	538.05013
447.429	630.9995
447.64	413.45632
447.851	478.91436
448.062	533.82578
448.273	548.61126
448.484	565.50978
448.695	616.21043
448.907	605.64718
449.118	592.97171
449.329	656.3536
449.54	588.74665
449.751	546.49901
449.962	573.95937
450.173	586.63414
450.384	650.01491
450.595	690.1617
450.806	772.5808
451.017	639.45067
451.228	614.09776
451.439	685.93553
451.65	709.18005
451.861	618.32312
452.072	601.42197
452.283	810.62562
452.494	732.42589
452.705	770.4673
452.915	787.37564
453.126	916.3209
453.337	806.39826
453.548	814.85301
453.759	909.9786
453.97	867.69844
454.181	918.43502
454.391	945.91919
454.602	1049.52372
454.813	901.52231
455.024	1138.33851
455.235	804.2846
455.445	941.69077
455.656	977.6332
455.867	977.6332
456.078	1074.89846
456.288	895.18018
456.499	1087.58612
456.71	1123.53545
456.921	1081.24227
457.131	1237.73541
457.342	1125.65016
457.553	1115.07666
457.763	1079.12766
457.974	1258.88462
458.184	1045.29468
458.395	1337.13873
458.606	1294.83886
458.816	1428.08524
459.027	1400.58962
459.237	1294.83886
459.448	1451.35081
459.659	1347.71381
459.869	1362.51897
460.08	1459.81102
460.29	1588.828
460.501	1734.75718
460.711	1535.95263
460.922	1529.60753
461.132	1641.70229
461.343	1703.03457
461.553	1595.17298
461.764	1867.98256
461.974	1840.49304
462.184	1686.11556
462.395	1884.89876
462.605	1825.69066
462.816	1908.158
463.026	1969.47454
463.236	1836.26381
463.447	2140.70891
463.657	1980.04585
463.867	2491.45944
464.078	2199.88952
464.288	2366.82596
464.498	2371.05142
464.709	2301.32623
464.919	2189.32203
465.129	2387.95286
465.339	2480.89874
465.55	2377.38954
465.76	2288.64779
465.97	2322.4562
466.18	2594.93909
466.391	2799.699
466.601	2461.88878
466.811	2795.4784
467.021	2806.0298
467.231	2846.12196
467.441	2696.27878
467.651	3065.48106
467.862	2852.45185
468.072	3253.06842
468.282	3151.91365
468.492	2926.29095
468.702	3362.60901
468.912	3328.90916
469.122	3406.83328
469.332	3564.71263
469.542	3419.46735
469.752	3554.19053
469.962	3726.6936
470.172	3768.74802
470.382	3829.71305
470.592	3863.34181
470.802	3810.79464
471.012	3966.29803
471.222	3999.90585
471.432	4037.70839
471.642	4060.80665
471.852	4178.35876
472.062	4358.75587
472.272	4167.86571
472.482	4553.65591
472.691	4786.02689
472.901	4564.129
473.111	4434.22355
473.321	4666.73583
473.531	4890.60746
473.741	4735.80802
473.95	5082.88586
474.16	4955.4187
474.37	5512.70842
474.58	5274.96812
474.79	5364.67792
474.999	5229.05336
475.209	5274.96812
475.419	5506.45601
475.628	5673.11438
475.838	5631.46393
476.048	5743.89847
476.258	5725.16416
476.467	6238.62391
476.677	6157.64677
476.886	6334.0896
477.096	6520.72755
477.306	6570.4659
477.515	6439.87424
477.725	6628.47716
477.935	6473.0491
478.144	6829.30538
478.354	6663.68946
478.563	7182.82287
478.773	6961.69311
478.982	7269.55181
479.192	7405.7618
479.401	7284.00285
479.611	7438.76809
479.82	7527.44506
480.03	7698.50021
480.239	7768.52888
480.449	7611.96052
480.658	7966.12687
480.868	8089.52961
481.077	8327.90371
481.287	7996.98441
481.496	8284.76949
481.705	8524.98003
481.915	8479.83232
482.124	8368.97593
482.333	8582.42749
482.543	8576.27312
482.752	8535.23959
482.961	8785.4281
483.171	9170.43831
483.38	8914.51709
483.589	9278.86788
483.799	9374.98317
484.008	9160.20665
484.217	9123.36914
484.426	9679.45301
484.636	9381.11695
484.845	9948.89814
485.054	9781.54634
485.263	10199.74363
485.472	9918.29242
485.682	10112.07392
485.891	10163.0478
486.1	10305.72898
486.309	10505.37302
486.518	10784.26384
486.727	10625.50756
486.936	10548.13778
487.146	10599.04097
487.355	10812.75086
487.564	10656.04334
487.773	11036.499
487.982	10920.57394
488.191	11193.04305
488.4	11251.98493
488.609	11438.91642
488.818	11438.91642
489.027	11717.13121
489.236	11780.06137
489.445	11899.80894
489.654	11629.82691
489.863	12167.61666
490.072	11914.01435
490.281	12175.72995
490.49	12125.01992
490.698	12427.18514
490.907	12210.21013
491.116	12840.65183
491.325	12467.73253
491.534	12631.92322
491.743	12534.63004
491.952	12883.20082
492.16	12688.67108
492.369	13069.57878
492.578	13014.88534
492.787	13130.34514
492.996	13223.5121
493.204	13225.53737
493.413	13290.34348
493.622	13413.86823
493.831	13345.02024
494.039	13500.93421
494.248	13468.53839
494.457	13670.99726
494.665	13895.68856
494.874	13926.04953
495.083	13804.6019
495.291	14278.19756
495.5	14357.11885
495.709	14027.24858
495.917	13897.71264
496.126	14369.26036
496.335	14245.81881
496.543	14278.19756
496.752	14448.17878
496.96	14610.05612
497.169	14860.95284
497.377	14686.94525
497.586	14723.36593
497.794	14976.2809
498.003	14545.30616
498.211	15089.58453
498.42	15103.74744
498.628	15368.79653
498.837	15474.00817
499.045	15360.70338
499.254	15063.28197
499.462	15391.05274
499.671	15656.10908
499.879	15621.71178
500.087	16109.37345
500.296	15951.53315
500.504	15765.37283
500.713	16058.78264
500.921	16072.94797
501.129	15747.16201
501.338	15599.45483
501.546	16348.17605
501.754	16168.06002
501.962	16206.51059
502.171	16093.18429
502.379	16489.85081
502.587	16200.43941
502.795	16275.31842
503.004	16384.60577
503.212	16827.88921
503.42	16680.11601
503.628	16977.70027
503.837	16831.93797
504.045	16838.01113
504.253	16728.69757
504.461	17012.11835
504.669	17220.66848
504.877	17133.60023
505.085	17139.67459
505.294	17354.31865
505.502	16854.20635
505.71	17054.63588
505.918	17216.61868
506.126	17929.57669
506.334	17579.12404
506.542	17627.73577
506.75	17475.83027
506.958	17753.32487
507.166	17573.04771
507.374	17903.23855
507.582	17749.27341
507.79	17842.46047
507.998	17789.78864
508.206	17972.12418
508.414	17797.89185
508.622	18148.40905
508.83	18002.51619
509.037	18365.25712
509.245	17893.10866
509.453	18270.00086
509.661	18259.8677
509.869	18606.47537
510.077	18634.85758
510.285	18511.19781
510.492	18393.63293
510.7	18486.87298
510.908	18438.225
511.116	19141.81369
511.324	18405.79422
511.531	18801.11168
511.739	18865.99856
511.947	18876.1375
512.155	18760.55946
512.362	18989.70051
512.57	18711.89887
512.778	19174.26747
512.985	18928.86161
513.193	18936.97326
513.401	19121.53061
513.608	19170.21069
513.816	19425.81992
514.024	19080.96567
514.231	18936.97326
514.439	19306.12173
514.646	19444.08023
514.854	19464.36986
515.061	19245.26376
515.269	19687.58329
515.477	19496.83413
515.684	19870.25013
515.892	19586.11638
516.099	19478.57285
516.307	19819.50593
516.514	20300.66654
516.722	20034.67937
516.929	19937.23649
517.136	19977.83651
517.344	20229.5942
517.551	19817.47622
517.759	20280.35963
517.966	20109.7982
518.173	20046.86041
518.381	20420.48584
518.588	20247.86945
518.796	21025.89674
519.003	20794.25309
519.21	20578.91341
519.418	21023.86455
519.625	20538.28853
519.832	21027.92894
520.039	20572.81957
520.247	20906.0043
520.454	20940.54812
520.661	21501.54176
520.868	21257.59362
521.076	21682.50692
521.283	21296.21489
521.49	21599.13707
521.697	21771.98432
521.904	21412.08741
522.112	21182.38796
522.319	21656.07187
522.526	21121.41448
522.733	21761.81605
522.94	21593.0371
523.147	21454.78057
523.354	21444.61537
523.561	21806.55714
523.768	21832.99594
523.975	21877.74001
524.183	21869.60458
524.39	22323.24679
524.597	22384.28899
524.804	22203.20677
525.011	22162.51816
525.218	22361.90647
525.425	22408.70679
525.632	22510.45321
525.838	22516.55828
526.045	22547.08411
526.252	22298.83084
526.459	22571.50536
526.666	22648.84267
526.873	22722.11428
527.08	22508.41819
527.287	23100.75508
527.494	22636.63118
527.701	23090.57505
527.907	23174.05377
528.114	23341.02757
528.321	22775.03547
528.528	23104.82712
528.735	23322.70013
528.941	23302.3366
529.148	23194.41527
529.355	23679.11239
529.562	22964.34949
529.768	23709.66637
529.975	23664.8541
530.182	23998.94332
530.388	23412.30341
530.595	23603.74882
530.802	23746.33202
531.008	23970.42048
531.215	23717.81421
531.422	24241.40952
531.628	24129.34046
531.835	23589.49131
532.042	24043.76605
532.248	24508.37011
532.455	24435.00243
532.661	24593.9699
532.868	24512.44619
533.074	24538.94095
533.281	24153.79119
533.487	24384.05463
533.694	24188.43039
533.9	24924.18115
534.107	24508.37011
534.313	24913.98851
534.52	24687.72712
534.726	25168.82169
534.933	25050.57469
535.139	24991.45404
535.345	25052.61337
535.552	25297.27076
535.758	25117.85224
535.965	25132.12354
536.171	25179.01574
536.377	25703.06112
536.584	25437.96278
536.79	25586.82155
536.996	25633.72447
537.203	25480.78406
537.409	25321.73822
537.615	25690.82508
537.821	25452.23644
538.028	26080.37224
538.234	25582.74308
538.44	25717.33659
538.646	25409.41577
538.853	26196.63725
539.059	25505.25376
539.265	26084.45162
539.471	26178.27925
539.677	25996.74654
539.883	26306.78817
540.09	25972.2713
540.296	26504.66391
540.502	26435.30368
540.708	26339.42641
540.914	26890.25762
541.12	26451.62357
541.326	26631.14902
541.532	26790.28376
541.738	27061.64932
541.944	27108.57971
542.15	26963.70999
542.356	27235.09127
542.562	27849.35408
542.768	27216.72637
542.974	27345.2829
543.18	27273.86197
543.386	27359.56727
543.592	27255.49684
543.798	27608.53347
544.004	27492.21089
544.21	27628.94135
544.415	27086.13465
544.621	27853.43592
544.827	27582.00341
545.033	27888.1318
545.239	27592.20725
545.445	28349.4139
545.651	27982.01645
545.856	28273.8904
546.062	28222.86186
546.268	27990.18044
546.474	27833.02674
546.679	27677.92076
546.885	27563.63656
547.091	27904.45939
547.297	28073.86244
547.502	28243.27319
547.708	27904.45939
547.914	28249.39662
548.119	28506.58913
548.325	28110.60148
548.531	28016.71355
548.736	28571.91056
548.942	28596.40637
549.147	28333.08437
549.353	28233.06751
549.559	28961.82017
549.764	28582.11713
549.97	28473.92882
550.175	28769.92273
550.381	29094.52058
550.586	28624.98501
550.792	29039.39834
550.997	29057.77233
551.203	29294.60026
551.408	29092.479
551.614	29243.55857
551.819	29227.22537
552.025	28827.08271
552.23	29172.10131
552.435	29672.32919
552.641	29664.16169
552.846	29651.91048
553.052	30021.50616
553.257	29923.48829
553.462	29943.90846
553.668	29864.27041
553.873	30160.36932
554.078	30427.90049
554.283	30082.76866
554.489	30366.63198
554.694	30268.60464
554.899	30589.24629
555.105	29694.7899
555.31	29796.88569
555.515	30068.47398
555.72	30387.05469
555.925	29792.8018
556.131	30399.30838
556.336	30291.06899
556.541	30454.45053
556.746	30425.85819
556.951	30358.46293
557.156	30199.17028
557.361	30646.43406
557.567	30820.04613
557.772	31259.22779
557.977	30877.23813
558.182	30436.06971
558.387	30750.60014
558.592	30909.91976
558.797	30840.47172
559.002	31130.53032
559.207	31005.92413
559.412	30813.91848
559.617	30946.68702
559.822	31255.14207
560.027	30920.13284
560.232	31189.77127
560.437	30956.90023
560.642	31081.50429
560.847	31005.92413
561.051	31153.00088
561.256	31173.42881
561.461	31465.56526
561.666	31692.35165
561.871	31030.4364
562.076	31316.42863
562.281	31498.2539
562.485	31216.32796
562.69	31195.89971
562.895	31304.17121
563.1	31447.17809
563.305	30875.19554
563.509	31193.8569
563.714	31651.48767
563.919	31383.8455
564.123	31778.16832
564.328	31582.0205
564.533	32293.13883
564.737	31669.87637
564.942	31432.87704
565.147	31880.33521
565.351	32148.03511
565.556	32051.98623
565.761	31998.85469
565.965	32248.17598
566.17	31684.1788
566.374	32317.66445
566.579	32417.81399
566.784	32137.81693
566.988	32540.45335
567.193	32381.02375
567.397	32174.60261
567.602	32325.83973
567.806	32172.55895
568.011	32035.63792
568.215	32405.55049
568.42	32640.61498
568.624	32501.61667
568.828	32673.32205
569.033	32611.9968
569.237	33059.72262
569.442	32973.84786
569.646	32650.83587
569.85	33178.31945
570.055	33049.49919
570.259	33368.50315
570.463	33716.21812
570.668	32977.93703
570.872	32685.58736
571.076	33065.85671
571.281	33198.76812
571.485	33145.60215
571.689	32679.45469
571.893	33562.80332
572.098	33270.3407
572.302	33505.53303
572.506	33335.78158
572.71	33346.00699
572.914	33331.69144
573.119	33327.60131
573.323	33256.02591
573.527	33515.75969
573.731	33407.36099
573.935	33724.40075
574.139	33980.13515
574.343	33568.93957
574.547	34194.99449
574.751	33826.68814
574.955	33609.84861
575.159	33501.44239
575.364	33407.36099
575.568	33957.62837
575.772	33826.68814
575.976	33337.82666
576.18	33787.81795
576.383	33793.95527
576.587	34027.19617
576.791	33677.35132
576.995	34023.10383
577.199	33982.18124
577.403	33687.57931
577.607	33959.67442
577.811	34323.92973
578.015	33888.06462
578.219	33990.36565
578.422	34373.05192
578.626	34649.40718
578.83	34606.41368
579.034	34023.10383
579.238	34170.43709
579.442	34328.02316
579.645	34381.23917
579.849	34678.07054
580.053	34784.54178
580.257	34508.14969
580.46	34606.41368
580.664	34540.9033
580.868	34512.24384
581.071	34792.73236
581.275	34723.11465
581.479	34719.01965
581.682	34076.30534
581.886	34594.13017
582.09	34807.06604
582.293	35075.35103
582.497	35331.42284
582.7	35173.67372
582.904	34676.02313
583.107	35046.67561
583.311	35181.86777
583.515	35466.65973
583.718	35171.62522
583.922	35298.64141
584.125	35399.03854
584.329	35431.82388
584.532	35593.72074
584.735	36075.51153
584.939	35688.00486
585.142	35837.65309
585.346	35655.20911
585.549	35895.06021
585.753	35733.10127
585.956	35970.92639
586.159	36186.26529
586.363	36409.87727
586.566	35628.56356
586.769	36176.00959
586.973	35710.55274
587.176	36171.90735
587.379	36422.18831
587.582	36943.56932
587.786	35878.65773
587.989	36475.53876
588.192	36370.89379
588.395	36141.14131
588.599	36645.87866
588.802	36352.42871
589.005	36104.22382
589.208	36354.48036
589.411	36762.88506
589.615	36063.20662
589.818	36434.49958
590.021	36305.24244
590.224	36723.88054
590.427	36457.07082
590.63	36418.0846
590.833	35825.35213
591.036	36535.05009
591.239	37190.0435
591.442	36762.88506
591.645	36760.83213
591.848	37101.71187
592.051	37448.95332
592.254	37068.84766
592.457	36906.60688
592.66	37290.71676
592.863	37529.11611
593.066	37782.01407
593.269	38080.30091
593.472	37580.50861
593.675	37525.00491
593.878	37744.9972
594.081	37629.84995
594.284	37518.83818
594.486	38142.03705
594.689	37658.63446
594.892	37311.26447
595.095	37543.50552
595.298	37648.3541
595.5	37502.39389
595.703	38156.44324
595.906	37325.64832
596.109	37325.64832
596.311	37498.2829
596.514	37309.20967
596.717	37666.85888
596.92	38405.53056
597.122	38372.58615
597.325	38347.8793
597.528	37701.8141
597.73	38735.09954
597.933	38428.18114
598.136	38382.88104
598.338	38002.11255
598.541	37981.53865
598.743	38397.29425
598.946	37983.59601
599.148	37923.9361
599.351	38236.71388
599.554	38426.12195
599.756	37827.26041
599.959	38436.41798
600.161	38242.88908
600.363	38454.95138
600.566	38372.58615
600.768	38784.55484
600.971	38978.30617
601.173	38607.36433
601.376	39277.34235
601.578	39036.03538
601.78	39295.90993
601.983	38982.42944
602.185	38926.7685
602.388	39054.59278
602.59	39178.3286
602.792	39326.85768
602.995	38568.22661
603.197	38951.50585
603.399	39163.89097
603.601	38737.16007
603.804	38704.19265
604.006	38712.43429
604.208	38426.12195
604.41	38605.30437
604.613	39147.3914
604.815	38897.90997
605.017	39721.12248
605.219	39139.14184
605.421	39215.45613
605.623	39475.43789
605.826	39231.95826
606.028	38636.20472
606.23	38967.99817
606.432	39141.20422
606.634	39772.75534
606.836	39361.93447
607.038	39500.20629
607.24	39198.95462
607.442	38924.70711
607.644	39108.20739
607.846	39040.15918
608.048	39388.75983
608.25	39438.28799
608.452	39845.05225
608.654	39673.62595
608.856	38924.70711
609.058	39333.04749
609.26	39568.32689
609.462	39372.25172
609.664	39595.16531
609.866	39351.61747
610.067	39427.96915
610.269	39256.71263
610.471	39031.91162
610.673	39812.00065
610.875	39584.84264
611.077	39454.79866
611.278	39411.45953
611.48	39547.68313
611.682	39159.76602
611.884	39785.14819
612.085	39102.02076
612.287	39496.07813
612.489	39739.70957
612.69	39983.48504
612.892	39677.75587
613.094	39836.7891
613.295	39370.18825
613.497	39256.71263
613.699	39328.92094
613.9	40148.84041
614.102	40014.48396
614.304	39372.25172
614.505	39314.47831
614.707	39634.39379
614.908	39264.9644
615.11	39900.83291
615.311	40322.53798
615.513	39611.68212
615.714	39667.43115
615.916	39586.90715
616.117	39683.95082
616.319	39869.84271
616.52	39849.18389
616.722	39900.83291
616.923	40297.71933
617.124	40051.68583
617.326	39355.74424
617.527	39050.46884
617.729	39091.70989
617.93	39318.60473
618.131	39673.62595
618.333	39954.55487
618.534	40252.22256
618.735	40456.99996
618.937	39388.75983
619.138	39944.22317
619.339	40343.2214
619.54	40186.05486
619.742	40070.28806
619.943	39857.44729
620.144	39888.43654
620.345	39857.44729
620.546	39366.06134
620.748	40088.89116
620.949	39531.16884
621.15	39564.19806
621.351	39203.07994
621.552	40037.21802
621.753	39619.94076
621.954	40026.8842
622.155	39248.46102
622.356	39615.81142
622.558	39983.48504
622.759	40099.22659
622.96	39549.74746
623.161	39605.48824
623.362	39574.52022
623.563	40068.2211
623.764	40183.9873
623.965	40548.04704
624.166	40597.71823
624.366	39892.56862
624.567	39791.34476
624.768	39475.43789
624.969	39475.43789
625.17	40161.24484
625.371	39907.03123
625.572	39938.02427
625.773	39576.58469
625.973	40099.22659
626.174	39888.43654
626.375	39795.47585
626.576	40093.0253
626.777	40345.28981
626.977	39762.42825
627.178	40070.28806
627.379	39805.80377
627.58	39973.15259
627.78	39958.68762
627.981	39820.2633
628.182	39950.42215
628.382	39979.35203
628.583	40215.00186
628.784	40217.06958
628.984	40163.31228
629.185	41007.75613
629.386	40119.89827
629.586	40647.39592
629.787	40165.37973
629.987	40239.81526
630.188	40086.82411
630.388	39853.31557
630.589	39603.42363
630.79	40202.59574
630.99	40140.57101
631.191	40661.88647
631.391	40268.76622
631.591	40080.62301
631.792	40080.62301
631.992	40904.16858
632.193	40612.20689
632.393	40248.08675
632.594	40746.7709
632.794	40521.14451
632.994	40583.23013
633.195	40349.42664
633.395	40885.52591
633.595	40893.81143
633.796	40835.81669
633.996	41022.26072
634.196	40608.06721
634.397	41196.36064
634.597	40686.72872
634.797	41144.53648
634.997	40641.18585
635.198	40875.16927
635.398	40411.48452
635.598	40279.10637
635.798	39708.73156
635.998	40688.79898
636.199	40788.18491
636.399	40643.25586
636.599	39867.77678
636.799	39975.21906
636.999	39789.27922
637.199	39605.48824
637.399	39884.30451
637.599	40225.34059
637.799	39884.30451
637.999	40510.79789
638.199	40531.49142
638.399	40368.04296
638.599	40212.93414
638.799	40651.53602
638.999	40823.39042
639.199	41212.94593
639.399	40763.33596
639.599	41150.75499
639.799	40902.09713
639.999	40585.29983
640.199	40237.74742
640.399	40537.69969
640.599	39182.45373
640.799	40873.09798
640.998	40719.85426
641.198	40879.31189
641.398	40628.76602
641.598	40742.62976
641.798	40908.31153
641.997	40866.88417
642.197	40634.97589
642.397	40966.31762
642.597	40744.70032
642.796	40779.90174
642.996	40688.79898
643.196	40566.67298
643.395	40655.67617
643.595	41038.83808
643.795	41414.10343
643.994	41229.53198
644.194	41438.99675
644.394	41511.61223
644.593	40835.81669
644.793	40844.10109
644.992	40916.59755
645.192	41312.4737
645.392	41331.13822
645.591	41387.13762
645.791	41134.17254
645.99	40966.31762
646.19	40877.24058
646.389	41526.13711
646.589	40823.39042
646.788	41223.31212
646.987	41252.33905
647.187	41648.58484
647.386	41590.46875
647.586	41939.31042
647.785	41588.39335
647.984	41615.37447
648.184	41416.17781
648.383	41621.60118
648.582	41457.66788
648.782	41760.69309
648.981	41453.51866
649.18	41345.65575
649.38	41885.30012
649.579	41480.48949
649.778	41906.07231
649.977	41881.14583
650.177	41951.77553
650.376	41779.3813
650.575	42057.74726
650.774	41671.4188
650.973	41611.22339
651.173	41185.99521
651.372	41034.69367
651.571	41538.58748
651.77	41366.39608
651.969	41515.76213
652.168	41744.08219
652.367	41492.93826
652.566	41696.33026
652.765	41812.60725
652.964	41895.68606
653.163	41833.37509
653.362	41513.68717
653.561	41295.88383
653.76	41920.61359
653.959	41673.49468
654.158	41835.45194
654.357	41364.322
654.556	40978.74868
654.755	41521.98708
654.954	41810.53054
655.153	41271.00045
655.352	41561.4143
655.551	41283.44193
655.749	41565.56479
655.948	41615.37447
656.147	41602.92139
656.346	41860.37513
656.545	41190.14135
656.743	41113.44554
656.942	41822.99102
657.141	41465.96648
657.34	42359.21925
657.538	41914.38154
657.737	42402.90297
657.936	41980.86256
658.135	42161.67293
658.333	41725.39588
658.532	42124.25604
658.731	41953.8531
658.929	41513.68717
659.128	41287.58918
659.326	41762.76951
659.525	42806.72729
659.724	42084.76489
659.922	42130.49191
660.121	42224.04355
660.319	41964.2411
660.518	41519.91209
660.716	41779.3813
660.915	42039.04399
661.113	42130.49191
661.312	42267.7098
661.51	42621.40692
661.709	42635.97893
661.907	41804.30047
662.105	41903.99504
662.304	42194.93584
662.502	42330.09992
662.701	42194.93584
662.899	41704.63448
663.097	41742.00589
663.296	41995.40699
663.494	42280.1869
663.692	41665.19121
663.891	41642.35766
664.089	41495.01309
664.287	41540.66258
664.485	42020.34174
664.684	42049.43457
664.882	41333.21212
665.08	41395.43458
665.278	41227.45869
665.476	41661.03954
665.675	42124.25604
665.873	42076.45155
666.071	41895.68606
666.269	41617.45003
666.467	41040.91031
666.665	41542.7377
666.863	40813.03551
667.061	41667.26706
667.259	41374.69256
667.457	42041.12208
667.655	41499.1628
667.853	41590.46875
668.051	40806.82271
668.249	41018.11649
668.447	41405.80604
668.645	41287.58918
668.843	41891.53165
669.041	41086.5022
669.239	40984.96437
669.437	41416.17781
669.635	41623.67677
669.833	41020.1886
670.031	41020.1886
670.229	40692.93953
670.426	41109.30028
670.624	41852.0672
670.822	41453.51866
671.02	41252.33905
671.218	41602.92139
671.415	41204.65319
671.613	41341.50782
671.811	41897.76328
672.009	41931.00059
672.206	41291.73648
672.404	41604.99687
672.602	41024.33285
672.799	41382.98922
672.997	41667.26706
673.195	41814.68398
673.392	41648.58484
673.59	41465.96648
673.788	41273.074
673.985	40390.79746
674.183	40875.16927
674.38	41368.47018
674.578	41030.54931
674.775	41275.14756
674.973	41038.83808
675.17	40906.24005
675.368	40699.15045
675.565	40914.52603
675.763	40825.46143
675.96	40651.53602
676.158	40887.59727
676.355	40668.09688
676.553	41434.84774
676.75	41007.75613
676.947	41312.4737
677.145	40581.16045
677.342	40951.81524
677.539	41109.30028
677.737	40982.89246
677.934	40775.76023
678.131	41364.322
678.329	41127.95432
678.526	41424.47543
678.723	41225.3854
678.92	41430.69878
679.118	40628.76602
679.315	40423.89729
679.512	40574.95146
679.709	40626.69609
679.906	40444.58613
680.104	40742.62976
680.301	40264.63024
680.498	40388.72881
680.695	40403.20956
680.892	40430.10382
681.089	40293.58304
681.286	40378.38575
681.483	39884.30451
681.68	40173.64965
681.877	40328.74289
682.075	39764.49365
682.272	40223.27282
682.469	39880.17251
682.665	39417.65056
682.862	39863.64495
683.059	39929.75923
683.256	39723.18767
683.453	39095.83421
683.65	38772.19051
683.847	39194.82934
684.044	39380.5057
684.241	39776.88625
684.438	40059.95338
684.635	39572.45577
684.831	39983.48504
685.028	39886.37052
685.225	39917.36198
685.422	39661.23645
685.619	39529.1046
685.815	39390.82339
686.012	39582.77814
686.209	39619.94076
686.405	40121.96549
686.602	39198.95462
686.799	38935.01413
686.996	39644.71768
687.192	39231.95826
687.389	39056.65476
687.586	39611.68212
687.782	39106.14517
687.979	39025.72605
688.175	38547.62912
688.372	38450.83279
688.568	38613.54426
688.765	38730.9785
688.962	39128.83012
689.158	39180.39116
689.355	39264.9644
689.551	39165.95346
689.748	39248.46102
689.944	38627.96443
690.14	39066.96481
690.337	39213.3934
690.533	39372.25172
690.73	39545.6188
690.926	39130.89244
691.123	38372.58615
691.319	38438.47721
691.515	39118.51863
691.712	38607.36433
691.908	38306.70399
692.104	38784.55484
692.301	38292.29345
692.497	38502.31776
692.693	38527.03251
692.889	38621.7843
693.086	38296.41071
693.282	38374.64511
693.478	38043.26283
693.674	38098.82096
693.87	38207.89729
694.067	38465.24802
694.263	38316.9975
694.459	38555.86801
694.655	38906.15507
694.851	38972.12134
695.047	38524.9729
695.243	38642.38503
695.439	37712.09547
695.635	37975.36664
695.831	37777.90096
696.027	37841.65779
696.224	37747.05363
696.42	37788.1838
696.615	38409.64877
696.811	38240.83067
697.007	38813.40621
697.203	37919.82187
697.399	37631.90593
697.595	37693.58914
697.791	37346.19729
697.987	37348.25223
698.183	38067.95458
698.379	37300.99052
698.575	37477.72838
698.77	37856.05556
698.966	38094.70534
699.162	37514.72706
699.358	37391.40764
699.554	37321.53861
699.749	37327.70318
699.945	37083.22553
700.141	37013.39338
700.337	37249.62352
700.532	37305.10008
700.728	37679.19576
700.924	37977.42397
701.119	37919.82187
701.315	37344.14236
701.511	37144.84892
701.706	37249.62352
701.902	36795.73285
702.097	37085.27954
702.293	36826.52921
702.489	36557.62475
702.684	36311.39699
702.88	36738.25035
703.075	37370.85703
703.271	37146.90315
703.466	37142.79471
703.662	37354.41708
703.857	37007.23211
704.053	37029.82374
704.248	37021.60851
704.443	37183.8804
704.639	36457.07082
704.834	36826.52921
705.03	36886.07316
705.225	36711.56382
705.42	36923.03436
705.616	36865.54011
705.811	36754.67338
706.006	36910.71371
706.202	36828.58235
706.397	36551.46795
706.592	37046.25456
706.787	37444.84272
706.983	37502.39389
707.178	37475.67297
707.373	36450.91495
707.568	36518.63263
707.763	36473.48674
707.959	36756.72629
708.154	36565.83391
708.349	36132.93726
708.544	36596.61919
708.739	36873.75325
708.934	37140.7405
709.129	37101.71187
709.324	36514.52834
709.519	37204.42433
709.714	36920.9809
709.909	37167.44578
710.104	36221.1358
710.299	35931.96712
710.494	35798.70074
710.689	36541.20674
710.884	36498.11139
711.079	36418.0846
711.274	35843.80365
711.469	35975.02749
711.664	35712.60258
711.859	36083.71493
712.054	35745.40074
712.249	36153.44757
712.443	36046.80039
712.638	36145.24337
712.833	35521.9903
713.028	35806.90107
713.223	35495.34919
713.417	35936.06799
713.612	36118.5804
713.807	35931.96712
714.002	35882.75832
714.196	35548.63229
714.391	35753.6005
714.586	35849.95425
714.78	35638.81174
714.975	35975.02749
715.17	35198.25611
715.364	35054.86849
715.559	35458.46293
715.754	35192.11045
715.948	35343.7162
716.143	35216.69335
716.337	35130.6562
716.532	35774.10028
716.726	35452.31538
716.921	34856.21172
717.115	34692.40254
717.31	35061.0132
717.504	35460.51212
717.699	35237.17964
717.893	34942.22282
718.088	34807.06604
718.282	34807.06604
718.476	34843.92506
718.671	35286.34871
718.865	35524.03965
719.059	35173.67372
719.254	34903.31206
719.448	34315.74291
719.642	34878.73767
719.837	34637.12314
720.031	34735.39977
720.225	34182.71572
720.419	34694.44998
720.614	34467.20913
720.808	35093.7857
721.002	34291.18284
721.196	34864.40291
721.39	34434.45785
721.585	34639.17047
721.779	34461.06819
721.973	34377.14554
722.167	34188.85509
722.361	34094.72181
722.555	34301.41613
722.749	34078.3516
722.943	33650.75893
723.137	33691.67053
723.331	34248.20403
723.525	34025.15
723.719	34237.97123
723.913	34802.97068
724.107	34311.64953
724.301	34213.41289
724.495	34328.02316
724.689	34233.87813
724.883	34325.97644
725.077	34070.16658
725.271	33949.44419
725.465	33963.76654
725.659	33761.22325
725.853	34037.42708
726.046	33843.0549
726.24	33233.53151
726.434	33262.1608
726.628	33456.44614
726.822	33673.26015
727.015	33525.98643
727.209	33092.43806
727.403	33642.57676
727.596	33697.80739
727.79	34287.08954
727.984	33912.61607
728.177	33542.34937
728.371	33624.16708
728.565	33435.99378
728.758	33495.30645
728.952	33845.10076
729.146	34092.67552
729.339	34043.56566
729.533	33648.71338
729.726	33781.68066
729.92	33861.46777
730.113	33908.52413
730.307	33401.22547
730.5	33127.19899
730.694	32877.75542
730.887	32922.73415
731.081	33260.11584
731.274	32771.44697
731.468	32503.66068
731.661	32955.44674
731.854	32501.61667
732.048	33061.76731
732.241	33364.41291
732.435	33883.97276
732.628	33409.40617
732.821	33681.44251
733.014	33552.5763
733.208	33509.62368
733.401	33444.17469
733.594	32975.89244
733.788	32830.73354
733.981	32959.53586
734.174	33037.23115
734.367	33159.91588
734.56	32994.2938
734.754	33225.35181
734.947	33460.53664
735.14	32810.28966
735.333	33125.1542
735.526	32370.80437
735.719	32190.95202
735.912	32595.64376
736.105	32334.01504
736.298	32436.20937
736.491	32374.89211
736.684	32170.51528
736.877	32481.17664
737.07	32675.36626
737.263	33123.10942
737.456	33223.3069
737.649	32665.14522
737.842	32937.04582
738.035	33129.24377
738.228	33208.99256
738.421	32871.62206
738.614	32810.28966
738.807	32836.86675
739	32383.06763
739.192	32391.24319
739.385	32804.15654
739.578	32812.33403
739.771	33251.93599
739.964	32577.24677
740.156	32943.17944
740.349	32661.05683
740.542	32755.09243
740.735	32466.86875
740.927	32440.29726
741.12	32454.60494
741.313	32342.19038
741.505	32816.42279
741.698	32562.93813
741.891	32859.3554
742.083	32998.38303
742.276	33127.19899
742.468	33229.44166
742.661	32511.83677
742.854	32297.22641
743.046	32205.25786
743.239	32287.00747
743.431	32266.56975
743.624	32033.59439
743.816	32076.50893
744.009	32393.28708
744.201	32276.78858
744.393	32011.1157
744.586	32007.02869
744.778	32199.12677
744.971	32323.7959
745.163	32591.55552
745.355	32244.0885
745.548	31980.46332
745.74	32354.45347
745.932	32045.8556
746.125	32336.05887
746.317	32023.37678
746.509	31606.5381
746.702	31735.25959
746.894	31577.93426
747.086	31322.55737
747.278	31020.22293
747.471	31244.92778
747.663	31596.3224
747.855	31645.35813
748.047	31567.71869
748.239	31933.46384
748.431	31843.5546
748.623	31555.46005
748.815	31496.21085
749.008	31206.11382
749.2	31782.25491
749.392	31326.6432
749.584	30689.32556
749.776	31007.96682
749.968	30854.76971
750.16	31065.16246
750.352	30773.06779
750.544	31265.3564
750.736	31161.17203
750.928	31545.24457
751.12	31342.98658
751.311	30742.43012
751.503	31253.09921
751.695	30928.30333
751.887	30660.73116
752.079	31022.26562
752.271	30407.47753
752.463	31040.6499
752.654	30746.51513
752.846	31208.15665
753.038	30768.98275
753.23	31418.57608
753.421	30928.30333
753.613	30078.68446
753.805	30519.80536
753.997	30333.95589
754.188	30284.94233
754.38	29945.95049
754.572	29749.92129
754.763	29645.78488
754.955	29398.72732
755.146	29874.48032
755.338	29860.18645
755.53	29415.06123
755.721	29772.38245
755.913	30144.0322
756.104	29986.7912
756.296	30452.40821
756.487	30152.20075
756.679	30076.64236
756.87	29917.36226
757.062	29619.24076
757.253	30086.85286
757.445	29707.04125
757.636	29402.81079
757.827	29388.51867
758.019	29511.02428
758.21	29584.52949
758.401	29478.35575
758.593	29486.52286
758.784	29549.81852
758.975	29535.52586
759.167	29792.8018
759.358	29829.55692
759.549	29582.48766
759.74	29243.55857
759.932	28722.9705
760.123	29159.85162
760.314	28920.99016
760.505	28651.52251
760.696	28680.10155
760.888	29119.01959
761.079	28504.54785
761.27	28753.59145
761.461	28757.67426
761.652	28918.94867
761.843	28637.23307
762.034	28678.06018
762.225	28147.34087
762.416	28179.99841
762.607	28028.95967
762.798	28288.17852
762.989	28416.77393
763.18	28506.58913
763.371	28024.87763
763.562	28192.24506
763.753	28257.5612
763.944	28516.79553
764.135	27986.09844
764.326	28578.0345
764.517	27759.55463
764.708	27773.84075
764.899	27741.18684
765.089	27428.94942
765.28	27716.69661
765.471	27708.53324
765.662	27173.87536
765.853	27143.26785
766.043	26955.54852
766.234	26939.22566
766.425	26370.02515
766.615	27228.96963
766.806	27561.59581
766.997	27390.17686
767.187	27326.91736
767.378	27604.45191
767.569	27200.40211
767.759	27402.42078
767.95	27428.94942
768.141	27371.81108
768.331	26886.17698
768.522	27143.26785
768.712	27437.11212
768.903	27182.03741
769.093	26816.8071
769.284	26551.58511
769.474	26433.2637
769.665	26316.98757
769.855	26753.55955
770.046	26880.05604
770.236	26588.30662
770.426	26637.26942
770.617	27147.34883
770.807	26955.54852
770.998	27351.40477
771.188	27024.9217
771.378	26986.15414
771.569	27135.1059
771.759	26490.38372
771.949	26186.43834
772.139	26335.34661
772.33	25370.67405
772.52	25403.29861
772.71	25856.01746
772.9	25890.68903
773.09	25701.02177
773.281	25902.92619
773.471	25882.53097
773.661	25892.72855
773.851	26249.67227
774.041	25450.19734
774.231	25711.21852
774.421	25260.57015
774.611	25354.36197
774.802	25287.07608
774.992	25525.64541
775.182	25401.25956
775.372	25254.45345
775.562	25205.52054
775.752	25448.15824
775.942	25109.69725
776.131	25258.53125
776.321	24889.5264
776.511	25032.2267
776.701	25229.98684
776.891	24940.4895
777.081	25009.80162
777.271	25450.19734
777.461	25517.48873
777.651	25142.3174
777.84	24962.91372
778.03	24983.29961
778.22	24712.18638
778.41	25050.57469
778.599	25223.87024
778.789	24966.99088
778.979	25172.8993
779.169	24844.6801
779.358	24379.97887
779.548	24687.72712
779.738	24665.30644
779.927	24563.39804
780.117	24379.97887
780.307	24779.45115
780.496	24869.14158
780.686	24569.51236
780.875	24435.00243
781.065	24249.56032
781.254	24196.58091
781.444	23992.83123
781.633	23958.19657
781.823	24125.26538
782.012	23974.49513
782.202	23929.67452
782.391	23715.77724
782.581	23719.85117
782.77	24113.0402
782.96	23827.81466
783.149	23565.05021
783.338	23935.78634
783.528	24390.16828
783.717	24111.00267
783.906	24080.4402
784.096	23895.04136
784.285	23601.71202
784.474	23868.55774
784.663	23713.74028
784.853	23782.99863
785.042	23330.84563
785.231	23106.86315
785.42	23165.90926
785.61	23188.30678
785.799	22781.14191
785.988	23070.21522
786.177	22471.78851
786.366	22626.45503
786.555	22475.85842
786.744	22903.27723
786.933	23041.71202
787.122	23597.63844
787.312	23255.5017
787.501	23100.75508
787.69	22693.61922
787.879	22734.32665
788.068	22302.90012
788.257	22030.29051
788.445	22054.70057
788.634	22388.35859
788.823	21900.11274
789.012	22199.13784
789.201	22140.14006
789.39	22388.35859
789.579	22231.68968
789.768	22624.41981
789.957	22164.55255
790.145	22451.43919
790.334	22221.51713
790.523	22370.04552
790.712	22557.25957
790.9	22372.08029
791.089	21942.8256
791.278	22459.57887
791.467	22296.7962
791.655	22577.61075
791.844	22050.63219
792.033	22241.86232
792.221	22028.25636
792.41	21969.26774
792.599	21739.44621
792.787	21668.27258
792.976	22317.14275
793.164	21934.68968
793.353	22115.7281
793.541	21869.60458
793.73	21629.63747
793.918	21780.119
794.107	21601.1704
794.295	21428.35127
794.484	21532.03931
794.672	21491.3761
794.861	21188.48551
795.049	21509.67435
795.238	21166.12801
795.426	21649.97156
795.614	20971.02894
795.803	20891.78073
795.991	21137.67372
796.179	21257.59362
796.368	20887.71689
796.556	21056.38015
796.744	20136.19267
796.932	20609.38316
797.121	20497.66532
797.309	20875.52546
797.497	21166.12801
797.685	21029.96114
797.874	20550.47582
798.062	20485.47869
798.25	20217.41089
798.438	20798.31655
798.626	20623.6027
798.814	21084.83215
799.002	21060.44467
799.19	21068.57377
799.378	20784.09451
799.566	20625.63408
799.755	20333.15847
799.943	20723.1452
800.131	20950.70829
800.318	20566.72577
800.506	20806.44352
800.694	20650.01096
800.882	20310.82015
801.07	20595.16383
801.258	20329.09692
801.446	20621.57133
801.634	20221.47198
801.822	20325.03538
802.01	20708.92423
802.197	21119.3821
802.385	20485.47869
802.573	20499.69644
802.761	20479.38543
802.949	20694.70347
803.136	20057.01139
803.324	20446.88867
803.512	20652.0424
803.699	20599.22647
803.887	20735.33476
804.075	20619.53996
804.262	20231.62477
804.45	20585.00728
804.638	20207.25824
804.825	20367.68232
805.013	20268.17569
805.201	20715.01891
805.388	20337.22003
805.576	20475.32327
805.763	20304.72797
805.951	20483.4476
806.138	20753.61939
806.326	20654.07383
806.513	20268.17569
806.701	20365.65147
806.888	20645.94811
807.075	20763.77766
807.263	20497.66532
807.45	20676.41993
807.638	20243.80826
807.825	20578.91341
808.012	20408.30016
808.2	20158.52701
808.387	20377.83662
808.574	20879.58925
808.761	20749.55611
808.949	20938.51609
809.136	20593.13251
809.323	20593.13251
809.51	20613.44587
809.698	20306.7587
809.885	20325.03538
810.072	20552.50705
810.259	20621.57133
810.446	20670.32549
810.633	20524.07022
810.82	20548.44459
811.008	20442.82665
811.195	20105.73758
811.382	20111.82852
811.569	20188.98375
811.756	19760.64595
811.943	20501.72757
812.13	20205.22773
812.317	20385.96014
812.504	20637.82245
812.691	21147.83587
812.878	20897.87652
813.064	20946.64421
813.251	20784.09451
813.438	20404.2383
813.625	20130.10158
813.812	20191.01423
813.999	19612.49677
814.186	19720.05492
814.372	20040.76987
814.559	19998.13715
814.746	19965.65633
814.933	19994.07699
815.12	19945.35636
815.306	20032.64921
815.493	20339.25082
815.68	20327.06615
815.866	20126.04087
816.053	20367.68232
816.24	20052.95099
816.426	20061.07182
816.613	19713.96641
816.799	20046.86041
816.986	19811.3871
817.173	20227.56364
817.359	19734.26159
817.546	20018.43821
817.732	19699.76003
817.919	20071.22295
818.105	19346.69577
818.292	19373.06979
818.478	19539.44511
818.665	19492.77604
818.851	19776.88283
819.037	19446.10917
819.224	19707.87793
819.41	19239.17816
819.597	19768.76436
819.783	19695.7011
819.969	19653.08337
820.156	19963.62631
820.342	20075.28343
820.528	20093.5558
820.714	19762.67555
820.901	19811.3871
821.087	19509.00851
821.273	19726.14346
821.459	19638.87787
821.646	19673.3773
821.832	19604.37966
822.018	19600.32112
822.204	19192.52318
822.39	19584.08715
822.576	19184.40949
822.762	19342.63829
822.948	19235.12112
823.134	19373.06979
823.32	19310.17906
823.507	19168.1823
823.693	19470.45683
823.879	19164.12555
824.065	19072.85288
824.25	19224.97859
824.436	18926.83371
824.622	18973.47645
824.808	18780.83537
824.994	19186.4379
825.18	18863.97078
825.366	19162.09718
825.552	18843.69323
825.738	19348.72452
825.923	19300.03577
826.109	19511.03759
826.295	19253.37794
826.481	19267.57792
826.667	19119.50232
826.852	19095.16322
827.038	18872.08191
827.224	19267.57792
827.409	19164.12555
827.595	19064.74016
827.781	18734.20136
827.966	18661.21318
828.152	18132.19781
828.338	18513.2249
828.523	17909.31653
828.709	18280.13412
828.894	18008.59469
829.08	18476.7378
829.266	18223.3891
829.451	18389.5792
829.637	17840.43459
829.822	17795.86604
830.008	17822.2018
830.193	17741.17053
830.378	17797.89185
830.564	18085.59178
830.749	17611.53165
830.935	17872.84912
831.12	17805.99511
831.305	18229.46878
831.491	17878.92695
831.676	17966.04587
831.861	17714.83653
832.047	17605.45516
832.232	17530.51417
832.417	17662.17022
832.602	17571.02227
832.788	17931.60273
832.973	18061.27635
833.158	18122.0659
833.343	17558.8697
833.528	17982.25476
833.714	17694.57999
833.899	18195.01768
834.084	18034.93521
834.269	18089.6444
834.454	17441.40084
834.639	17645.96566
834.824	17485.95674
835.009	17293.56696
835.194	17240.91768
835.379	17453.5523
835.564	17022.24146
835.749	17692.55436
835.934	17249.01744
836.119	17354.31865
836.304	17004.01991
836.489	17111.32781
836.674	16892.67064
836.859	17022.24146
837.044	17297.61699
837.228	17042.48789
837.413	17062.73459
837.598	17550.76806
837.783	17151.82338
837.968	17232.81797
838.152	16870.40173
838.337	17467.72915
838.522	16765.13463
838.707	17111.32781
838.891	16724.64905
839.076	16759.06173
839.261	16244.96178
839.445	16574.86052
839.63	16591.05327
839.815	16582.95688
839.999	16453.41922
840.184	16823.84045
840.368	16493.89881
840.553	16761.08603
840.737	16613.31855
840.922	16661.89827
841.106	16137.70473
841.291	16311.74694
841.475	16210.55806
841.66	16400.79697
841.844	16182.22595
842.029	16412.94044
842.213	16253.05684
842.397	16161.98893
842.582	15745.13859
842.766	16204.48686
842.951	15688.48324
843.135	15623.73515
843.319	15807.86508
843.504	15741.09175
843.688	15767.39626
843.872	15680.38968
844.056	15801.79473
844.241	16089.13701
844.425	15884.75708
844.609	15864.52218
844.793	15745.13859
844.977	15773.46656
845.161	15176.58519
845.346	15429.4954
845.53	15550.89453
845.714	15615.6417
845.898	15251.44625
846.082	15425.4488
846.266	15550.89453
846.45	15465.91492
846.634	15344.51708
846.818	15188.72482
847.002	14972.23433
847.186	15308.098
847.37	15095.65435
847.554	15486.14807
847.738	15217.05061
847.922	15471.98486
848.106	15401.16921
848.29	15204.91098
848.473	15210.9808
848.657	15036.97937
848.841	14990.4439
849.025	15028.88626
849.209	14773.94975
849.392	14796.20648
849.576	14735.5061
849.76	14897.3724
849.944	14688.96863
850.127	14984.37405
850.311	14952.00143
850.495	14794.18314
850.678	14830.60307
850.862	15097.67762
851.046	14551.37652
851.229	14854.8829
851.413	14690.99201
851.596	14642.43067
851.78	14454.24934
851.964	14482.57842
852.147	14365.2132
852.331	14294.38676
852.514	14363.18961
852.698	14172.96481
852.881	13928.07358
853.065	14401.63743
853.248	14004.98532
853.431	14381.40181
853.615	14211.41585
853.798	14338.90648
853.982	14241.77143
854.165	14353.07167
854.348	13938.19375
854.532	13934.14569
854.715	13970.57789
854.898	13701.36315
855.081	13729.704
855.265	14136.53682
855.448	13845.08557
855.631	13883.544
855.814	13713.5093
855.997	13830.91641
856.181	13652.77737
856.364	13924.02549
856.547	13695.29003
856.73	13798.52925
856.913	13555.60003
857.096	13727.67967
857.279	13490.81062
857.462	13259.96616
857.645	13322.74489
857.828	13462.46406
858.011	13399.69402
858.194	13361.22019
858.377	12800.12674
858.56	13231.61313
858.743	13144.52335
858.926	12994.62759
859.109	12879.14863
859.292	12704.8839
859.475	12678.53788
859.658	13041.21967
859.841	12946.00693
860.023	12978.42103
860.206	12378.52474
860.389	12794.04778
860.572	12577.19756
860.755	12745.41431
860.937	12400.8279
861.12	12615.70868
861.303	12528.54873
861.486	12690.6977
861.668	12473.81441
861.851	12569.08968
862.034	12378.52474
862.216	12585.30535
862.399	12149.36132
862.581	12234.5478
862.764	11966.77379
862.947	12329.86042
863.129	11739.46222
863.312	11995.18046
863.494	11717.13121
863.677	11983.00636
863.859	12256.85642
864.042	12402.85542
864.224	12183.84313
864.406	12331.88818
864.589	12118.9344
864.771	11808.47871
864.954	11717.13121
865.136	11806.44896
865.318	11469.38647
865.501	11570.93781
865.683	11560.78373
865.865	11574.99938
866.048	11239.79077
866.23	11213.36883
866.412	11079.19917
866.594	11142.22402
866.777	11418.60185
866.959	11530.3201
867.141	11627.79638
867.323	11644.04037
867.505	11471.41773
867.687	11321.07819
867.869	11197.10829
868.052	11473.44898
868.234	11292.62945
868.416	11633.88795
868.598	11566.87621
868.78	11587.18385
868.962	11658.25339
869.144	11585.15313
869.326	11286.53303
869.508	11432.82215
869.69	11130.02647
869.872	11247.92025
870.054	11144.25691
870.236	11184.91245
870.417	10936.84632
870.599	11178.81439
870.781	11038.53245
870.963	11420.63335
871.145	11211.3363
871.327	11306.85406
871.508	10890.06126
871.69	11217.43386
871.872	11107.66328
872.054	11018.19745
872.235	10798.50764
872.417	11077.16593
872.599	10786.29871
872.78	11099.53089
872.962	10824.95888
873.144	10985.65914
873.325	10820.88959
873.507	11083.2656
873.689	10678.4345
873.87	10993.79398
874.052	10753.73947
874.233	11117.82853
874.415	11219.46635
874.596	11286.53303
874.778	10849.37366
874.959	10786.29871
875.141	10924.6421
875.322	10987.69287
875.503	11134.09236
875.685	11353.58862
875.866	11091.39833
876.048	11056.83301
876.229	10356.67053
876.41	10592.933
876.592	10611.25658
876.773	10700.82418
876.954	10556.28281
877.136	11097.49777
877.317	10674.36349
877.498	10879.88979
877.679	10645.86505
877.86	10619.40007
878.042	10871.75241
878.223	10857.51155
878.404	10515.55561
878.585	10603.11289
878.766	10531.8471
878.947	10696.75344
879.128	10564.42765
879.309	10564.42765
879.49	11028.36509
879.672	11022.26454
879.853	10965.32125
880.034	11233.69356
880.215	11056.83301
880.396	11081.23239
880.576	11073.09944
880.757	11069.0329
880.938	10826.99351
881.119	11266.21098
881.3	10916.50573
881.481	11172.71623
881.662	11199.1409
881.843	11239.79077
882.023	11193.04305
882.204	11245.8879
882.385	10548.13778
882.566	10688.61181
882.747	10920.57394
882.927	11058.86635
883.108	10654.00771
883.289	11040.56589
883.469	10922.60803
883.65	11329.20603
883.831	11241.82316
884.011	11601.39866
884.192	11558.75289
884.373	11406.41263
884.553	11207.2712
884.734	11264.17872
884.914	11050.73292
885.095	11497.82323
885.275	11152.38836
885.456	11408.44419
885.636	11247.92025
885.817	11280.43652
885.997	11132.05942
886.178	10967.35509
886.358	11073.09944
886.538	10975.49034
886.719	10806.6467
886.899	11089.36517
887.08	10920.57394
887.26	11191.01042
887.44	11008.02953
887.621	11205.23864
887.801	10633.6507
887.981	11109.69635
888.161	10725.24763
888.342	10944.98224
888.522	11064.96631
888.702	11105.6302
888.882	11148.32265
889.062	11180.84709
889.242	11056.83301
889.423	10973.45654
889.603	10979.55789
889.783	11233.69356
889.963	11154.42119
890.143	11115.7955
890.323	11008.02953
890.503	11048.69954
890.683	10879.88979
890.863	10999.895
891.043	10780.19408
891.223	11097.49777
891.403	10831.06274
891.583	11195.07568
891.763	10684.54092
891.943	10926.67617
892.122	10761.87956
892.302	10715.0714
892.482	10772.05441
892.662	10643.82936
892.842	10780.19408
893.022	10873.78677
893.201	10733.38839
893.381	11144.25691
893.561	11083.2656
893.741	11123.92755
893.92	11091.39833
894.1	11398.2863
894.28	11069.0329
894.459	11113.76246
894.639	10704.89488
894.819	10975.49034
894.998	10609.22067
895.178	10723.21241
895.357	10519.62856
895.537	10660.11457
895.716	10963.2874
895.896	10912.43747
896.075	10780.19408
896.255	10708.96553
896.434	10315.91795
896.614	11069.0329
896.793	10537.9562
896.973	10615.32835
897.152	10205.85917
897.331	10654.00771
897.511	10806.6467
897.69	10432.04892
897.87	10381.11954
898.049	10708.96553
898.228	10613.29247
898.407	10733.38839
898.587	10896.164
898.766	10855.4771
898.945	10511.48261
899.124	10372.97009
899.304	10698.78882
899.483	10727.28284
899.662	10489.08021
899.841	10537.9562
900.02	10030.49745
900.199	10105.95646
900.378	9859.112
900.557	9867.27556
900.737	9887.68341
900.916	9908.08978
901.095	9736.62997
901.274	9777.46334
901.453	9659.02975
901.632	9830.53769
901.811	9546.67395
901.989	9779.50485
902.168	9522.15363
902.347	9801.96045
902.526	9650.86001
902.705	10030.49745
902.884	9826.45541
903.063	10163.0478
903.242	9942.77725
903.42	10126.34748
903.599	9483.3251
903.778	9563.01957
903.957	9100.8546
904.135	9777.46334
904.314	9438.3585
904.493	9867.27556
904.672	9538.50077
904.85	9654.94491
905.029	9581.40717
905.207	9738.67178
905.386	9481.28133
905.565	9636.56237
905.743	9699.87474
905.922	9612.05036
906.1	9473.1061
906.279	9593.66487
906.457	9219.54436
906.636	9428.13773
906.814	9180.66954
906.993	9329.99758
907.171	9170.43831
907.35	9166.3457
907.528	8875.59301
907.707	9082.43205
907.885	8887.88552
908.063	8844.8589
908.242	9027.15599
908.42	9280.91327
908.598	8822.31797
908.777	8947.29028
908.955	8898.12879
909.133	9006.68015
909.311	8748.53233
909.49	8723.93186
909.668	8420.30531
909.846	8566.01544
910.024	8629.60546
910.202	8582.42749
910.38	8336.11878
910.559	8461.36014
910.737	8015.49674
910.915	8438.78093
911.093	8173.81305
911.271	8266.28074
911.449	7999.04142
911.627	8243.68123
911.805	7912.62955
911.983	8021.66714
912.161	7900.28204
912.339	8214.91475
912.517	7801.47515
912.695	8140.92595
912.872	7912.62955
913.05	7900.28204
913.228	7982.5848
913.406	7873.52655
913.584	7743.81565
913.762	7982.5848
913.939	7840.59193
914.117	8085.41736
914.295	7397.50935
914.473	7548.06191
914.65	7447.0188
914.828	7603.71669
915.006	7356.24192
915.184	7762.35085
915.361	7224.12723
915.539	7603.71669
915.716	7164.23302
915.894	7570.73796
916.072	7484.14269
916.249	7574.8606
916.427	7517.13583
916.604	7529.50684
916.782	7347.98738
916.959	7578.98315
917.137	7244.77609
917.314	7620.20401
917.492	7240.64649
917.669	7079.52309
917.847	6849.99709
918.024	6980.3027
918.201	6789.98485
918.379	7011.31463
918.556	7182.82287
918.733	7240.64649
918.911	6787.91512
919.088	7071.2567
919.265	6692.68283
919.442	6748.58592
919.62	6458.53583
919.797	6566.32155
919.974	6537.30848
920.151	6990.64058
920.328	6622.26253
920.506	6895.51085
920.683	6653.33359
920.86	6483.41503
921.037	6234.4721
921.214	6539.38099
921.391	6396.3232
921.568	6665.76056
921.745	6348.61265
921.922	6460.60923
922.099	6190.87248
922.276	6441.94784
922.453	6234.4721
922.63	6367.28347
922.807	6118.18344
922.984	6222.01612
923.161	5750.14282
923.338	6074.5562
923.514	5606.46913
923.691	5991.42798
923.868	5764.71213
924.045	5791.76636
924.222	5716.83719
924.399	5693.93606
924.575	5643.96005
924.752	6049.62169
924.929	5939.4537
925.105	5933.21579
925.282	5448.08996
925.459	5951.92887
925.635	5562.72007
925.812	5706.42794
925.989	5456.42909
926.165	5475.19077
926.342	5350.07695
926.518	5393.87641
926.695	5158.07195
926.871	5260.36011
927.048	5151.8076
927.224	5373.02082
927.401	4997.22067
927.577	5045.28154
927.754	5068.26285
927.93	5226.96605
928.107	4794.39543
928.283	4995.13079
928.459	4763.01153
928.636	5022.29743
928.812	4754.64163
928.988	4735.80802
929.165	4629.04976
929.341	4896.88048
929.517	4465.66006
929.693	4708.6007
929.87	4406.97459
930.046	4566.22355
930.222	4394.3969
930.398	4656.26821
930.574	4297.942
930.751	4524.32829
930.927	4360.85257
931.103	4283.26008
931.279	4121.69004
931.455	4098.59841
931.631	4086.0019
931.807	4205.63822
931.983	3873.84976
932.159	4127.98732
932.335	3886.45863
932.511	4092.30025
932.687	3901.16808
932.863	3859.1385
933.039	3627.83543
933.215	3985.20307
933.391	3655.18339
933.566	3663.59751
933.742	3520.51672
933.918	3638.35426
934.094	3288.88485
934.27	3716.17879
934.445	3194.06609
934.621	3528.93562
934.797	2924.18151
934.973	3225.6761
935.148	3141.37453
935.324	3107.64664
935.5	2979.02222
935.675	3057.04719
935.851	2778.59545
936.027	2863.00136
936.202	2417.52879
936.378	2413.30378
936.553	2330.90792
936.729	2499.90779
936.904	2246.38392
937.08	2271.74269
937.255	2216.79707
937.431	2208.34336
937.606	1937.7597
937.782	2003.30218
937.957	2035.01409
938.133	2022.32951
938.308	1684.00067
938.483	1724.18306
938.659	1561.33292
938.834	1569.79297
939.009	1402.70467
939.185	1531.72256
939.36	1485.19163
939.535	1512.68723
939.71	1222.93113
939.886	1442.8906
940.061	1123.53545
940.236	1140.45325
940.411	1051.63825
940.586	1108.73262
940.761	867.69844
940.937	1019.92089
941.112	863.47061
941.287	986.09053
941.462	920.54914
941.637	886.72411
941.812	745.10599
941.987	835.99052
942.162	869.81237
942.337	897.29422
942.512	700.72734
942.687	884.61012
942.862	740.87925
943.037	645.78918
943.212	614.09776
943.386	751.44618
943.561	538.05013
943.736	681.7094
943.911	641.5635
944.086	681.7094
944.26	669.03129
944.435	681.7094
944.61	529.60148
944.785	654.24069
944.959	622.54853
945.134	685.93553
945.309	698.61419
945.483	669.03129
945.658	605.64718
945.833	666.91831
946.007	609.87244
946.182	707.06685
946.357	582.40916
946.531	656.3536
946.706	622.54853
946.88	707.06685
947.055	605.64718
947.229	740.87925
947.404	664.80534
947.578	675.37029
947.752	618.32312
947.927	713.40647
948.101	766.24031
948.276	774.69432
948.45	580.2967
948.624	702.8405
948.799	666.91831
948.973	901.52231
949.147	768.3538
949.321	869.81237
949.496	704.95367
949.67	867.69844
949.844	709.18005
950.018	764.12683
950.193	639.45067
950.367	677.48332
950.541	688.04861
950.715	671.14428
950.889	757.78646
951.063	863.47061
951.237	745.10599
951.411	707.06685
951.585	774.69432
951.759	926.89155
951.933	766.24031
952.107	835.99052
952.281	688.04861
952.455	740.87925
952.629	647.90204
952.803	882.49613
952.977	666.91831
953.151	871.92631
953.325	838.10432
953.499	783.14849
953.672	698.61419
953.846	907.86452
954.02	681.7094
954.194	884.61012
954.368	762.01336
954.541	852.90117
954.715	658.46652
954.889	967.06169
955.062	791.60282
955.236	838.10432
955.41	793.71643
955.583	808.51194
955.757	723.97271
955.93	876.15421
956.104	808.51194
956.278	829.64917
956.451	766.24031
956.625	876.15421
956.798	688.04861
956.972	835.99052
957.145	681.7094
957.319	876.15421
957.492	673.25728
957.665	871.92631
957.839	844.44577
958.012	880.38215
958.185	757.78646
958.359	762.01336
958.532	800.0573
958.705	926.89155
958.879	732.42589
959.052	690.1617
959.225	597.19681
959.398	842.33194
959.572	626.77399
959.745	819.08044
959.918	751.44618
960.091	772.5808
960.264	607.75981
960.438	700.72734
960.611	628.88674
960.784	757.78646
960.957	692.27481
961.13	791.60282
961.303	717.63293
961.476	614.09776
961.649	590.85917
961.822	647.90204
961.995	688.04861
962.168	740.87925
962.341	614.09776
962.514	702.8405
962.686	567.62216
962.859	643.67633
963.032	571.84695
963.205	611.98509
963.378	578.18424
963.551	685.93553
963.723	563.39742
963.896	652.12779
964.069	588.74665
964.242	709.18005
964.414	681.7094
964.587	715.51969
964.76	582.40916
964.932	734.53922
965.105	605.64718
965.278	694.38792
965.45	493.69724
965.623	702.8405
965.795	614.09776
965.968	704.95367
966.14	535.93795
966.313	736.65255
966.485	584.52165
966.658	626.77399
966.83	592.97171
967.003	597.19681
967.175	521.15305
967.348	580.2967
967.52	538.05013
967.692	573.95937
967.865	481.02615
968.037	641.5635
968.209	440.90465
968.382	510.59283
968.554	409.23374
968.726	618.32312
968.898	533.82578
969.071	548.61126
969.243	470.46733
969.415	582.40916
969.587	483.13796
969.759	512.70485
969.932	419.79031
970.104	535.93795
970.276	318.4645
970.448	483.13796
970.62	504.25687
970.792	565.50978
970.964	489.47348
971.136	546.49901
971.308	529.60148
971.48	464.13222
971.652	360.67883
971.824	462.02054
971.996	337.46008
972.168	506.36885
972.339	373.34447
972.511	379.67753
972.683	312.13296
972.855	396.5664
973.027	369.12252
973.199	436.68165
973.37	373.34447
973.542	390.23295
973.714	394.45523
973.886	440.90465
974.057	343.79226
974.229	314.24345
974.401	307.91202
974.572	352.2354
974.744	390.23295
974.915	352.2354
975.087	291.029
975.259	352.2354
975.43	314.24345
975.602	388.12183
975.773	329.01742
975.945	405.01123
976.116	318.4645
976.288	396.5664
976.459	364.90064
976.63	369.12252
976.802	356.45708
976.973	343.79226
977.145	284.69817
977.316	286.80843
977.487	219.28955
977.659	301.58075
977.83	295.24965
978.001	310.02248
978.172	263.59661
978.344	276.25732
978.515	253.04654
978.686	316.35397
978.857	269.92688
979.028	236.16742
979.2	248.82665
979.371	223.5089
979.542	269.92688
979.713	236.16742
979.884	236.16742
980.055	141.24617
980.226	250.93658
980.397	299.47036
980.568	206.63197
980.739	267.81677
980.91	208.74152
981.081	179.20971
981.252	259.37653
981.423	250.93658
981.594	225.6186
981.765	193.97512
981.936	202.41294
982.106	196.08454
982.277	170.77278
982.448	299.47036
982.619	259.37653
982.79	234.05762
982.96	225.6186
983.131	183.42829
983.302	225.6186
983.472	210.85109
983.643	113.83233
983.814	288.91871
983.984	90.63889
984.155	128.59318
984.326	149.68192
984.496	225.6186
984.667	189.75633
984.837	126.48442
985.008	174.9912
985.178	208.74152
985.349	191.86571
985.519	189.75633
985.69	185.53762
985.86	124.37568
986.031	158.11802
986.201	217.1799
986.371	187.64696
986.542	200.30345
986.712	168.6636
986.882	149.68192
987.053	229.83807
987.223	99.07256
987.393	126.48442
987.563	115.94096
987.734	156.00896
987.904	101.18103
988.074	208.74152
988.244	219.28955
988.414	149.68192
988.585	109.61514
988.755	126.48442
988.925	107.50658
989.095	187.64696
989.265	77.98905
989.435	143.35507
989.605	103.28953
989.775	137.02842
989.945	151.79091
990.115	18.96735
990.285	120.15828
990.455	115.94096
990.625	149.68192
990.795	101.18103
990.965	143.35507
991.134	86.42218
991.304	109.61514
991.474	94.85568
991.644	145.464
991.814	86.42218
991.984	67.44814
992.153	115.94096
992.323	52.69182
992.493	50.58386
992.662	158.11802
992.832	29.5056
993.002	111.72373
993.171	56.90779
993.341	124.37568
993.511	109.61514
993.68	128.59318
993.85	35.82884
994.019	27.39791
994.189	105.39804
994.358	94.85568
994.528	134.91958
994.697	73.77262
994.867	183.42829
995.036	139.13728
995.206	61.12386
995.375	105.39804
995.544	107.50658
995.714	94.85568
995.883	115.94096
996.052	82.20557
996.222	177.10045
996.391	90.63889
996.56	75.88082
996.73	40.04444
996.899	96.96411
997.068	109.61514
997.237	54.79979
997.406	86.42218
997.576	54.79979
997.745	84.31387
997.914	52.69182
998.083	69.55627
998.252	111.72373
998.421	59.01582
998.59	86.42218
998.759	65.34002
998.928	111.72373
999.097	18.96735
999.266	94.85568
999.435	90.63889
999.604	40.04444
999.773	54.79979
999.942	25.29023
1000.111	113.83233
1000.28	132.81075
1000.448	130.70195
1000.617	37.93663
1000.786	56.90779
1000.955	90.63889
1001.124	84.31387
1001.292	67.44814
1001.461	86.42218
1001.63	27.39791
1001.798	52.69182
1001.967	82.20557
1002.136	92.74727
1002.304	40.04444
1002.473	50.58386
1002.642	35.82884
1002.81	44.26014
1002.979	33.72107
1003.147	40.04444
1003.316	35.82884
1003.484	48.47593
1003.653	101.18103
1003.821	82.20557
1003.99	50.58386
1004.158	27.39791
1004.327	31.61332
1004.495	6.32224
1004.663	27.39791
1004.832	52.69182
1005	52.69182
1005.168	-8.42931
1005.337	92.74727
1005.505	126.48442
1005.673	75.88082
1005.842	99.07256
1006.01	-6.32202
1006.178	-18.9654
1006.346	90.63889
1006.514	23.18258
1006.683	50.58386
1006.851	84.31387
1007.019	56.90779
1007.187	25.29023
1007.355	-18.9654
1007.523	48.47593
1007.691	-0
1007.859	50.58386
1008.027	18.96735
1008.195	27.39791
1008.363	48.47593
1008.531	77.98905
1008.699	111.72373
1008.867	42.15228
1009.035	27.39791
1009.203	94.85568
1009.37	14.75222
1009.538	-42.14263
1009.706	-16.85823
1009.874	130.70195
1010.042	90.63889
1010.209	-10.53658
1010.377	14.75222
1010.545	65.34002
1010.713	8.4297
1010.88	-31.6079
1011.048	67.44814
1011.216	37.93663
1011.383	16.85977
1011.551	67.44814
1011.718	-2.10736
1011.886	-6.32202
1012.054	73.77262
1012.221	-16.85823
1012.389	18.96735
1012.556	65.34002
1012.724	21.07496
1012.891	-40.03573
1013.058	-8.42931
1013.226	48.47593
1013.393	118.04961
1013.561	40.04444
1013.728	52.69182
1013.895	8.4297
1014.063	29.5056
1014.23	73.77262
1014.397	2.10739
1014.565	61.12386
1014.732	-29.50088
1014.899	31.61332
1015.066	31.61332
1015.233	71.66443
1015.401	33.72107
1015.568	18.96735
1015.735	10.53718
1015.902	18.96735
1016.069	-48.46317
1016.236	-16.85823
1016.403	56.90779
1016.57	10.53718
1016.737	42.15228
1016.904	-2.10736
1017.071	8.4297
1017.238	23.18258
1017.405	33.72107
1017.572	73.77262
1017.739	67.44814
1017.906	29.5056
1018.073	35.82884
1018.24	25.29023
1018.407	56.90779
1018.573	-8.42931
1018.74	50.58386
1018.907	6.32224
1019.074	-18.9654
1019.241	29.5056
1019.407	75.88082
1019.574	18.96735
1019.741	-33.71489
1019.907	33.72107
1020.074	31.61332
1020.241	2.10739
1020.407	-8.42931
1020.574	-48.46317
1020.74	92.74727
1020.907	92.74727
1021.073	75.88082
1021.24	-4.2147
1021.406	40.04444
1021.573	50.58386
1021.739	90.63889
1021.906	-31.6079
1022.072	-2.10736
1022.239	35.82884
1022.405	-2.10736
1022.571	31.61332
1022.738	80.0973
1022.904	86.42218
1023.07	14.75222
1023.237	14.75222
1023.403	56.90779
1023.569	82.20557
1023.735	-29.50088
1023.902	56.90779
1024.068	61.12386
1024.234	6.32224
1024.4	-10.53658
1024.566	14.75222
1024.732	48.47593
1024.898	-14.75104
1025.065	-4.2147
1025.231	52.69182
1025.397	61.12386
1025.563	27.39791
1025.729	-18.9654
1025.895	48.47593
1026.061	52.69182
1026.227	-8.42931
1026.392	82.20557
1026.558	33.72107
1026.724	14.75222
1026.89	2.10739
1027.056	44.26014
1027.222	-18.9654
1027.388	33.72107
1027.553	14.75222
1027.719	54.79979
1027.885	8.4297
1028.051	23.18258
1028.216	56.90779
1028.382	8.4297
1028.548	-71.63655
1028.713	25.29023
1028.879	-54.78349
1029.045	-12.64382
1029.21	46.36803
1029.376	59.01582
1029.541	-14.75104
1029.707	44.26014
1029.873	27.39791
1030.038	35.82884
1030.204	16.85977
1030.369	-46.35635
1030.534	29.5056
1030.7	31.61332
1030.865	50.58386
1031.031	82.20557
1031.196	-4.2147
1031.361	-18.9654
1031.527	-40.03573
1031.692	25.29023
1031.857	-14.75104
1032.023	40.04444
1032.188	-86.38163
1032.353	-8.42931
1032.518	27.39791
1032.684	6.32224
1032.849	42.15228
1033.014	-35.82187
1033.179	14.75222
1033.344	48.47593
1033.509	12.64469
1033.674	31.61332
1033.839	-14.75104
1034.004	-6.32202
1034.17	6.32224
1034.335	42.15228
1034.5	37.93663
1034.664	35.82884
1034.829	-44.2495
1034.994	10.53718
1035.159	18.96735
1035.324	56.90779
1035.489	23.18258
1035.654	46.36803
1035.819	25.29023
1035.984	48.47593
1036.148	40.04444
1036.313	-14.75104
1036.478	25.29023
1036.643	8.4297
1036.807	14.75222
1036.972	31.61332
1037.137	-8.42931
1037.301	18.96735
1037.466	6.32224
1037.631	25.29023
1037.795	-14.75104
1037.96	6.32224
1038.124	46.36803
1038.289	-18.9654
1038.454	40.04444
1038.618	23.18258
1038.783	2.10739
1038.947	2.10739
1039.111	65.34002
1039.276	88.53052
1039.44	16.85977
1039.605	40.04444
1039.769	23.18258
1039.933	56.90779
1040.098	14.75222
1040.262	-6.32202
1040.426	-8.42931
1040.591	23.18258
1040.755	-2.10736
1040.919	-8.42931
1041.083	-8.42931
1041.248	84.31387
1041.412	10.53718
1041.576	73.77262
1041.74	-18.9654
1041.904	2.10739
1042.068	27.39791
1042.232	-37.92881
1042.397	-42.14263
1042.561	31.61332
1042.725	-25.28676
1042.889	14.75222
1043.053	-29.50088
1043.217	-6.32202
1043.381	-18.9654
1043.544	65.34002
1043.708	18.96735
1043.872	50.58386
1044.036	44.26014
1044.2	10.53718
1044.364	-8.42931
1044.528	6.32224
1044.691	18.96735
1044.855	92.74727
1045.019	50.58386
1045.183	31.61332
1045.346	71.66443
1045.51	2.10739
1045.674	56.90779
1045.837	31.61332
1046.001	35.82884
1046.165	-14.75104
1046.328	18.96735
1046.492	27.39791
1046.655	-94.80682
1046.819	82.20557
1046.983	-27.39383
1047.146	-10.53658
1047.31	56.90779
1047.473	40.04444
1047.636	52.69182
1047.8	-4.2147
1047.963	-16.85823
1048.127	6.32224
1048.29	-10.53658
