Data from mixed_try1_USB4F045381__16__00164.txt Node

Date: Thu Apr 03 20:10:00 EDT 2025
User: mmckonesweet
Spectrometer: USB4F04538
Trigger mode: 4
Integration Time (sec): 2.700000E-3
Scans to average: 1
Electric dark correction enabled: true
Nonlinearity correction enabled: true
Boxcar width: 0
XAxis mode: Wavelengths
Number of Pixels in Spectrum: 3648
>>>>>Begin Spectral Data<<<<<
345.52	-9.13173
345.736	-9.13173
345.952	-9.13173
346.168	68.85356
346.384	-13.34623
346.6	-30.20322
346.816	28.80304
347.032	39.34183
347.248	-2.80981
347.464	-28.09618
347.68	11.94218
347.896	-13.34623
348.112	-68.12563
348.328	28.80304
348.544	45.6654
348.76	-25.98912
348.975	14.04971
349.191	-38.63112
349.407	35.12624
349.623	-23.88203
349.839	-89.19007
350.055	20.37242
350.27	47.77329
350.486	-47.05863
350.702	3.51233
350.918	-13.34623
351.133	-4.91714
351.349	11.94218
351.565	20.37242
351.781	-0.70246
351.996	-38.63112
352.212	16.15725
352.428	-30.20322
352.644	11.94218
352.859	58.31314
353.075	-55.48573
353.291	-4.91714
353.506	-44.95179
353.722	28.80304
353.938	3.51233
354.153	51.98916
354.369	-36.52418
354.584	5.61975
354.8	-78.65817
355.016	96.26129
355.231	26.69535
355.447	-15.45344
355.662	-19.66778
355.878	37.23403
356.093	73.06989
356.309	-21.77492
356.524	-4.91714
356.74	-55.48573
356.955	58.31314
357.171	-9.13173
357.386	7.72721
357.602	30.91075
357.817	-21.77492
358.033	-21.77492
358.248	20.37242
358.464	77.2863
358.679	-38.63112
358.895	-30.20322
359.11	-36.52418
359.325	-15.45344
359.541	37.23403
359.756	30.91075
359.972	-30.20322
360.187	1.40492
360.402	70.96171
360.618	33.01848
360.833	-36.52418
361.048	7.72721
361.264	-72.33872
361.479	30.91075
361.694	-38.63112
361.909	94.15287
362.125	14.04971
362.34	-21.77492
362.555	-63.91243
362.77	20.37242
362.986	-13.34623
363.201	16.15725
363.416	22.48004
363.631	3.51233
363.847	-4.91714
364.062	-9.13173
364.277	-55.48573
364.492	47.77329
364.707	-0.70246
364.922	-0.70246
365.138	9.83468
365.353	-11.23899
365.568	11.94218
365.783	-30.20322
365.998	9.83468
366.213	-11.23899
366.428	-19.66778
366.643	-4.91714
366.858	-2.80981
367.073	-2.80981
367.288	3.51233
367.503	-28.09618
367.718	5.61975
367.933	30.91075
368.148	-68.12563
368.363	7.72721
368.578	-25.98912
368.793	-2.80981
369.008	-63.91243
369.223	49.88122
369.438	-2.80981
369.653	-21.77492
369.868	-13.34623
370.083	24.58768
370.298	-2.80981
370.513	16.15725
370.728	-13.34623
370.943	-17.56062
371.157	-4.91714
371.372	62.52924
371.587	-30.20322
371.802	-36.52418
372.017	-42.84492
372.232	66.74543
372.446	-34.41722
372.661	-38.63112
372.876	-57.59244
373.091	-21.77492
373.306	7.72721
373.52	70.96171
373.735	-38.63112
373.95	-17.56062
374.165	-32.31023
374.379	11.94218
374.594	102.58669
374.809	-38.63112
375.023	22.48004
375.238	14.04971
375.453	-13.34623
375.667	79.39455
375.882	37.23403
376.097	-4.91714
376.311	28.80304
376.526	-9.13173
376.741	-34.41722
376.955	60.42118
377.17	-25.98912
377.384	11.94218
377.599	-38.63112
377.813	3.51233
378.028	-23.88203
378.242	-25.98912
378.457	-34.41722
378.672	-4.91714
378.886	9.83468
379.101	33.01848
379.315	-72.33872
379.53	37.23403
379.744	-11.23899
379.958	-7.02445
380.173	20.37242
380.387	28.80304
380.602	54.09713
380.816	35.12624
381.031	28.80304
381.245	11.94218
381.459	37.23403
381.674	-57.59244
381.888	-59.69913
382.103	-7.02445
382.317	5.61975
382.531	-30.20322
382.746	-17.56062
382.96	-21.77492
383.174	-44.95179
383.388	-13.34623
383.603	28.80304
383.817	7.72721
384.031	-13.34623
384.246	-13.34623
384.46	-51.27223
384.674	-32.31023
384.888	9.83468
385.103	41.44967
385.317	-13.34623
385.531	-9.13173
385.745	-30.20322
385.959	18.26482
386.174	22.48004
386.388	33.01848
386.602	-2.80981
386.816	-7.02445
387.03	-7.02445
387.244	9.83468
387.458	-34.41722
387.672	28.80304
387.887	-30.20322
388.101	-11.23899
388.315	-4.91714
388.529	11.94218
388.743	-44.95179
388.957	16.15725
389.171	11.94218
389.385	30.91075
389.599	-9.13173
389.813	-72.33872
390.027	-28.09618
390.241	104.6952
390.455	-97.61513
390.669	58.31314
390.883	-80.7646
391.097	-36.52418
391.311	49.88122
391.525	-17.56062
391.738	-59.69913
391.952	37.23403
392.166	-17.56062
392.38	-34.41722
392.594	-36.52418
392.808	30.91075
393.022	-23.88203
393.236	75.17808
393.449	-70.23219
393.663	-44.95179
393.877	-42.84492
394.091	-21.77492
394.305	-9.13173
394.518	-4.91714
394.732	-17.56062
394.946	62.52924
395.16	-21.77492
395.373	-28.09618
395.587	18.26482
395.801	22.48004
396.015	20.37242
396.228	20.37242
396.442	3.51233
396.656	-17.56062
396.869	20.37242
397.083	-9.13173
397.297	45.6654
397.51	-44.95179
397.724	-55.48573
397.938	-28.09618
398.151	-21.77492
398.365	35.12624
398.578	16.15725
398.792	-21.77492
399.005	62.52924
399.219	1.40492
399.433	-2.80981
399.646	-57.59244
399.86	70.96171
400.073	-4.91714
400.287	60.42118
400.5	-47.05863
400.714	56.20513
400.927	35.12624
401.141	14.04971
401.354	58.31314
401.567	41.44967
401.781	37.23403
401.994	-7.02445
402.208	-72.33872
402.421	7.72721
402.635	-28.09618
402.848	14.04971
403.061	62.52924
403.275	-2.80981
403.488	47.77329
403.701	-53.37899
403.915	22.48004
404.128	81.50281
404.341	-4.91714
404.555	87.82774
404.768	-4.91714
404.981	87.82774
405.195	39.34183
405.408	-4.91714
405.621	-44.95179
405.834	11.94218
406.048	-15.45344
406.261	-28.09618
406.474	-2.80981
406.687	-47.05863
406.9	-13.34623
407.114	-4.91714
407.327	16.15725
407.54	-11.23899
407.753	30.91075
407.966	-76.55171
408.179	-19.66778
408.392	-38.63112
408.605	-0.70246
408.819	56.20513
409.032	-38.63112
409.245	-11.23899
409.458	37.23403
409.671	20.37242
409.884	62.52924
410.097	-15.45344
410.31	-28.09618
410.523	-4.91714
410.736	3.51233
410.949	79.39455
411.162	49.88122
411.375	-51.27223
411.588	-4.91714
411.801	-51.27223
412.014	-4.91714
412.227	56.20513
412.44	39.34183
412.653	7.72721
412.865	35.12624
413.078	16.15725
413.291	-13.34623
413.504	5.61975
413.717	96.26129
413.93	-32.31023
414.143	-13.34623
414.356	-74.44523
414.568	22.48004
414.781	14.04971
414.994	-9.13173
415.207	-9.13173
415.42	41.44967
415.632	9.83468
415.845	113.12946
416.058	-21.77492
416.271	45.6654
416.483	-34.41722
416.696	58.31314
416.909	-21.77492
417.121	54.09713
417.334	-0.70246
417.547	-9.13173
417.759	81.50281
417.972	66.74543
418.185	35.12624
418.397	26.69535
418.61	-21.77492
418.823	30.91075
419.035	-36.52418
419.248	-28.09618
419.46	7.72721
419.673	-11.23899
419.885	1.40492
420.098	3.51233
420.311	-70.23219
420.523	18.26482
420.736	16.15725
420.948	-55.48573
421.161	-76.55171
421.373	9.83468
421.586	37.23403
421.798	-42.84492
422.01	-38.63112
422.223	45.6654
422.435	-2.80981
422.648	-11.23899
422.86	60.42118
423.073	22.48004
423.285	5.61975
423.497	-0.70246
423.71	-42.84492
423.922	28.80304
424.134	66.74543
424.347	11.94218
424.559	45.6654
424.771	-53.37899
424.984	28.80304
425.196	-47.05863
425.408	-28.09618
425.621	47.77329
425.833	-51.27223
426.045	3.51233
426.257	-82.87101
426.47	20.37242
426.682	7.72721
426.894	-2.80981
427.106	-103.93364
427.318	62.52924
427.531	-4.91714
427.743	-11.23899
427.955	54.09713
428.167	14.04971
428.379	58.31314
428.591	79.39455
428.804	-25.98912
429.016	28.80304
429.228	7.72721
429.44	20.37242
429.652	-17.56062
429.864	64.63732
430.076	5.61975
430.288	20.37242
430.5	28.80304
430.712	-11.23899
430.924	-34.41722
431.136	1.40492
431.348	62.52924
431.56	39.34183
431.772	-32.31023
431.984	81.50281
432.196	-34.41722
432.408	11.94218
432.62	33.01848
432.832	-99.72133
433.044	11.94218
433.256	37.23403
433.468	22.48004
433.679	-17.56062
433.891	-21.77492
434.103	-76.55171
434.315	-21.77492
434.527	-34.41722
434.739	-7.02445
434.95	-4.91714
435.162	39.34183
435.374	28.80304
435.586	-38.63112
435.798	3.51233
436.009	-11.23899
436.221	-34.41722
436.433	28.80304
436.645	83.6111
436.856	81.50281
437.068	49.88122
437.28	-13.34623
437.491	-9.13173
437.703	20.37242
437.915	20.37242
438.126	-4.91714
438.338	20.37242
438.55	22.48004
438.761	5.61975
438.973	-19.66778
439.184	-19.66778
439.396	33.01848
439.608	73.06989
439.819	33.01848
440.031	-11.23899
440.242	75.17808
440.454	28.80304
440.665	24.58768
440.877	-4.91714
441.088	64.63732
441.3	22.48004
441.511	-28.09618
441.723	-0.70246
441.934	-13.34623
442.146	-51.27223
442.357	-17.56062
442.569	43.55752
442.78	45.6654
442.991	39.34183
443.203	30.91075
443.414	89.9361
443.626	96.26129
443.837	24.58768
444.048	-9.13173
444.26	28.80304
444.471	98.36974
444.682	-9.13173
444.894	35.12624
445.105	-9.13173
445.316	-13.34623
445.528	54.09713
445.739	11.94218
445.95	87.82774
446.161	18.26482
446.373	-61.80579
446.584	20.37242
446.795	-23.88203
447.006	-17.56062
447.217	-30.20322
447.429	20.37242
447.64	41.44967
447.851	-15.45344
448.062	-7.02445
448.273	3.51233
448.484	37.23403
448.695	-23.88203
448.907	51.98916
449.118	-17.56062
449.329	89.9361
449.54	47.77329
449.751	54.09713
449.962	-30.20322
450.173	58.31314
450.384	28.80304
450.595	54.09713
450.806	-25.98912
451.017	-4.91714
451.228	20.37242
451.439	9.83468
451.65	-21.77492
451.861	28.80304
452.072	-13.34623
452.283	18.26482
452.494	33.01848
452.705	-0.70246
452.915	-21.77492
453.126	-13.34623
453.337	14.04971
453.548	-2.80981
453.759	3.51233
453.97	-19.66778
454.181	-34.41722
454.391	-30.20322
454.602	11.94218
454.813	7.72721
455.024	11.94218
455.235	-9.13173
455.445	-9.13173
455.656	60.42118
455.867	-44.95179
456.078	30.91075
456.288	62.52924
456.499	11.94218
456.71	-0.70246
456.921	104.6952
457.131	28.80304
457.342	3.51233
457.553	7.72721
457.763	43.55752
457.974	-36.52418
458.184	-47.05863
458.395	54.09713
458.606	-19.66778
458.816	60.42118
459.027	66.74543
459.237	22.48004
459.448	-2.80981
459.659	-21.77492
459.869	89.9361
460.08	24.58768
460.29	20.37242
460.501	113.12946
460.711	66.74543
460.922	-11.23899
461.132	33.01848
461.343	-30.20322
461.553	14.04971
461.764	-30.20322
461.974	73.06989
462.184	11.94218
462.395	39.34183
462.605	39.34183
462.816	54.09713
463.026	39.34183
463.236	39.34183
463.447	64.63732
463.657	-30.20322
463.867	49.88122
464.078	20.37242
464.288	33.01848
464.498	62.52924
464.709	-9.13173
464.919	-51.27223
465.129	16.15725
465.339	-0.70246
465.55	22.48004
465.76	18.26482
465.97	3.51233
466.18	-38.63112
466.391	-19.66778
466.601	-11.23899
466.811	-0.70246
467.021	58.31314
467.231	73.06989
467.441	123.67278
467.651	28.80304
467.862	54.09713
468.072	-25.98912
468.282	98.36974
468.492	-23.88203
468.702	81.50281
468.912	11.94218
469.122	113.12946
469.332	-21.77492
469.542	-0.70246
469.752	30.91075
469.962	54.09713
470.172	35.12624
470.382	56.20513
470.592	3.51233
470.802	14.04971
471.012	26.69535
471.222	96.26129
471.432	-21.77492
471.642	5.61975
471.852	-4.91714
472.062	-2.80981
472.272	62.52924
472.482	33.01848
472.691	-17.56062
472.901	47.77329
473.111	104.6952
473.321	45.6654
473.531	56.20513
473.741	45.6654
473.95	140.5432
474.16	39.34183
474.37	1.40492
474.58	33.01848
474.79	-21.77492
474.999	47.77329
475.209	58.31314
475.419	47.77329
475.628	39.34183
475.838	47.77329
476.048	108.91229
476.258	39.34183
476.467	104.6952
476.677	39.34183
476.886	92.04447
477.096	11.94218
477.306	22.48004
477.515	92.04447
477.725	47.77329
477.935	64.63732
478.144	100.4782
478.354	70.96171
478.563	62.52924
478.773	37.23403
478.982	100.4782
479.192	83.6111
479.401	56.20513
479.611	16.15725
479.82	39.34183
480.03	81.50281
480.239	129.99903
480.449	89.9361
480.658	73.06989
480.868	-21.77492
481.077	70.96171
481.287	73.06989
481.496	98.36974
481.705	73.06989
481.915	68.85356
482.124	121.56407
482.333	87.82774
482.543	83.6111
482.752	134.21663
482.961	62.52924
483.171	165.85139
483.38	125.7815
483.589	96.26129
483.799	75.17808
484.008	79.39455
484.217	104.6952
484.426	138.43433
484.636	142.6521
484.845	146.86997
485.054	191.16258
485.263	222.80567
485.472	229.13482
485.682	123.67278
485.891	146.86997
486.1	172.17891
486.309	138.43433
486.518	208.03833
486.727	193.27198
486.936	182.72519
487.146	220.69599
487.355	231.24458
487.564	205.9288
487.773	161.63315
487.982	210.14789
488.191	189.0532
488.4	113.12946
488.609	235.46415
488.818	165.85139
489.027	201.70978
489.236	115.23808
489.445	256.56318
489.654	197.49084
489.863	250.23327
490.072	155.30595
490.281	167.96055
490.49	277.66411
490.698	222.80567
490.907	235.46415
491.116	231.24458
491.325	273.44377
491.534	252.34322
491.743	290.32557
491.952	319.87153
492.16	338.86722
492.369	275.55393
492.578	222.80567
492.787	351.5318
492.996	273.44377
493.204	355.75346
493.413	343.08867
493.622	376.86282
493.831	290.32557
494.039	366.30793
494.248	402.19626
494.457	328.31388
494.665	370.52983
494.874	416.97519
495.083	419.08653
495.291	328.31388
495.5	374.75181
495.709	395.86267
495.917	351.5318
496.126	385.30703
496.335	355.75346
496.543	469.76342
496.752	383.19595
496.96	459.205
497.169	480.32222
497.377	488.76953
497.586	429.64347
497.794	598.60519
498.003	402.19626
498.211	425.42065
498.42	514.11286
498.628	518.33696
498.837	543.68269
499.045	526.78531
499.254	362.08609
499.462	410.64126
499.671	501.44093
499.879	596.49263
500.087	604.94298
500.296	543.68269
500.504	619.73158
500.713	509.88883
500.921	581.70501
501.129	526.78531
501.338	535.23389
501.546	636.6336
501.754	651.4235
501.962	678.89201
502.171	560.58096
502.379	640.85922
502.587	712.70206
502.795	632.40802
503.004	687.34425
503.212	636.6336
503.42	547.90718
503.628	750.74171
503.837	638.7464
504.045	689.45734
504.253	757.08198
504.461	721.15502
504.669	681.00505
504.877	759.19542
505.085	812.03474
505.294	816.26215
505.502	788.78469
505.71	957.89985
505.918	754.96854
506.126	814.14844
506.334	731.72145
506.542	890.24746
506.75	814.14844
506.958	932.52931
507.166	816.26215
507.374	936.75766
507.582	822.60332
507.79	953.67136
507.998	979.04275
508.206	979.04275
508.414	924.07269
508.622	1057.27703
508.83	915.6162
509.037	1008.64392
509.245	930.41514
509.453	907.15983
509.661	979.04275
509.869	1014.98719
510.077	892.36148
510.285	1008.64392
510.492	1046.70436
510.7	1095.33978
510.908	879.67749
511.116	1143.97782
511.324	1103.79839
511.531	1131.2894
511.739	1025.55943
511.947	1114.37177
512.155	1059.39158
512.362	1076.30819
512.57	1139.74833
512.778	1137.63359
512.985	1036.13182
513.193	1228.57084
513.401	1135.51886
513.608	1289.90392
513.816	1063.6207
514.024	1211.65179
514.231	1088.99587
514.439	1237.03044
514.646	1120.71585
514.854	1355.46888
515.061	1179.92914
515.269	1319.5137
515.477	1281.44406
515.684	1340.66375
515.892	1300.4788
516.099	1262.40951
516.307	1272.98424
516.514	1550.05281
516.722	1321.6287
516.929	1397.76956
517.136	1467.56621
517.344	1393.53948
517.551	1281.44406
517.759	1368.15904
517.966	1315.28371
518.173	1516.21229
518.381	1461.22106
518.588	1550.05281
518.796	1577.548
519.003	1594.46798
519.21	1385.07932
519.418	1695.98501
519.625	1495.06186
519.832	1746.74107
520.039	1679.06591
520.247	1592.35299
520.454	1425.26517
520.661	1643.11225
520.868	1638.88236
521.076	1740.39667
521.283	1537.36265
521.49	1748.85587
521.697	1581.778
521.904	1647.34213
522.112	1727.70778
522.319	1753.08544
522.526	1759.42978
522.733	1801.72443
522.94	1719.24844
523.147	1731.93742
523.354	1655.80187
523.561	1930.71177
523.768	1888.42293
523.975	1856.70491
524.183	1638.88236
524.39	2019.51068
524.597	1791.15092
524.804	1941.28363
525.011	1854.59033
525.218	2015.28241
525.425	2017.39655
525.632	1846.13198
525.838	1947.62668
526.045	2044.8797
526.252	1841.90278
526.459	2144.23174
526.666	1898.99534
526.873	2150.57279
527.08	1975.11259
527.287	2110.41163
527.494	1987.79805
527.701	2435.83666
527.907	2163.25466
528.114	2389.36128
528.321	2167.48189
528.528	2260.47228
528.735	2161.14104
528.941	2260.47228
529.148	2180.16337
529.355	2522.43586
529.562	2258.35906
529.768	2437.94905
529.975	2357.67065
530.182	2421.04959
530.388	2197.07155
530.595	2433.72425
530.802	2380.91067
531.008	2640.68627
531.215	2366.12171
531.422	2518.21195
531.628	2492.86751
531.835	2539.33105
532.042	2431.61184
532.248	2541.4429
532.455	2488.64328
532.661	2674.46505
532.868	2435.83666
533.074	2786.33357
533.281	2518.21195
533.487	2817.98764
533.694	2598.45831
533.9	2699.797
534.107	2716.68393
534.313	2902.38308
534.52	2676.57611
534.726	2752.56586
534.933	2735.68072
535.139	2887.61552
535.345	2685.02025
535.552	2908.71182
535.758	2813.76727
535.965	2822.20794
536.171	2887.61552
536.377	2953.00928
536.584	2839.08862
536.79	3041.58445
536.996	2961.44616
537.203	3037.36719
537.409	2817.98764
537.615	2826.4282
537.821	2870.73745
538.028	3144.88762
538.234	2944.57217
538.44	2980.42826
538.646	2948.79076
538.853	3180.71852
539.059	2974.10103
539.265	3087.97015
539.471	3239.72379
539.677	3353.4824
539.883	3111.16015
540.09	3174.39576
540.296	3037.36719
540.502	3294.50267
540.708	2942.46286
540.914	3281.86241
541.12	3248.15206
541.326	3534.54805
541.532	3288.18261
541.738	3507.18621
541.944	3218.65197
542.15	3492.45163
542.356	3294.50267
542.562	3721.78675
542.768	3389.28489
542.974	3481.92639
543.18	3450.34795
543.386	3681.82704
543.592	3547.17554
543.798	3728.09554
544.004	3511.39593
544.21	3734.40416
544.415	3488.24159
544.621	3723.8897
544.827	3488.24159
545.033	3648.1714
545.239	3618.71874
545.445	3999.20575
545.651	3635.54928
545.856	3805.8896
546.062	3730.19843
546.268	3686.03365
546.474	3458.76926
546.679	3761.73949
546.885	3473.50587
547.091	3801.6852
547.297	3446.13719
547.502	3803.78741
547.708	3749.12359
547.914	3774.35469
548.119	3963.49714
548.325	3957.19501
548.531	3875.25078
548.736	3913.075
548.942	3812.19605
549.147	3934.08564
549.353	4030.70842
549.559	4324.50661
549.764	3856.33624
549.97	4041.20829
550.175	4175.56067
550.381	4219.62629
550.586	4110.49441
550.792	4366.44368
550.997	3982.40243
551.203	4175.56067
551.408	4135.68374
551.614	4160.87005
551.819	4305.63212
552.025	4244.80245
552.23	4257.38937
552.435	4318.21531
552.641	4351.76669
552.846	4293.04815
553.052	4307.72937
553.257	4676.5051
553.462	4402.08336
553.668	4525.72494
553.873	4410.46825
554.078	4643.00841
554.283	4492.20259
554.489	4490.10725
554.694	4567.61991
554.899	4594.84687
555.105	4418.85279
555.31	4670.22491
555.515	4330.79773
555.72	4624.164
555.925	4592.75262
556.131	4810.43412
556.336	4427.23699
556.541	4739.29587
556.746	4693.25129
556.951	4779.05283
557.156	4756.03664
557.361	4837.6271
557.567	4705.80998
557.772	4835.53547
557.977	4594.84687
558.182	4766.49888
558.387	4827.16872
558.592	5002.79357
558.797	4868.99882
559.002	4860.63353
559.207	4906.6381
559.412	5157.37593
559.617	4772.77596
559.822	4892.00148
560.027	4768.59126
560.232	4942.17948
560.437	4854.35932
560.642	4856.45075
560.847	4864.81622
561.051	4929.63622
561.256	4912.91059
561.461	5332.69335
561.666	5071.74462
561.871	5230.44488
562.076	4917.09214
562.281	5255.49051
562.485	5013.24232
562.69	4965.17331
562.895	5128.14036
563.1	5249.22942
563.305	5126.05193
563.509	5328.52104
563.714	5084.27847
563.919	5245.05524
564.123	4977.71423
564.328	5211.65845
564.533	5132.31715
564.737	5136.49384
564.942	5190.78242
565.147	5224.18294
565.351	5188.69469
565.556	5303.48523
565.761	5055.03153
565.965	5324.34864
566.17	5048.76374
566.374	5532.85363
566.579	5230.44488
566.784	5537.02133
566.988	5461.98831
567.193	5607.85782
567.397	5197.04547
567.602	5705.73397
567.806	5311.83088
568.011	5678.66706
568.215	5564.10909
568.42	5512.01371
568.624	5453.64942
568.828	5807.71955
569.033	5516.18189
569.237	5830.60648
569.442	5557.85842
569.646	5622.43842
569.85	5478.66495
570.055	5757.77451
570.259	5828.52597
570.463	5753.61181
570.668	5728.63362
570.872	5716.14325
571.076	5393.18126
571.281	5566.1926
571.485	5634.93516
571.689	5739.04161
571.893	5549.52387
572.098	5859.73118
572.302	5668.25564
572.506	5863.89147
572.71	5709.89775
572.914	6102.94971
573.119	5932.52268
573.323	6069.70809
573.527	6071.78587
573.731	5832.68697
573.935	5855.57079
574.139	5965.78918
574.343	5772.34322
574.547	5980.34137
574.751	6183.95095
574.955	6028.14759
575.159	5882.61162
575.364	5936.68132
575.568	5999.04963
575.772	6127.87698
575.976	6023.99102
576.18	6121.64548
576.383	6061.39674
576.587	6098.79484
576.791	6044.77292
576.995	6121.64548
577.199	5988.65639
577.403	6252.46259
577.607	6256.61398
577.811	6491.01633
578.015	6229.62821
578.219	6306.42348
578.422	6240.00782
578.626	6327.17346
578.83	6121.64548
579.034	6221.3241
579.238	6179.79791
579.442	6285.67116
579.645	6186.02744
579.849	6453.69782
580.053	6474.43126
580.257	6437.1094
580.46	6339.62233
580.664	6604.99859
580.868	6418.44565
581.071	6646.42936
581.275	6596.71133
581.479	6675.42541
581.682	6650.57193
581.886	6807.92155
582.09	6650.57193
582.293	6600.85501
582.497	6594.63946
582.7	6667.14129
582.904	6725.12246
583.107	6729.26328
583.311	6735.47435
583.515	6604.99859
583.718	6567.70301
583.922	6778.94603
584.125	6387.3352
584.329	6691.99256
584.532	6609.14208
584.735	6843.1001
584.939	6534.5451
585.142	7058.16751
585.346	6640.21533
585.549	6830.6849
585.753	6843.1001
585.956	7272.99263
586.159	6851.37646
586.363	7233.76364
586.566	6942.39234
586.769	7099.49873
586.973	6894.82133
587.176	7035.43153
587.379	7072.63446
587.582	7211.04847
587.786	7122.22709
587.989	7303.95728
588.192	7072.63446
588.395	7213.1136
588.599	7196.59197
588.802	7316.34175
589.005	7031.29742
589.208	7369.9987
589.411	7116.02871
589.615	7436.01778
589.818	7196.59197
590.021	7308.08552
590.224	7113.96254
590.427	7361.74474
590.63	7336.98079
590.833	7306.02141
591.036	7349.36316
591.239	7448.39388
591.442	7469.01899
591.645	7710.17334
591.848	7361.74474
592.051	7526.7578
592.254	7268.86364
592.457	7681.33261
592.66	7388.56882
592.863	7493.76626
593.066	7526.7578
593.269	7613.33446
593.472	7506.13873
593.675	7806.96568
593.878	7471.08138
594.081	7872.84047
594.284	7636.00308
594.486	7718.4128
594.689	7747.24822
594.892	7712.23324
595.095	7806.96568
595.298	7650.42722
595.5	7617.45622
595.703	7699.87356
595.906	7819.31883
596.109	7872.84047
596.311	7487.57973
596.514	7914.00145
596.717	7759.605
596.92	8107.34843
597.122	7802.8478
597.325	7819.31883
597.528	7852.25688
597.73	7996.29874
597.933	7831.67122
598.136	8051.83096
598.338	7699.87356
598.541	7951.03928
598.743	7629.82098
598.946	7889.30585
599.148	7905.76991
599.351	8076.50721
599.554	7996.29874
599.756	8107.34843
599.959	7926.34813
600.161	7922.23265
600.363	7841.96431
600.566	8325.16529
600.768	8333.38046
600.971	8331.3267
601.173	8123.79523
601.376	8489.40987
601.578	8212.17489
601.78	8358.0241
601.983	8218.33954
602.185	8345.70263
602.388	8253.26919
602.59	8181.34896
602.792	8279.97626
602.995	8220.39438
603.197	8335.4342
603.399	8680.19116
603.601	8366.23803
603.804	8351.86345
604.006	8242.99636
604.208	8425.77973
604.41	8392.93114
604.613	8366.23803
604.815	8522.24407
605.017	8501.72327
605.219	8358.0241
605.421	8571.48626
605.623	8448.36027
605.826	8610.46197
606.028	8522.24407
606.23	8456.57081
606.432	8475.04338
606.634	8803.19062
606.836	8302.57196
607.038	8579.69224
607.24	8528.39993
607.442	8712.99747
607.644	8626.87078
607.846	8887.20262
608.048	8433.9911
608.25	8866.71468
608.452	8751.94886
608.654	8799.0917
608.856	8448.36027
609.058	8792.94318
609.26	8639.17659
609.462	8649.43093
609.664	8858.519
609.866	8760.14831
610.067	8637.12567
610.269	8778.596
610.471	8563.27998
610.673	8821.63488
610.875	8833.93024
611.077	8874.91007
611.278	8497.61888
611.48	8626.87078
611.682	8712.99747
611.884	8975.28046
612.085	8700.69566
612.287	8727.34875
612.489	8780.64565
612.69	8975.28046
612.892	9042.85295
613.094	8993.71121
613.295	8481.20057
613.497	8995.75899
613.699	8784.7449
613.9	9063.32571
614.102	8962.9925
614.304	8840.07767
614.505	8930.22148
614.707	9065.37289
614.908	8641.2275
615.11	8883.10517
615.311	8844.17587
615.513	8997.80674
615.714	9055.13682
615.916	9065.37289
616.117	8760.14831
616.319	9177.94126
616.52	8846.22494
616.722	9145.19945
616.923	9046.94764
617.124	9503.08069
617.326	8911.78579
617.527	9114.50002
617.729	8979.37631
617.93	9126.78026
618.131	9333.40586
618.333	9096.07851
618.534	9137.01331
618.735	9382.47999
618.937	9177.94126
619.138	9590.94099
619.339	9145.19945
619.54	9298.63927
619.742	9124.73359
619.943	9366.123
620.144	9059.2313
620.345	9243.41185
620.546	9046.94764
620.748	9519.42901
620.949	9024.42598
621.15	9351.80977
621.351	9153.38531
621.552	9321.13584
621.753	9220.90828
621.954	9478.55628
622.155	9071.51433
622.356	9188.17218
622.558	9132.92014
622.759	9533.73296
622.96	9304.77489
623.161	9454.02956
623.362	9261.82234
623.563	9733.90753
623.764	9237.27471
623.965	9578.68317
624.166	9519.42901
624.366	9259.7768
624.567	9329.31592
624.768	9267.95887
624.969	9286.36756
625.17	9496.9498
625.371	9085.84374
625.572	9423.3679
625.773	9267.95887
625.973	9472.42482
626.174	9321.13584
626.375	9417.23513
626.576	9300.68449
626.777	9558.2522
626.977	9196.35661
627.178	9270.00435
627.379	9390.65809
627.58	9456.07354
627.78	9292.50349
627.981	9505.12428
628.182	9525.55937
628.382	9758.40852
628.583	9570.51097
628.784	9529.64619
628.984	9429.50052
629.185	9554.16582
629.386	9454.02956
629.586	9725.74005
629.787	9327.27093
629.987	9842.10383
630.188	9629.7537
630.388	9799.23866
630.589	9533.73296
630.79	9545.99286
630.99	9703.27821
631.191	9770.6582
631.391	9703.27821
631.591	9578.68317
631.792	9554.16582
631.992	9699.19404
632.193	9658.34895
632.393	9686.94116
632.594	9419.2794
632.794	9893.12525
632.994	9686.94116
633.195	9815.56903
633.395	9784.9488
633.595	9866.59527
633.796	9774.7413
633.996	10119.55063
634.196	9856.39076
634.397	10068.56928
634.597	9746.1583
634.797	10152.1741
634.997	9721.65621
635.198	9742.07477
635.398	9607.28387
635.598	9925.77412
635.798	9919.65274
635.998	10178.67805
636.199	9795.15592
636.399	10131.78485
636.599	9876.7994
636.799	9927.81455
636.999	9625.66842
637.199	9846.18589
637.399	9688.98334
637.599	9709.40435
637.799	9501.03707
637.999	9978.82056
638.199	9807.40396
638.399	9970.66021
638.599	9709.40435
638.799	9909.45015
638.999	10125.6678
639.199	10160.32941
639.399	9901.28782
639.599	10068.56928
639.799	10060.41145
639.999	10166.44575
640.199	10111.39421
640.399	10201.10265
640.599	9784.9488
640.799	10622.79313
640.998	10433.40693
641.198	10404.8876
641.398	10388.5897
641.598	10353.95386
641.798	10190.90986
641.997	10121.5897
642.197	10199.06412
642.397	10166.44575
642.597	10066.52985
642.796	10245.94688
642.996	10374.32834
643.196	10384.51509
643.395	10323.38966
643.595	10468.03412
643.795	10068.56928
643.994	10347.84126
644.194	10272.44265
644.394	10565.7851
644.593	10459.88688
644.793	10533.20468
644.992	10139.94072
645.192	10303.01186
645.392	10376.36572
645.591	10698.11036
645.791	10400.8132
645.99	10315.2387
646.19	10264.29035
646.389	10525.05908
646.589	10364.14127
646.788	10298.93614
646.987	10484.32799
647.187	10808.00319
647.386	10516.91327
647.586	10663.50722
647.785	10492.47461
647.984	10453.77632
648.184	10494.51124
648.383	10598.36231
648.582	10443.59178
648.782	10692.00418
648.981	10256.13783
649.18	10372.29095
649.38	10435.44392
649.579	10586.14623
649.778	10567.82127
649.977	10952.44001
650.177	10775.44596
650.376	10724.56922
650.575	10243.90865
650.774	10748.99099
650.973	10500.62103
651.173	10472.10767
651.372	10345.8037
651.571	10681.82697
651.77	10508.76725
651.969	10805.96845
652.168	10329.50274
652.367	10692.00418
652.566	10470.0709
652.765	10757.1312
652.964	10757.1312
653.163	10968.71098
653.362	10871.07429
653.561	10692.00418
653.76	10480.2546
653.959	10685.89789
654.158	10844.62648
654.357	10854.79894
654.556	10331.5404
654.755	10940.23631
654.954	10602.43424
655.153	10661.47164
655.352	10980.91373
655.551	10944.30426
655.749	10795.79458
655.948	10797.82938
656.147	10984.98123
656.346	11161.87483
656.545	10751.02606
656.743	10940.23631
656.942	10793.75977
657.141	10867.00552
657.34	10928.0322
657.538	10911.75943
657.737	10808.00319
657.936	11045.98834
658.135	10858.86785
658.333	10962.60945
658.532	10930.06625
658.731	11070.38841
658.929	10842.59195
659.128	10630.93634
659.326	10982.94749
659.525	10960.57558
659.724	10777.48088
659.922	11157.80923
660.121	10919.89591
660.319	10891.41743
660.518	10742.88571
660.716	11048.02174
660.915	10663.50722
661.113	11237.08091
661.312	10952.44001
661.51	11281.79131
661.709	11159.84203
661.907	11143.57928
662.105	10753.06112
662.304	11198.46336
662.502	11064.28854
662.701	11208.62624
662.899	11021.58669
663.097	11176.10411
663.296	10879.21168
663.494	11170.00591
663.692	11015.48603
663.891	11397.60909
664.089	11048.02174
664.287	11121.21688
664.485	11045.98834
664.684	11263.50129
664.882	11045.98834
665.08	11131.38177
665.278	11139.51349
665.476	11202.52854
665.675	11119.18387
665.873	11387.45093
666.071	11167.97316
666.269	11066.32185
666.467	10871.07429
666.665	11218.78886
666.863	10834.45372
667.061	11243.17808
667.259	11153.74358
667.457	11202.52854
667.655	10956.50782
667.853	11102.91941
668.051	10948.37215
668.249	11322.43284
668.447	11196.43075
668.645	11338.68832
668.843	11086.65426
669.041	11021.58669
669.239	11226.91876
669.437	11216.75635
669.635	11342.75209
669.833	11039.88808
670.031	10789.69012
670.229	11023.62022
670.426	11153.74358
670.624	11249.27515
670.822	10948.37215
671.02	11206.59368
671.218	11178.13682
671.415	11180.16952
671.613	10960.57558
671.811	11127.31585
672.009	11174.07139
672.206	11491.05274
672.404	11324.46481
672.602	11432.145
672.799	11450.42758
672.997	11448.39622
673.195	11084.62107
673.392	11265.53356
673.59	11220.82135
673.788	11129.34881
673.985	11283.82348
674.183	11346.81582
674.38	11167.97316
674.578	11371.19736
674.775	11184.23489
674.973	11094.78692
675.17	10834.45372
675.368	11058.18857
675.565	11041.92151
675.763	11170.00591
675.96	11109.01866
676.158	11218.78886
676.355	10881.246
676.553	11864.6319
676.75	11275.69473
676.947	11314.30486
677.145	11178.13682
677.342	11117.15085
677.539	11033.78771
677.737	11426.05064
677.934	11202.52854
678.131	11338.68832
678.329	11159.84203
678.526	11511.36389
678.723	11537.76696
678.92	11673.81952
679.118	10934.13431
679.315	11318.36887
679.512	11157.80923
679.709	10997.18345
679.906	10964.6433
680.104	11200.49596
680.301	10997.18345
680.498	11106.98559
680.695	10980.91373
680.892	11186.26756
681.089	10987.01496
681.286	11011.41887
681.483	10962.60945
681.68	11096.82006
681.877	11111.05173
682.075	11235.0485
682.272	10846.66099
682.469	11298.04841
682.665	11220.82135
682.862	11021.58669
683.059	10826.3153
683.256	10759.16622
683.453	10810.03791
683.65	10907.69112
683.847	11041.92151
684.044	10950.40609
684.241	11090.72061
684.438	11367.13387
684.635	11283.82348
684.831	11273.66251
685.028	11007.35166
685.225	11133.41471
685.422	10720.49876
685.619	10826.3153
685.815	10463.96053
686.012	10698.11036
686.209	10504.69417
686.405	10842.59195
686.602	10936.16832
686.799	10940.23631
686.996	10956.50782
687.192	11129.34881
687.389	10679.79149
687.586	10801.89894
687.782	11019.55315
687.979	11279.75913
688.175	10869.03991
688.372	10989.04868
688.568	11096.82006
688.765	11216.75635
688.962	11147.64503
689.158	11131.38177
689.355	10812.07263
689.551	10952.44001
689.748	10889.38317
689.944	10836.48829
690.14	10966.67715
690.337	10966.67715
690.533	10960.57558
690.73	10901.58857
690.926	10871.07429
691.123	10541.35009
691.319	10730.67483
691.515	10649.25785
691.712	10600.39828
691.908	10734.74517
692.104	10879.21168
692.301	11182.20221
692.497	10883.28031
692.693	10915.82769
692.889	10582.07411
693.086	10991.08239
693.282	10722.534
693.478	10805.96845
693.674	10573.9297
693.87	10901.58857
694.067	10647.22218
694.263	10663.50722
694.459	10783.58555
694.655	10940.23631
694.851	10596.32633
695.047	10881.246
695.243	10842.59195
695.439	10801.89894
695.635	10742.88571
695.831	10801.89894
696.027	10663.50722
696.224	10871.07429
696.42	10402.85041
696.615	10730.67483
696.811	10427.29586
697.007	10785.62042
697.203	10353.95386
697.399	10763.23623
697.595	10510.80377
697.791	10755.09616
697.987	10773.41104
698.183	11003.28441
698.379	10639.07936
698.575	11082.58786
698.77	10567.82127
698.966	10891.41743
699.162	10789.69012
699.358	10909.72528
699.554	10582.07411
699.749	10932.10028
699.945	10659.43604
700.141	10822.24603
700.337	10744.92081
700.532	10785.62042
700.728	10598.36231
700.924	10590.21831
701.119	10616.68559
701.315	10683.86244
701.511	10535.24106
701.706	11013.45245
701.902	10423.22175
702.097	10602.43424
702.293	10541.35009
702.489	10687.93333
702.684	10182.75538
702.88	10437.48091
703.075	10272.44265
703.271	10834.45372
703.466	10635.00788
703.662	10667.57836
703.857	10337.65332
704.053	10569.85743
704.248	10728.63964
704.443	11275.69473
704.639	10706.25177
704.834	10781.55067
705.03	10991.08239
705.225	10714.39298
705.42	10639.07936
705.616	10972.77861
705.811	10504.69417
706.006	10639.07936
706.202	10296.89826
706.397	10618.72145
706.592	10433.40693
706.787	10610.57794
706.983	10292.82246
707.178	10592.25433
707.373	10158.29061
707.568	10537.27741
707.763	10567.82127
707.959	10590.21831
708.154	10663.50722
708.349	10571.89357
708.544	10869.03991
708.739	10606.50612
708.934	10496.54785
709.129	10669.61392
709.324	10459.88688
709.519	10565.7851
709.714	10421.18467
709.909	10828.34993
710.104	10319.3142
710.299	10276.51872
710.494	10139.94072
710.689	10463.96053
710.884	10472.10767
711.079	10551.53157
711.274	10190.90986
711.469	10704.21643
711.664	10506.73072
711.859	10639.07936
712.054	10822.24603
712.249	10826.3153
712.443	10455.81319
712.638	10639.07936
712.833	10247.9851
713.028	10785.62042
713.223	10239.83215
713.417	10449.70254
713.612	10294.86036
713.807	10441.55484
714.002	10392.66425
714.196	10427.29586
714.391	10337.65332
714.586	10329.50274
714.78	10370.25355
714.975	10321.35194
715.17	10166.44575
715.364	10443.59178
715.559	10329.50274
715.754	10247.9851
715.948	10309.12534
716.143	10174.60067
716.337	10239.83215
716.532	10724.56922
716.726	10207.21816
716.921	10423.22175
717.115	10525.05908
717.31	10541.35009
717.504	10368.21614
717.699	10588.18228
717.893	10150.13524
718.088	10588.18228
718.282	10347.84126
718.476	10343.76612
718.671	10088.96288
718.865	10298.93614
719.059	9970.66021
719.254	10272.44265
719.448	10015.5393
719.642	10360.06634
719.837	10084.88427
720.031	10068.56928
720.225	10023.69838
720.419	10239.83215
720.614	9978.82056
720.808	10329.50274
721.002	9768.61662
721.196	10162.36821
721.39	9968.62009
721.585	10088.96288
721.779	9723.69814
721.973	9858.43169
722.167	9713.48836
722.361	10166.44575
722.555	9897.20656
722.749	9917.61225
722.943	9860.47261
723.137	9891.08457
723.331	10003.30024
723.525	9999.22043
723.719	10037.97624
723.913	10492.47461
724.107	9989.02068
724.301	10144.01857
724.495	10056.33245
724.689	10021.65863
724.883	9662.43373
725.077	9956.37903
725.271	9656.30653
725.465	10133.82384
725.659	9719.61427
725.853	9958.41925
726.046	9823.73385
726.24	9870.67697
726.434	9635.88151
726.628	9840.06278
726.822	9717.57232
727.015	9974.74041
727.209	9737.99118
727.403	9950.25831
727.596	10133.82384
727.79	9950.25831
727.984	9938.01648
728.177	10158.29061
728.371	9962.49963
728.565	9884.96244
728.758	9907.40959
728.952	9915.57175
729.146	9529.64619
729.339	10035.93658
729.533	9889.04388
729.726	9840.06278
729.92	9719.61427
730.113	9950.25831
730.307	9862.51351
730.5	9933.93575
730.694	9742.07477
730.887	9719.61427
731.081	9815.56903
731.274	9809.44525
731.468	9872.71779
731.661	10184.79402
731.854	9858.43169
732.048	9968.62009
732.241	9838.02172
732.435	10254.09967
732.628	9742.07477
732.821	9911.4907
733.014	9809.44525
733.208	9742.07477
733.401	9858.43169
733.594	9970.66021
733.788	9889.04388
733.981	10093.04143
734.174	9966.57995
734.367	10011.45967
734.56	10027.77784
734.754	10064.49039
734.947	10241.8704
735.14	10141.97965
735.333	10154.21295
735.526	9940.05682
735.719	9870.67697
735.912	9958.41925
736.105	9697.15193
736.298	9807.40396
736.491	9691.02551
736.684	9827.81617
736.877	10019.61887
737.07	10048.17427
737.263	9676.73
737.456	9799.23866
737.649	9693.06767
737.842	9923.73367
738.035	9752.28348
738.228	9970.66021
738.421	9764.53343
738.614	9868.63612
738.807	9921.69322
739	9825.77502
739.192	9699.19404
739.385	9750.24177
739.578	9621.58307
739.771	9913.53123
739.964	9846.18589
740.156	10033.89692
740.349	9742.07477
740.542	9913.53123
740.735	9595.0268
740.927	9595.0268
741.12	9484.6876
741.313	9809.44525
741.505	9523.51593
741.698	9652.22165
741.891	9758.40852
742.083	9672.64543
742.276	9760.45017
742.468	9490.81877
742.661	9545.99286
742.854	9445.85347
743.046	9349.76496
743.239	9488.77506
743.431	9984.94068
743.624	9874.75861
743.816	9911.4907
744.009	9887.00317
744.201	9660.39135
744.393	9509.21143
744.586	9615.45494
744.778	9670.60312
744.971	9664.4761
745.163	9590.94099
745.355	9742.07477
745.548	9494.90614
745.74	9443.80941
745.932	9723.69814
746.125	9733.90753
746.317	9595.0268
746.509	9884.96244
746.702	9615.45494
746.894	9272.04981
747.086	9629.7537
747.278	9684.89896
747.471	9376.34624
747.663	9507.16786
747.855	9456.07354
748.047	9435.633
748.239	9758.40852
748.431	9261.82234
748.623	9642.00918
748.815	9578.68317
749.008	9750.24177
749.2	9686.94116
749.392	9748.20004
749.584	9501.03707
749.776	9382.47999
749.968	9134.96674
750.16	9588.89806
750.352	9173.84877
750.544	9480.60007
750.736	9472.42482
750.928	9752.28348
751.12	9227.04582
751.311	9464.24931
751.503	9492.86246
751.695	9449.94155
751.887	9494.90614
752.079	9617.49767
752.271	9114.50002
752.463	9443.80941
752.654	9126.78026
752.846	9259.7768
753.038	9038.75819
753.23	9525.55937
753.421	9496.9498
753.613	9407.01352
753.805	9353.85457
753.997	9276.14068
754.188	9296.59402
754.38	9075.60853
754.572	8999.85448
754.763	9229.09163
754.955	8829.83186
755.146	9214.77059
755.338	9104.26602
755.53	9040.80558
755.721	9091.98466
755.913	9251.59446
756.104	9194.31053
756.296	9163.61725
756.487	9130.87353
756.679	9130.87353
756.87	9091.98466
757.062	9061.27851
757.253	9159.52453
757.445	9059.2313
757.636	9145.19945
757.827	9241.36615
758.019	9186.12603
758.21	8981.4242
758.401	9071.51433
758.593	8950.7039
758.784	8788.84408
758.975	8932.2698
759.167	8842.12678
759.358	9040.80558
759.549	8829.83186
759.74	8879.00766
759.932	8702.74601
760.123	8866.71468
760.314	8682.24169
760.505	8831.88105
760.696	8792.94318
760.888	9085.84374
761.079	8924.07641
761.27	9096.07851
761.461	8723.24848
761.652	9122.68691
761.843	8637.12567
762.034	8922.02802
762.225	8723.24848
762.416	9005.99759
762.607	8710.94722
762.798	8637.12567
762.989	8723.24848
763.18	8589.94928
763.371	8522.24407
763.562	8680.19116
763.753	8464.78103
763.944	8743.74912
764.135	8456.57081
764.326	8883.10517
764.517	8753.99875
764.708	8702.74601
764.899	8460.67596
765.089	8620.71761
765.28	8762.19812
765.471	8723.24848
765.662	8382.66495
765.853	8495.56666
766.043	8450.41294
766.234	8589.94928
766.425	8181.34896
766.615	8433.9911
766.806	8203.95507
766.997	8442.20217
767.187	8360.07761
767.378	8491.46215
767.569	8166.96199
767.759	8491.46215
767.95	8273.81339
768.141	8507.87971
768.331	8417.56804
768.522	8279.97626
768.712	8440.14944
768.903	8259.43266
769.093	8306.68001
769.284	8208.06502
769.474	8394.98432
769.665	8236.83242
769.855	8403.19686
770.046	8201.90007
770.236	8261.48711
770.426	8411.40908
770.617	8218.33954
770.807	8099.12455
770.998	7864.60728
771.188	8210.11996
771.378	8020.98155
771.569	8203.95507
771.759	8000.41274
771.949	8234.77773
772.139	8173.12795
772.33	8060.0567
772.52	7866.66561
772.71	8140.24075
772.9	7831.67122
773.09	8177.2385
773.281	7831.67122
773.471	7864.60728
773.661	7916.05928
773.851	7792.55273
774.041	7864.60728
774.231	7986.01337
774.421	7864.60728
774.611	7673.09164
774.802	7638.06373
774.992	7831.67122
775.182	7658.66912
775.372	7780.19796
775.562	7736.95033
775.752	7685.45297
775.942	7561.80528
776.131	8020.98155
776.321	7598.90763
776.511	7759.605
776.701	7827.55384
776.891	7864.60728
777.081	7706.05349
777.271	7718.4128
777.461	7955.15419
777.651	7815.20119
777.84	7741.06955
778.03	7728.71164
778.22	7617.45622
778.41	7831.67122
778.599	7477.26842
778.789	7400.94791
778.979	7623.63869
779.169	7417.45216
779.358	7378.2523
779.548	7656.60868
779.738	7246.1526
779.927	7600.96867
780.117	7382.37897
780.307	7330.78931
780.496	7609.21261
780.686	7621.57789
780.875	7411.26323
781.065	7444.2686
781.254	7440.14323
781.444	7790.49366
781.633	7660.72955
781.823	7600.96867
782.012	7142.88689
782.202	7448.39388
782.391	7506.13873
782.581	7419.5151
782.77	7403.01102
782.96	7506.13873
783.149	7105.69764
783.338	7592.72439
783.528	7330.78931
783.717	7367.93524
783.906	7124.29317
784.096	7124.29317
784.285	6917.57418
784.474	7167.67572
784.663	7014.76009
784.853	7066.43447
785.042	6996.15388
785.231	7493.76626
785.42	7215.1787
785.61	7184.19982
785.799	7085.03382
785.988	7211.04847
786.177	6857.58348
786.366	7138.75511
786.555	7107.7639
786.744	7035.43153
786.933	6841.03096
787.122	7130.49128
787.312	6948.59638
787.501	7070.56782
787.69	6894.82133
787.879	7208.98332
788.068	6826.54631
788.257	6894.82133
788.445	6546.98001
788.634	7031.29742
788.823	6749.96603
789.012	6789.29494
789.201	6493.08936
789.39	6600.85501
789.579	6588.4237
789.768	6683.70917
789.957	6712.69944
790.145	6729.26328
790.334	6754.1063
790.523	6586.35174
790.712	6812.06055
790.9	6718.91105
791.089	6567.70301
791.278	6818.26887
791.467	6658.85679
791.655	6981.68112
791.844	6683.70917
792.033	6752.03618
792.221	6468.21147
792.41	6884.47822
792.599	6731.33366
792.787	6575.99156
792.976	6410.15004
793.164	6549.05241
793.353	6669.21235
793.541	6793.43435
793.73	6557.3418
793.918	6671.2834
794.107	6491.01633
794.295	6578.06365
794.484	6451.62435
794.672	6453.69782
794.861	6410.15004
795.049	6623.64358
795.238	6343.77176
795.426	6671.2834
795.614	6406.0021
795.803	6542.83513
795.991	6244.1595
796.179	6435.03574
796.368	6318.87375
796.556	6320.94871
796.744	6152.80086
796.932	6190.18034
797.121	6127.87698
797.309	6327.17346
797.497	6312.64872
797.685	5972.02597
797.874	5770.26204
798.062	6223.40016
798.25	6040.61673
798.438	6121.64548
798.626	6063.47461
798.814	6491.01633
799.002	6271.14315
799.19	6352.07035
799.378	6144.49327
799.566	6229.62821
799.755	5930.44333
799.943	6121.64548
800.131	6196.40951
800.318	6414.29789
800.506	6575.99156
800.694	6443.33023
800.882	6204.71475
801.07	6302.2732
801.258	6204.71475
801.446	6327.17346
801.634	6040.61673
801.822	5992.81376
802.01	6144.49327
802.197	6354.14494
802.385	6179.79791
802.573	6123.72267
802.761	6169.4149
802.949	6277.36958
803.136	6161.10807
803.324	6343.77176
803.512	6171.49155
803.699	6227.55222
803.887	6318.87375
804.075	6123.72267
804.262	6127.87698
804.45	6152.80086
804.638	6202.63848
804.825	6260.76529
805.013	6094.63987
805.201	6279.44501
805.388	6117.49103
805.576	6190.18034
805.763	5988.65639
805.951	6117.49103
806.138	6262.84091
806.326	6237.93195
806.513	6273.21865
806.701	6235.85605
806.888	6264.9165
807.075	6258.68965
807.263	5934.60201
807.45	6422.59331
807.638	5988.65639
807.825	6443.33023
808.012	6073.86362
808.2	6244.1595
808.387	6053.08502
808.574	6279.44501
808.761	6053.08502
808.949	6198.48586
809.136	6152.80086
809.323	6242.08368
809.51	6167.33823
809.698	6140.33934
809.885	6181.87444
810.072	6281.52042
810.259	6163.18481
810.446	6349.99574
810.633	6188.1039
810.82	6345.84645
811.008	6349.99574
811.195	6314.72375
811.382	6221.3241
811.569	6244.1595
811.756	6289.82181
811.943	6302.2732
812.13	6271.14315
812.317	6210.94343
812.504	6246.23531
812.691	6532.47253
812.878	6202.63848
813.064	6370.74082
813.251	6210.94343
813.438	6374.88955
813.625	5953.31495
813.812	6312.64872
813.999	6040.61673
814.186	6281.52042
814.372	6102.94971
814.559	6254.5383
814.746	6177.72136
814.933	6073.86362
815.12	6005.2853
815.306	5994.89241
815.493	6098.79484
815.68	6262.84091
815.866	5986.57767
816.053	6291.8971
816.24	6111.25917
816.426	6381.11248
816.613	5855.57079
816.799	6320.94871
816.986	6017.75599
817.173	6310.57366
817.359	6127.87698
817.546	6156.95451
817.732	6092.56235
817.919	6102.94971
818.105	6202.63848
818.292	6233.78013
818.478	6136.18531
818.665	6592.56756
818.851	6227.55222
819.037	6233.78013
819.224	6094.63987
819.41	6223.40016
819.597	6227.55222
819.783	6227.55222
819.969	6044.77292
820.156	6368.66642
820.342	6273.21865
820.528	6337.54758
820.714	6123.72267
820.901	6376.96389
821.087	6044.77292
821.273	6177.72136
821.459	6341.69706
821.646	6395.63183
821.832	5863.89147
822.018	6254.5383
822.204	6038.5386
822.39	6055.16298
822.576	5947.07752
822.762	5922.12566
822.948	5936.68132
823.134	6073.86362
823.32	5714.06144
823.507	6040.61673
823.693	5847.24973
823.879	5978.26255
824.065	5747.36758
824.25	5853.49056
824.436	6009.44229
824.622	5913.80763
824.808	6169.4149
824.994	5807.71955
825.18	5791.07271
825.366	6202.63848
825.552	5853.49056
825.738	6113.33648
825.923	5936.68132
826.109	6144.49327
826.295	5868.05167
826.481	5897.17042
826.667	5911.72806
826.852	5953.31495
827.038	5778.58659
827.224	5940.83987
827.409	5557.85842
827.595	5897.17042
827.781	5820.20368
827.966	5882.61162
828.152	5605.77479
828.338	5776.50549
828.523	5620.35555
828.709	5686.99576
828.894	5686.99576
829.08	5949.15668
829.266	5824.36487
829.451	5641.18321
829.637	5297.22575
829.822	5547.44017
830.008	5386.92481
830.193	5374.41126
830.378	5382.75372
830.564	5647.43105
830.749	5524.51795
830.935	5530.76975
831.12	5453.64942
831.305	5472.41139
831.491	5197.04547
831.676	5489.08709
831.861	5261.75139
832.047	5551.60754
832.232	5303.48523
832.417	5391.0958
832.602	5313.91723
832.788	5222.09559
832.973	5167.81609
833.158	5470.32682
833.343	5230.44488
833.528	5353.55348
833.714	5217.9208
833.899	5313.91723
834.084	5242.96812
834.269	5399.4375
834.454	5105.16636
834.639	5372.32559
834.824	5328.52104
835.009	5443.22529
835.194	5253.4035
835.379	5430.71555
835.564	5345.20971
835.749	5305.57168
835.934	5313.91723
836.119	5234.61938
836.304	5086.36736
836.489	5236.7066
836.674	5149.02337
836.859	5238.7938
837.044	5111.43227
837.228	5213.74592
837.413	5111.43227
837.598	5409.86411
837.783	4921.27359
837.968	4923.36428
838.152	5055.03153
838.337	4931.72682
838.522	4768.59126
838.707	4919.18287
838.891	4676.5051
839.076	4892.00148
839.261	4634.63334
839.445	5027.86959
839.63	4760.2216
839.815	4860.63353
839.999	4829.26044
840.184	4986.07438
840.368	4607.41189
840.553	4946.36039
840.737	4848.08491
840.922	4843.90185
841.106	4841.81029
841.291	4885.7283
841.475	4793.69807
841.66	4952.63157
841.844	4954.72192
842.029	4868.99882
842.213	4601.12948
842.397	4797.88222
842.582	4575.99784
842.766	4779.05283
842.951	4651.38312
843.135	4695.34446
843.319	4559.24163
843.504	4728.83215
843.688	4534.10464
843.872	4768.59126
844.056	4483.82112
844.241	4743.4812
844.425	4527.8199
844.609	4651.38312
844.793	4452.38747
844.977	4680.69178
845.161	4293.04815
845.346	4617.88213
845.53	4452.38747
845.714	4563.43081
845.898	4423.04493
846.082	4519.43993
846.266	4272.07315
846.45	4362.25036
846.634	4251.09601
846.818	4311.92381
847.002	4221.72442
847.186	4278.36587
847.37	4314.021
847.554	4393.69812
847.738	4091.60044
847.922	4515.24981
848.106	4328.70071
848.29	4318.21531
848.473	4303.53484
848.657	4425.14097
848.841	4139.88167
849.025	4286.75587
849.209	4055.90723
849.392	4490.10725
849.576	4133.58475
849.76	4261.58485
849.944	4043.3082
850.127	4334.99169
850.311	4039.10836
850.495	4326.60367
850.678	4085.30208
850.862	4374.83005
851.046	4183.95484
851.229	4049.60781
851.413	3938.28753
851.596	4064.30617
851.78	3803.78741
851.964	4020.20804
852.147	3980.30193
852.331	4041.20829
852.514	3942.48933
852.698	3992.90466
852.881	3789.07153
853.065	3959.29574
853.248	4039.10836
853.431	3988.70383
853.615	3904.67018
853.798	4118.89119
853.982	3921.4795
854.165	4083.20258
854.348	3934.08564
854.532	3931.98467
854.715	3688.13693
854.898	3879.45379
855.081	3719.68378
855.265	3980.30193
855.448	3747.02088
855.631	3931.98467
855.814	3925.68163
855.997	3847.92926
856.181	3889.96097
856.364	3889.96097
856.547	3643.9641
856.73	3652.37862
856.913	3536.65268
857.096	3723.8897
857.279	3351.37622
857.462	3652.37862
857.645	3505.08133
857.828	3580.84561
858.011	3753.32897
858.194	3772.25221
858.377	3452.45331
858.56	3751.22629
858.743	3608.19903
858.926	3656.58577
859.109	3410.34281
859.292	3570.32423
859.475	3317.67489
859.658	3616.61483
859.841	3374.5433
860.023	3425.08229
860.206	3359.80086
860.389	3547.17554
860.572	3462.97981
860.755	3484.03148
860.937	3336.63243
861.12	3498.76656
861.303	3418.76548
861.486	3568.21989
861.668	3241.83089
861.851	3399.81407
862.034	3191.25613
862.216	3347.16379
862.399	3090.07841
862.581	3256.58005
862.764	3039.47583
862.947	3216.5447
863.129	3100.61948
863.312	3199.68592
863.494	3155.42661
863.677	3281.86241
863.859	3241.83089
864.042	3231.29527
864.224	2792.66463
864.406	3176.50337
864.589	2923.47836
864.771	2986.75535
864.954	2809.54686
865.136	3132.2403
865.318	2864.40794
865.501	2910.82136
865.683	2832.75847
865.865	3153.31884
866.048	2820.0978
866.23	2944.57217
866.412	2725.12708
866.594	2944.57217
866.777	2866.51779
866.959	3125.91642
867.141	2714.57311
867.323	2946.68147
867.505	2744.1234
867.687	2716.68393
867.869	2718.79473
868.052	2889.72522
868.234	2780.00239
868.416	2902.38308
868.598	2657.57606
868.78	2961.44616
868.962	2739.90209
869.144	2830.64839
869.326	2676.57611
869.508	2965.66451
869.69	2855.96839
869.872	2910.82136
870.054	2811.65707
870.236	2929.80666
870.417	2699.797
870.599	2761.00812
870.781	2640.68627
870.963	2573.1192
871.145	2824.31808
871.327	2729.34858
871.508	2549.89017
871.69	2699.797
871.872	2632.24107
872.054	2763.11864
872.235	2524.5478
872.417	2668.13177
872.599	2509.76398
872.78	2750.45527
872.962	2623.79568
873.144	2805.32638
873.325	2404.14945
873.507	2731.4593
873.689	2518.21195
873.87	2706.12969
874.052	2505.53993
874.233	2636.46369
874.415	2693.46418
874.596	2682.90924
874.778	2497.09169
874.959	2767.33966
875.141	2596.34678
875.322	2746.23404
875.503	2590.01213
875.685	2839.08862
875.866	2602.68133
876.048	2668.13177
876.229	2211.86576
876.41	2619.5729
876.592	2391.47391
876.773	2666.02066
876.954	2509.76398
877.136	2828.5383
877.317	2564.67244
877.498	2699.797
877.679	2442.17381
877.86	2725.12708
878.042	2682.90924
878.223	2644.90879
878.404	2425.27452
878.585	2634.35239
878.766	2368.23445
878.947	2834.86853
879.128	2285.83032
879.309	2678.68717
879.49	2573.1192
879.672	2796.88527
879.853	2364.00896
880.034	2801.10586
880.215	2522.43586
880.396	2737.79141
880.576	2469.63369
880.757	2851.74853
880.938	2647.02003
881.119	2832.75847
881.3	2594.23524
881.481	2834.86853
881.662	2577.3425
881.843	2761.00812
882.023	2613.23865
882.204	2828.5383
882.385	2706.12969
882.566	2761.00812
882.747	2625.90704
882.927	2754.67645
883.108	2632.24107
883.289	2769.45015
883.469	2655.46488
883.65	2841.19864
883.831	2469.63369
884.011	2984.64633
884.192	2647.02003
884.373	2891.8349
884.553	2710.35143
884.734	2855.96839
884.914	2640.68627
885.095	2742.01275
885.275	2661.79838
885.456	2786.33357
885.636	2539.33105
885.817	2978.31919
885.997	2784.22319
886.178	3130.13236
886.358	2742.01275
886.538	2763.11864
886.719	2657.57606
886.899	2767.33966
887.08	2615.35008
887.26	2866.51779
887.44	2543.55474
887.621	2927.69724
887.801	2592.12369
887.981	2769.45015
888.161	2668.13177
888.342	2813.76727
888.522	2767.33966
888.702	2761.00812
888.882	2625.90704
889.062	2704.01881
889.242	2653.35369
889.423	2625.90704
889.603	2387.24864
889.783	2682.90924
889.963	2446.39853
890.143	2752.56586
890.323	2720.90553
890.503	2817.98764
890.683	2602.68133
890.863	2716.68393
891.043	2716.68393
891.223	2750.45527
891.403	2463.29696
891.583	2805.32638
891.763	2600.56982
891.943	2674.46505
892.122	2505.53993
892.302	2668.13177
892.482	2590.01213
892.662	2742.01275
892.842	2549.89017
893.022	2737.79141
893.201	2482.30685
893.381	2535.10732
893.561	2549.89017
893.741	2674.46505
893.92	2573.1192
894.1	2547.77837
894.28	2587.90056
894.459	2828.5383
894.639	2503.42789
894.819	2467.52145
894.998	2340.76806
895.178	2634.35239
895.357	2425.27452
895.537	2592.12369
895.716	2239.33959
895.896	2505.53993
896.075	2228.77291
896.255	2374.57261
896.434	2106.18398
896.614	2292.16962
896.793	2211.86576
896.973	2440.06144
897.152	2220.3194
897.331	2480.19468
897.511	2404.14945
897.69	2463.29696
897.87	2304.84796
898.049	2418.93711
898.228	2197.07155
898.407	2416.82462
898.587	2209.75232
898.766	2446.39853
898.945	2182.27692
899.124	2319.63893
899.304	2197.07155
899.483	2435.83666
899.662	2262.5855
899.841	2281.60407
900.02	2230.88626
900.199	2188.61753
900.378	1920.13977
900.557	2154.80011
900.737	2118.86685
900.916	2199.18503
901.095	1896.88087
901.274	2321.75188
901.453	2161.14104
901.632	2150.57279
901.811	1744.62628
901.989	2034.30939
902.168	1816.52717
902.347	2142.11804
902.526	1816.52717
902.705	1964.54121
902.884	1846.13198
903.063	2015.28241
903.242	1941.28363
903.42	1915.91093
903.599	1801.72443
903.778	1791.15092
903.957	1734.05224
904.135	1854.59033
904.314	1539.47768
904.493	1774.23309
904.672	1655.80187
904.85	1704.44448
905.029	1440.07053
905.207	1702.32962
905.386	1518.32733
905.565	1693.87013
905.743	1454.8759
905.922	1452.76085
906.1	1404.1147
906.279	1533.13258
906.457	1401.99965
906.636	1571.20298
906.814	1467.56621
906.993	1490.83176
907.171	1414.68993
907.35	1423.15012
907.528	1289.90392
907.707	1334.31872
907.885	1264.52445
908.063	1440.07053
908.242	1275.09919
908.42	1448.53074
908.598	1300.4788
908.777	1431.61033
908.955	1188.38843
909.133	1340.66375
909.311	1152.43685
909.49	1359.69893
909.668	1084.76663
909.846	1063.6207
910.024	1160.89594
910.202	1349.12382
910.38	1249.71993
910.559	1292.01889
910.737	1179.92914
910.915	1198.96263
911.093	1103.79839
911.271	1313.16871
911.449	1059.39158
911.627	1321.6287
911.805	1171.4699
911.983	1355.46888
912.161	1270.86929
912.339	1302.59378
912.517	1253.94978
912.695	1363.92898
912.872	1146.09257
913.05	1353.35386
913.228	1143.97782
913.406	1249.71993
913.584	1211.65179
913.762	1374.50414
913.939	1450.64579
914.117	1414.68993
914.295	1355.46888
914.473	1294.13387
914.65	1232.80063
914.828	1272.98424
915.006	1241.26026
915.184	1308.93873
915.361	1163.01073
915.539	1059.39158
915.716	1211.65179
915.894	1270.86929
916.072	1129.17468
916.249	1410.45983
916.427	1188.38843
916.604	1374.50414
916.782	1239.14535
916.959	1315.28371
917.137	1205.3072
917.314	1292.01889
917.492	1008.64392
917.669	1262.40951
917.847	993.84318
918.024	1262.40951
918.201	1082.65201
918.379	1296.24884
918.556	976.92843
918.733	1241.26026
918.911	1036.13182
919.088	1093.22514
919.265	1002.30071
919.442	1141.86307
919.62	1000.18632
919.797	953.67136
919.974	991.72881
920.151	1158.78116
920.328	976.92843
920.506	1112.25708
920.683	993.84318
920.86	995.95755
921.037	845.85499
921.214	951.55712
921.391	877.56352
921.568	974.81412
921.745	765.53582
921.922	1004.41511
922.099	843.74116
922.276	1156.66639
922.453	873.33561
922.63	1055.16249
922.807	841.62734
922.984	847.96884
923.161	725.38156
923.338	799.35276
923.514	890.24746
923.691	780.33042
923.868	847.96884
924.045	883.90545
924.222	683.11811
924.399	788.78469
924.575	628.18249
924.752	864.87988
924.929	678.89201
925.105	721.15502
925.282	670.43995
925.459	738.06144
925.635	801.4664
925.812	799.35276
925.989	678.89201
926.165	852.19655
926.342	697.90981
926.518	856.42429
926.695	710.58885
926.871	856.42429
927.048	611.28088
927.224	706.36246
927.401	630.29525
927.577	729.60814
927.754	569.03042
927.93	681.00505
928.107	649.31062
928.283	704.24928
928.459	585.92998
928.636	695.79667
928.812	556.35631
928.988	613.39353
929.165	552.13172
929.341	706.36246
929.517	465.54001
929.693	592.26753
929.87	507.77683
930.046	588.04248
930.222	581.70501
930.398	579.59254
930.574	514.11286
930.751	613.39353
930.927	442.31232
931.103	459.205
931.279	292.43587
931.455	588.04248
931.631	397.97385
931.807	478.21043
931.983	495.10517
932.159	501.44093
932.335	448.64696
932.511	425.42065
932.687	404.30748
932.863	556.35631
933.039	324.09267
933.215	461.31665
933.391	429.64347
933.566	334.64583
933.742	408.52999
933.918	366.30793
934.094	307.20854
934.27	433.86636
934.445	309.31899
934.621	408.52999
934.797	298.76691
934.973	381.08489
935.148	277.66411
935.324	283.99475
935.5	239.6838
935.675	326.20327
935.851	214.36707
936.027	180.61589
936.202	214.36707
936.378	300.87729
936.553	205.9288
936.729	248.12334
936.904	203.81928
937.08	224.91537
937.255	182.72519
937.431	182.72519
937.606	222.80567
937.782	218.58633
937.957	151.08791
938.133	170.06972
938.308	89.9361
938.483	121.56407
938.659	125.7815
938.834	73.06989
939.009	121.56407
939.185	155.30595
939.36	96.26129
939.535	75.17808
939.71	83.6111
939.886	132.10782
940.061	58.31314
940.236	98.36974
940.411	70.96171
940.586	136.32547
940.761	30.91075
940.937	87.82774
941.112	146.86997
941.287	73.06989
941.462	73.06989
941.637	56.20513
941.812	94.15287
941.987	151.08791
942.162	148.97893
942.337	49.88122
942.512	96.26129
942.687	49.88122
942.862	83.6111
943.037	108.91229
943.212	62.52924
943.386	58.31314
943.561	100.4782
943.736	43.55752
943.911	129.99903
944.086	89.9361
944.26	45.6654
944.435	102.58669
944.61	56.20513
944.785	96.26129
944.959	39.34183
945.134	62.52924
945.309	108.91229
945.483	79.39455
945.658	85.71941
945.833	87.82774
946.007	87.82774
946.182	108.91229
946.357	66.74543
946.531	58.31314
946.706	70.96171
946.88	89.9361
947.055	89.9361
947.229	70.96171
947.404	83.6111
947.578	24.58768
947.752	45.6654
947.927	70.96171
948.101	37.23403
948.276	83.6111
948.45	26.69535
948.624	87.82774
948.799	49.88122
948.973	73.06989
949.147	47.77329
949.321	66.74543
949.496	62.52924
949.67	148.97893
949.844	138.43433
950.018	56.20513
950.193	87.82774
950.367	70.96171
950.541	28.80304
950.715	115.23808
950.889	87.82774
951.063	96.26129
951.237	89.9361
951.411	24.58768
951.585	62.52924
951.759	96.26129
951.933	104.6952
952.107	1.40492
952.281	16.15725
952.455	81.50281
952.629	129.99903
952.803	83.6111
952.977	64.63732
953.151	47.77329
953.325	79.39455
953.499	60.42118
953.672	127.89025
953.846	100.4782
954.02	113.12946
954.194	108.91229
954.368	117.34672
954.541	113.12946
954.715	28.80304
954.889	43.55752
955.062	81.50281
955.236	22.48004
955.41	146.86997
955.583	20.37242
955.757	79.39455
955.93	73.06989
956.104	68.85356
956.278	73.06989
956.451	113.12946
956.625	81.50281
956.798	111.02086
956.972	45.6654
957.145	100.4782
957.319	102.58669
957.492	108.91229
957.665	100.4782
957.839	146.86997
958.012	60.42118
958.185	35.12624
958.359	132.10782
958.532	87.82774
958.705	129.99903
958.879	66.74543
959.052	51.98916
959.225	117.34672
959.398	165.85139
959.572	5.61975
959.745	39.34183
959.918	115.23808
960.091	39.34183
960.264	155.30595
960.438	81.50281
960.611	-13.34623
960.784	11.94218
960.957	30.91075
961.13	96.26129
961.303	70.96171
961.476	28.80304
961.649	111.02086
961.822	1.40492
961.995	115.23808
962.168	-38.63112
962.341	47.77329
962.514	64.63732
962.686	79.39455
962.859	96.26129
963.032	87.82774
963.205	62.52924
963.378	73.06989
963.551	170.06972
963.723	87.82774
963.896	146.86997
964.069	121.56407
964.242	111.02086
964.414	28.80304
964.587	77.2863
964.76	62.52924
964.932	104.6952
965.105	94.15287
965.278	79.39455
965.45	79.39455
965.623	58.31314
965.795	43.55752
965.968	33.01848
966.14	54.09713
966.313	68.85356
966.485	115.23808
966.658	98.36974
966.83	30.91075
967.003	66.74543
967.175	106.80373
967.348	73.06989
967.52	33.01848
967.692	45.6654
967.865	39.34183
968.037	66.74543
968.209	96.26129
968.382	28.80304
968.554	-38.63112
968.726	68.85356
968.898	89.9361
969.071	56.20513
969.243	89.9361
969.415	16.15725
969.587	30.91075
969.759	54.09713
969.932	47.77329
970.104	20.37242
970.276	94.15287
970.448	33.01848
970.62	100.4782
970.792	-30.20322
970.964	87.82774
971.136	81.50281
971.308	41.44967
971.48	9.83468
971.652	96.26129
971.824	24.58768
971.996	121.56407
972.168	100.4782
972.339	28.80304
972.511	51.98916
972.683	51.98916
972.855	45.6654
973.027	121.56407
973.199	41.44967
973.37	41.44967
973.542	79.39455
973.714	-13.34623
973.886	-2.80981
974.057	-0.70246
974.229	39.34183
974.401	92.04447
974.572	98.36974
974.744	54.09713
974.915	-19.66778
975.087	41.44967
975.259	49.88122
975.43	22.48004
975.602	24.58768
975.773	62.52924
975.945	35.12624
976.116	26.69535
976.288	33.01848
976.459	22.48004
976.63	73.06989
976.802	11.94218
976.973	41.44967
977.145	11.94218
977.316	3.51233
977.487	28.80304
977.659	56.20513
977.83	49.88122
978.001	28.80304
978.172	30.91075
978.344	41.44967
978.515	-2.80981
978.686	89.9361
978.857	28.80304
979.028	7.72721
979.2	58.31314
979.371	-4.91714
979.542	58.31314
979.713	-13.34623
979.884	83.6111
980.055	22.48004
980.226	89.9361
980.397	70.96171
980.568	108.91229
980.739	56.20513
980.91	-9.13173
981.081	73.06989
981.252	20.37242
981.423	-25.98912
981.594	58.31314
981.765	28.80304
981.936	39.34183
982.106	37.23403
982.277	37.23403
982.448	47.77329
982.619	-9.13173
982.79	87.82774
982.96	119.45538
983.131	33.01848
983.302	58.31314
983.472	58.31314
983.643	39.34183
983.814	81.50281
983.984	-28.09618
984.155	-7.02445
984.326	54.09713
984.496	49.88122
984.667	62.52924
984.837	45.6654
985.008	3.51233
985.178	75.17808
985.349	14.04971
985.519	30.91075
985.69	20.37242
985.86	-13.34623
986.031	56.20513
986.201	79.39455
986.371	3.51233
986.542	11.94218
986.712	-25.98912
986.882	54.09713
987.053	3.51233
987.223	-0.70246
987.393	64.63732
987.563	37.23403
987.734	14.04971
987.904	70.96171
988.074	39.34183
988.244	5.61975
988.414	14.04971
988.585	45.6654
988.755	30.91075
988.925	-13.34623
989.095	111.02086
989.265	16.15725
989.435	75.17808
989.605	28.80304
989.775	70.96171
989.945	30.91075
990.115	9.83468
990.285	87.82774
990.455	62.52924
990.625	-7.02445
990.795	-38.63112
990.965	68.85356
991.134	58.31314
991.304	20.37242
991.474	-0.70246
991.644	62.52924
991.814	37.23403
991.984	70.96171
992.153	26.69535
992.323	51.98916
992.493	18.26482
992.662	62.52924
992.832	30.91075
993.002	-47.05863
993.171	138.43433
993.341	89.9361
993.511	-21.77492
993.68	41.44967
993.85	20.37242
994.019	41.44967
994.189	3.51233
994.358	11.94218
994.528	56.20513
994.697	41.44967
994.867	81.50281
995.036	62.52924
995.206	41.44967
995.375	-9.13173
995.544	37.23403
995.714	-47.05863
995.883	-30.20322
996.052	60.42118
996.222	-42.84492
996.391	33.01848
996.56	54.09713
996.73	-28.09618
996.899	33.01848
997.068	70.96171
997.237	96.26129
997.406	30.91075
997.576	-4.91714
997.745	3.51233
997.914	5.61975
998.083	70.96171
998.252	70.96171
998.421	96.26129
998.59	39.34183
998.759	39.34183
998.928	70.96171
999.097	98.36974
999.266	3.51233
999.435	-13.34623
999.604	-44.95179
999.773	79.39455
999.942	7.72721
1000.111	5.61975
1000.28	16.15725
1000.448	123.67278
1000.617	41.44967
1000.786	5.61975
1000.955	37.23403
1001.124	37.23403
1001.292	70.96171
1001.461	66.74543
1001.63	-4.91714
1001.798	11.94218
1001.967	28.80304
1002.136	-47.05863
1002.304	64.63732
1002.473	28.80304
1002.642	-4.91714
1002.81	5.61975
1002.979	47.77329
1003.147	-38.63112
1003.316	5.61975
1003.484	7.72721
1003.653	9.83468
1003.821	-21.77492
1003.99	-49.16544
1004.158	20.37242
1004.327	5.61975
1004.495	83.6111
1004.663	49.88122
1004.832	-2.80981
1005	70.96171
1005.168	33.01848
1005.337	43.55752
1005.505	26.69535
1005.673	104.6952
1005.842	-36.52418
1006.01	37.23403
1006.178	-51.27223
1006.346	16.15725
1006.514	-13.34623
1006.683	30.91075
1006.851	-0.70246
1007.019	30.91075
1007.187	30.91075
1007.355	24.58768
1007.523	24.58768
1007.691	3.51233
1007.859	-17.56062
1008.027	45.6654
1008.195	33.01848
1008.363	47.77329
1008.531	3.51233
1008.699	45.6654
1008.867	28.80304
1009.035	-106.03976
1009.203	-38.63112
1009.37	54.09713
1009.538	-38.63112
1009.706	20.37242
1009.874	-4.91714
1010.042	11.94218
1010.209	-2.80981
1010.377	54.09713
1010.545	-30.20322
1010.713	-11.23899
1010.88	20.37242
1011.048	-9.13173
1011.216	-19.66778
1011.383	30.91075
1011.551	11.94218
1011.718	20.37242
1011.886	68.85356
1012.054	1.40492
1012.221	-63.91243
1012.389	56.20513
1012.556	-21.77492
1012.724	20.37242
1012.891	70.96171
1013.058	9.83468
1013.226	-7.02445
1013.393	39.34183
1013.561	-25.98912
1013.728	26.69535
1013.895	-0.70246
1014.063	56.20513
1014.23	-0.70246
1014.397	16.15725
1014.565	-87.08375
1014.732	-0.70246
1014.899	3.51233
1015.066	56.20513
1015.233	11.94218
1015.401	-44.95179
1015.568	-2.80981
1015.735	-13.34623
1015.902	81.50281
1016.069	68.85356
1016.236	62.52924
1016.403	20.37242
1016.57	47.77329
1016.737	58.31314
1016.904	3.51233
1017.071	3.51233
1017.238	41.44967
1017.405	-19.66778
1017.572	28.80304
1017.739	41.44967
1017.906	11.94218
1018.073	-32.31023
1018.24	73.06989
1018.407	3.51233
1018.573	7.72721
1018.74	-55.48573
1018.907	-11.23899
1019.074	14.04971
1019.241	16.15725
1019.407	-7.02445
1019.574	-47.05863
1019.741	3.51233
1019.907	79.39455
1020.074	28.80304
1020.241	-28.09618
1020.407	-44.95179
1020.574	-2.80981
1020.74	14.04971
1020.907	41.44967
1021.073	20.37242
1021.24	-0.70246
1021.406	121.56407
1021.573	70.96171
1021.739	37.23403
1021.906	62.52924
1022.072	-19.66778
1022.239	35.12624
1022.405	-4.91714
1022.571	47.77329
1022.738	56.20513
1022.904	9.83468
1023.07	18.26482
1023.237	24.58768
1023.403	-4.91714
1023.569	-21.77492
1023.735	-32.31023
1023.902	-2.80981
1024.068	20.37242
1024.234	-28.09618
1024.4	30.91075
1024.566	24.58768
1024.732	7.72721
1024.898	62.52924
1025.065	45.6654
1025.231	33.01848
1025.397	24.58768
1025.563	11.94218
1025.729	-51.27223
1025.895	14.04971
1026.061	54.09713
1026.227	-21.77492
1026.392	-25.98912
1026.558	-30.20322
1026.724	-61.80579
1026.89	16.15725
1027.056	33.01848
1027.222	73.06989
1027.388	47.77329
1027.553	9.83468
1027.719	20.37242
1027.885	5.61975
1028.051	30.91075
1028.216	-21.77492
1028.382	30.91075
1028.548	5.61975
1028.713	30.91075
1028.879	-4.91714
1029.045	-78.65817
1029.21	33.01848
1029.376	39.34183
1029.541	28.80304
1029.707	22.48004
1029.873	33.01848
1030.038	-30.20322
1030.204	-51.27223
1030.369	30.91075
1030.534	-32.31023
1030.7	-49.16544
1030.865	7.72721
1031.031	56.20513
1031.196	45.6654
1031.361	5.61975
1031.527	28.80304
1031.692	28.80304
1031.857	35.12624
1032.023	-13.34623
1032.188	18.26482
1032.353	37.23403
1032.518	47.77329
1032.684	-17.56062
1032.849	49.88122
1033.014	35.12624
1033.179	16.15725
1033.344	28.80304
1033.509	-21.77492
1033.674	18.26482
1033.839	37.23403
1034.004	37.23403
1034.17	45.6654
1034.335	-49.16544
1034.5	-4.91714
1034.664	75.17808
1034.829	41.44967
1034.994	-11.23899
1035.159	33.01848
1035.324	-13.34623
1035.489	-0.70246
1035.654	37.23403
1035.819	28.80304
1035.984	-21.77492
1036.148	22.48004
1036.313	45.6654
1036.478	-70.23219
1036.643	58.31314
1036.807	-30.20322
1036.972	-11.23899
1037.137	30.91075
1037.301	43.55752
1037.466	-51.27223
1037.631	20.37242
1037.795	54.09713
1037.96	26.69535
1038.124	-13.34623
1038.289	-2.80981
1038.454	-11.23899
1038.618	68.85356
1038.783	51.98916
1038.947	28.80304
1039.111	-4.91714
1039.276	60.42118
1039.44	18.26482
1039.605	-4.91714
1039.769	20.37242
1039.933	16.15725
1040.098	41.44967
1040.262	-30.20322
1040.426	-36.52418
1040.591	22.48004
1040.755	7.72721
1040.919	39.34183
1041.083	20.37242
1041.248	-38.63112
1041.412	-51.27223
1041.576	14.04971
1041.74	-63.91243
1041.904	79.39455
1042.068	-0.70246
1042.232	3.51233
1042.397	3.51233
1042.561	47.77329
1042.725	30.91075
1042.889	54.09713
1043.053	30.91075
1043.217	-21.77492
1043.381	22.48004
1043.544	-13.34623
1043.708	30.91075
1043.872	62.52924
1044.036	5.61975
1044.2	-34.41722
1044.364	22.48004
1044.528	-4.91714
1044.691	33.01848
1044.855	41.44967
1045.019	3.51233
1045.183	70.96171
1045.346	24.58768
1045.51	11.94218
1045.674	-34.41722
1045.837	-34.41722
1046.001	37.23403
1046.165	49.88122
1046.328	102.58669
1046.492	121.56407
1046.655	16.15725
1046.819	-4.91714
1046.983	-19.66778
1047.146	-17.56062
1047.31	16.15725
1047.473	96.26129
1047.636	49.88122
1047.8	102.58669
1047.963	-63.91243
1048.127	54.09713
1048.29	26.69535
