Data from mixed_try1_USB4F045381__18__00166.txt Node

Date: Thu Apr 03 20:10:00 EDT 2025
User: mmckonesweet
Spectrometer: USB4F04538
Trigger mode: 4
Integration Time (sec): 2.700000E-3
Scans to average: 1
Electric dark correction enabled: true
Nonlinearity correction enabled: true
Boxcar width: 0
XAxis mode: Wavelengths
Number of Pixels in Spectrum: 3648
>>>>>Begin Spectral Data<<<<<
345.52	-97.79065
345.736	-97.79065
345.952	-97.79065
346.168	-38.8067
346.384	18.08919
346.6	-5.09275
346.816	18.08919
347.032	-5.09275
347.248	-66.19459
347.464	-64.08798
347.68	-28.27177
347.896	-30.3788
348.112	66.56975
348.328	51.8135
348.544	34.9506
348.76	43.38186
348.975	-15.62904
349.191	-66.19459
349.407	-24.05762
349.623	-45.12736
349.839	60.24551
350.055	49.70556
350.27	-15.62904
350.486	-15.62904
350.702	-76.72725
350.918	-7.20006
351.133	-32.48582
351.349	-2.98542
351.565	18.08919
351.781	3.33671
351.996	-74.62077
352.212	-34.5928
352.428	-24.05762
352.644	-57.768
352.859	-78.83371
353.075	-72.51427
353.291	-47.2342
353.506	9.65906
353.722	-24.05762
353.938	18.08919
354.153	26.51971
354.369	-11.4146
354.584	-91.4719
354.8	-61.98135
355.016	-72.51427
355.231	-34.5928
355.447	26.51971
355.662	30.7351
355.878	-2.98542
356.093	-32.48582
356.309	-0.87807
356.524	-66.19459
356.74	-2.98542
356.955	-87.25927
357.171	-15.62904
357.386	-95.68442
357.602	-104.10916
357.817	13.87408
358.033	-9.30734
358.248	-24.05762
358.464	-45.12736
358.679	-95.68442
358.895	-5.09275
359.11	-11.4146
359.325	-17.73622
359.541	-70.40773
359.756	56.02946
359.972	-19.84338
360.187	13.87408
360.402	-30.3788
360.618	22.3044
360.833	-21.95051
361.048	58.13747
361.264	-21.95051
361.479	15.98162
361.694	-19.84338
361.909	-47.2342
362.125	-76.72725
362.34	-15.62904
362.555	-47.2342
362.77	-83.04654
362.986	-36.69976
363.201	-24.05762
363.416	-70.40773
363.631	64.46165
363.847	-13.52183
364.062	18.08919
364.277	-0.87807
364.492	-9.30734
364.707	-21.95051
364.922	89.7604
365.138	-57.768
365.353	-13.52183
365.568	-47.2342
365.783	-32.48582
365.998	1.22931
366.213	64.46165
366.428	-45.12736
366.643	-7.20006
366.858	13.87408
367.073	-83.04654
367.288	3.33671
367.503	26.51971
367.718	-11.4146
367.933	18.08919
368.148	-91.4719
368.363	-53.55456
368.578	34.9506
368.793	11.76656
369.008	5.44413
369.223	-89.3656
369.438	-57.768
369.653	3.33671
369.868	-21.95051
370.083	-24.05762
370.298	-51.44779
370.513	20.19678
370.728	-15.62904
370.943	-24.05762
371.157	-9.30734
371.372	-13.52183
371.587	-85.15292
371.802	15.98162
372.017	-51.44779
372.232	-15.62904
372.446	34.9506
372.661	-5.09275
372.876	18.08919
373.091	-15.62904
373.306	-36.69976
373.52	24.41204
373.735	-15.62904
373.95	11.76656
374.165	-2.98542
374.379	-89.3656
374.594	-49.34101
374.809	-66.19459
375.023	-7.20006
375.238	11.76656
375.453	3.33671
375.667	-36.69976
375.882	-24.05762
376.097	-15.62904
376.311	20.19678
376.526	-24.05762
376.741	9.65906
376.955	-15.62904
377.17	-80.94014
377.384	-83.04654
377.599	5.44413
377.813	20.19678
378.028	3.33671
378.242	-70.40773
378.457	-15.62904
378.672	1.22931
378.886	-38.8067
379.101	-49.34101
379.315	45.48974
379.53	32.84284
379.744	-11.4146
379.958	68.67788
380.173	-74.62077
380.387	-30.3788
380.602	-36.69976
380.816	43.38186
381.031	-74.62077
381.245	28.62739
381.459	3.33671
381.674	30.7351
381.888	68.67788
382.103	43.38186
382.317	47.59764
382.531	-64.08798
382.746	-5.09275
382.96	7.55158
383.174	26.51971
383.388	-91.4719
383.603	87.65205
383.817	-15.62904
384.031	3.33671
384.246	9.65906
384.46	-21.95051
384.674	-59.87469
384.888	-5.09275
385.103	51.8135
385.317	-61.98135
385.531	18.08919
385.745	26.51971
385.959	-57.768
386.174	-57.768
386.388	-24.05762
386.602	-5.09275
386.816	-51.44779
387.03	-11.4146
387.244	39.16618
387.458	1.22931
387.672	22.3044
387.887	-11.4146
388.101	-61.98135
388.315	18.08919
388.529	-2.98542
388.743	-15.62904
388.957	51.8135
389.171	-28.27177
389.385	-28.27177
389.599	-32.48582
389.813	-24.05762
390.027	9.65906
390.241	28.62739
390.455	-11.4146
390.669	9.65906
390.883	-114.63948
391.097	-49.34101
391.311	-38.8067
391.525	-57.768
391.738	13.87408
391.952	-34.5928
392.166	-5.09275
392.38	18.08919
392.594	-11.4146
392.808	-5.09275
393.022	20.19678
393.236	56.02946
393.449	-49.34101
393.663	-74.62077
393.877	-30.3788
394.091	-114.63948
394.305	-19.84338
394.518	-32.48582
394.732	-45.12736
394.946	30.7351
395.16	-49.34101
395.373	-7.20006
395.587	37.05838
395.801	-32.48582
396.015	1.22931
396.228	-9.30734
396.442	9.65906
396.656	-38.8067
396.869	34.9506
397.083	-49.34101
397.297	-11.4146
397.51	-89.3656
397.724	60.24551
397.938	-24.05762
398.151	22.3044
398.365	-2.98542
398.578	-24.05762
398.792	13.87408
399.005	-13.52183
399.219	-7.20006
399.433	-15.62904
399.646	9.65906
399.86	53.92147
400.073	-30.3788
400.287	-125.16914
400.5	13.87408
400.714	-49.34101
400.927	-38.8067
401.141	-21.95051
401.354	-40.91361
401.567	-11.4146
401.781	-11.4146
401.994	11.76656
402.208	34.9506
402.421	-0.87807
402.635	-11.4146
402.848	89.7604
403.061	-49.34101
403.275	-51.44779
403.488	-49.34101
403.701	-47.2342
403.915	-19.84338
404.128	-32.48582
404.341	-47.2342
404.555	-19.84338
404.768	22.3044
404.981	43.38186
405.195	-0.87807
405.408	58.13747
405.621	-49.34101
405.834	-43.0205
406.048	3.33671
406.261	-9.30734
406.474	-0.87807
406.687	18.08919
406.9	30.7351
407.114	-72.51427
407.327	-28.27177
407.54	-11.4146
407.753	56.02946
407.966	43.38186
408.179	22.3044
408.392	28.62739
408.605	-47.2342
408.819	-72.51427
409.032	11.76656
409.245	1.22931
409.458	53.92147
409.671	-13.52183
409.884	24.41204
410.097	-61.98135
410.31	-106.21527
410.523	-24.05762
410.736	-24.05762
410.949	-83.04654
411.162	-57.768
411.375	-70.40773
411.588	5.44413
411.801	-74.62077
412.014	49.70556
412.227	-47.2342
412.44	28.62739
412.653	-34.5928
412.865	-13.52183
413.078	79.21886
413.291	56.02946
413.504	18.08919
413.717	-11.4146
413.93	-49.34101
414.143	47.59764
414.356	-57.768
414.568	18.08919
414.781	20.19678
414.994	66.56975
415.207	39.16618
415.42	-19.84338
415.632	-24.05762
415.845	-61.98135
416.058	-57.768
416.271	-30.3788
416.483	-24.05762
416.696	26.51971
416.909	-30.3788
417.121	34.9506
417.334	-2.98542
417.547	-74.62077
417.759	-61.98135
417.972	-28.27177
418.185	-43.0205
418.397	-15.62904
418.61	-17.73622
418.823	77.11062
419.035	-38.8067
419.248	-49.34101
419.46	-36.69976
419.673	5.44413
419.885	18.08919
420.098	-15.62904
420.311	-11.4146
420.523	20.19678
420.736	-28.27177
420.948	-49.34101
421.161	-11.4146
421.373	-11.4146
421.586	-40.91361
421.798	-7.20006
422.01	1.22931
422.223	1.22931
422.435	-36.69976
422.648	-57.768
422.86	-7.20006
423.073	-26.16471
423.285	37.05838
423.497	-2.98542
423.71	-38.8067
423.922	-49.34101
424.134	-17.73622
424.347	34.9506
424.559	-43.0205
424.771	-2.98542
424.984	9.65906
425.196	-7.20006
425.408	-49.34101
425.621	-15.62904
425.833	-2.98542
426.045	-64.08798
426.257	34.9506
426.47	58.13747
426.682	22.3044
426.894	11.76656
427.106	-13.52183
427.318	-7.20006
427.531	-19.84338
427.743	-26.16471
427.955	-13.52183
428.167	-13.52183
428.379	24.41204
428.591	13.87408
428.804	-66.19459
429.016	-21.95051
429.228	-0.87807
429.44	18.08919
429.652	28.62739
429.864	-9.30734
430.076	-57.768
430.288	9.65906
430.5	-30.3788
430.712	-24.05762
430.924	-5.09275
431.136	1.22931
431.348	-13.52183
431.56	64.46165
431.772	26.51971
431.984	-45.12736
432.196	-2.98542
432.408	-7.20006
432.62	13.87408
432.832	18.08919
433.044	51.8135
433.256	-19.84338
433.468	-32.48582
433.679	-53.55456
433.891	-64.08798
434.103	30.7351
434.315	39.16618
434.527	-53.55456
434.739	-30.3788
434.95	24.41204
435.162	-45.12736
435.374	24.41204
435.586	34.9506
435.798	5.44413
436.009	-15.62904
436.221	-36.69976
436.433	7.55158
436.645	26.51971
436.856	-9.30734
437.068	-85.15292
437.28	-40.91361
437.491	-15.62904
437.703	-40.91361
437.915	1.22931
438.126	-28.27177
438.338	-32.48582
438.55	34.9506
438.761	26.51971
438.973	-61.98135
439.184	24.41204
439.396	-51.44779
439.608	-7.20006
439.819	-26.16471
440.031	22.3044
440.242	-64.08798
440.454	-49.34101
440.665	43.38186
440.877	-24.05762
441.088	-2.98542
441.3	-61.98135
441.511	20.19678
441.723	-13.52183
441.934	1.22931
442.146	-21.95051
442.357	-17.73622
442.569	51.8135
442.78	-11.4146
442.991	43.38186
443.203	70.78603
443.414	-19.84338
443.626	9.65906
443.837	-7.20006
444.048	-21.95051
444.26	5.44413
444.471	-0.87807
444.682	18.08919
444.894	-24.05762
445.105	-17.73622
445.316	43.38186
445.528	30.7351
445.739	-24.05762
445.95	-38.8067
446.161	18.08919
446.373	22.3044
446.584	28.62739
446.795	-34.5928
447.006	-7.20006
447.217	62.35357
447.429	18.08919
447.64	1.22931
447.851	-5.09275
448.062	-5.09275
448.273	56.02946
448.484	-15.62904
448.695	53.92147
448.907	-89.3656
449.118	37.05838
449.329	-61.98135
449.54	-19.84338
449.751	-28.27177
449.962	-7.20006
450.173	62.35357
450.384	-24.05762
450.595	5.44413
450.806	9.65906
451.017	-64.08798
451.228	-24.05762
451.439	1.22931
451.65	3.33671
451.861	-66.19459
452.072	56.02946
452.283	45.48974
452.494	24.41204
452.705	41.27401
452.915	1.22931
453.126	62.35357
453.337	18.08919
453.548	-5.09275
453.759	39.16618
453.97	64.46165
454.181	-57.768
454.391	-2.98542
454.602	-28.27177
454.813	34.9506
455.024	13.87408
455.235	-24.05762
455.445	-15.62904
455.656	-36.69976
455.867	43.38186
456.078	-11.4146
456.288	-32.48582
456.499	-40.91361
456.71	26.51971
456.921	-24.05762
457.131	-2.98542
457.342	-61.98135
457.553	3.33671
457.763	-55.66129
457.974	-26.16471
458.184	18.08919
458.395	13.87408
458.606	9.65906
458.816	-15.62904
459.027	-7.20006
459.237	72.8942
459.448	37.05838
459.659	20.19678
459.869	18.08919
460.08	-64.08798
460.29	45.48974
460.501	-11.4146
460.711	-2.98542
460.922	11.76656
461.132	5.44413
461.343	-13.52183
461.553	-7.20006
461.764	1.22931
461.974	-21.95051
462.184	9.65906
462.395	-36.69976
462.605	-99.89684
462.816	-30.3788
463.026	1.22931
463.236	11.76656
463.447	37.05838
463.657	28.62739
463.867	20.19678
464.078	26.51971
464.288	13.87408
464.498	34.9506
464.709	-47.2342
464.919	-32.48582
465.129	-30.3788
465.339	34.9506
465.55	3.33671
465.76	-61.98135
465.97	-32.48582
466.18	-40.91361
466.391	18.08919
466.601	13.87408
466.811	13.87408
467.021	18.08919
467.231	13.87408
467.441	11.76656
467.651	-13.52183
467.862	-7.20006
468.072	-11.4146
468.282	30.7351
468.492	-49.34101
468.702	-5.09275
468.912	45.48974
469.122	43.38186
469.332	3.33671
469.542	26.51971
469.752	1.22931
469.962	79.21886
470.172	11.76656
470.382	96.08559
470.592	-5.09275
470.802	32.84284
471.012	-11.4146
471.222	75.0024
471.432	51.8135
471.642	-57.768
471.852	1.22931
472.062	64.46165
472.272	-40.91361
472.482	-32.48582
472.691	9.65906
472.901	-28.27177
473.111	18.08919
473.321	43.38186
473.531	41.27401
473.741	28.62739
473.95	-11.4146
474.16	-26.16471
474.37	1.22931
474.58	37.05838
474.79	34.9506
474.999	32.84284
475.209	37.05838
475.419	60.24551
475.628	70.78603
475.838	5.44413
476.048	22.3044
476.258	45.48974
476.467	18.08919
476.677	22.3044
476.886	37.05838
477.096	60.24551
477.306	110.84515
477.515	66.56975
477.725	87.65205
477.935	140.36746
478.144	85.54372
478.354	30.7351
478.563	75.0024
478.773	41.27401
478.982	89.7604
479.192	68.67788
479.401	18.08919
479.611	77.11062
479.82	26.51971
480.03	30.7351
480.239	79.21886
480.449	93.97717
480.658	26.51971
480.868	98.19403
481.077	62.35357
481.287	60.24551
481.496	102.41098
481.705	163.5665
481.915	237.39815
482.124	93.97717
482.333	60.24551
482.543	163.5665
482.752	77.11062
482.961	83.43541
483.171	184.65873
483.38	1.22931
483.589	115.06236
483.799	83.43541
484.008	47.59764
484.217	66.56975
484.426	186.76807
484.636	129.82329
484.845	138.25859
485.054	121.38835
485.263	161.45739
485.472	72.8942
485.682	125.60578
485.891	186.76807
486.1	172.00315
486.309	127.71452
486.518	157.23924
486.727	100.3025
486.936	104.51949
487.146	190.9868
487.355	125.60578
487.564	222.62986
487.773	112.95374
487.982	153.02117
488.191	178.33085
488.4	228.95901
488.609	214.19127
488.818	237.39815
489.027	197.31505
489.236	199.42451
489.445	254.27736
489.654	209.9721
489.863	228.95901
490.072	239.50798
490.281	296.48068
490.49	258.49735
490.698	266.93757
490.907	155.13019
491.116	144.58528
491.325	254.27736
491.534	254.27736
491.743	159.34831
491.952	283.8189
492.16	264.82749
492.369	245.8376
492.578	279.59846
492.787	285.92915
492.996	334.46994
493.204	330.24862
493.413	387.2422
493.622	328.13799
493.831	292.26001
494.039	296.48068
494.248	247.94751
494.457	304.92223
494.665	380.90897
494.874	372.4649
495.083	279.59846
495.291	374.57589
495.5	389.35331
495.709	410.46532
495.917	332.35927
496.126	347.1343
496.335	300.70142
496.543	347.1343
496.752	440.02485
496.96	368.24296
497.169	448.471
497.377	448.471
497.586	323.91679
497.794	450.58257
498.003	465.36403
498.211	501.26494
498.42	370.35392
498.628	475.92268
498.837	507.60084
499.045	541.39445
499.254	524.49719
499.462	505.48886
499.671	465.36403
499.879	587.86644
500.087	568.85439
500.296	655.47322
500.504	442.13636
500.713	463.25235
500.921	583.64144
501.129	494.92917
501.338	497.04108
501.546	549.84342
501.754	634.34474
501.962	693.50746
502.171	625.89368
502.379	651.24742
502.587	583.64144
502.795	585.75393
503.004	577.30405
503.212	769.58667
503.42	611.10482
503.628	704.07318
503.837	744.22541
504.045	773.81369
504.253	761.13276
504.461	769.58667
504.669	704.07318
504.877	742.11204
505.085	710.41275
505.294	744.22541
505.502	672.37686
505.71	898.52741
505.918	708.29955
506.126	807.63124
506.334	794.94937
506.542	892.18531
506.75	894.29933
506.958	957.72367
507.166	761.13276
507.374	879.50133
507.582	904.86958
507.79	1000.01012
507.998	847.79268
508.206	951.38093
508.414	816.086
508.622	1012.69656
508.83	890.07129
509.037	947.15248
509.245	862.58981
509.453	1050.7572
509.661	896.41337
509.869	1234.73929
510.077	1027.49769
510.285	972.52362
510.492	951.38093
510.7	1124.76903
510.908	972.52362
511.116	942.92406
511.324	900.64146
511.531	1065.55906
511.739	1023.26877
511.947	1016.92543
512.155	1126.88374
512.362	1124.76903
512.57	1012.69656
512.778	1133.2279
512.985	1065.55906
513.193	1183.98254
513.401	972.52362
513.608	1232.62439
513.816	1158.60493
514.024	1186.09737
514.231	1183.98254
514.439	1173.40847
514.646	1226.27971
514.854	1302.41753
515.061	1179.7529
515.269	1359.52268
515.477	1245.31384
515.684	1372.21285
515.892	1192.44187
516.099	1264.34821
516.307	1361.6377
516.514	1429.31902
516.722	1287.61271
516.929	1416.62872
517.136	1327.79745
517.344	1374.32789
517.551	1393.36322
517.759	1431.43407
517.966	1310.87747
518.173	1497.00065
518.381	1541.41645
518.588	1530.8413
518.796	1427.20397
519.003	1558.33664
519.21	1302.41753
519.418	1530.8413
519.625	1556.22162
519.832	1566.7967
520.039	1575.25674
520.247	1676.77477
520.454	1497.00065
520.661	1716.95736
520.868	1575.25674
521.076	1896.70467
521.283	1545.64651
521.49	1767.71261
521.697	1649.28083
521.904	1708.49796
522.112	1539.30142
522.319	1879.78869
522.526	1634.47622
522.733	1839.61195
522.94	1621.78646
523.147	1780.40108
523.354	1790.9747
523.561	1852.29954
523.768	1886.13222
523.975	1974.9364
524.183	1843.84117
524.39	1843.84117
524.597	1911.50586
524.804	2040.47543
525.011	1867.10149
525.218	2004.53545
525.425	1778.28634
525.632	1955.9078
525.838	1888.24672
526.045	2182.10079
526.252	1898.81914
526.459	2135.60076
526.666	2076.41341
526.873	2156.73762
527.08	2139.82819
527.287	2308.89791
527.494	1979.16492
527.701	2283.5411
527.907	2131.37329
528.114	2270.86219
528.321	2114.4631
528.528	2378.62194
528.735	2182.10079
528.941	2262.4094
529.148	2070.07157
529.355	2283.5411
529.562	2152.51031
529.768	2499.02776
529.975	2184.21434
530.182	2427.21093
530.388	2203.23585
530.595	2334.25335
530.802	2376.50925
531.008	2528.59565
531.215	2351.15619
531.422	2469.45767
531.628	2471.56989
531.835	2594.05928
532.042	2539.15507
532.248	2676.40019
532.455	2494.8036
532.661	2613.0627
532.868	2604.61686
533.074	2699.62109
533.281	2604.61686
533.487	2781.93693
533.694	2589.83617
533.9	2731.28341
534.107	2596.17082
534.313	2657.40013
534.52	2659.5113
534.726	2976.03436
534.933	2606.72834
535.139	2809.371
535.345	2718.61883
535.552	3035.08282
535.758	2800.93
535.965	2912.75511
536.171	2800.93
536.377	2954.94276
536.584	2876.89102
536.79	3060.38563
536.996	2870.56163
537.203	3102.55197
537.409	2971.81616
537.615	2971.81616
537.821	2870.56163
538.028	3292.22044
538.234	2950.72426
538.44	3292.22044
538.646	3013.99546
538.853	3094.1192
539.059	3043.51734
539.265	3102.55197
539.471	3075.14456
539.677	3136.28048
539.883	3222.69087
540.09	3231.11967
540.296	3239.5482
540.502	3443.85633
540.708	3186.86551
540.914	3431.22349
541.12	3132.06464
541.326	3399.63859
541.532	3422.80124
541.738	3422.80124
541.944	3229.01249
542.15	3551.20919
542.356	3456.48852
542.562	3561.73142
542.768	3462.80438
542.974	3652.20332
543.18	3435.4345
543.386	3654.30691
543.592	3517.53496
543.798	3608.0237
544.004	3517.53496
544.21	3635.37397
544.415	3357.51921
544.621	3946.51599
544.827	3677.44507
545.033	3740.53737
545.239	3608.0237
545.445	3936.01152
545.651	3692.16815
545.856	3860.36447
546.062	3641.68512
546.268	3669.03146
546.474	3593.29532
546.679	3669.03146
546.885	3687.96165
547.091	3858.26279
547.297	3559.62701
547.502	3748.94837
547.708	3675.3417
547.914	3910.79873
548.119	3767.87197
548.325	4093.5249
548.531	3797.30554
548.736	3803.61223
548.942	3822.53125
549.147	3929.70859
549.353	4104.02167
549.559	4238.33387
549.764	4196.3706
549.97	4173.28719
550.175	3875.07565
550.381	4135.50883
550.586	4146.0035
550.792	4221.54958
550.997	4087.2266
551.203	4154.39886
551.408	4045.2331
551.614	4148.10237
551.819	4013.73255
552.025	4376.75188
552.23	4160.69516
552.435	4053.63246
552.641	4171.18857
552.846	4391.42705
553.052	4322.23478
553.257	4494.12329
553.462	4359.97895
553.668	4404.00493
553.873	4357.88223
554.078	4699.35631
554.283	4466.88249
554.489	4672.14388
554.694	4414.48589
554.899	4762.13968
555.105	4406.10116
555.31	4569.53988
555.515	4366.26896
555.72	4540.21462
555.925	4460.59562
556.131	4732.84331
556.336	4452.21282
556.541	4678.42401
556.746	4716.10053
556.951	4852.09359
557.156	4458.49995
557.361	4829.08613
557.567	4707.7286
557.772	4801.89194
557.977	4586.29522
558.182	4760.04723
558.387	4776.78621
558.592	4900.19116
558.797	4684.70394
559.002	4768.4169
559.207	4640.7402
559.412	4873.00706
559.617	4768.4169
559.822	4850.00211
560.027	4753.76974
560.232	4994.26
560.437	4651.20865
560.642	5036.05341
560.847	4745.39944
561.051	5205.22192
561.256	4902.28208
561.461	5117.52393
561.666	5046.50032
561.871	5088.28216
562.076	5104.9923
562.281	5100.81491
562.485	5138.40813
562.69	5067.3924
562.895	4956.63805
563.1	5161.37806
563.305	5123.78944
563.509	5215.65942
563.714	5013.06818
563.919	5077.83757
564.123	5056.94665
564.328	5309.57064
564.533	4962.90889
564.737	5150.93753
564.942	5044.41098
565.147	5370.06608
565.351	5297.05188
565.556	5150.93753
565.761	5138.40813
565.965	5297.05188
566.17	5280.35889
566.374	5618.09908
566.579	5303.31136
566.784	5497.25068
566.988	5259.49054
567.193	5616.01616
567.397	5443.05155
567.602	5659.75255
567.806	5365.89462
568.011	5851.23695
568.215	5349.20781
568.42	5643.0923
568.624	5682.65794
568.828	5559.76837
569.033	5493.08208
569.237	5776.33206
569.442	5586.85278
569.646	5553.51756
569.85	5476.40674
570.055	5772.16978
570.259	5626.43053
570.463	5688.90437
570.668	5593.10247
570.872	5726.37848
571.076	5624.3477
571.281	5930.27004
571.485	5828.35259
571.689	5811.70763
571.893	5695.15058
572.098	5872.03844
572.302	5601.43505
572.506	5971.85273
572.71	5568.10246
572.914	5824.19149
573.119	5842.9157
573.323	6038.36542
573.527	5703.47854
573.731	6073.69047
573.935	5894.91735
574.139	5992.64054
574.343	5869.95839
574.547	6042.52166
574.751	6052.91185
574.955	6210.77042
575.159	5942.74584
575.364	5984.3257
575.568	5996.79781
575.772	6090.31168
575.976	5913.63433
576.18	6121.47238
576.383	6069.53494
576.587	5959.37891
576.791	6000.955
576.995	6372.64233
577.199	6046.67781
577.403	6424.49429
577.607	6246.06233
577.811	6509.50003
578.015	6270.97019
578.219	6337.37468
578.422	6225.3032
578.626	6287.57355
578.83	6150.55092
579.034	6362.27019
579.238	6169.24184
579.442	6283.42285
579.645	6121.47238
579.849	6524.00931
580.053	6333.2251
580.257	6503.28142
580.46	6378.86534
580.664	6602.75416
580.868	6316.62585
581.071	6553.02446
581.275	6439.01023
581.479	6642.11408
581.682	6399.60717
581.886	6751.86367
582.09	6706.31506
582.293	6782.91318
582.497	6505.35432
582.7	6784.98296
582.904	6673.18183
583.107	6921.53841
583.311	6511.57286
583.515	6756.0039
583.718	6567.53033
583.922	6942.22001
584.125	6484.62435
584.329	6499.13557
584.532	6824.30454
584.735	6776.70369
584.939	6573.74678
585.142	6840.85853
585.346	6706.31506
585.549	7000.11647
585.753	6884.30583
585.956	7268.6916
586.159	6683.5366
586.363	7111.72417
586.566	6983.57642
586.769	7020.78949
586.973	6886.3745
587.176	7157.17529
587.379	6826.37387
587.582	7293.46426
587.786	7190.22389
587.989	7301.72111
588.192	6896.71751
588.395	7268.6916
588.599	7095.19381
588.802	7276.9495
589.005	7084.86161
589.208	7198.48515
589.411	7051.79482
589.615	7435.84588
589.818	7165.43797
590.021	7462.65981
590.224	6938.08387
590.427	7316.16975
590.63	7064.19554
590.833	7419.34318
591.036	7409.02829
591.239	7672.91995
591.442	7384.27033
591.645	7611.1018
591.848	7392.52334
592.051	7625.52775
592.254	7355.38208
592.457	7376.01698
592.66	7576.06302
592.863	7522.46233
593.066	7631.70997
593.269	7648.19498
593.472	7270.7561
593.675	7755.31454
593.878	7555.44909
594.081	7707.94177
594.284	7541.01806
594.486	7833.55832
594.689	7691.46167
594.892	7679.10071
595.095	7602.85794
595.298	7928.23436
595.5	7819.14726
595.703	7870.61068
595.906	7716.18131
596.109	7911.7721
596.311	7656.43698
596.514	7876.78542
596.717	7736.77869
596.92	7928.23436
597.122	7755.31454
597.325	7839.73418
597.528	7761.49278
597.73	7841.79276
597.933	7802.67622
598.136	7961.15494
598.338	7755.31454
598.541	7969.38427
598.743	7971.44155
598.946	7957.04016
599.148	7876.78542
599.351	8055.7725
599.554	7983.7848
599.756	8010.526
599.959	7967.32697
600.161	7938.52261
600.363	8162.67997
600.566	8259.26145
600.768	8269.53351
600.971	8415.34399
601.173	8366.06691
601.376	8497.44786
601.578	8177.06722
601.78	8435.87284
601.983	8031.09381
602.185	8285.96778
602.388	8290.07615
602.59	8263.37033
602.792	8187.34324
602.995	8175.01196
603.197	8306.50885
603.399	8429.71438
603.601	8417.39696
603.804	8388.65362
604.006	8331.15555
604.208	8302.40079
604.41	8078.39208
604.613	8316.77865
604.815	8501.55225
605.017	8593.88103
605.219	8403.02577
605.421	8622.59776
605.623	8380.44054
605.826	8690.27277
606.028	8318.83255
606.23	8571.3153
606.432	8209.94872
606.634	8825.56263
606.836	8448.18922
607.038	8653.36164
607.24	8708.72609
607.442	8694.37363
607.644	8517.96906
607.846	8692.32321
608.048	8405.07885
608.25	8768.17665
608.452	8544.64377
608.654	8569.26376
608.856	8733.32819
609.058	8515.91702
609.26	8696.42404
609.462	8805.06927
609.664	8620.54669
609.866	8727.17791
610.067	8620.54669
610.269	8868.59281
610.471	8456.39976
610.673	8755.8778
610.875	8659.51391
611.077	8680.02028
611.278	8361.95998
611.48	8839.90691
611.682	8649.26003
611.884	8954.62949
612.085	8696.42404
612.287	8934.14741
612.489	8600.03492
612.69	9003.77927
612.892	8809.16809
613.094	8966.91789
613.295	8788.67328
613.497	9142.9824
613.699	9081.57912
613.9	9018.11271
614.102	9085.67316
614.304	9112.28269
614.505	8643.10748
614.707	8848.10324
614.908	8618.4956
615.11	9044.72969
615.311	8827.61187
615.513	9003.77927
615.714	8930.05079
615.916	9093.86102
616.117	8798.92091
616.319	9138.88933
616.52	8745.62825
616.722	9102.0486
616.923	9016.06513
617.124	9341.41513
617.326	8954.62949
617.527	9120.46966
617.729	8882.93445
617.93	9171.63198
618.131	9087.72015
618.333	9267.78841
618.534	9042.68234
618.735	9237.10423
618.937	9011.96991
619.138	9462.03507
619.339	9104.09545
619.54	9386.3987
619.742	9259.60633
619.943	9128.65635
620.144	8837.85778
620.345	9136.84276
620.546	8770.22639
620.748	9235.05849
620.949	8870.64167
621.15	9167.53938
621.351	9118.42294
621.552	9261.65188
621.753	9261.65188
621.954	9537.64938
622.155	8985.34929
622.356	9451.81523
622.558	9120.46966
622.759	9355.72895
622.96	9220.73779
623.161	9437.50678
623.362	9249.37836
623.563	9515.17173
623.764	9304.60446
623.965	9654.0939
624.166	9527.4325
624.366	9594.85656
624.567	9044.72969
624.768	9237.10423
624.969	9042.68234
625.17	9486.56103
625.371	9312.78508
625.572	9392.53221
625.773	9374.13124
625.973	9102.0486
626.174	9259.60633
626.375	9347.54972
626.576	9335.28039
626.777	9498.82314
626.977	9122.51636
627.178	9402.75439
627.379	9331.19048
627.58	9194.14002
627.78	9527.4325
627.981	9502.91038
628.182	9586.68486
628.382	9701.06596
628.583	9384.35416
628.784	9637.75387
628.984	9159.35399
629.185	9588.72781
629.386	9212.55417
629.586	9627.54085
629.787	9429.33017
629.987	9476.34216
630.188	9572.38379
630.388	9762.32167
630.589	9519.25872
630.79	9617.32744
630.99	9635.7113
631.191	9846.0158
631.391	9535.60604
631.591	9703.10803
631.792	9547.86586
631.992	10013.3295
632.193	9703.10803
632.393	9862.34344
632.594	9641.83897
632.794	9797.02718
632.994	9927.64451
633.195	9897.03651
633.395	9727.61178
633.595	9688.81316
633.796	9613.24197
633.996	9784.77868
634.196	9950.08829
634.397	10048.00431
634.597	9731.69553
634.797	9788.86157
634.997	9731.69553
635.198	9852.13878
635.398	9519.25872
635.598	9962.32961
635.798	9846.0158
635.998	10082.675
636.199	9784.77868
636.399	10052.08343
636.599	9894.99586
636.799	10133.65392
636.999	9703.10803
637.199	9764.36329
637.399	9846.0158
637.599	9825.60492
637.799	9609.15643
637.999	9997.01052
638.199	9982.73065
638.399	9782.7372
638.599	9592.81366
638.799	10205.0098
638.999	9943.96744
639.199	10107.14598
639.399	10058.202
639.599	10231.50912
639.799	9890.91451
639.999	10039.8459
640.199	9876.62934
640.399	10357.85907
640.599	9756.19672
640.799	10895.3164
640.998	10048.00431
641.198	10207.04829
641.398	10172.39207
641.598	10266.1586
641.798	10017.40911
641.997	9988.85068
642.197	10160.15951
642.397	10321.18213
642.597	10101.02843
642.796	10412.86648
642.996	10192.77856
643.196	10361.93402
643.395	10139.77081
643.595	10198.89424
643.795	10019.44889
643.994	10498.41473
644.194	10160.15951
644.394	10453.60658
644.593	10205.0098
644.793	10596.15666
644.992	10412.86648
645.192	10488.23161
645.392	10530.9986
645.591	10518.78003
645.791	10416.94072
645.99	10235.58573
646.19	10253.92982
646.389	10461.75398
646.589	10262.0824
646.788	10537.10772
646.987	10188.70137
647.187	10860.73275
647.386	10441.38509
647.586	10530.9986
647.785	10614.48007
647.984	10478.04816
648.184	10822.07647
648.383	10616.51594
648.582	10449.5328
648.782	10502.48789
648.981	10310.99332
649.18	10594.12067
649.38	10528.96221
649.579	10663.33759
649.778	10392.49448
649.977	10964.47382
650.177	10490.26826
650.376	10718.29391
650.575	10247.81525
650.774	10533.03499
650.973	10547.28932
651.173	10530.9986
651.372	10412.86648
651.571	10636.87398
651.77	10245.77703
651.969	10463.79079
652.168	10494.34152
652.367	10663.33759
652.566	10502.48789
652.765	10877.00782
652.964	10412.86648
653.163	10999.04764
653.362	10740.681
653.561	10451.5697
653.76	10547.28932
653.959	10514.70707
654.158	10750.85647
654.357	10557.47061
654.556	10351.74655
654.755	10901.41905
654.954	10638.90971
655.153	10752.89153
655.352	10881.07648
655.551	10724.39962
655.749	10706.08216
655.948	10818.00715
656.147	10732.54041
656.346	11029.55129
656.545	10734.57557
656.743	11092.58434
656.942	10846.49145
657.141	11033.61826
657.34	10883.11078
657.538	11021.41723
657.737	10818.00715
657.936	10907.5216
658.135	10687.76371
658.333	10950.23659
658.532	10740.681
658.731	11011.2494
658.929	10897.35063
659.128	10923.79457
659.326	10907.5216
659.525	11074.2855
659.724	10787.48571
659.922	10889.21364
660.121	10850.56045
660.319	10852.59493
660.518	10771.20652
660.716	11049.88568
660.915	11149.50849
661.113	11324.29548
661.312	10948.20266
661.51	11068.1857
661.709	11007.18219
661.907	11287.71845
662.105	10559.50683
662.304	11275.52538
662.502	11100.71688
662.701	11133.2453
662.899	10887.17937
663.097	11072.25224
663.296	11147.47563
663.494	11222.68446
663.692	11165.77099
663.891	11159.67263
664.089	11019.38369
664.287	11186.09817
664.485	11076.31875
664.684	11232.84671
664.882	10665.37317
665.08	11204.39174
665.278	10911.58991
665.476	11310.07147
665.675	11021.41723
665.873	11265.3642
666.071	10970.57531
666.269	11015.31657
666.467	10883.11078
666.665	11306.00738
666.863	10645.01685
667.061	11027.51779
667.259	11106.81617
667.457	11184.0655
667.655	11027.51779
667.853	10877.00782
668.051	10883.11078
668.249	11336.4871
668.447	10978.71049
668.645	11173.90199
668.843	10990.91291
669.041	10962.43996
669.239	11035.65172
669.437	11316.16753
669.635	11141.37698
669.833	11066.1524
670.031	10935.99882
670.229	11165.77099
670.426	11216.58698
670.624	11267.39646
670.822	11053.95243
671.02	11330.39133
671.218	11236.91154
671.415	11308.03943
671.613	11281.62196
671.811	11377.12322
672.009	11119.01446
672.206	11474.63387
672.404	11373.05978
672.602	11387.28163
672.799	11037.68518
672.997	11594.46053
673.195	11247.07344
673.392	11322.26351
673.59	11169.83651
673.788	11531.50484
673.985	11066.1524
674.183	11423.84987
674.38	11131.21236
674.578	11293.81485
674.775	11017.35013
674.973	11192.19612
675.17	11074.2855
675.368	10803.76414
675.565	10917.69229
675.763	11192.19612
675.96	10883.11078
676.158	11243.00871
676.355	10891.24791
676.553	11397.43979
676.75	11275.52538
676.947	11332.42326
677.145	11068.1857
677.342	11202.35916
677.539	10994.9803
677.737	11368.99631
677.934	11222.68446
678.131	11397.43979
678.329	11399.4714
678.526	11543.69051
678.723	11442.13281
678.92	11425.88135
679.118	10986.84548
679.315	11060.05246
679.512	11114.9484
679.709	11116.98143
679.906	11153.57418
680.104	11001.0813
680.301	11090.55118
680.498	10844.45693
680.695	11249.10579
680.892	11100.71688
681.089	11141.37698
681.286	11137.31116
681.483	10779.34621
681.68	11019.38369
681.877	11092.58434
682.075	10856.66386
682.272	10775.27639
682.469	11279.58978
682.665	10818.00715
682.862	10978.71049
683.059	10942.10079
683.256	10885.14508
683.453	10826.14575
683.65	10881.07648
683.847	10795.62502
684.044	11169.83651
684.241	11123.08047
684.438	11175.93472
684.635	11003.11494
684.831	11222.68446
685.028	10938.03282
685.225	11084.45163
685.422	10783.41598
685.619	10687.76371
685.815	10642.98115
686.012	10706.08216
686.209	10671.47983
686.405	10970.57531
686.602	10856.66386
686.799	10974.64292
686.996	10746.78632
687.192	10950.23659
687.389	10746.78632
687.586	10877.00782
687.782	10789.52055
687.979	11021.41723
688.175	10887.17937
688.372	11171.86926
688.568	11135.27824
688.765	11200.32658
688.962	11045.81889
689.158	11135.27824
689.355	10877.00782
689.551	10986.84548
689.748	10797.65981
689.944	10771.20652
690.14	10889.21364
690.337	10952.27052
690.533	10913.62405
690.73	10946.16871
690.926	10860.73275
691.123	10482.12158
691.319	10763.06664
691.515	10685.72827
691.712	10693.86997
691.908	10758.99663
692.104	10669.44429
692.301	10907.5216
692.497	10669.44429
692.693	10868.87038
692.889	10718.29391
693.086	10874.97348
693.282	10850.56045
693.478	10765.10163
693.674	10657.23079
693.87	10687.76371
694.067	10585.97656
694.263	10661.302
694.459	10590.04864
694.655	10913.62405
694.851	10856.66386
695.047	11236.91154
695.243	10712.18809
695.439	10630.7667
695.635	10883.11078
695.831	10752.89153
696.027	10695.90536
696.224	10588.01261
696.42	10341.55874
696.615	10620.58765
696.811	10612.44418
697.007	10777.3113
697.203	10573.76003
697.399	10640.94544
697.595	10498.41473
697.791	10636.87398
697.987	10787.48571
698.183	10992.94661
698.379	10689.79914
698.575	10913.62405
698.77	10720.32916
698.966	10738.64587
699.162	10872.93912
699.358	11025.48428
699.554	10655.19516
699.749	10905.48743
699.945	10596.15666
700.141	10630.7667
700.337	10614.48007
700.532	10636.87398
700.728	10604.30052
700.924	10779.34621
701.119	10522.85294
701.315	10618.5518
701.511	10571.72389
701.706	10840.38786
701.902	10614.48007
702.097	10465.8276
702.293	10563.57924
702.489	10535.07136
702.684	10449.5328
702.88	10736.61073
703.075	10661.302
703.271	10337.48352
703.466	10490.26826
703.662	10889.21364
703.857	10724.39962
704.053	10805.79889
704.248	10685.72827
704.443	11035.65172
704.639	10710.15279
704.834	10761.03164
705.03	10541.1804
705.225	10598.19265
705.42	10492.30489
705.616	10848.52596
705.811	10592.08466
706.006	10616.51594
706.202	10284.50086
706.397	10514.70707
706.592	10310.99332
706.787	10616.51594
706.983	10500.45132
707.178	10600.22862
707.373	10180.54683
707.568	10471.93794
707.763	10433.23718
707.959	10793.59021
708.154	10665.37317
708.349	10624.6593
708.544	10612.44418
708.739	10579.86835
708.934	10628.73091
709.129	10508.59754
709.324	10465.8276
709.519	10803.76414
709.714	10708.11748
709.909	10657.23079
710.104	10498.41473
710.299	10427.1261
710.494	10258.00613
710.689	10526.9258
710.884	10278.3869
711.079	10541.1804
711.274	10266.1586
711.469	10933.96481
711.664	10551.36188
711.859	10640.94544
712.054	10811.90307
712.249	10581.90443
712.443	10500.45132
712.638	10642.98115
712.833	10241.70055
713.028	10498.41473
713.223	9886.83311
713.417	10435.27418
713.612	10533.03499
713.807	10435.27418
714.002	10274.31085
714.196	10500.45132
714.391	10094.91074
714.586	10439.34813
714.78	10276.34888
714.975	10598.19265
715.17	10147.92646
715.364	10339.52114
715.559	10125.49788
715.754	10107.14598
715.948	9960.28943
716.143	10253.92982
716.337	10050.04387
716.532	10600.22862
716.726	10490.26826
716.921	10421.01491
717.115	10290.61471
717.31	10490.26826
717.504	10213.16368
717.699	10467.86439
717.893	10025.56814
718.088	10412.86648
718.282	10429.16314
718.476	10353.78407
718.671	10027.60786
718.865	10082.675
719.059	10017.40911
719.254	10164.23709
719.448	9854.17974
719.642	10072.47817
719.837	9941.92712
720.031	10329.33293
720.225	9776.6127
720.419	10245.77703
720.614	9770.48807
720.808	10050.04387
721.002	10074.51756
721.196	9909.28011
721.39	9992.93063
721.585	10372.12117
721.779	9676.55981
721.973	9821.52257
722.167	9660.22115
722.361	9911.32066
722.555	9972.53031
722.749	10039.8459
722.943	9813.35768
723.137	9899.07715
723.331	9543.77931
723.525	10168.31461
723.719	9880.71089
723.913	10335.44589
724.107	9980.69061
724.301	10043.92513
724.495	9992.93063
724.689	10131.61493
724.883	9780.69572
725.077	10251.89164
725.271	9927.64451
725.465	9888.87382
725.659	9776.6127
725.853	9982.73065
726.046	9647.9665
726.24	9821.52257
726.434	9478.38596
726.628	9848.05681
726.822	9578.51291
727.015	9866.4252
727.209	9715.36018
727.403	9972.53031
727.596	9974.57041
727.79	10094.91074
727.984	9872.54772
728.177	10033.72695
728.371	9899.07715
728.565	9968.45007
728.758	9915.40171
728.952	10135.6929
729.146	9572.38379
729.339	9668.3906
729.533	9668.3906
729.726	9858.26162
729.92	10062.28097
730.113	9921.52318
730.307	10005.17013
730.5	9874.58854
730.694	9894.99586
730.887	9792.94441
731.081	9770.48807
731.274	9913.36119
731.468	9839.8927
731.661	9846.0158
731.854	9848.05681
732.048	10009.24984
732.241	9848.05681
732.435	9854.17974
732.628	10033.72695
732.821	9813.35768
733.014	9962.32961
733.208	9760.28003
733.401	9874.58854
733.594	10025.56814
733.788	9913.36119
733.981	9837.85163
734.174	10027.60786
734.367	10058.202
734.56	9970.4902
734.754	9915.40171
734.947	10082.675
735.14	9866.4252
735.333	10039.8459
735.526	10062.28097
735.719	9643.8815
735.912	9829.68722
736.105	9750.07162
736.298	9739.86283
736.491	9639.79643
736.684	9662.26354
736.877	9707.19215
737.07	9901.11777
737.263	9551.95234
737.456	9821.52257
737.649	9856.22069
737.842	9848.05681
738.035	9978.65056
738.228	9811.31642
738.421	9899.07715
738.614	9874.58854
738.807	9547.86586
739	9645.92401
739.192	9678.60207
739.385	9596.89945
739.578	9562.16826
739.771	9813.35768
739.964	9547.86586
740.156	9792.94441
740.349	9841.93375
740.542	9600.98517
740.735	9619.37015
740.927	9521.30219
741.12	9367.99729
741.313	9560.12511
741.505	9619.37015
741.698	9748.0299
741.891	9511.08468
742.083	9631.62611
742.276	9760.28003
742.468	9543.77931
742.661	9282.10641
742.854	9480.42975
743.046	9359.81846
743.239	9582.59892
743.431	9837.85163
743.624	9756.19672
743.816	9813.35768
744.009	9958.24923
744.201	9678.60207
744.393	9535.60604
744.586	9668.3906
744.778	9560.12511
744.971	9611.19921
745.163	9680.64432
745.355	9509.04113
745.548	9647.9665
745.74	9553.99555
745.932	9631.62611
746.125	9682.68656
746.317	9600.98517
746.509	9470.21064
746.702	9584.6419
746.894	9553.99555
747.086	9470.21064
747.278	9470.21064
747.471	9243.24137
747.663	9670.43293
747.855	9664.30591
748.047	9455.90321
748.239	9731.69553
748.431	9419.10904
748.623	9641.83897
748.815	9643.8815
749.008	9676.55981
749.2	9929.68493
749.392	9792.94441
749.584	9419.10904
749.776	9357.77371
749.968	9275.97022
750.16	9333.23545
750.352	9275.97022
750.544	9537.64938
750.736	9490.64846
750.928	9580.55592
751.12	9165.49306
751.311	9406.84315
751.503	9417.06477
751.695	9515.17173
751.887	9249.37836
752.079	9504.95398
752.271	9278.01564
752.463	9032.4453
752.654	9294.37832
752.846	9384.35416
753.038	9351.63937
753.23	9380.26504
753.421	9230.96694
753.613	9320.96542
753.805	9292.33305
753.997	9388.44322
754.188	9085.67316
754.38	9059.0607
754.572	9149.12187
754.763	8964.86986
754.955	8866.54394
755.146	9077.48502
755.338	9118.42294
755.53	8948.48505
755.721	8880.8857
755.913	9255.51519
756.104	9036.54017
756.296	9161.40037
756.487	9280.06103
756.679	9173.67825
756.87	8868.59281
757.062	9106.14229
757.253	9159.35399
757.445	9126.6097
757.636	8934.14741
757.827	9273.9248
758.019	9126.6097
758.21	9202.32426
758.401	9005.82695
758.593	9020.16028
758.784	9011.96991
758.975	8782.52448
759.167	8874.73934
759.358	8874.73934
759.549	8727.17791
759.74	8860.3972
759.932	8718.97728
760.123	8712.82662
760.314	8552.85074
760.505	8706.67579
760.696	8645.15835
760.888	8938.24397
761.079	8675.91915
761.27	9036.54017
761.461	8702.57515
761.652	8884.98318
761.843	8823.51338
762.034	8960.77377
762.225	8727.17791
762.416	8844.00511
762.607	8593.88103
762.798	8844.00511
762.989	8788.67328
763.18	8876.78814
763.371	8361.95998
763.562	8396.86639
763.753	8355.79944
763.944	8675.91915
764.135	8741.5283
764.326	8925.95409
764.517	8556.9541
764.708	8710.77636
764.899	8400.97266
765.089	8591.82969
765.28	8723.07763
765.471	8622.59776
765.662	8435.87284
765.853	8390.70684
766.043	8207.89377
766.234	8191.4535
766.425	8152.40276
766.615	8554.90243
766.806	8347.58512
766.997	8454.34715
767.187	8170.90138
767.378	8602.08618
767.569	8442.03111
767.759	8359.90649
767.95	8335.26306
768.141	8462.55746
768.331	8216.11343
768.522	8320.88643
768.712	8380.44054
768.903	8357.85297
769.093	8092.78508
769.284	8320.88643
769.474	8314.72472
769.665	8292.1303
769.855	8220.22314
770.046	8179.12247
770.236	8142.12505
770.426	8216.11343
770.617	8043.43352
770.807	8242.82514
770.998	8113.34481
771.188	8043.43352
771.378	7950.86783
771.569	8242.82514
771.759	7985.84194
771.949	8053.71605
772.139	8160.62457
772.33	7841.79276
772.52	7985.84194
772.71	7985.84194
772.9	8002.2983
773.09	8127.73542
773.281	7936.465
773.471	7969.38427
773.661	7759.43339
773.851	7798.55825
774.041	7841.79276
774.231	7815.02962
774.421	7954.98273
774.611	7718.24114
774.802	7644.07386
774.992	7759.43339
775.182	7580.18555
775.372	7472.97188
775.562	7672.91995
775.752	7876.78542
775.942	7639.95265
776.131	7854.1438
776.321	7598.73588
776.511	7705.88183
776.701	7724.42052
776.891	7751.19561
777.081	7784.14471
777.271	7889.13434
777.461	8035.20712
777.651	7808.85302
777.84	7561.63349
778.03	7697.64187
778.22	7623.46696
778.41	7705.88183
778.599	7429.65753
778.789	7650.25551
778.979	7598.73588
779.169	7586.36918
779.358	7470.90951
779.548	7532.77128
779.738	7262.49793
779.927	7532.77128
780.117	7427.59471
780.307	7400.77599
780.496	7514.21479
780.686	7578.1243
780.875	7215.00661
781.065	7633.77067
781.254	7380.1437
781.444	7528.64777
781.633	7458.53483
781.823	7330.61732
782.012	7293.46426
782.202	7338.87259
782.391	7437.90862
782.581	7526.58598
782.77	7179.89681
782.96	7390.46012
783.149	7272.82059
783.338	7276.9495
783.528	7260.43334
783.717	7336.80881
783.906	7012.52055
784.096	7072.46224
784.285	7078.66203
784.474	7136.51702
784.663	7196.41987
784.853	7072.46224
785.042	7153.04381
785.231	7200.55041
785.42	7165.43797
785.61	7057.99528
785.799	7192.28923
785.988	7363.63631
786.177	6820.16581
786.366	7037.3263
786.555	6962.89934
786.744	6969.1027
786.933	6780.84337
787.122	7334.745
787.312	6995.98159
787.501	6983.57642
787.69	6946.35606
787.879	7097.26018
788.068	6517.79119
788.257	6739.44242
788.445	6606.8977
788.634	6933.94764
788.823	6832.58172
789.012	6929.81132
789.201	6633.82848
789.39	6573.74678
789.579	6329.07543
789.768	6666.9687
789.957	6490.84358
790.145	6542.66242
790.334	6654.5418
790.523	6722.87947
790.712	6685.60748
790.9	6838.78936
791.089	6567.53033
791.278	6865.68679
791.467	6573.74678
791.655	6938.08387
791.844	6637.97132
792.033	6865.68679
792.221	6594.4668
792.41	6751.86367
792.599	6432.78926
792.787	6782.91318
792.976	6625.5425
793.164	6490.84358
793.353	6459.74532
793.541	6834.65095
793.73	6333.2251
793.918	6718.73851
794.107	6457.67191
794.295	6633.82848
794.484	6621.39937
794.672	6586.17907
794.861	6465.96539
795.049	6519.86392
795.238	6337.37468
795.426	6528.15461
795.614	6285.49822
795.803	6387.16235
795.991	6507.42719
796.179	6499.13557
796.368	6202.46545
796.556	6362.27019
796.744	6169.24184
796.932	6225.3032
797.121	6000.955
797.309	6150.55092
797.497	6121.47238
797.685	6231.53118
797.874	5948.98342
798.062	6158.85823
798.25	5913.63433
798.438	6194.16011
798.626	6169.24184
798.814	6360.1957
799.002	6262.66794
799.19	6370.56795
799.378	6005.11209
799.566	6179.62487
799.755	6023.81783
799.943	6216.99889
800.131	6098.62171
800.318	6383.01389
800.506	6327.00055
800.694	6287.57355
800.882	6082.00126
801.07	6254.36532
801.258	6169.24184
801.446	6399.60717
801.634	6117.31792
801.822	6216.99889
802.01	6102.77659
802.197	6248.13811
802.385	6376.79103
802.573	6318.70083
802.761	6266.81911
802.949	6235.68306
803.136	6181.7014
803.324	6368.49355
803.512	6061.22358
803.699	6136.01223
803.887	6067.45714
804.075	6341.52416
804.262	5886.59807
804.45	6163.01175
804.638	5996.79781
804.825	6241.91069
805.013	5986.40444
805.201	6266.81911
805.388	6154.70463
805.576	6214.92276
805.763	6084.0789
805.951	6123.54957
806.138	6133.93517
806.326	6283.42285
806.513	6210.77042
806.701	6264.74354
806.888	6050.83386
807.075	6133.93517
807.263	5963.53695
807.45	6337.37468
807.638	6140.16626
807.825	6412.05115
808.012	6216.99889
808.2	6067.45714
808.387	6082.00126
808.574	6409.97721
808.761	6241.91069
808.949	6250.21387
809.136	6121.47238
809.323	6341.52416
809.51	5969.77382
809.698	6229.45521
809.885	5959.37891
810.072	6455.59848
810.259	6069.53494
810.446	6183.77791
810.633	6250.21387
810.82	6279.27206
811.008	6096.54424
811.195	6260.59232
811.382	6077.84592
811.569	6366.41912
811.756	6167.16517
811.943	6385.08813
812.13	6152.62779
812.317	6416.19896
812.504	6133.93517
812.691	6515.71843
812.878	6229.45521
813.064	6370.56795
813.251	6239.83483
813.438	6650.39932
813.625	5969.77382
813.812	6302.10027
813.999	6079.9236
814.186	6067.45714
814.372	6113.16337
814.559	6034.20908
814.746	6133.93517
814.933	5967.69489
815.12	6111.08606
815.306	6125.62674
815.493	6125.62674
815.68	6451.45156
815.866	5978.08932
816.053	6146.39713
816.24	5930.27004
816.426	6231.53118
816.613	6065.37931
816.799	6169.24184
816.986	6133.93517
817.173	6088.23411
817.359	6250.21387
817.546	6353.97206
817.732	6140.16626
817.919	6050.83386
818.105	6129.781
818.292	6102.77659
818.478	6071.61272
818.665	6343.59887
818.851	6119.39516
819.037	6044.59975
819.224	6077.84592
819.41	6073.69047
819.597	6260.59232
819.783	6318.70083
819.969	6158.85823
820.156	6235.68306
820.342	6316.62585
820.528	6198.31283
820.714	6034.20908
820.901	6021.73951
821.087	6034.20908
821.273	6233.60713
821.459	6322.85074
821.646	6358.12118
821.832	6113.16337
822.018	6472.18525
822.204	6208.69421
822.39	6169.24184
822.576	5896.9971
822.762	5980.16813
822.948	5859.55783
823.134	6100.69917
823.32	5834.59406
823.507	5944.82506
823.693	5776.33206
823.879	5942.74584
824.065	5745.11267
824.25	6113.16337
824.436	5684.74011
824.622	6109.00873
824.808	5905.31591
824.994	5820.0303
825.18	5780.49425
825.366	6042.52166
825.552	5847.07637
825.738	5872.03844
825.923	5622.26485
826.109	6109.00873
826.295	5828.35259
826.481	6194.16011
826.667	5969.77382
826.852	5909.47516
827.038	5738.86815
827.224	5911.55476
827.409	5734.70502
827.595	6069.53494
827.781	5765.92619
827.966	6009.26908
828.152	5663.91738
828.338	5611.85024
828.523	5409.69033
828.709	5701.39659
828.894	5834.59406
829.08	5855.39744
829.266	5490.99775
829.451	5921.95238
829.637	5643.0923
829.822	5538.9315
830.008	5317.91601
830.193	5613.93321
830.378	5307.48424
830.564	5720.13332
830.749	5455.56045
830.935	5613.93321
831.12	5303.31136
831.305	5284.53228
831.491	5357.5514
831.676	5522.2603
831.861	5357.5514
832.047	5497.25068
832.232	5405.51976
832.417	5426.37169
832.602	5159.29
832.788	5488.91339
832.973	5217.74685
833.158	5495.16639
833.343	5236.53267
833.528	5388.83652
833.714	5084.10439
833.899	5547.26653
834.084	5084.10439
834.269	5363.80885
834.454	5297.05188
834.639	5447.22128
834.824	5259.49054
835.009	5591.01926
835.194	5246.96842
835.379	5503.5034
835.564	5169.73006
835.749	5593.10247
835.934	5418.0312
836.119	5288.70557
836.304	4908.55471
836.489	5345.03588
836.674	5134.23148
836.859	5238.61986
837.044	5153.02568
837.228	5342.94987
837.413	5161.37806
837.598	5299.1384
837.783	5050.67892
837.968	5107.08097
838.152	4791.43162
838.337	4960.81864
838.522	4776.78621
838.707	5027.69547
838.891	4690.98366
839.076	4810.25979
839.261	4728.65775
839.445	4634.45886
839.63	4600.95497
839.815	4741.21415
839.999	4573.72885
840.184	4776.78621
840.368	4623.98951
840.553	4977.54006
840.737	4684.70394
840.922	5017.24752
841.106	4751.6772
841.291	4860.45925
841.475	4749.58464
841.66	4870.91581
841.844	4613.5196
842.029	4854.18504
842.213	4688.89044
842.397	4814.44358
842.582	4647.02134
842.766	4785.15515
842.951	4519.26534
843.135	4843.72756
843.319	4404.00493
843.504	4741.21415
843.688	4550.68843
843.872	4693.07686
844.056	4621.89557
844.241	4623.98951
844.425	4475.26467
844.609	4632.36503
844.793	4582.10652
844.977	4632.36503
845.161	4330.62297
845.346	4845.8191
845.53	4548.59371
845.714	4628.17731
845.898	4416.58201
846.082	4569.53988
846.266	4366.26896
846.45	4523.45538
846.634	4108.22023
846.818	4561.16168
847.002	4261.41004
847.186	4330.62297
847.37	4089.32605
847.554	4431.25429
847.738	4120.81541
847.922	4542.30943
848.106	4408.19738
848.29	4439.63796
848.473	4349.49516
848.657	4318.04055
848.841	4280.28861
849.025	4232.03992
849.209	4074.62942
849.392	4154.39886
849.576	3994.83001
849.76	4253.019
849.944	3988.52879
850.127	4284.48362
850.311	3938.11245
850.495	4087.2266
850.678	4072.52982
850.862	4357.88223
851.046	4112.4187
851.229	4177.48436
851.413	3801.51002
851.596	4133.40983
851.78	4017.93289
851.964	4083.02762
852.147	3828.83723
852.331	3942.31426
852.514	3805.71442
852.698	4047.33297
852.881	3610.12768
853.065	3988.52879
853.248	3845.65231
853.431	3902.39382
853.615	3685.85838
853.798	4070.43019
853.982	3864.56777
854.165	4116.6171
854.348	3854.05938
854.532	3957.01995
854.715	3763.66686
854.898	4038.93336
855.081	3576.46176
855.265	3896.08993
855.448	3713.1995
855.631	3910.79873
855.814	3822.53125
855.997	3927.60758
856.181	3586.98287
856.364	3978.02635
856.547	3708.99339
856.73	3685.85838
856.913	3624.85501
857.096	3767.87197
857.279	3601.71165
857.462	3692.16815
857.645	3481.75097
857.828	3793.10098
858.011	3599.60759
858.194	3645.89246
858.377	3603.81568
858.56	3578.56602
858.743	3437.53999
858.926	3605.9197
859.109	3582.77448
859.292	3450.1725
859.475	3422.80124
859.658	3631.16644
859.841	3325.9251
860.023	3534.37266
860.206	3359.62535
860.389	3570.14887
860.572	3273.25965
860.755	3534.37266
860.937	3460.69911
861.12	3334.35058
861.303	3298.5404
861.486	3534.37266
861.668	3220.58363
861.851	3382.79168
862.034	3269.04596
862.216	3273.25965
862.399	3197.40287
862.581	3235.33397
862.764	2984.47058
862.947	3241.65529
863.129	3041.40873
863.312	3121.52476
863.494	3205.83247
863.677	3085.68619
863.859	3136.28048
864.042	3252.1905
864.224	2971.81616
864.406	3233.22683
864.589	2925.41202
864.771	3085.68619
864.954	2935.95904
865.136	2969.70704
865.318	2781.93693
865.501	3203.7251
865.683	2984.47058
865.865	2961.27039
866.048	2758.72169
866.23	2935.95904
866.412	2689.06633
866.594	2834.69269
866.777	2756.61114
866.959	2900.09767
867.141	2811.48122
867.323	2705.95379
867.505	2712.28637
867.687	2857.90247
867.869	2788.26808
868.052	2708.06466
868.234	2587.72459
868.416	2995.01552
868.598	2539.15507
868.78	2969.70704
868.962	2767.16379
869.144	2851.5727
869.326	2714.3972
869.508	2959.1612
869.69	2798.81971
869.872	3018.21305
870.054	2773.49522
870.236	2724.95118
870.417	2714.3972
870.599	2629.9538
870.781	2680.62229
870.963	2815.70161
871.145	2634.17645
871.327	2756.61114
871.508	2587.72459
871.69	2672.17804
871.872	2403.97341
872.054	2815.70161
872.235	2524.3718
872.417	2659.5113
872.599	2496.91569
872.78	2794.5991
872.962	2587.72459
873.144	2792.48877
873.325	2708.06466
873.507	2638.39905
873.689	2355.3818
873.87	2572.94323
874.052	2439.88541
874.233	2610.95126
874.415	2454.6718
874.596	2811.48122
874.778	2615.17413
874.959	2737.61552
875.141	2471.56989
875.322	2876.89102
875.503	2591.94773
875.685	2866.34197
875.866	2547.60239
876.048	2539.15507
876.229	2528.59565
876.41	2477.90649
876.592	2486.35513
876.773	2583.5014
876.954	2503.25188
877.136	2760.83224
877.317	2558.16128
877.498	2849.46275
877.679	2406.08596
877.86	2784.04733
878.042	2461.00867
878.223	2739.7262
878.404	2444.11015
878.585	2570.83155
878.766	2522.25986
878.947	2629.9538
879.128	2368.05839
879.309	2507.47596
879.49	2422.98602
879.672	2760.83224
879.853	2458.89639
880.034	2699.62109
880.215	2541.26691
880.396	2779.82652
880.576	2560.27302
880.757	2929.63087
880.938	2528.59565
881.119	2935.95904
881.3	2598.28235
881.481	2659.5113
881.662	2587.72459
881.843	2853.68264
882.023	2490.57939
882.204	2784.04733
882.385	2520.14791
882.566	2689.06633
882.747	2433.54822
882.927	2798.81971
883.108	2537.04321
883.289	2904.31687
883.469	2556.04952
883.65	2826.25235
883.831	2591.94773
884.011	2819.92195
884.192	2800.93
884.373	2834.69269
884.553	2566.60818
884.734	2737.61552
884.914	2596.17082
885.095	2851.5727
885.275	2672.17804
885.456	2781.93693
885.636	2773.49522
885.817	2938.0684
885.997	2564.49647
886.178	2995.01552
886.358	2836.80274
886.538	2908.53602
886.719	2773.49522
886.899	2803.04027
887.08	2693.28827
887.26	2851.5727
887.44	2646.8441
887.621	2809.371
887.801	2716.50803
887.981	2775.60567
888.161	2638.39905
888.342	2938.0684
888.522	2794.5991
888.702	2978.14344
888.882	2672.17804
889.062	2781.93693
889.242	2615.17413
889.423	2513.81199
889.603	2368.05839
889.783	2693.28827
889.963	2587.72459
890.143	2938.0684
890.323	2651.06655
890.503	2976.03436
890.683	2714.3972
890.863	2697.51016
891.043	2691.1773
891.223	2689.06633
891.403	2486.35513
891.583	2712.28637
891.763	2368.05839
891.943	2714.3972
892.122	2572.94323
892.302	2809.371
892.482	2600.39386
892.662	2581.38979
892.842	2594.05928
893.022	2665.84473
893.201	2570.83155
893.381	2722.84041
893.561	2456.7841
893.741	2581.38979
893.92	2562.38475
894.1	2591.94773
894.28	2412.42356
894.459	2556.04952
894.639	2473.6821
894.819	2648.95533
894.998	2289.88043
895.178	2572.94323
895.357	2353.269
895.537	2553.93776
895.716	2334.25335
895.896	2503.25188
896.075	2370.17112
896.255	2237.05016
896.434	2184.21434
896.614	2296.21968
896.793	2169.41936
896.973	2378.62194
897.152	2218.02989
897.331	2427.21093
897.511	2416.64858
897.69	2300.4458
897.87	2380.73462
898.049	2372.28384
898.228	2325.80169
898.407	2600.39386
898.587	2325.80169
898.766	2505.36393
898.945	2249.72994
899.124	2319.46285
899.304	2089.09691
899.483	2412.42356
899.662	2089.09691
899.841	2461.00867
900.02	2032.01914
900.199	2234.93683
900.378	1864.98694
900.557	2190.55492
900.737	2012.99209
900.916	2239.16348
901.095	1905.16252
901.274	2258.18295
901.453	2006.64962
901.632	2144.0556
901.811	1871.33058
901.989	1970.70787
902.168	1852.29954
902.347	2029.90505
902.526	1810.00694
902.705	2019.3345
902.884	1818.46561
903.063	2032.01914
903.242	1784.63054
903.42	1864.98694
903.599	1833.2681
903.778	1886.13222
903.957	1615.44155
904.135	1839.61195
904.314	1590.06175
904.493	1655.62562
904.672	1518.15108
904.85	1826.9242
905.029	1581.60175
905.207	1657.74055
905.386	1458.92975
905.565	1632.36126
905.743	1315.10746
905.922	1609.09663
906.1	1446.23943
906.279	1638.70612
906.457	1372.21285
906.636	1613.32658
906.814	1492.77056
906.993	1435.66417
907.171	1332.02746
907.35	1556.22162
907.528	1344.71753
907.707	1497.00065
907.885	1213.59042
908.063	1422.97387
908.242	1209.36068
908.42	1439.89428
908.598	1156.49016
908.777	1315.10746
908.955	1209.36068
909.133	1439.89428
909.311	1154.37539
909.49	1365.86776
909.668	1082.47579
909.846	1372.21285
910.024	1088.81965
910.202	1310.87747
910.38	1135.34263
910.559	1260.11833
910.737	1095.16356
910.915	1270.69304
911.093	1093.04892
911.271	1222.04993
911.449	1160.71971
911.627	1298.18757
911.805	1124.76903
911.983	1179.7529
912.161	1069.78821
912.339	1253.77354
912.517	1023.26877
912.695	1268.5781
912.872	1268.5781
913.05	1302.41753
913.228	1264.34821
913.406	1285.49774
913.584	1245.31384
913.762	1395.47827
913.939	1279.15286
914.117	1446.23943
914.295	1319.33745
914.473	1298.18757
914.65	1167.06407
914.828	1293.95762
915.006	1205.13096
915.184	1277.0379
915.361	1131.11318
915.539	1107.8515
915.716	1277.0379
915.894	1346.83255
916.072	1268.5781
916.249	1255.88846
916.427	1158.60493
916.604	1291.84265
916.782	1120.53962
916.959	1526.61123
917.137	1217.82017
917.314	1382.78803
917.492	1150.14586
917.669	1156.49016
917.847	980.98088
918.024	1169.17887
918.201	1109.96618
918.379	1251.65861
918.556	1046.52815
918.733	1012.69656
918.911	1016.92543
919.088	1183.98254
919.265	985.20956
919.442	974.63792
919.62	845.67884
919.797	1025.38323
919.974	995.78135
920.151	1019.03987
920.328	934.4673
920.506	1010.58214
920.683	900.64146
920.86	913.32592
921.037	858.36202
921.214	942.92406
921.391	832.99598
921.568	847.79268
921.745	873.15945
921.922	1090.93428
922.099	909.09773
922.276	1057.10082
922.453	917.55413
922.63	985.20956
922.807	898.52741
922.984	915.44002
923.161	803.40391
923.338	985.20956
923.514	782.26784
923.691	930.23896
923.868	752.679
924.045	782.26784
924.222	701.96001
924.399	794.94937
924.575	746.3388
924.752	735.77199
924.929	676.60289
925.105	947.15248
925.282	735.77199
925.459	807.63124
925.635	670.26386
925.812	837.22357
925.989	839.33737
926.165	826.65467
926.342	585.75393
926.518	811.8586
926.695	718.86566
926.871	763.24622
927.048	701.96001
927.224	754.79243
927.401	608.99218
927.577	704.07318
927.754	661.812
927.93	642.79598
928.107	575.19162
928.283	727.31874
928.459	532.94571
928.636	767.47318
928.812	611.10482
928.988	640.68315
929.165	509.71283
929.341	549.84342
929.517	494.92917
929.693	611.10482
929.87	549.84342
930.046	478.03445
930.222	486.48169
930.398	507.60084
930.574	516.0489
930.751	596.31658
930.927	475.92268
931.103	526.6093
931.279	452.69416
931.455	482.25804
931.631	283.8189
931.807	545.61891
931.983	448.471
932.159	518.16095
932.335	366.13202
932.511	406.24279
932.687	364.02109
932.863	431.57895
933.039	300.70142
933.215	448.471
933.391	364.02109
933.566	304.92223
933.742	380.90897
933.918	321.80621
934.094	353.46672
934.27	380.90897
934.445	321.80621
934.621	364.02109
934.797	277.48826
934.973	296.48068
935.148	237.39815
935.324	243.72771
935.5	237.39815
935.675	239.50798
935.851	273.26793
936.027	281.70867
936.202	169.89395
936.378	245.8376
936.553	178.33085
936.729	231.06877
936.904	102.41098
937.08	163.5665
937.255	163.5665
937.431	167.78478
937.606	150.91217
937.782	176.22159
937.957	127.71452
938.133	184.65873
938.308	79.21886
938.483	142.47636
938.659	102.41098
938.834	153.02117
939.009	83.43541
939.185	115.06236
939.36	96.08559
939.535	136.14973
939.71	155.13019
939.886	104.51949
940.061	83.43541
940.236	68.67788
940.411	119.27966
940.586	53.92147
940.761	93.97717
940.937	51.8135
941.112	51.8135
941.287	89.7604
941.462	115.06236
941.637	53.92147
941.812	138.25859
941.987	106.62802
942.162	93.97717
942.337	70.78603
942.512	-13.52183
942.687	-2.98542
942.862	-7.20006
943.037	28.62739
943.212	70.78603
943.386	119.27966
943.561	13.87408
943.736	-40.91361
943.911	39.16618
944.086	93.97717
944.26	45.48974
944.435	-51.44779
944.61	43.38186
944.785	75.0024
944.959	81.32712
945.134	43.38186
945.309	110.84515
945.483	68.67788
945.658	87.65205
945.833	43.38186
946.007	37.05838
946.182	102.41098
946.357	60.24551
946.531	77.11062
946.706	-5.09275
946.88	9.65906
947.055	62.35357
947.229	110.84515
947.404	28.62739
947.578	79.21886
947.752	129.82329
947.927	13.87408
948.101	18.08919
948.276	64.46165
948.45	34.9506
948.624	28.62739
948.799	28.62739
948.973	89.7604
949.147	85.54372
949.321	53.92147
949.496	85.54372
949.67	70.78603
949.844	119.27966
950.018	56.02946
950.193	102.41098
950.367	60.24551
950.541	53.92147
950.715	85.54372
950.889	37.05838
951.063	26.51971
951.237	119.27966
951.411	37.05838
951.585	51.8135
951.759	45.48974
951.933	104.51949
952.107	32.84284
952.281	129.82329
952.455	64.46165
952.629	28.62739
952.803	123.49705
952.977	85.54372
953.151	1.22931
953.325	11.76656
953.499	64.46165
953.672	39.16618
953.846	9.65906
954.02	45.48974
954.194	81.32712
954.368	18.08919
954.541	15.98162
954.715	102.41098
954.889	26.51971
955.062	-2.98542
955.236	34.9506
955.41	1.22931
955.583	47.59764
955.757	34.9506
955.93	58.13747
956.104	24.41204
956.278	79.21886
956.451	43.38186
956.625	9.65906
956.798	68.67788
956.972	89.7604
957.145	150.91217
957.319	79.21886
957.492	127.71452
957.665	127.71452
957.839	58.13747
958.012	51.8135
958.185	87.65205
958.359	77.11062
958.532	3.33671
958.705	22.3044
958.879	5.44413
959.052	62.35357
959.225	-19.84338
959.398	39.16618
959.572	119.27966
959.745	22.3044
959.918	-32.48582
960.091	70.78603
960.264	41.27401
960.438	89.7604
960.611	83.43541
960.784	13.87408
960.957	51.8135
961.13	81.32712
961.303	51.8135
961.476	70.78603
961.649	-9.30734
961.822	121.38835
961.995	9.65906
962.168	77.11062
962.341	79.21886
962.514	-7.20006
962.686	153.02117
962.859	18.08919
963.032	34.9506
963.205	81.32712
963.378	-15.62904
963.551	-2.98542
963.723	85.54372
963.896	37.05838
964.069	62.35357
964.242	9.65906
964.414	104.51949
964.587	-9.30734
964.76	43.38186
964.932	15.98162
965.105	20.19678
965.278	77.11062
965.45	58.13747
965.623	15.98162
965.795	53.92147
965.968	72.8942
966.14	62.35357
966.313	-47.2342
966.485	165.67563
966.658	64.46165
966.83	68.67788
967.003	77.11062
967.175	58.13747
967.348	1.22931
967.52	89.7604
967.692	18.08919
967.865	68.67788
968.037	81.32712
968.209	68.67788
968.382	9.65906
968.554	70.78603
968.726	53.92147
968.898	26.51971
969.071	112.95374
969.243	-5.09275
969.415	22.3044
969.587	28.62739
969.759	93.97717
969.932	110.84515
970.104	60.24551
970.276	53.92147
970.448	43.38186
970.62	26.51971
970.792	93.97717
970.964	5.44413
971.136	66.56975
971.308	9.65906
971.48	18.08919
971.652	15.98162
971.824	93.97717
971.996	70.78603
972.168	106.62802
972.339	104.51949
972.511	87.65205
972.683	-5.09275
972.855	68.67788
973.027	43.38186
973.199	68.67788
973.37	51.8135
973.542	24.41204
973.714	26.51971
973.886	28.62739
974.057	110.84515
974.229	34.9506
974.401	20.19678
974.572	41.27401
974.744	-0.87807
974.915	-32.48582
975.087	7.55158
975.259	75.0024
975.43	-13.52183
975.602	56.02946
975.773	43.38186
975.945	26.51971
976.116	11.76656
976.288	13.87408
976.459	77.11062
976.63	-45.12736
976.802	20.19678
976.973	20.19678
977.145	64.46165
977.316	64.46165
977.487	9.65906
977.659	39.16618
977.83	37.05838
978.001	39.16618
978.172	91.86877
978.344	5.44413
978.515	37.05838
978.686	13.87408
978.857	119.27966
979.028	-21.95051
979.2	-13.52183
979.371	121.38835
979.542	18.08919
979.713	-13.52183
979.884	34.9506
980.055	32.84284
980.226	-15.62904
980.397	68.67788
980.568	34.9506
980.739	-36.69976
980.91	32.84284
981.081	3.33671
981.252	49.70556
981.423	-11.4146
981.594	43.38186
981.765	13.87408
981.936	22.3044
982.106	37.05838
982.277	26.51971
982.448	-11.4146
982.619	-28.27177
982.79	77.11062
982.96	9.65906
983.131	-40.91361
983.302	51.8135
983.472	-78.83371
983.643	-32.48582
983.814	26.51971
983.984	1.22931
984.155	85.54372
984.326	62.35357
984.496	47.59764
984.667	-15.62904
984.837	45.48974
985.008	85.54372
985.178	-5.09275
985.349	-40.91361
985.519	-32.48582
985.69	28.62739
985.86	79.21886
986.031	-38.8067
986.201	11.76656
986.371	-5.09275
986.542	1.22931
986.712	51.8135
986.882	1.22931
987.053	47.59764
987.223	-0.87807
987.393	-2.98542
987.563	13.87408
987.734	9.65906
987.904	34.9506
988.074	-49.34101
988.244	77.11062
988.414	22.3044
988.585	53.92147
988.755	9.65906
988.925	60.24551
989.095	-24.05762
989.265	53.92147
989.435	34.9506
989.605	9.65906
989.775	-13.52183
989.945	3.33671
990.115	47.59764
990.285	1.22931
990.455	64.46165
990.625	5.44413
990.795	83.43541
990.965	85.54372
991.134	18.08919
991.304	-30.3788
991.474	-2.98542
991.644	110.84515
991.814	-32.48582
991.984	-21.95051
992.153	93.97717
992.323	-11.4146
992.493	-24.05762
992.662	49.70556
992.832	1.22931
993.002	79.21886
993.171	24.41204
993.341	93.97717
993.511	7.55158
993.68	-53.55456
993.85	45.48974
994.019	1.22931
994.189	68.67788
994.358	43.38186
994.528	22.3044
994.697	-15.62904
994.867	18.08919
995.036	47.59764
995.206	43.38186
995.375	-13.52183
995.544	-36.69976
995.714	-28.27177
995.883	26.51971
996.052	131.93208
996.222	-7.20006
996.391	53.92147
996.56	-40.91361
996.73	-7.20006
996.899	-15.62904
997.068	45.48974
997.237	-17.73622
997.406	-7.20006
997.576	-2.98542
997.745	-7.20006
997.914	60.24551
998.083	18.08919
998.252	91.86877
998.421	18.08919
998.59	-2.98542
998.759	-7.20006
998.928	-7.20006
999.097	26.51971
999.266	30.7351
999.435	-5.09275
999.604	9.65906
999.773	7.55158
999.942	-36.69976
1000.111	13.87408
1000.28	-64.08798
1000.448	-17.73622
1000.617	-47.2342
1000.786	-9.30734
1000.955	3.33671
1001.124	37.05838
1001.292	53.92147
1001.461	60.24551
1001.63	13.87408
1001.798	-24.05762
1001.967	-45.12736
1002.136	22.3044
1002.304	-45.12736
1002.473	1.22931
1002.642	30.7351
1002.81	18.08919
1002.979	37.05838
1003.147	-57.768
1003.316	-7.20006
1003.484	20.19678
1003.653	39.16618
1003.821	-80.94014
1003.99	1.22931
1004.158	-2.98542
1004.327	18.08919
1004.495	-32.48582
1004.663	-30.3788
1004.832	-7.20006
1005	3.33671
1005.168	-13.52183
1005.337	-70.40773
1005.505	-24.05762
1005.673	-26.16471
1005.842	51.8135
1006.01	-40.91361
1006.178	18.08919
1006.346	1.22931
1006.514	18.08919
1006.683	-55.66129
1006.851	-7.20006
1007.019	1.22931
1007.187	-7.20006
1007.355	-38.8067
1007.523	9.65906
1007.691	-47.2342
1007.859	-64.08798
1008.027	-55.66129
1008.195	39.16618
1008.363	-9.30734
1008.531	-21.95051
1008.699	-17.73622
1008.867	34.9506
1009.035	-40.91361
1009.203	18.08919
1009.37	-9.30734
1009.538	83.43541
1009.706	110.84515
1009.874	-7.20006
1010.042	60.24551
1010.209	-30.3788
1010.377	-49.34101
1010.545	-5.09275
1010.713	96.08559
1010.88	22.3044
1011.048	30.7351
1011.216	22.3044
1011.383	-66.19459
1011.551	11.76656
1011.718	3.33671
1011.886	41.27401
1012.054	-68.30117
1012.221	-72.51427
1012.389	-57.768
1012.556	-11.4146
1012.724	18.08919
1012.891	-15.62904
1013.058	18.08919
1013.226	-32.48582
1013.393	18.08919
1013.561	-38.8067
1013.728	15.98162
1013.895	28.62739
1014.063	45.48974
1014.23	-34.5928
1014.397	32.84284
1014.565	30.7351
1014.732	20.19678
1014.899	-2.98542
1015.066	-13.52183
1015.233	18.08919
1015.401	-53.55456
1015.568	-24.05762
1015.735	-70.40773
1015.902	9.65906
1016.069	-36.69976
1016.236	58.13747
1016.403	-9.30734
1016.57	-19.84338
1016.737	3.33671
1016.904	-13.52183
1017.071	20.19678
1017.238	-32.48582
1017.405	5.44413
1017.572	-21.95051
1017.739	-21.95051
1017.906	-7.20006
1018.073	-5.09275
1018.24	-59.87469
1018.407	34.9506
1018.573	-53.55456
1018.74	39.16618
1018.907	-78.83371
1019.074	-36.69976
1019.241	-36.69976
1019.407	-64.08798
1019.574	22.3044
1019.741	11.76656
1019.907	-24.05762
1020.074	5.44413
1020.241	60.24551
1020.407	43.38186
1020.574	-19.84338
1020.74	20.19678
1020.907	68.67788
1021.073	-21.95051
1021.24	-55.66129
1021.406	79.21886
1021.573	-45.12736
1021.739	22.3044
1021.906	-11.4146
1022.072	-66.19459
1022.239	-11.4146
1022.405	-43.0205
1022.571	43.38186
1022.738	-129.38082
1022.904	11.76656
1023.07	11.76656
1023.237	-40.91361
1023.403	-24.05762
1023.569	-68.30117
1023.735	34.9506
1023.902	-13.52183
1024.068	1.22931
1024.234	37.05838
1024.4	-40.91361
1024.566	-32.48582
1024.732	-24.05762
1024.898	-13.52183
1025.065	-49.34101
1025.231	-91.4719
1025.397	26.51971
1025.563	18.08919
1025.729	9.65906
1025.895	-66.19459
1026.061	-30.3788
1026.227	34.9506
1026.392	15.98162
1026.558	22.3044
1026.724	-40.91361
1026.89	-51.44779
1027.056	-64.08798
1027.222	-17.73622
1027.388	7.55158
1027.553	-61.98135
1027.719	-19.84338
1027.885	-34.5928
1028.051	-32.48582
1028.216	-36.69976
1028.382	-15.62904
1028.548	-7.20006
1028.713	-70.40773
1028.879	-108.32136
1029.045	-40.91361
1029.21	-11.4146
1029.376	-17.73622
1029.541	-5.09275
1029.707	-5.09275
1029.873	-57.768
1030.038	-57.768
1030.204	-61.98135
1030.369	-34.5928
1030.534	-34.5928
1030.7	13.87408
1030.865	15.98162
1031.031	-49.34101
1031.196	-57.768
1031.361	81.32712
1031.527	9.65906
1031.692	-32.48582
1031.857	1.22931
1032.023	-38.8067
1032.188	22.3044
1032.353	-15.62904
1032.518	20.19678
1032.684	-49.34101
1032.849	53.92147
1033.014	-38.8067
1033.179	-15.62904
1033.344	-49.34101
1033.509	39.16618
1033.674	45.48974
1033.839	-40.91361
1034.004	85.54372
1034.17	-57.768
1034.335	56.02946
1034.5	-45.12736
1034.664	-0.87807
1034.829	-74.62077
1034.994	-21.95051
1035.159	-7.20006
1035.324	-38.8067
1035.489	-15.62904
1035.654	-57.768
1035.819	34.9506
1035.984	68.67788
1036.148	-24.05762
1036.313	-2.98542
1036.478	34.9506
1036.643	-32.48582
1036.807	11.76656
1036.972	62.35357
1037.137	-24.05762
1037.301	-57.768
1037.466	9.65906
1037.631	-21.95051
1037.795	-40.91361
1037.96	79.21886
1038.124	-47.2342
1038.289	-89.3656
1038.454	5.44413
1038.618	-11.4146
1038.783	-76.72725
1038.947	-49.34101
1039.111	43.38186
1039.276	-49.34101
1039.44	-24.05762
1039.605	64.46165
1039.769	-55.66129
1039.933	7.55158
1040.098	-43.0205
1040.262	-49.34101
1040.426	11.76656
1040.591	-53.55456
1040.755	-64.08798
1040.919	-51.44779
1041.083	-85.15292
1041.248	-45.12736
1041.412	-2.98542
1041.576	11.76656
1041.74	-7.20006
1041.904	28.62739
1042.068	-30.3788
1042.232	1.22931
1042.397	-64.08798
1042.561	26.51971
1042.725	-38.8067
1042.889	-30.3788
1043.053	26.51971
1043.217	-2.98542
1043.381	-24.05762
1043.544	-7.20006
1043.708	5.44413
1043.872	-34.5928
1044.036	-30.3788
1044.2	-34.5928
1044.364	-13.52183
1044.528	26.51971
1044.691	-57.768
1044.855	-53.55456
1045.019	-7.20006
1045.183	39.16618
1045.346	-55.66129
1045.51	53.92147
1045.674	7.55158
1045.837	108.73657
1046.001	68.67788
1046.165	-19.84338
1046.328	20.19678
1046.492	-80.94014
1046.655	-45.12736
1046.819	-47.2342
1046.983	-55.66129
1047.146	26.51971
1047.31	-53.55456
1047.473	-45.12736
1047.636	34.9506
1047.8	26.51971
1047.963	-11.4146
1048.127	5.44413
1048.29	-15.62904
