Data from mixed_try1_USB4F045381__11__00159.txt Node

Date: Thu Apr 03 20:08:19 EDT 2025
User: mmckonesweet
Spectrometer: USB4F04538
Trigger mode: 4
Integration Time (sec): 2.700000E-3
Scans to average: 1
Electric dark correction enabled: true
Nonlinearity correction enabled: true
Boxcar width: 0
XAxis mode: Wavelengths
Number of Pixels in Spectrum: 3648
>>>>>Begin Spectral Data<<<<<
345.52	-25.46235
345.736	-25.46235
345.952	-25.46235
346.168	-0.17561
346.384	-69.70555
346.6	86.24649
346.816	-76.0251
347.032	35.65319
347.248	16.68414
347.464	-21.24814
347.68	33.54542
347.896	-25.46235
348.112	-17.03383
348.328	20.89932
348.544	-10.71218
348.76	20.89932
348.975	-63.38577
349.191	50.4082
349.407	44.08449
349.623	-23.35526
349.839	-50.74553
350.055	-21.24814
350.27	-6.49763
350.486	-67.59898
350.702	-31.78348
350.918	-33.89048
351.133	25.11459
351.349	-80.238
351.565	8.25407
351.781	50.4082
351.996	10.36155
352.212	41.97663
352.428	39.86879
352.644	-42.31821
352.859	-8.60492
353.075	63.05626
353.291	-40.21131
353.506	35.65319
353.722	4.03918
353.938	18.79172
354.153	-23.35526
354.369	-134.99622
354.584	-61.27913
354.8	-46.53192
355.016	-29.67646
355.231	-46.53192
355.447	12.46906
355.662	-31.78348
355.878	-4.39031
356.093	-4.39031
356.309	-25.46235
356.524	-19.141
356.74	-88.66349
356.955	-10.71218
357.171	41.97663
357.386	-46.53192
357.602	18.79172
357.817	-48.63874
358.033	46.19237
358.248	46.19237
358.464	-59.17246
358.679	-8.60492
358.895	8.25407
359.11	-29.67646
359.325	-10.71218
359.541	-25.46235
359.756	60.94819
359.972	-67.59898
360.187	-48.63874
360.402	-92.87609
360.618	41.97663
360.833	27.22227
361.048	-76.0251
361.264	-61.27913
361.479	-14.92664
361.694	-33.89048
361.909	52.51615
362.125	-29.67646
362.34	60.94819
362.555	4.03918
362.77	-33.89048
362.986	-46.53192
363.201	67.27246
363.416	27.22227
363.631	-33.89048
363.847	8.25407
364.062	-25.46235
364.277	71.48875
364.492	-33.89048
364.707	-0.17561
364.922	67.27246
365.138	12.46906
365.353	-38.10439
365.568	-2.28298
365.783	-44.42508
365.998	-14.92664
366.213	18.79172
366.428	-17.03383
366.643	25.11459
366.858	-42.31821
367.073	-21.24814
367.288	10.36155
367.503	27.22227
367.718	-86.55716
367.933	-10.71218
368.148	4.03918
368.363	-8.60492
368.578	-46.53192
368.793	10.36155
369.008	4.03918
369.223	23.00695
369.438	-50.74553
369.653	-0.17561
369.868	16.68414
370.083	-8.60492
370.298	-8.60492
370.513	-14.92664
370.728	-29.67646
370.943	10.36155
371.157	8.25407
371.372	52.51615
371.587	-76.0251
371.802	88.35483
372.017	-84.4508
372.232	1.93177
372.446	-0.17561
372.661	4.03918
372.876	-14.92664
373.091	-42.31821
373.306	-71.81209
373.52	-40.21131
373.735	-33.89048
373.95	-59.17246
374.165	-4.39031
374.379	37.76098
374.594	-99.19478
374.809	16.68414
375.023	-6.49763
375.238	-27.56942
375.453	-42.31821
375.667	31.43768
375.882	-82.34441
376.097	-8.60492
376.311	-31.78348
376.526	-8.60492
376.741	-17.03383
376.955	29.32996
377.17	-46.53192
377.384	-17.03383
377.599	-23.35526
377.813	-67.59898
378.028	-59.17246
378.242	63.05626
378.457	4.03918
378.672	-21.24814
378.886	-25.46235
379.101	-12.81942
379.315	4.03918
379.53	8.25407
379.744	-25.46235
379.958	-38.10439
380.173	4.03918
380.387	-44.42508
380.602	-8.60492
380.816	-48.63874
381.031	-29.67646
381.245	-61.27913
381.459	10.36155
381.674	-0.17561
381.888	25.11459
382.103	-101.30096
382.317	-61.27913
382.531	-0.17561
382.746	-17.03383
382.96	-0.17561
383.174	-29.67646
383.388	-21.24814
383.603	-42.31821
383.817	41.97663
384.031	33.54542
384.246	-14.92664
384.46	25.11459
384.674	14.57659
384.888	-73.91861
385.103	-4.39031
385.317	63.05626
385.531	-25.46235
385.745	-17.03383
385.959	-0.17561
386.174	-33.89048
386.388	-17.03383
386.602	-33.89048
386.816	-40.21131
387.03	-50.74553
387.244	-6.49763
387.458	-40.21131
387.672	-57.06577
387.887	16.68414
388.101	-10.71218
388.315	-48.63874
388.529	37.76098
388.743	-19.141
388.957	-31.78348
389.171	-17.03383
389.385	33.54542
389.599	41.97663
389.813	35.65319
390.027	10.36155
390.241	-6.49763
390.455	-6.49763
390.669	1.93177
390.883	25.11459
391.097	25.11459
391.311	-82.34441
391.525	-23.35526
391.738	-78.13156
391.952	4.03918
392.166	-17.03383
392.38	-40.21131
392.594	46.19237
392.808	84.13817
393.022	-38.10439
393.236	10.36155
393.449	-42.31821
393.663	60.94819
393.877	-21.24814
394.091	37.76098
394.305	20.89932
394.518	-33.89048
394.732	-80.238
394.946	25.11459
395.16	1.93177
395.373	-33.89048
395.587	-40.21131
395.801	-14.92664
396.015	-42.31821
396.228	20.89932
396.442	-33.89048
396.656	-23.35526
396.869	-80.238
397.083	-19.141
397.297	-17.03383
397.51	12.46906
397.724	-0.17561
397.938	-61.27913
398.151	20.89932
398.365	-4.39031
398.578	-4.39031
398.792	4.03918
399.005	-21.24814
399.219	-40.21131
399.433	12.46906
399.646	-23.35526
399.86	-19.141
400.073	29.32996
400.287	-6.49763
400.5	8.25407
400.714	50.4082
400.927	-63.38577
401.141	-29.67646
401.354	-4.39031
401.567	16.68414
401.781	-33.89048
401.994	-8.60492
402.208	-6.49763
402.421	-33.89048
402.635	-4.39031
402.848	-42.31821
403.061	-6.49763
403.275	-17.03383
403.488	-67.59898
403.701	58.84015
403.915	-92.87609
404.128	-4.39031
404.341	-124.46718
404.555	29.32996
404.768	41.97663
404.981	-54.95905
405.195	25.11459
405.408	-84.4508
405.621	50.4082
405.834	-33.89048
406.048	33.54542
406.261	52.51615
406.474	-17.03383
406.687	52.51615
406.9	-38.10439
407.114	12.46906
407.327	12.46906
407.54	-40.21131
407.753	-8.60492
407.966	39.86879
408.179	10.36155
408.392	-38.10439
408.605	-12.81942
408.819	1.93177
409.032	-48.63874
409.245	1.93177
409.458	20.89932
409.671	-59.17246
409.884	-38.10439
410.097	-14.92664
410.31	12.46906
410.523	-84.4508
410.736	-82.34441
410.949	-17.03383
411.162	79.92161
411.375	-50.74553
411.588	-23.35526
411.801	-19.141
412.014	-29.67646
412.227	41.97663
412.44	6.14661
412.653	41.97663
412.865	-0.17561
413.078	-8.60492
413.291	-14.92664
413.504	-48.63874
413.717	52.51615
413.93	-44.42508
414.143	25.11459
414.356	-113.93748
414.568	48.30027
414.781	-12.81942
414.994	-29.67646
415.207	33.54542
415.42	75.70514
415.632	-40.21131
415.845	-0.17561
416.058	-8.60492
416.271	10.36155
416.483	-14.92664
416.696	52.51615
416.909	-46.53192
417.121	4.03918
417.334	-46.53192
417.547	-4.39031
417.759	8.25407
417.972	-82.34441
418.185	-44.42508
418.397	1.93177
418.61	-17.03383
418.823	-23.35526
419.035	-48.63874
419.248	52.51615
419.46	1.93177
419.673	4.03918
419.885	31.43768
420.098	-40.21131
420.311	84.13817
420.523	-4.39031
420.736	-101.30096
420.948	-54.95905
421.161	18.79172
421.373	10.36155
421.586	16.68414
421.798	10.36155
422.01	-33.89048
422.223	-25.46235
422.435	-6.49763
422.648	-46.53192
422.86	50.4082
423.073	-0.17561
423.285	-12.81942
423.497	12.46906
423.71	25.11459
423.922	-88.66349
424.134	46.19237
424.347	63.05626
424.559	-21.24814
424.771	-109.72541
424.984	8.25407
425.196	-42.31821
425.408	-92.87609
425.621	6.14661
425.833	-17.03383
426.045	37.76098
426.257	-67.59898
426.47	16.68414
426.682	25.11459
426.894	-21.24814
427.106	-52.8523
427.318	8.25407
427.531	-67.59898
427.743	4.03918
427.955	75.70514
428.167	46.19237
428.379	-0.17561
428.591	4.03918
428.804	-8.60492
429.016	63.05626
429.228	29.32996
429.44	-17.03383
429.652	1.93177
429.864	-14.92664
430.076	37.76098
430.288	-6.49763
430.5	-63.38577
430.712	-33.89048
430.924	25.11459
431.136	4.03918
431.348	35.65319
431.56	-17.03383
431.772	63.05626
431.984	33.54542
432.196	-12.81942
432.408	50.4082
432.62	-12.81942
432.832	-88.66349
433.044	-17.03383
433.256	-46.53192
433.468	31.43768
433.679	33.54542
433.891	-42.31821
434.103	-50.74553
434.315	-31.78348
434.527	-19.141
434.739	-8.60492
434.95	-59.17246
435.162	-38.10439
435.374	-78.13156
435.586	-54.95905
435.798	67.27246
436.009	-40.21131
436.221	-59.17246
436.433	-38.10439
436.645	-0.17561
436.856	8.25407
437.068	27.22227
437.28	-42.31821
437.491	31.43768
437.703	-25.46235
437.915	27.22227
438.126	-48.63874
438.338	-50.74553
438.55	-25.46235
438.761	-50.74553
438.973	-17.03383
439.184	-10.71218
439.396	-14.92664
439.608	-40.21131
439.819	-14.92664
440.031	69.38059
440.242	-31.78348
440.454	8.25407
440.665	-6.49763
440.877	-40.21131
441.088	-38.10439
441.3	-42.31821
441.511	-57.06577
441.723	-42.31821
441.934	4.03918
442.146	-19.141
442.357	12.46906
442.569	-19.141
442.78	20.89932
442.991	-126.57304
443.203	101.00532
443.414	-4.39031
443.626	-4.39031
443.837	31.43768
444.048	-17.03383
444.26	-14.92664
444.471	33.54542
444.682	-76.0251
444.894	-21.24814
445.105	-19.141
445.316	-33.89048
445.528	-33.89048
445.739	18.79172
445.95	-0.17561
446.161	-50.74553
446.373	23.00695
446.584	44.08449
446.795	25.11459
447.006	4.03918
447.217	-27.56942
447.429	-8.60492
447.64	-17.03383
447.851	94.67998
448.062	-27.56942
448.273	8.25407
448.484	-0.17561
448.695	12.46906
448.907	33.54542
449.118	-8.60492
449.329	16.68414
449.54	-67.59898
449.751	-6.49763
449.962	14.57659
450.173	-6.49763
450.384	-38.10439
450.595	-25.46235
450.806	-38.10439
451.017	-6.49763
451.228	10.36155
451.439	-21.24814
451.65	27.22227
451.861	67.27246
452.072	-25.46235
452.283	-67.59898
452.494	1.93177
452.705	8.25407
452.915	-33.89048
453.126	4.03918
453.337	-14.92664
453.548	20.89932
453.759	16.68414
453.97	-4.39031
454.181	-17.03383
454.391	-69.70555
454.602	1.93177
454.813	48.30027
455.024	-80.238
455.235	35.65319
455.445	46.19237
455.656	-31.78348
455.867	-17.03383
456.078	-38.10439
456.288	44.08449
456.499	1.93177
456.71	-71.81209
456.921	8.25407
457.131	-31.78348
457.342	-14.92664
457.553	-48.63874
457.763	-50.74553
457.974	-10.71218
458.184	25.11459
458.395	8.25407
458.606	-59.17246
458.816	-4.39031
459.027	-76.0251
459.237	8.25407
459.448	-29.67646
459.659	14.57659
459.869	-38.10439
460.08	-6.49763
460.29	-4.39031
460.501	-80.238
460.711	-25.46235
460.922	16.68414
461.132	33.54542
461.343	-12.81942
461.553	84.13817
461.764	31.43768
461.974	25.11459
462.184	4.03918
462.395	8.25407
462.605	20.89932
462.816	-0.17561
463.026	20.89932
463.236	-50.74553
463.447	20.89932
463.657	-8.60492
463.867	29.32996
464.078	-8.60492
464.288	-158.15772
464.498	25.11459
464.709	-12.81942
464.919	25.11459
465.129	-35.99745
465.339	52.51615
465.55	-101.30096
465.76	-33.89048
465.97	8.25407
466.18	-12.81942
466.391	-0.17561
466.601	-33.89048
466.811	-44.42508
467.021	-6.49763
467.231	-31.78348
467.441	60.94819
467.651	-50.74553
467.862	12.46906
468.072	69.38059
468.282	27.22227
468.492	-4.39031
468.702	29.32996
468.912	-10.71218
469.122	-25.46235
469.332	33.54542
469.542	27.22227
469.752	-0.17561
469.962	-48.63874
470.172	-19.141
470.382	-23.35526
470.592	-2.28298
470.802	111.54801
471.012	4.03918
471.222	-50.74553
471.432	-6.49763
471.642	-17.03383
471.852	-84.4508
472.062	111.54801
472.272	12.46906
472.482	25.11459
472.691	25.11459
472.901	60.94819
473.111	-19.141
473.321	50.4082
473.531	-52.8523
473.741	-48.63874
473.95	48.30027
474.16	14.57659
474.37	-0.17561
474.58	-38.10439
474.79	-52.8523
474.999	10.36155
475.209	4.03918
475.419	8.25407
475.628	67.27246
475.838	-63.38577
476.048	10.36155
476.258	46.19237
476.467	16.68414
476.677	-71.81209
476.886	-40.21131
477.096	-25.46235
477.306	-8.60492
477.515	58.84015
477.725	10.36155
477.935	33.54542
478.144	50.4082
478.354	20.89932
478.563	35.65319
478.773	29.32996
478.982	6.14661
479.192	-84.4508
479.401	-17.03383
479.611	-0.17561
479.82	27.22227
480.03	-6.49763
480.239	75.70514
480.449	25.11459
480.658	8.25407
480.868	18.79172
481.077	16.68414
481.287	-8.60492
481.496	-17.03383
481.705	-33.89048
481.915	-17.03383
482.124	-12.81942
482.333	46.19237
482.543	-2.28298
482.752	-33.89048
482.961	-8.60492
483.171	109.43943
483.38	58.84015
483.589	54.62413
483.799	75.70514
484.008	12.46906
484.217	-48.63874
484.426	67.27246
484.636	33.54542
484.845	-4.39031
485.054	-31.78348
485.263	1.93177
485.472	77.81336
485.682	16.68414
485.891	27.22227
486.1	58.84015
486.309	41.97663
486.518	16.68414
486.727	46.19237
486.936	-71.81209
487.146	33.54542
487.355	-0.17561
487.564	56.73213
487.773	-14.92664
487.982	46.19237
488.191	41.97663
488.4	44.08449
488.609	44.08449
488.818	10.36155
489.027	31.43768
489.236	16.68414
489.445	16.68414
489.654	-46.53192
489.863	-23.35526
490.072	16.68414
490.281	-2.28298
490.49	41.97663
490.698	-46.53192
490.907	12.46906
491.116	71.48875
491.325	8.25407
491.534	-42.31821
491.743	-33.89048
491.952	50.4082
492.16	52.51615
492.369	44.08449
492.578	27.22227
492.787	88.35483
492.996	63.05626
493.204	16.68414
493.413	48.30027
493.622	41.97663
493.831	41.97663
494.039	37.76098
494.248	67.27246
494.457	25.11459
494.665	33.54542
494.874	67.27246
495.083	82.02988
495.291	4.03918
495.5	-33.89048
495.709	29.32996
495.917	58.84015
496.126	10.36155
496.335	16.68414
496.543	41.97663
496.752	41.97663
496.96	1.93177
497.169	39.86879
497.377	84.13817
497.586	50.4082
497.794	73.59693
498.003	41.97663
498.211	12.46906
498.42	117.87389
498.628	23.00695
498.837	8.25407
499.045	35.65319
499.254	10.36155
499.462	10.36155
499.671	27.22227
499.879	75.70514
500.087	94.67998
500.296	88.35483
500.504	101.00532
500.713	37.76098
500.921	-0.17561
501.129	41.97663
501.338	50.4082
501.546	73.59693
501.754	73.59693
501.962	27.22227
502.171	124.19996
502.379	33.54542
502.587	44.08449
502.795	84.13817
503.004	-25.46235
503.212	18.79172
503.42	52.51615
503.628	-12.81942
503.837	94.67998
504.045	6.14661
504.253	179.03394
504.461	58.84015
504.669	109.43943
504.877	33.54542
505.085	71.48875
505.294	54.62413
505.502	8.25407
505.71	63.05626
505.918	54.62413
506.126	92.57157
506.334	41.97663
506.542	-52.8523
506.75	138.96154
506.958	67.27246
507.166	126.30869
507.374	25.11459
507.582	119.98255
507.79	60.94819
507.998	69.38059
508.206	103.11382
508.414	41.97663
508.622	94.67998
508.83	86.24649
509.037	8.25407
509.245	75.70514
509.453	101.00532
509.661	75.70514
509.869	52.51615
510.077	77.81336
510.285	124.19996
510.492	-12.81942
510.7	56.73213
510.908	117.87389
511.116	86.24649
511.324	35.65319
511.531	58.84015
511.739	67.27246
511.947	101.00532
512.155	84.13817
512.362	113.65661
512.57	86.24649
512.778	29.32996
512.985	101.00532
513.193	75.70514
513.401	111.54801
513.608	52.51615
513.816	46.19237
514.024	92.57157
514.231	143.17933
514.439	94.67998
514.646	20.89932
514.854	18.79172
515.061	54.62413
515.269	82.02988
515.477	138.96154
515.684	25.11459
515.892	141.07043
516.099	79.92161
516.307	73.59693
516.514	67.27246
516.722	143.17933
516.929	98.89685
517.136	77.81336
517.344	128.41744
517.551	96.7884
517.759	44.08449
517.966	54.62413
518.173	109.43943
518.381	109.43943
518.588	107.33087
518.796	134.74384
519.003	130.52622
519.21	126.30869
519.418	134.74384
519.625	69.38059
519.832	77.81336
520.039	98.89685
520.247	20.89932
520.454	65.16435
520.661	111.54801
520.868	145.28826
521.076	164.26954
521.283	206.45618
521.49	111.54801
521.697	191.68993
521.904	71.48875
522.112	141.07043
522.319	189.58055
522.526	98.89685
522.733	168.48784
522.94	79.92161
523.147	132.63502
523.354	130.52622
523.561	138.96154
523.768	143.17933
523.975	124.19996
524.183	136.85268
524.39	113.65661
524.597	187.47118
524.804	132.63502
525.011	155.83321
525.218	191.68993
525.425	217.0041
525.632	168.48784
525.838	117.87389
526.045	145.28826
526.252	227.55252
526.459	172.70621
526.666	227.55252
526.873	96.7884
527.08	231.77202
527.287	181.14322
527.494	168.48784
527.701	189.58055
527.907	202.23715
528.114	92.57157
528.321	168.48784
528.528	227.55252
528.735	181.14322
528.941	134.74384
529.148	191.68993
529.355	214.89448
529.562	164.26954
529.768	185.36184
529.975	138.96154
530.182	166.37868
530.388	179.03394
530.595	92.57157
530.802	221.22341
531.008	240.21127
531.215	113.65661
531.422	229.66226
531.628	176.92467
531.835	229.66226
532.042	151.61516
532.248	195.90876
532.455	143.17933
532.661	219.11374
532.868	183.25252
533.074	208.56572
533.281	240.21127
533.487	210.67529
533.694	276.08147
533.9	187.47118
534.107	193.79933
534.313	257.09068
534.52	254.98069
534.726	238.10143
534.933	223.33309
535.139	252.87071
535.345	261.31072
535.552	254.98069
535.758	339.39489
535.965	284.52232
536.171	235.99161
536.377	252.87071
536.584	261.31072
536.79	252.87071
536.996	305.62571
537.203	240.21127
537.409	206.45618
537.615	286.63257
537.821	235.99161
538.028	292.96345
538.234	221.22341
538.44	233.8818
538.646	282.41208
538.853	347.8379
539.059	221.22341
539.265	320.39917
539.471	254.98069
539.677	320.39917
539.883	311.95708
540.09	265.53084
540.296	257.09068
540.502	377.39057
540.708	320.39917
540.914	328.84154
541.12	347.8379
541.326	478.73838
541.532	404.83529
541.738	373.16856
541.944	339.39489
542.15	354.17033
542.356	339.39489
542.562	387.9459
542.768	337.28419
542.974	387.9459
543.18	320.39917
543.386	337.28419
543.592	320.39917
543.798	402.72406
544.004	383.72372
544.21	392.16815
544.415	404.83529
544.621	349.94869
544.827	364.72473
545.033	347.8379
545.239	501.96892
545.445	463.95624
545.651	421.72573
545.856	392.16815
546.062	377.39057
546.268	413.28038
546.474	328.84154
546.679	558.99671
546.885	371.05758
547.091	442.8402
547.297	434.39422
547.502	440.72869
547.708	466.06793
547.914	474.51483
548.119	398.50165
548.325	531.53761
548.531	428.0599
548.736	356.28118
548.942	544.21075
549.147	497.74505
549.353	438.61718
549.559	432.28277
549.764	444.95174
549.97	506.19285
550.175	455.50964
550.381	594.90821
550.586	387.9459
550.792	489.29749
550.997	529.42547
551.203	544.21075
551.408	400.61285
551.614	529.42547
551.819	506.19285
552.025	470.29135
552.23	447.06329
552.435	535.76193
552.641	472.40309
552.846	632.93621
553.052	597.02077
553.257	556.88439
553.462	537.87412
553.668	632.93621
553.873	554.77208
554.078	533.64976
554.283	611.80904
554.489	558.99671
554.694	630.82344
554.899	698.43809
555.105	523.08913
555.31	609.69639
555.515	592.79566
555.72	785.08593
555.925	573.78333
556.131	694.21183
556.336	546.32299
556.541	632.93621
556.746	556.88439
556.951	679.42027
557.156	628.71068
557.361	675.19421
557.567	662.51631
557.772	725.90988
557.977	637.1618
558.182	683.64637
558.387	666.74223
558.592	801.99481
558.797	677.30723
559.002	759.72379
559.207	590.68313
559.412	753.38348
559.617	556.88439
559.822	835.81437
560.027	713.23036
560.232	814.67687
560.437	626.59793
560.642	776.63172
560.847	736.47644
561.051	785.08593
561.256	649.83884
561.461	844.26962
561.666	744.92987
561.871	713.23036
562.076	734.3631
562.281	911.91652
562.485	804.10846
562.69	873.8641
562.895	728.02317
563.1	869.63621
563.305	700.55124
563.509	844.26962
563.714	742.8165
563.919	1064.14935
564.123	778.74526
564.328	954.19992
564.533	643.50026
564.737	988.02869
564.942	882.31996
565.147	897.11805
565.351	768.17767
565.556	859.06665
565.761	721.68333
565.965	996.48615
566.17	863.29445
566.374	884.43395
566.579	804.10846
566.784	852.72501
566.988	810.44948
567.193	867.52228
567.397	928.82952
567.602	945.743
567.806	882.31996
568.011	941.51459
568.215	873.8641
568.42	966.8855
568.624	935.17202
568.828	1174.11341
569.033	873.8641
569.237	1021.85913
569.442	968.99979
569.646	939.40039
569.85	966.8855
570.055	1119.12982
570.259	1043.00395
570.463	985.91434
570.668	1047.23299
570.872	1043.00395
571.076	1004.94371
571.281	1182.57266
571.485	1038.77494
571.689	1150.85078
571.893	996.48615
572.098	1114.90044
572.302	1015.5158
572.506	1093.7538
572.71	1076.83684
572.914	1047.23299
573.119	983.8
573.323	1125.47393
573.527	1125.47393
573.731	1167.76901
573.935	1174.11341
574.139	1117.01513
574.343	1026.08805
574.547	1260.82331
574.751	1114.90044
574.955	1184.68748
575.159	1174.11341
575.364	1216.41025
575.568	1100.09774
575.772	1290.43267
575.976	1207.95077
576.18	1279.85784
576.383	1207.95077
576.587	1387.72312
576.791	1095.86844
576.995	1305.23751
577.199	1203.72105
577.403	1246.01882
577.607	1226.98467
577.811	1396.18328
578.015	1150.85078
578.219	1271.39803
578.422	1275.62793
578.626	1313.69746
578.83	1262.93825
579.034	1294.66261
579.238	1326.38745
579.442	1385.60808
579.645	1171.9986
579.849	1571.73173
580.053	1258.70837
580.257	1402.52841
580.46	1265.05319
580.664	1474.44013
580.868	1275.62793
581.071	1396.18328
581.275	1351.76759
581.479	1317.92745
581.682	1383.49304
581.886	1417.33374
582.09	1432.13909
582.293	1514.62601
582.497	1449.0595
582.7	1622.49145
582.904	1423.67889
583.107	1597.11172
583.311	1402.52841
583.515	1525.2012
583.718	1336.96248
583.922	1554.81161
584.125	1495.59062
584.329	1575.96174
584.532	1478.67023
584.735	1730.35131
584.939	1334.84747
585.142	1647.87087
585.346	1535.77637
585.549	1639.4111
585.753	1542.12146
585.956	1643.64099
586.159	1472.32508
586.363	1844.54603
586.566	1698.6286
586.769	1740.92537
586.973	1633.06625
587.176	1717.66231
587.379	1531.54631
587.582	1698.6286
587.786	1504.0508
587.989	1753.61414
588.192	1554.81161
588.395	1711.31777
588.599	1681.70954
588.802	1762.07324
589.005	1825.51444
589.208	1853.0044
589.411	1603.45668
589.615	1838.20221
589.818	1732.46613
590.021	1778.99126
590.224	1683.82443
590.427	1861.46268
590.63	1709.20292
590.833	1857.23355
591.036	1876.26449
591.239	1943.92658
591.442	1783.22072
591.645	1996.78344
591.848	1884.72255
592.051	2136.30533
592.254	1825.51444
592.457	1901.63843
592.66	1774.76177
592.863	1977.75541
593.066	1869.92089
593.269	1912.21067
593.472	1842.43143
593.675	1977.75541
593.878	1954.49825
594.081	1867.80634
594.284	2096.14319
594.486	2015.81095
594.689	1986.21238
594.892	2153.21487
595.095	1960.84119
595.298	1977.75541
595.5	1969.29835
595.703	2184.91885
595.906	1954.49825
596.109	2079.23199
596.311	1844.54603
596.514	2218.73435
596.717	1929.12598
596.92	2123.62285
597.122	1952.38393
597.325	2089.80154
597.528	2007.35434
597.73	2402.56503
597.933	1958.72688
598.136	2244.09452
598.338	2178.5782
598.541	2408.90269
598.743	2290.5848
598.946	2358.19885
599.148	2174.35106
599.351	2134.19161
599.554	2218.73435
599.756	2290.5848
599.959	2225.07451
600.161	2421.57771
600.363	2296.92403
600.566	2332.84475
600.768	2273.67976
600.971	2489.17131
601.173	2193.37293
601.376	2419.46523
601.578	2129.96413
601.78	2311.71525
601.983	2239.86792
602.185	2282.13235
602.388	2296.92403
602.59	2408.90269
602.792	2474.38617
602.995	2267.34022
603.197	2436.36476
603.399	2810.07441
603.601	2222.96114
603.804	2339.18341
604.006	2191.25942
604.208	2402.56503
604.41	2178.5782
604.613	2434.25236
604.815	2366.6499
605.017	2503.9559
605.219	2284.24548
605.421	2476.49836
605.623	2411.01522
605.826	2554.64168
606.028	2453.2636
606.23	2529.29962
606.432	2430.02752
606.634	2662.32617
606.836	2265.22702
607.038	2470.16174
607.24	2411.01522
607.442	2744.65106
607.644	2269.45341
607.846	2548.30632
608.048	2383.5515
608.25	2632.7689
608.452	2582.09366
608.654	2725.65477
608.856	2525.07578
609.058	2704.54653
609.26	2548.30632
609.462	2615.87794
609.664	2512.40399
609.866	2674.99282
610.067	2615.87794
610.269	2757.31466
610.471	2472.27396
610.673	2666.54844
610.875	2406.79014
611.077	2742.54041
611.278	2539.85902
611.48	2535.63529
611.682	2510.29198
611.884	2801.63342
612.085	2546.19451
612.287	2691.88096
612.489	2611.65507
612.69	2881.81379
612.892	2518.73994
613.094	2788.97153
613.295	2453.2636
613.497	2641.21409
613.699	2683.43699
613.9	2755.20409
614.102	2767.86729
614.304	2740.42976
614.505	2696.10287
614.707	2797.41285
614.908	2780.53
615.11	2864.9354
615.311	2560.97693
615.513	2620.10075
615.714	2691.88096
615.916	2759.42521
616.117	2590.54002
616.319	3021.02475
616.52	2681.32597
616.722	2995.7185
616.923	2632.7689
617.124	2837.50609
617.326	2677.10388
617.527	2917.6773
617.729	2531.41152
617.93	2831.17591
618.131	2829.06582
618.333	2820.62534
618.534	2744.65106
618.735	2898.69126
618.937	2985.17359
619.138	2917.6773
619.339	2854.38595
619.54	3029.45967
619.742	2856.49587
619.943	3096.93015
620.144	2698.2138
620.345	3037.89435
620.546	2662.32617
620.748	3046.32879
620.949	2822.73548
621.15	2774.1987
621.351	2949.31808
621.552	3037.89435
621.753	2974.6283
621.954	3269.74825
622.155	2772.08824
622.356	3069.5222
622.558	2890.25264
622.759	3004.15416
622.96	2850.16607
623.161	3238.14347
623.362	2814.29482
623.563	3044.2202
623.764	2864.9354
623.965	3025.24224
624.166	3077.9557
624.366	3099.03835
624.567	3018.91598
624.768	2848.05611
624.969	2746.76169
625.17	3118.01137
625.371	2932.44341
625.572	3130.65934
625.773	3048.43736
625.973	3328.73363
626.174	3061.08845
626.375	3238.14347
626.576	2924.00572
626.777	3295.02933
626.977	2957.75506
627.178	3191.783
627.379	3090.60548
627.58	3149.63021
627.78	3094.82194
627.981	3134.8752
628.182	3033.67705
628.382	3236.03635
628.583	2993.60955
628.784	3191.783
628.984	2972.5192
629.185	3278.17555
629.386	3067.41378
629.586	3438.24181
629.787	3048.43736
629.987	3254.99982
630.188	3118.01137
630.388	3322.41441
630.589	3014.69839
630.79	3269.74825
630.99	3088.49722
631.191	3389.81136
631.391	3153.84578
631.591	3219.17879
631.792	3158.06129
631.992	3379.28176
632.193	3162.27673
632.393	3520.34133
632.594	3257.10679
632.794	3377.17579
632.994	3046.32879
633.195	3528.76023
633.395	3193.89046
633.595	3522.44608
633.796	3170.70742
633.996	3581.37167
634.196	3240.25057
634.397	3652.90452
634.597	3189.67551
634.797	3480.34756
634.997	3214.96423
635.198	3434.03084
635.398	3206.53492
635.598	3465.61137
635.798	3231.82206
635.998	3343.47787
636.199	3050.54591
636.399	3404.55206
636.599	3231.82206
636.799	3434.03084
636.999	3269.74825
637.199	3351.90277
637.399	3223.39328
637.599	3412.97492
637.799	3202.32017
637.999	3398.23472
638.199	3295.02933
638.399	3602.413
638.599	3229.71489
638.799	3665.5257
638.999	3396.12891
639.199	3581.37167
639.399	3362.4335
639.599	3686.55947
639.799	3354.00895
639.999	3699.17882
640.199	3278.17555
640.399	3417.18625
640.599	3177.03026
640.799	3648.69731
640.998	3471.92699
641.198	3694.97244
641.398	3446.66354
641.598	3535.07421
641.798	3575.05891
641.997	3431.92533
642.197	3598.20488
642.397	3606.62104
642.597	3532.96957
642.796	3581.37167
642.996	3204.42756
643.196	3722.31249
643.395	3532.96957
643.595	3852.65822
643.795	3739.13551
643.994	3753.85464
644.194	3526.65553
644.394	3762.26514
644.593	3770.67533
644.793	3858.96336
644.992	3703.38511
645.192	3650.80092
645.392	3522.44608
645.591	3827.43591
645.791	3652.90452
645.99	3871.57308
646.19	3431.92533
646.389	3766.47027
646.589	3650.80092
646.788	3854.75995
646.987	3499.2928
647.187	4012.33242
647.386	3737.0327
647.586	3802.21076
647.785	3749.64927
647.984	3938.81276
648.184	3791.69944
648.383	3991.32935
648.582	3760.16254
648.782	3905.19549
648.981	3829.53788
649.18	3882.08063
649.38	3854.75995
649.579	3863.16668
649.778	3884.18209
649.977	3871.57308
650.177	3943.01455
650.376	3993.42975
650.575	3762.26514
650.774	3833.74176
650.973	3766.47027
651.173	3978.72653
651.372	3516.13177
651.571	4010.23221
651.77	3606.62104
651.969	4127.8124
652.168	3707.59133
652.367	4037.53339
652.566	3905.19549
652.765	4014.43262
652.964	3972.42485
653.163	4165.59215
653.362	3837.94556
653.561	4186.57795
653.76	3694.97244
653.959	3810.61946
654.158	4134.1095
654.357	3995.53013
654.556	3985.02804
654.755	3892.58769
654.954	4003.93144
655.153	4213.85633
655.352	3985.02804
655.551	4152.99966
655.749	4037.53339
655.948	4245.32692
656.147	3989.22894
656.346	4249.52264
656.545	4048.03292
656.743	4228.5432
656.942	3987.1285
657.141	4157.19724
657.34	4024.93328
657.538	4146.70313
657.737	3892.58769
657.936	4241.13112
658.135	4205.46336
658.333	4228.5432
658.532	4104.72143
658.731	4014.43262
658.929	4052.23259
659.128	4278.89026
659.326	4016.53279
659.525	4138.30746
659.724	3915.70144
659.922	4362.77453
660.121	3877.87767
660.319	4220.15083
660.518	4272.59755
660.716	4213.85633
660.915	4043.83317
661.113	4478.05865
661.312	4211.75812
661.51	4182.38096
661.709	4003.93144
661.907	4245.32692
662.105	4104.72143
662.304	4455.00712
662.502	4048.03292
662.701	4320.83671
662.899	4171.88811
663.097	4228.5432
663.296	4104.72143
663.494	4348.09728
663.692	4012.33242
663.891	4310.3509
664.089	4152.99966
664.287	4320.83671
664.485	4052.23259
664.684	4413.08846
664.882	4178.18388
665.08	4348.09728
665.278	4448.71988
665.476	4343.90358
665.675	4048.03292
665.873	4228.5432
666.071	4132.01049
666.269	4337.61288
666.467	3903.09424
666.665	4312.44811
666.863	4278.89026
667.061	4310.3509
667.259	4329.22497
667.457	4484.34497
667.655	4064.8311
667.853	4278.89026
668.051	4270.49994
668.249	4469.67659
668.447	4304.05916
668.645	4260.01155
668.843	4243.22903
669.041	4343.90358
669.239	4203.36507
669.437	4387.93306
669.635	4421.47289
669.833	4287.28024
670.031	4314.54529
670.229	4549.29195
670.426	4205.46336
670.624	4452.9114
670.822	4289.37768
671.02	4398.41486
671.218	4331.32198
671.415	4346.00044
671.613	4299.86456
671.811	4356.48441
672.009	4448.71988
672.206	4358.58114
672.404	4488.53574
672.602	4427.76099
672.799	4316.64245
672.997	4547.19722
673.195	4157.19724
673.392	4448.71988
673.59	4194.97168
673.788	4339.7098
673.985	4157.19724
674.183	4442.43244
674.38	4331.32198
674.578	4647.71923
674.775	4190.77486
674.973	4316.64245
675.17	4490.63109
675.368	4463.38981
675.565	4209.65989
675.763	4197.07006
675.96	4155.09846
676.158	4278.89026
676.355	4029.1334
676.553	4610.0295
676.75	4213.85633
676.947	4434.04889
677.145	4339.7098
677.342	4446.62409
677.539	4173.98672
677.737	4429.85698
677.934	4064.8311
678.131	4436.14481
678.329	4272.59755
678.526	4387.93306
678.723	4410.99229
678.92	4563.95446
679.118	4442.43244
679.315	4371.16106
679.512	4329.22497
679.709	4584.899
679.906	4415.1846
680.104	4576.52145
680.301	4570.23805
680.498	4327.12793
680.695	4362.77453
680.892	4526.24868
681.089	4415.1846
681.286	4295.66987
681.483	4012.33242
681.68	4490.63109
681.877	4255.81605
682.075	4612.12357
682.272	4155.09846
682.469	4549.29195
682.665	4320.83671
682.862	4480.15411
683.059	4287.28024
683.256	4582.80464
683.453	4228.5432
683.65	4505.29793
683.847	4165.59215
684.044	4484.34497
684.241	4132.01049
684.438	4921.79626
684.635	4396.31854
684.831	4461.29417
685.028	4364.87119
685.225	4251.62046
685.422	4211.75812
685.619	4488.53574
685.815	4379.54723
686.012	4522.05871
686.209	4316.64245
686.405	4557.67066
686.602	4429.85698
686.799	4408.89611
686.996	4404.70367
687.192	4350.19409
687.389	4404.70367
687.586	4329.22497
687.782	4335.51593
687.979	4547.19722
688.175	4274.69514
688.372	4469.67659
688.568	4045.93306
688.765	4278.89026
688.962	4373.25763
689.158	4482.24955
689.355	4283.08529
689.551	4471.77214
689.748	4318.73959
689.944	4528.34364
690.14	4337.61288
690.337	4524.15371
690.533	4173.98672
690.73	4438.24071
690.926	4304.05916
691.123	4379.54723
691.319	4322.93381
691.515	4352.29089
691.712	4333.41896
691.908	4180.28243
692.104	4087.92642
692.301	4163.49345
692.497	4129.91145
692.693	4301.96187
692.889	4182.38096
693.086	4325.03088
693.282	4085.82695
693.478	4320.83671
693.674	4176.08531
693.87	4350.19409
694.067	4396.31854
694.263	4354.38766
694.459	4213.85633
694.655	4471.77214
694.851	4287.28024
695.047	4582.80464
695.243	4299.86456
695.439	4431.95294
695.635	4121.51512
695.831	4358.58114
696.027	4186.57795
696.224	4325.03088
696.42	4152.99966
696.615	4457.10283
696.811	4045.93306
697.007	4555.57602
697.203	4010.23221
697.399	4346.00044
697.595	4333.41896
697.791	4421.47289
697.987	4322.93381
698.183	4666.56137
698.379	4339.7098
698.575	4517.86865
698.77	4280.98779
698.966	4438.24071
699.162	4480.15411
699.358	4450.81565
699.554	4287.28024
699.749	4478.05865
699.945	4337.61288
700.141	4266.30465
700.337	4255.81605
700.532	4341.8067
700.728	4354.38766
700.924	4406.7999
701.119	4377.45072
701.315	4241.13112
701.511	3938.81276
701.706	4354.38766
701.902	4111.01922
702.097	4251.62046
702.293	4085.82695
702.489	4373.25763
702.684	4249.52264
702.88	4335.51593
703.075	4314.54529
703.271	4337.61288
703.466	4194.97168
703.662	4513.6785
703.857	4272.59755
704.053	4287.28024
704.248	4306.15643
704.443	4511.58339
704.639	4182.38096
704.834	4442.43244
705.03	4272.59755
705.225	4304.05916
705.42	4304.05916
705.616	4283.08529
705.811	4274.69514
706.006	4239.03318
706.202	4140.40641
706.397	4278.89026
706.592	4322.93381
706.787	4467.58101
706.983	4140.40641
707.178	4584.899
707.373	4283.08529
707.568	4394.22221
707.763	4220.15083
707.959	4538.81807
708.154	4241.13112
708.349	4354.38766
708.544	4222.24895
708.739	4360.67785
708.934	3985.02804
709.129	4452.9114
709.324	4253.71827
709.519	4390.02946
709.714	4094.2247
709.909	4402.60742
710.104	4087.92642
710.299	4283.08529
710.494	4232.73926
710.689	4322.93381
710.884	4006.03172
711.079	4289.37768
711.274	4075.32928
711.469	4471.77214
711.664	4152.99966
711.859	4352.29089
712.054	4203.36507
712.249	4102.62213
712.443	4094.2247
712.638	4144.60424
712.833	4020.73308
713.028	4287.28024
713.223	3890.48632
713.417	4354.38766
713.612	4092.1253
713.807	4522.05871
714.002	4087.92642
714.196	4297.76723
714.391	3898.89168
714.586	4243.22903
714.78	4148.80199
714.975	4155.09846
715.17	3917.80257
715.364	4064.8311
715.559	4132.01049
715.754	4371.16106
715.948	3966.12298
716.143	4102.62213
716.337	3987.1285
716.532	4213.85633
716.726	4008.13197
716.921	4291.4751
717.115	4100.5228
717.31	4358.58114
717.504	4060.63168
717.699	4272.59755
717.893	4054.33239
718.088	4266.30465
718.282	4308.25368
718.476	4220.15083
718.671	4014.43262
718.865	4377.45072
719.059	4048.03292
719.254	4136.20849
719.448	3873.67463
719.642	4140.40641
719.837	4119.41598
720.031	4119.41598
720.225	4043.83317
720.419	4203.36507
720.614	3779.08521
720.808	4226.44514
721.002	3959.82092
721.196	4182.38096
721.39	4161.39474
721.585	4205.46336
721.779	3987.1285
721.973	4190.77486
722.167	3755.95729
722.361	4161.39474
722.555	4119.41598
722.749	4169.78948
722.943	4006.03172
723.137	4096.32409
723.331	3926.20689
723.525	4119.41598
723.719	4001.83114
723.913	4037.53339
724.107	4029.1334
724.301	4236.93523
724.495	3934.61088
724.689	4173.98672
724.883	3821.12989
725.077	4171.88811
725.271	4001.83114
725.465	4111.01922
725.659	3816.92578
725.853	3989.22894
726.046	3938.81276
726.24	4079.52841
726.434	3749.64927
726.628	3945.11542
726.822	3879.97916
727.015	4100.5228
727.209	3951.4179
727.403	4115.21764
727.596	3934.61088
727.79	4096.32409
727.984	4020.73308
728.177	4255.81605
728.371	4014.43262
728.565	3985.02804
728.758	4033.33344
728.952	3989.22894
729.146	3894.68904
729.339	4098.42346
729.533	4119.41598
729.726	4299.86456
729.92	4062.7314
730.113	4222.24895
730.307	3945.11542
730.5	3900.99297
730.694	3875.77616
730.887	3961.92163
731.081	3909.39793
731.274	4136.20849
731.468	3894.68904
731.661	4132.01049
731.854	3879.97916
732.048	3968.22362
732.241	3867.36992
732.435	4125.71333
732.628	3993.42975
732.821	4043.83317
733.014	3966.12298
733.208	4127.8124
733.401	4098.42346
733.594	4178.18388
733.788	4108.91998
733.981	3976.62599
734.174	4211.75812
734.367	4320.83671
734.56	3995.53013
734.754	4069.03043
734.947	3953.51869
735.14	4008.13197
735.333	4077.42886
735.526	3926.20689
735.719	3865.26831
735.912	3934.61088
736.105	3922.00477
736.298	3999.73083
736.491	3976.62599
736.684	4016.53279
736.877	3846.35291
737.07	4006.03172
737.263	3884.18209
737.456	4209.65989
737.649	4108.91998
737.842	4001.83114
738.035	3829.53788
738.228	3863.16668
738.421	4077.42886
738.614	4260.01155
738.807	3995.53013
739	4016.53279
739.192	4102.62213
739.385	4012.33242
739.578	3970.32424
739.771	3858.96336
739.964	3947.21627
740.156	4113.11844
740.349	3793.80174
740.542	3930.40893
740.735	4018.63294
740.927	4104.72143
741.12	3825.33393
741.313	3943.01455
741.505	4008.13197
741.698	3919.90368
741.891	3905.19549
742.083	4320.83671
742.276	4127.8124
742.468	3913.60029
742.661	3896.79037
742.854	3961.92163
743.046	3850.55647
743.239	3991.32935
743.431	3974.52543
743.624	3953.51869
743.816	4102.62213
744.009	3966.12298
744.201	3926.20689
744.393	3844.25111
744.586	3783.29003
744.778	3894.68904
744.971	3821.12989
745.163	3991.32935
745.355	3955.61945
745.548	3936.71183
745.74	3827.43591
745.932	3879.97916
746.125	3812.72158
746.317	3961.92163
746.509	4010.23221
746.702	4001.83114
746.894	3890.48632
747.086	3917.80257
747.278	3802.21076
747.471	3846.35291
747.663	3793.80174
747.855	3751.75196
748.047	3896.79037
748.239	3905.19549
748.431	3816.92578
748.623	4029.1334
748.815	3938.81276
749.008	4127.8124
749.2	3917.80257
749.392	3936.71183
749.584	3926.20689
749.776	3961.92163
749.968	3932.50991
750.16	3867.36992
750.352	3816.92578
750.544	3892.58769
750.736	3804.31296
750.928	4079.52841
751.12	3999.73083
751.311	3947.21627
751.503	3900.99297
751.695	4001.83114
751.887	3884.18209
752.079	3894.68904
752.271	3770.67533
752.463	4127.8124
752.654	3982.92755
752.846	3976.62599
753.038	3852.65822
753.23	3938.81276
753.421	3913.60029
753.613	3953.51869
753.805	3751.75196
753.997	3934.61088
754.188	3734.92987
754.38	3739.13551
754.572	3673.93944
754.763	3749.64927
754.955	3633.97147
755.146	3812.72158
755.338	3753.85464
755.53	3810.61946
755.721	3718.10654
755.913	3930.40893
756.104	3562.43288
756.296	3737.0327
756.487	3488.76785
756.679	3625.55629
756.87	3581.37167
757.062	3585.58008
757.253	3734.92987
757.445	3705.48823
757.636	3631.8677
757.827	3560.32848
758.019	3711.79747
758.21	3623.45245
758.401	3598.20488
758.593	3690.766
758.784	3490.87288
758.975	3726.51836
759.167	3488.76785
759.358	3579.26743
759.549	3610.829
759.74	3615.03689
759.932	3495.08287
760.123	3617.14081
760.314	3442.45271
760.505	3497.18784
760.696	3372.9638
760.888	3661.31871
761.079	3421.3975
761.27	3734.92987
761.461	3471.92699
761.652	3429.8198
761.843	3608.72503
762.034	3564.53727
762.225	3402.44629
762.416	3539.28344
762.607	3482.45266
762.798	3455.08498
762.989	3707.59133
763.18	3532.96957
763.371	3328.73363
763.562	3482.45266
763.753	3547.70168
763.944	3455.08498
764.135	3404.55206
764.326	3604.51702
764.517	3482.45266
764.708	3572.95462
764.899	3442.45271
765.089	3478.24245
765.28	3290.81599
765.471	3349.79657
765.662	3280.28233
765.853	3335.05269
766.043	3248.67881
766.234	3227.6077
766.425	2964.08263
766.615	3261.32068
766.806	3139.091
766.997	3229.71489
767.187	3185.4605
767.378	3391.91723
767.569	3320.30796
767.759	3297.13598
767.95	3084.28066
768.141	3349.79657
768.331	3170.70742
768.522	3349.79657
768.712	3690.766
768.903	3638.17895
769.093	3467.71659
769.284	3349.79657
769.474	3273.96193
769.665	3324.52083
769.855	3128.55139
770.046	3221.28604
770.236	3058.97997
770.426	3187.56801
770.617	3210.74961
770.807	3311.88203
770.998	3174.92267
771.188	3126.44342
771.378	3077.9557
771.569	3143.30673
771.759	2932.44341
771.949	2826.95572
772.139	3080.06403
772.33	3056.87148
772.52	3077.9557
772.71	3143.30673
772.9	2831.17591
773.09	3067.41378
773.281	3054.76297
773.471	3139.091
773.661	3145.41458
773.851	3158.06129
774.041	3058.97997
774.231	3050.54591
774.421	2974.6283
774.611	3046.32879
774.802	3002.04527
774.992	3025.24224
775.182	2909.2392
775.372	3042.1116
775.562	2826.95572
775.752	3105.36283
775.942	2805.85395
776.131	2987.2826
776.321	2761.53575
776.511	3149.63021
776.701	3016.80719
776.891	2934.55279
777.081	2833.28599
777.271	3016.80719
777.461	2991.50058
777.651	3092.71372
777.84	2805.85395
778.03	3002.04527
778.22	2780.53
778.41	3118.01137
778.599	2748.87231
778.789	2890.25264
778.979	2746.76169
779.169	2839.61612
779.358	2658.10385
779.548	2814.29482
779.738	2860.71566
779.927	2898.69126
780.117	2894.47198
780.307	2693.99192
780.496	2537.74716
780.686	2746.76169
780.875	2577.87041
781.065	2886.03324
781.254	2679.21493
781.444	2974.6283
781.633	2693.99192
781.823	2679.21493
782.012	2579.98204
782.202	2658.10385
782.391	2776.30915
782.581	2839.61612
782.77	2826.95572
782.96	2898.69126
783.149	2788.97153
783.338	3033.67705
783.528	2940.88086
783.717	2890.25264
783.906	2679.21493
784.096	2765.75679
784.285	2647.54784
784.474	2696.10287
784.663	2704.54653
784.853	2630.65757
785.042	2662.32617
785.231	2670.77065
785.42	2603.2092
785.61	2649.65907
785.799	2449.03895
785.988	2668.65955
786.177	2493.39553
786.366	2592.65158
786.555	2506.06794
786.744	2721.43323
786.933	2634.88022
787.122	2670.77065
787.312	2611.65507
787.501	2607.43216
787.69	2531.41152
787.879	2579.98204
788.068	2318.0542
788.257	2413.12774
788.445	2117.2815
788.634	2653.88149
788.823	2351.86046
789.012	2632.7689
789.201	2461.71276
789.39	2404.67759
789.579	2353.97326
789.768	2273.67976
789.957	2277.90607
790.145	2495.50763
790.334	2326.506
790.523	2525.07578
790.712	2425.80264
790.9	2668.65955
791.089	2468.04951
791.278	2453.2636
791.467	2451.15128
791.655	2512.40399
791.844	2326.506
792.033	2461.71276
792.221	2263.11381
792.41	2548.30632
792.599	2191.25942
792.787	2510.29198
792.976	2366.6499
793.164	2425.80264
793.353	2444.81427
793.541	2577.87041
793.73	2379.32616
793.918	2434.25236
794.107	2307.48924
794.295	2334.95764
794.484	2153.21487
794.672	2324.39307
794.861	2172.23748
795.049	2493.39553
795.238	2250.43437
795.426	2417.35274
795.614	2341.29627
795.803	2482.83489
795.991	2280.01922
796.179	2438.47715
796.368	2366.6499
796.556	2151.1012
796.744	2129.96413
796.932	2256.77413
797.121	2206.0538
797.309	2282.13235
797.497	2189.14591
797.685	2364.53715
797.874	2163.78307
798.062	2372.98808
798.25	2148.98753
798.438	2446.92661
798.626	2110.94009
798.814	2341.29627
799.002	2146.87385
799.19	2079.23199
799.378	2053.86433
799.566	2138.41905
799.755	2003.126
799.943	2180.69176
800.131	2248.32109
800.318	2248.32109
800.506	2022.15333
800.694	2305.37622
800.882	2146.87385
801.07	2398.33988
801.258	2106.71244
801.446	2123.62285
801.634	2218.73435
801.822	2049.63629
802.01	1965.06978
802.197	2015.81095
802.385	2045.40821
802.573	2392.00206
802.761	2180.69176
802.949	2212.39411
803.136	2104.5986
803.324	2341.29627
803.512	2129.96413
803.699	1986.21238
803.887	2075.00412
804.075	2182.80531
804.262	2138.41905
804.45	2284.24548
804.638	2189.14591
804.825	2364.53715
805.013	2165.89668
805.201	2043.29417
805.388	2087.68765
805.576	2132.07787
805.763	2098.25705
805.951	2322.28012
806.138	2151.1012
806.326	2142.64647
806.513	2064.43431
806.701	2203.94034
806.888	2036.95199
807.075	2379.32616
807.263	2032.72383
807.45	2360.31162
807.638	2163.78307
807.825	2241.98122
808.012	1943.92658
808.2	2148.98753
808.387	2001.01182
808.574	2375.10078
808.761	2290.5848
808.949	2282.13235
809.136	1973.52689
809.323	2436.36476
809.51	2180.69176
809.698	2187.03238
809.885	1996.78344
810.072	2216.62095
810.259	2113.0539
810.446	2189.14591
810.633	2032.72383
810.82	2311.71525
811.008	2229.30125
811.195	2301.15014
811.382	2222.96114
811.569	2299.03709
811.756	2115.16771
811.943	2168.01029
812.13	2165.89668
812.317	2408.90269
812.504	2261.00059
812.691	2288.4717
812.878	2189.14591
813.064	2252.54763
813.251	2263.11381
813.438	2413.12774
813.625	2290.5848
813.812	2315.94123
813.999	2239.86792
814.186	2214.50754
814.372	2119.39529
814.559	2165.89668
814.746	1988.3266
814.933	2138.41905
815.12	2117.2815
815.306	2197.59992
815.493	2085.57374
815.68	2419.46523
815.866	2066.54829
816.053	2197.59992
816.24	2043.29417
816.426	2303.26319
816.613	2267.34022
816.799	2332.84475
816.986	2299.03709
817.173	2256.77413
817.359	1927.01159
817.546	2250.43437
817.732	2100.37091
817.919	2098.25705
818.105	2172.23748
818.292	2231.4146
818.478	2096.14319
818.665	2282.13235
818.851	1884.72255
819.037	2155.32852
819.224	2047.52225
819.41	2248.32109
819.597	2146.87385
819.783	2241.98122
819.969	2045.40821
820.156	2296.92403
820.342	2087.68765
820.528	2277.90607
820.714	1954.49825
820.901	2254.66088
821.087	2106.71244
821.273	2206.0538
821.459	2087.68765
821.646	2252.54763
821.832	2053.86433
822.018	2267.34022
822.204	1975.64116
822.39	2222.96114
822.576	1996.78344
822.762	2022.15333
822.948	2005.24018
823.134	2098.25705
823.32	1950.2696
823.507	2157.44217
823.693	2032.72383
823.879	2212.39411
824.065	2129.96413
824.25	2290.5848
824.436	2096.14319
824.622	2193.37293
824.808	2083.45983
824.994	2163.78307
825.18	1884.72255
825.366	2187.03238
825.552	1876.26449
825.738	2208.16724
825.923	1903.75289
826.109	2222.96114
826.295	1977.75541
826.481	2250.43437
826.667	1969.29835
826.852	2174.35106
827.038	2108.82627
827.224	2132.07787
827.409	1903.75289
827.595	2163.78307
827.781	1886.83705
827.966	2058.09234
828.152	1787.45017
828.338	2036.95199
828.523	1880.49353
828.709	1907.98179
828.894	1874.14996
829.08	1842.43143
829.266	1952.38393
829.451	2113.0539
829.637	1715.54747
829.822	1823.3998
830.008	1732.46613
830.193	1965.06978
830.378	1690.16909
830.564	2045.40821
830.749	1698.6286
830.935	1876.26449
831.12	1698.6286
831.305	1833.97297
831.491	1850.88981
831.676	1901.63843
831.861	1776.87652
832.047	1812.82651
832.232	1660.56045
832.417	1927.01159
832.602	1766.30277
832.788	1948.15526
832.973	1853.0044
833.158	1920.66837
833.343	1588.65175
833.528	1681.70954
833.714	1664.79029
833.899	1895.29501
834.084	1914.32511
834.269	1872.03543
834.454	1656.3306
834.639	1922.78278
834.824	1770.53228
835.009	1901.63843
835.194	1791.6796
835.379	1812.82651
835.564	1592.88174
835.749	1825.51444
835.934	1709.20292
836.119	1891.06604
836.304	1635.1812
836.489	1588.65175
836.674	1652.10074
836.859	1690.16909
837.044	1514.62601
837.228	1759.95847
837.413	1609.80162
837.598	1878.37901
837.783	1565.38669
837.968	1696.51373
838.152	1533.66134
838.337	1696.51373
838.522	1563.27168
838.707	1656.3306
838.891	1645.75593
839.076	1626.72138
839.261	1506.16584
839.445	1643.64099
839.63	1531.54631
839.815	1597.11172
839.999	1468.09497
840.184	1683.82443
840.368	1408.87355
840.553	1559.04165
840.737	1626.72138
840.922	1656.3306
841.106	1571.73173
841.291	1440.5993
841.475	1508.28089
841.66	1512.51097
841.844	1438.48424
842.029	1671.13503
842.213	1360.22769
842.397	1525.2012
842.582	1309.46748
842.766	1512.51097
842.951	1463.86487
843.135	1525.2012
843.319	1449.0595
843.504	1565.38669
843.688	1504.0508
843.872	1554.81161
844.056	1463.86487
844.241	1588.65175
844.425	1410.9886
844.609	1614.03157
844.793	1330.61746
844.977	1487.13043
845.161	1294.66261
845.346	1402.52841
845.53	1250.24866
845.714	1470.21003
845.898	1292.54764
846.082	1432.13909
846.266	1286.20273
846.45	1529.43128
846.634	1343.30752
846.818	1394.06824
847.002	1224.86978
847.186	1345.42254
847.37	1178.34303
847.554	1383.49304
847.738	1226.98467
847.922	1404.64346
848.106	1336.96248
848.29	1495.59062
848.473	1267.16813
848.657	1404.64346
848.841	1193.14681
849.025	1489.24548
849.209	1218.52513
849.392	1442.71435
849.576	1210.06564
849.76	1248.13374
849.944	1174.11341
850.127	1224.86978
850.311	1136.04754
850.495	1377.14793
850.678	1163.53942
850.862	1330.61746
851.046	1155.08031
851.229	1281.9728
851.413	1180.45784
851.596	1453.28961
851.78	1199.49135
851.964	1326.38745
852.147	1136.04754
852.331	1254.47851
852.514	992.2574
852.698	1203.72105
852.881	1074.72225
853.065	1125.47393
853.248	1021.85913
853.431	1072.60766
853.615	988.02869
853.798	1207.95077
853.982	983.8
854.165	1258.70837
854.348	1093.7538
854.532	1117.01513
854.715	1072.60766
854.898	1222.75489
855.081	1049.34751
855.265	1119.12982
855.448	962.65695
855.631	1163.53942
855.814	1066.26392
855.997	1104.32706
856.181	988.02869
856.364	996.48615
856.547	928.82952
856.73	1081.06605
856.913	949.97145
857.096	1030.31699
857.279	952.08568
857.462	988.02869
857.645	884.43395
857.828	1000.71491
858.011	941.51459
858.194	1072.60766
858.377	761.83724
858.56	956.31416
858.743	905.57427
858.926	1076.83684
859.109	992.2574
859.292	1026.08805
859.475	939.40039
859.658	1013.40137
859.841	804.10846
860.023	956.31416
860.206	785.08593
860.389	888.66195
860.572	914.03062
860.755	928.82952
860.937	981.68566
861.12	871.75015
861.303	947.85722
861.486	1004.94371
861.668	895.00401
861.851	954.19992
862.034	780.85881
862.216	895.00401
862.399	753.38348
862.581	848.4973
862.764	751.27006
862.947	878.09201
863.129	751.27006
863.312	903.4602
863.494	795.65391
863.677	835.81437
863.859	829.47302
864.042	930.94368
864.224	776.63172
864.406	831.58679
864.589	683.64637
864.771	878.09201
864.954	632.93621
865.136	675.19421
865.318	683.64637
865.501	668.85521
865.683	643.50026
865.865	763.95071
866.048	700.55124
866.23	713.23036
866.412	670.9682
866.594	675.19421
866.777	677.30723
866.959	823.13176
867.141	571.67092
867.323	770.29117
867.505	666.74223
867.687	681.53331
867.869	592.79566
868.052	785.08593
868.234	609.69639
868.416	725.90988
868.598	654.06461
868.78	753.38348
868.962	677.30723
869.144	677.30723
869.326	567.44613
869.508	747.04326
869.69	590.68313
869.872	713.23036
870.054	567.44613
870.236	696.32496
870.417	580.12066
870.599	734.3631
870.781	548.43524
870.963	616.03437
871.145	641.38743
871.327	734.3631
871.508	594.90821
871.69	719.57007
871.872	518.86497
872.054	763.95071
872.235	491.40936
872.417	696.32496
872.599	658.29044
872.78	632.93621
872.962	582.23313
873.144	601.24592
873.325	620.25976
873.507	645.61311
873.689	556.88439
873.87	647.72597
874.052	548.43524
874.233	692.09872
874.415	599.13334
874.596	641.38743
874.778	561.10904
874.959	561.10904
875.141	556.88439
875.322	658.29044
875.503	597.02077
875.685	649.83884
875.866	694.21183
876.048	573.78333
876.229	447.06329
876.41	531.53761
876.592	565.33375
876.773	575.89576
876.954	563.22139
877.136	643.50026
877.317	605.47113
877.498	709.00395
877.679	641.38743
877.86	734.3631
878.042	677.30723
878.223	616.03437
878.404	592.79566
878.585	660.40337
878.766	609.69639
878.947	673.0812
879.128	535.76193
879.309	643.50026
879.49	626.59793
879.672	626.59793
879.853	641.38743
880.034	641.38743
880.215	641.38743
880.396	694.21183
880.576	573.78333
880.757	662.51631
880.938	666.74223
881.119	599.13334
881.3	567.44613
881.481	702.6644
881.662	567.44613
881.843	670.9682
882.023	662.51631
882.204	700.55124
882.385	476.6266
882.566	565.33375
882.747	590.68313
882.927	738.58978
883.108	618.14706
883.289	666.74223
883.469	628.71068
883.65	702.6644
883.831	599.13334
884.011	706.89075
884.192	694.21183
884.373	768.17767
884.553	675.19421
884.734	747.04326
884.914	594.90821
885.095	723.7966
885.275	626.59793
885.456	835.81437
885.636	611.80904
885.817	683.64637
885.997	738.58978
886.178	751.27006
886.358	647.72597
886.538	709.00395
886.719	679.42027
886.899	706.89075
887.08	590.68313
887.26	751.27006
887.44	618.14706
887.621	618.14706
887.801	666.74223
887.981	675.19421
888.161	719.57007
888.342	647.72597
888.522	624.48519
888.702	753.38348
888.882	628.71068
889.062	751.27006
889.242	709.00395
889.423	618.14706
889.603	603.35852
889.783	713.23036
889.963	603.35852
890.143	757.61034
890.323	696.32496
890.503	673.0812
890.683	658.29044
890.863	753.38348
891.043	594.90821
891.223	723.7966
891.403	578.0082
891.583	662.51631
891.763	601.24592
891.943	662.51631
892.122	666.74223
892.302	666.74223
892.482	607.58375
892.662	744.92987
892.842	535.76193
893.022	635.049
893.201	649.83884
893.381	694.21183
893.561	573.78333
893.741	719.57007
893.92	624.48519
894.1	626.59793
894.28	622.37247
894.459	687.87252
894.639	523.08913
894.819	651.95172
894.998	558.99671
895.178	565.33375
895.357	548.43524
895.537	616.03437
895.716	518.86497
895.896	550.54751
896.075	514.64087
896.255	586.4581
896.434	449.17485
896.614	582.23313
896.793	472.40309
896.973	542.09852
897.152	421.72573
897.331	639.27461
897.511	455.50964
897.69	599.13334
897.87	463.95624
898.049	578.0082
898.228	451.28643
898.407	421.72573
898.587	476.6266
898.766	611.80904
898.945	520.97704
899.124	472.40309
899.304	565.33375
899.483	527.31334
899.662	404.83529
899.841	474.51483
900.02	434.39422
900.199	531.53761
900.378	461.84457
900.557	497.74505
900.737	453.39803
900.916	491.40936
901.095	444.95174
901.274	451.28643
901.453	409.05781
901.632	497.74505
901.811	438.61718
901.989	394.2793
902.168	415.39169
902.347	447.06329
902.526	455.50964
902.705	451.28643
902.884	297.18413
903.063	478.73838
903.242	383.72372
903.42	463.95624
903.599	421.72573
903.778	385.8348
903.957	339.39489
904.135	354.17033
904.314	303.51529
904.493	390.05702
904.672	339.39489
904.85	320.39917
905.029	295.07378
905.207	364.72473
905.386	341.50562
905.565	413.28038
905.743	280.30186
905.922	314.06758
906.1	347.8379
906.279	415.39169
906.457	278.19166
906.636	320.39917
906.814	278.19166
906.993	339.39489
907.171	354.17033
907.35	290.85314
907.528	284.52232
907.707	261.31072
907.885	185.36184
908.063	286.63257
908.242	337.28419
908.42	301.40489
908.598	278.19166
908.777	214.89448
908.955	244.431
909.133	225.4428
909.311	252.87071
909.49	265.53084
909.668	235.99161
909.846	280.30186
910.024	246.5409
910.202	252.87071
910.38	214.89448
910.559	265.53084
910.737	242.32113
910.915	257.09068
911.093	254.98069
911.271	212.78487
911.449	244.431
911.627	254.98069
911.805	185.36184
911.983	189.58055
912.161	231.77202
912.339	290.85314
912.517	276.08147
912.695	221.22341
912.872	263.42077
913.05	282.41208
913.228	138.96154
913.406	164.26954
913.584	254.98069
913.762	303.51529
913.939	176.92467
914.117	290.85314
914.295	206.45618
914.473	341.50562
914.65	235.99161
914.828	254.98069
915.006	244.431
915.184	295.07378
915.361	225.4428
915.539	267.64093
915.716	259.20069
915.894	297.18413
916.072	214.89448
916.249	265.53084
916.427	231.77202
916.604	210.67529
916.782	195.90876
916.959	198.0182
917.137	235.99161
917.314	303.51529
917.492	221.22341
917.669	252.87071
917.847	227.55252
918.024	244.431
918.201	172.70621
918.379	280.30186
918.556	217.0041
918.733	227.55252
918.911	202.23715
919.088	170.59702
919.265	136.85268
919.442	238.10143
919.62	273.97131
919.797	246.5409
919.974	227.55252
920.151	214.89448
920.328	187.47118
920.506	252.87071
920.683	162.16043
920.86	288.74285
921.037	202.23715
921.214	259.20069
921.391	229.66226
921.568	219.11374
921.745	223.33309
921.922	101.00532
922.099	235.99161
922.276	242.32113
922.453	130.52622
922.63	176.92467
922.807	92.57157
922.984	149.50617
923.161	187.47118
923.338	204.34665
923.514	183.25252
923.691	193.79933
923.868	176.92467
924.045	210.67529
924.222	164.26954
924.399	176.92467
924.575	153.72418
924.752	189.58055
924.929	193.79933
925.105	204.34665
925.282	278.19166
925.459	166.37868
925.635	111.54801
925.812	185.36184
925.989	191.68993
926.165	147.39721
926.342	164.26954
926.518	113.65661
926.695	71.48875
926.871	160.05133
927.048	151.61516
927.224	69.38059
927.401	117.87389
927.577	113.65661
927.754	126.30869
927.93	145.28826
928.107	193.79933
928.283	138.96154
928.459	128.41744
928.636	103.11382
928.812	46.19237
928.988	88.35483
929.165	75.70514
929.341	77.81336
929.517	101.00532
929.693	143.17933
929.87	143.17933
930.046	126.30869
930.222	63.05626
930.398	128.41744
930.574	63.05626
930.751	138.96154
930.927	35.65319
931.103	77.81336
931.279	75.70514
931.455	63.05626
931.631	98.89685
931.807	198.0182
931.983	143.17933
932.159	71.48875
932.335	75.70514
932.511	69.38059
932.687	160.05133
932.863	105.22233
933.039	134.74384
933.215	92.57157
933.391	73.59693
933.566	84.13817
933.742	67.27246
933.918	44.08449
934.094	16.68414
934.27	170.59702
934.445	71.48875
934.621	52.51615
934.797	119.98255
934.973	50.4082
935.148	79.92161
935.324	60.94819
935.5	84.13817
935.675	-12.81942
935.851	58.84015
936.027	10.36155
936.202	20.89932
936.378	-0.17561
936.553	60.94819
936.729	84.13817
936.904	71.48875
937.08	44.08449
937.255	20.89932
937.431	16.68414
937.606	27.22227
937.782	48.30027
937.957	75.70514
938.133	-6.49763
938.308	67.27246
938.483	58.84015
938.659	33.54542
938.834	75.70514
939.009	67.27246
939.185	-42.31821
939.36	16.68414
939.535	-10.71218
939.71	33.54542
939.886	35.65319
940.061	75.70514
940.236	58.84015
940.411	44.08449
940.586	65.16435
940.761	94.67998
940.937	50.4082
941.112	46.19237
941.287	-17.03383
941.462	-23.35526
941.637	-4.39031
941.812	35.65319
941.987	-0.17561
942.162	35.65319
942.337	1.93177
942.512	33.54542
942.687	-25.46235
942.862	25.11459
943.037	-10.71218
943.212	37.76098
943.386	-80.238
943.561	16.68414
943.736	41.97663
943.911	18.79172
944.086	-6.49763
944.26	58.84015
944.435	-0.17561
944.61	1.93177
944.785	67.27246
944.959	20.89932
945.134	18.79172
945.309	46.19237
945.483	-0.17561
945.658	-40.21131
945.833	10.36155
946.007	-2.28298
946.182	-8.60492
946.357	33.54542
946.531	25.11459
946.706	-33.89048
946.88	10.36155
947.055	29.32996
947.229	54.62413
947.404	8.25407
947.578	-8.60492
947.752	-0.17561
947.927	41.97663
948.101	-46.53192
948.276	52.51615
948.45	90.46319
948.624	16.68414
948.799	69.38059
948.973	52.51615
949.147	14.57659
949.321	27.22227
949.496	-17.03383
949.67	25.11459
949.844	33.54542
950.018	27.22227
950.193	-0.17561
950.367	-12.81942
950.541	-2.28298
950.715	94.67998
950.889	16.68414
951.063	-23.35526
951.237	8.25407
951.411	12.46906
951.585	-40.21131
951.759	18.79172
951.933	71.48875
952.107	10.36155
952.281	-76.0251
952.455	44.08449
952.629	23.00695
952.803	10.36155
952.977	101.00532
953.151	-40.21131
953.325	20.89932
953.499	-25.46235
953.672	16.68414
953.846	56.73213
954.02	27.22227
954.194	-0.17561
954.368	35.65319
954.541	27.22227
954.715	18.79172
954.889	117.87389
955.062	25.11459
955.236	20.89932
955.41	1.93177
955.583	16.68414
955.757	25.11459
955.93	-38.10439
956.104	35.65319
956.278	58.84015
956.451	41.97663
956.625	-21.24814
956.798	29.32996
956.972	-17.03383
957.145	-8.60492
957.319	16.68414
957.492	69.38059
957.665	-17.03383
957.839	138.96154
958.012	4.03918
958.185	-52.8523
958.359	-42.31821
958.532	44.08449
958.705	8.25407
958.879	35.65319
959.052	-8.60492
959.225	16.68414
959.398	-17.03383
959.572	33.54542
959.745	8.25407
959.918	65.16435
960.091	25.11459
960.264	94.67998
960.438	67.27246
960.611	41.97663
960.784	-8.60492
960.957	41.97663
961.13	-65.49239
961.303	16.68414
961.476	23.00695
961.649	50.4082
961.822	16.68414
961.995	12.46906
962.168	73.59693
962.341	58.84015
962.514	44.08449
962.686	-10.71218
962.859	-25.46235
963.032	50.4082
963.205	-67.59898
963.378	-50.74553
963.551	-21.24814
963.723	-4.39031
963.896	-17.03383
964.069	33.54542
964.242	50.4082
964.414	8.25407
964.587	-12.81942
964.76	84.13817
964.932	10.36155
965.105	79.92161
965.278	8.25407
965.45	33.54542
965.623	-59.17246
965.795	41.97663
965.968	23.00695
966.14	92.57157
966.313	-29.67646
966.485	20.89932
966.658	-0.17561
966.83	-0.17561
967.003	25.11459
967.175	-6.49763
967.348	41.97663
967.52	35.65319
967.692	-8.60492
967.865	58.84015
968.037	-4.39031
968.209	-59.17246
968.382	25.11459
968.554	58.84015
968.726	16.68414
968.898	50.4082
969.071	79.92161
969.243	8.25407
969.415	8.25407
969.587	8.25407
969.759	-25.46235
969.932	23.00695
970.104	50.4082
970.276	-21.24814
970.448	50.4082
970.62	-29.67646
970.792	1.93177
970.964	27.22227
971.136	44.08449
971.308	-25.46235
971.48	8.25407
971.652	69.38059
971.824	-25.46235
971.996	12.46906
972.168	12.46906
972.339	-44.42508
972.511	94.67998
972.683	96.7884
972.855	111.54801
973.027	84.13817
973.199	69.38059
973.37	12.46906
973.542	105.22233
973.714	12.46906
973.886	73.59693
974.057	31.43768
974.229	52.51615
974.401	4.03918
974.572	-4.39031
974.744	37.76098
974.915	-6.49763
975.087	103.11382
975.259	58.84015
975.43	-8.60492
975.602	-31.78348
975.773	-4.39031
975.945	25.11459
976.116	-8.60492
976.288	33.54542
976.459	50.4082
976.63	33.54542
976.802	20.89932
976.973	27.22227
977.145	-10.71218
977.316	-12.81942
977.487	67.27246
977.659	-46.53192
977.83	-21.24814
978.001	50.4082
978.172	58.84015
978.344	8.25407
978.515	-25.46235
978.686	12.46906
978.857	46.19237
979.028	-4.39031
979.2	71.48875
979.371	-29.67646
979.542	77.81336
979.713	20.89932
979.884	-57.06577
980.055	4.03918
980.226	-92.87609
980.397	-46.53192
980.568	-19.141
980.739	-12.81942
980.91	-29.67646
981.081	-19.141
981.252	41.97663
981.423	-50.74553
981.594	-38.10439
981.765	-29.67646
981.936	46.19237
982.106	-21.24814
982.277	29.32996
982.448	-6.49763
982.619	29.32996
982.79	-10.71218
982.96	-6.49763
983.131	12.46906
983.302	18.79172
983.472	56.73213
983.643	-33.89048
983.814	48.30027
983.984	69.38059
984.155	-63.38577
984.326	77.81336
984.496	46.19237
984.667	63.05626
984.837	-23.35526
985.008	-4.39031
985.178	50.4082
985.349	52.51615
985.519	27.22227
985.69	33.54542
985.86	-54.95905
986.031	-38.10439
986.201	88.35483
986.371	33.54542
986.542	6.14661
986.712	77.81336
986.882	-25.46235
987.053	27.22227
987.223	16.68414
987.393	-40.21131
987.563	-25.46235
987.734	69.38059
987.904	-29.67646
988.074	16.68414
988.244	6.14661
988.414	16.68414
988.585	18.79172
988.755	-23.35526
988.925	-33.89048
989.095	14.57659
989.265	18.79172
989.435	8.25407
989.605	-14.92664
989.775	96.7884
989.945	16.68414
990.115	37.76098
990.285	-52.8523
990.455	33.54542
990.625	18.79172
990.795	8.25407
990.965	1.93177
991.134	-8.60492
991.304	14.57659
991.474	37.76098
991.644	6.14661
991.814	1.93177
991.984	-14.92664
992.153	-73.91861
992.323	-8.60492
992.493	-0.17561
992.662	-8.60492
992.832	52.51615
993.002	-40.21131
993.171	117.87389
993.341	-21.24814
993.511	20.89932
993.68	-38.10439
993.85	37.76098
994.019	27.22227
994.189	-29.67646
994.358	4.03918
994.528	-107.61934
994.697	10.36155
994.867	10.36155
995.036	-25.46235
995.206	35.65319
995.375	-40.21131
995.544	134.74384
995.714	-25.46235
995.883	-8.60492
996.052	-25.46235
996.222	10.36155
996.391	-50.74553
996.56	-4.39031
996.73	39.86879
996.899	-57.06577
997.068	25.11459
997.237	-21.24814
997.406	8.25407
997.576	25.11459
997.745	-0.17561
997.914	-76.0251
998.083	10.36155
998.252	50.4082
998.421	-0.17561
998.59	33.54542
998.759	50.4082
998.928	-35.99745
999.097	44.08449
999.266	-61.27913
999.435	50.4082
999.604	41.97663
999.773	12.46906
999.942	56.73213
1000.111	16.68414
1000.28	-61.27913
1000.448	4.03918
1000.617	-4.39031
1000.786	37.76098
1000.955	50.4082
1001.124	12.46906
1001.292	20.89932
1001.461	-25.46235
1001.63	20.89932
1001.798	6.14661
1001.967	18.79172
1002.136	-67.59898
1002.304	14.57659
1002.473	-48.63874
1002.642	12.46906
1002.81	-2.28298
1002.979	16.68414
1003.147	-12.81942
1003.316	-59.17246
1003.484	25.11459
1003.653	-8.60492
1003.821	-48.63874
1003.99	-31.78348
1004.158	46.19237
1004.327	-76.0251
1004.495	-17.03383
1004.663	-12.81942
1004.832	-14.92664
1005	1.93177
1005.168	27.22227
1005.337	-6.49763
1005.505	-21.24814
1005.673	50.4082
1005.842	6.14661
1006.01	1.93177
1006.178	-44.42508
1006.346	-27.56942
1006.514	20.89932
1006.683	-57.06577
1006.851	-25.46235
1007.019	23.00695
1007.187	6.14661
1007.355	-21.24814
1007.523	35.65319
1007.691	-33.89048
1007.859	-50.74553
1008.027	18.79172
1008.195	-23.35526
1008.363	-6.49763
1008.531	-82.34441
1008.699	-17.03383
1008.867	-29.67646
1009.035	86.24649
1009.203	-57.06577
1009.37	41.97663
1009.538	-31.78348
1009.706	27.22227
1009.874	-27.56942
1010.042	-8.60492
1010.209	-67.59898
1010.377	41.97663
1010.545	-57.06577
1010.713	37.76098
1010.88	-42.31821
1011.048	-27.56942
1011.216	20.89932
1011.383	29.32996
1011.551	-52.8523
1011.718	-21.24814
1011.886	20.89932
1012.054	12.46906
1012.221	8.25407
1012.389	18.79172
1012.556	-21.24814
1012.724	65.16435
1012.891	48.30027
1013.058	-4.39031
1013.226	4.03918
1013.393	-46.53192
1013.561	-29.67646
1013.728	8.25407
1013.895	-38.10439
1014.063	10.36155
1014.23	8.25407
1014.397	-80.238
1014.565	-44.42508
1014.732	-23.35526
1014.899	-54.95905
1015.066	-50.74553
1015.233	-50.74553
1015.401	20.89932
1015.568	-50.74553
1015.735	-10.71218
1015.902	-8.60492
1016.069	-42.31821
1016.236	25.11459
1016.403	-48.63874
1016.57	-42.31821
1016.737	-8.60492
1016.904	-50.74553
1017.071	-44.42508
1017.238	-8.60492
1017.405	41.97663
1017.572	-31.78348
1017.739	-6.49763
1017.906	-38.10439
1018.073	4.03918
1018.24	-73.91861
1018.407	-14.92664
1018.573	12.46906
1018.74	105.22233
1018.907	10.36155
1019.074	-0.17561
1019.241	27.22227
1019.407	41.97663
1019.574	-31.78348
1019.741	-71.81209
1019.907	41.97663
1020.074	-17.03383
1020.241	-12.81942
1020.407	-21.24814
1020.574	-73.91861
1020.74	-6.49763
1020.907	-35.99745
1021.073	-50.74553
1021.24	-84.4508
1021.406	27.22227
1021.573	-17.03383
1021.739	-35.99745
1021.906	-42.31821
1022.072	69.38059
1022.239	-33.89048
1022.405	-84.4508
1022.571	-0.17561
1022.738	-14.92664
1022.904	4.03918
1023.07	-29.67646
1023.237	10.36155
1023.403	18.79172
1023.569	1.93177
1023.735	27.22227
1023.902	-42.31821
1024.068	-73.91861
1024.234	-8.60492
1024.4	10.36155
1024.566	-40.21131
1024.732	12.46906
1024.898	-88.66349
1025.065	-14.92664
1025.231	-8.60492
1025.397	-0.17561
1025.563	23.00695
1025.729	-48.63874
1025.895	58.84015
1026.061	-25.46235
1026.227	84.13817
1026.392	-10.71218
1026.558	14.57659
1026.724	25.11459
1026.89	25.11459
1027.056	-8.60492
1027.222	29.32996
1027.388	-38.10439
1027.553	-12.81942
1027.719	-63.38577
1027.885	44.08449
1028.051	20.89932
1028.216	-17.03383
1028.382	-50.74553
1028.548	-59.17246
1028.713	-65.49239
1028.879	52.51615
1029.045	-12.81942
1029.21	8.25407
1029.376	10.36155
1029.541	-50.74553
1029.707	37.76098
1029.873	33.54542
1030.038	-21.24814
1030.204	-46.53192
1030.369	1.93177
1030.534	-12.81942
1030.7	25.11459
1030.865	29.32996
1031.031	-19.141
1031.196	-59.17246
1031.361	-88.66349
1031.527	-50.74553
1031.692	-57.06577
1031.857	-46.53192
1032.023	33.54542
1032.188	20.89932
1032.353	-65.49239
1032.518	-0.17561
1032.684	-21.24814
1032.849	-19.141
1033.014	-29.67646
1033.179	8.25407
1033.344	41.97663
1033.509	-19.141
1033.674	44.08449
1033.839	-12.81942
1034.004	-10.71218
1034.17	1.93177
1034.335	33.54542
1034.5	-2.28298
1034.664	50.4082
1034.829	67.27246
1034.994	-31.78348
1035.159	-12.81942
1035.324	41.97663
1035.489	12.46906
1035.654	6.14661
1035.819	-31.78348
1035.984	-29.67646
1036.148	1.93177
1036.313	8.25407
1036.478	-8.60492
1036.643	-14.92664
1036.807	-29.67646
1036.972	-0.17561
1037.137	-42.31821
1037.301	8.25407
1037.466	-33.89048
1037.631	-6.49763
1037.795	-27.56942
1037.96	-17.03383
1038.124	-8.60492
1038.289	-84.4508
1038.454	14.57659
1038.618	-67.59898
1038.783	-6.49763
1038.947	8.25407
1039.111	41.97663
1039.276	-40.21131
1039.44	-8.60492
1039.605	-4.39031
1039.769	-17.03383
1039.933	-17.03383
1040.098	-14.92664
1040.262	-0.17561
1040.426	-8.60492
1040.591	-17.03383
1040.755	-33.89048
1040.919	48.30027
1041.083	-4.39031
1041.248	-6.49763
1041.412	-23.35526
1041.576	-27.56942
1041.74	-40.21131
1041.904	8.25407
1042.068	-0.17561
1042.232	29.32996
1042.397	-8.60492
1042.561	-84.4508
1042.725	8.25407
1042.889	-29.67646
1043.053	-23.35526
1043.217	-57.06577
1043.381	4.03918
1043.544	-38.10439
1043.708	52.51615
1043.872	1.93177
1044.036	-31.78348
1044.2	-88.66349
1044.364	-97.08857
1044.528	58.84015
1044.691	37.76098
1044.855	-4.39031
1045.019	16.68414
1045.183	-21.24814
1045.346	8.25407
1045.51	-8.60492
1045.674	-8.60492
1045.837	-25.46235
1046.001	-12.81942
1046.165	-14.92664
1046.328	4.03918
1046.492	8.25407
1046.655	-48.63874
1046.819	-4.39031
1046.983	-27.56942
1047.146	-73.91861
1047.31	41.97663
1047.473	-0.17561
1047.636	29.32996
1047.8	4.03918
1047.963	-67.59898
1048.127	-21.24814
1048.29	25.11459
