Data from mixed_try1_USB4F045381__6__00154.txt Node

Date: Thu Apr 03 20:07:54 EDT 2025
User: mmckonesweet
Spectrometer: USB4F04538
Trigger mode: 4
Integration Time (sec): 2.700000E-3
Scans to average: 1
Electric dark correction enabled: true
Nonlinearity correction enabled: true
Boxcar width: 0
XAxis mode: Wavelengths
Number of Pixels in Spectrum: 3648
>>>>>Begin Spectral Data<<<<<
345.52	16.15725
345.736	16.15725
345.952	16.15725
346.168	-25.98912
346.384	-9.13173
346.6	47.77329
346.816	-76.55171
347.032	22.48004
347.248	56.20513
347.464	39.34183
347.68	-0.70246
347.896	24.58768
348.112	-36.52418
348.328	-23.88203
348.544	20.37242
348.76	-38.63112
348.975	-34.41722
349.191	33.01848
349.407	22.48004
349.623	-42.84492
349.839	-42.84492
350.055	-9.13173
350.27	35.12624
350.486	-9.13173
350.702	7.72721
350.918	-59.69913
351.133	-49.16544
351.349	104.6952
351.565	33.01848
351.781	-4.91714
351.996	-76.55171
352.212	-72.33872
352.428	-9.13173
352.644	-40.73804
352.859	7.72721
353.075	-25.98912
353.291	41.44967
353.506	-51.27223
353.722	-34.41722
353.938	-9.13173
354.153	-0.70246
354.369	-7.02445
354.584	-74.44523
354.8	7.72721
355.016	-32.31023
355.231	-13.34623
355.447	-34.41722
355.662	-9.13173
355.878	35.12624
356.093	-47.05863
356.309	5.61975
356.524	-9.13173
356.74	51.98916
356.955	-25.98912
357.171	-55.48573
357.386	5.61975
357.602	7.72721
357.817	-7.02445
358.033	-7.02445
358.248	-4.91714
358.464	-21.77492
358.679	94.15287
358.895	56.20513
359.11	16.15725
359.325	7.72721
359.541	14.04971
359.756	35.12624
359.972	75.17808
360.187	-32.31023
360.402	45.6654
360.618	-42.84492
360.833	18.26482
361.048	-59.69913
361.264	-17.56062
361.479	-9.13173
361.694	-68.12563
361.909	33.01848
362.125	-42.84492
362.34	56.20513
362.555	-15.45344
362.77	11.94218
362.986	-23.88203
363.201	-11.23899
363.416	75.17808
363.631	77.2863
363.847	-101.8275
364.062	9.83468
364.277	-7.02445
364.492	-25.98912
364.707	22.48004
364.922	24.58768
365.138	-13.34623
365.353	-68.12563
365.568	24.58768
365.783	24.58768
365.998	-93.40265
366.213	18.26482
366.428	-55.48573
366.643	-2.80981
366.858	-68.12563
367.073	28.80304
367.288	-66.01904
367.503	45.6654
367.718	7.72721
367.933	-19.66778
368.148	-32.31023
368.363	43.55752
368.578	3.51233
368.793	-101.8275
369.008	-42.84492
369.223	-42.84492
369.438	26.69535
369.653	22.48004
369.868	-17.56062
370.083	35.12624
370.298	-42.84492
370.513	11.94218
370.728	-34.41722
370.943	28.80304
371.157	-84.97739
371.372	-32.31023
371.587	-21.77492
371.802	-34.41722
372.017	9.83468
372.232	5.61975
372.446	18.26482
372.661	24.58768
372.876	-25.98912
373.091	24.58768
373.306	20.37242
373.52	-55.48573
373.735	-116.56997
373.95	-59.69913
374.165	9.83468
374.379	11.94218
374.594	3.51233
374.809	-13.34623
375.023	49.88122
375.238	-11.23899
375.453	-4.91714
375.667	-0.70246
375.882	-38.63112
376.097	-2.80981
376.311	-13.34623
376.526	-51.27223
376.741	-7.02445
376.955	94.15287
377.17	37.23403
377.384	24.58768
377.599	-4.91714
377.813	41.44967
378.028	-30.20322
378.242	-9.13173
378.457	-2.80981
378.672	30.91075
378.886	1.40492
379.101	-34.41722
379.315	-42.84492
379.53	-4.91714
379.744	33.01848
379.958	28.80304
380.173	-80.7646
380.387	33.01848
380.602	-23.88203
380.816	-15.45344
381.031	11.94218
381.245	39.34183
381.459	-15.45344
381.674	-0.70246
381.888	-42.84492
382.103	11.94218
382.317	7.72721
382.531	33.01848
382.746	28.80304
382.96	129.99903
383.174	18.26482
383.388	3.51233
383.603	22.48004
383.817	-0.70246
384.031	3.51233
384.246	49.88122
384.46	-32.31023
384.674	-25.98912
384.888	45.6654
385.103	43.55752
385.317	-4.91714
385.531	-49.16544
385.745	-28.09618
385.959	-34.41722
386.174	-17.56062
386.388	-42.84492
386.602	35.12624
386.816	70.96171
387.03	-66.01904
387.244	9.83468
387.458	-55.48573
387.672	-4.91714
387.887	-72.33872
388.101	14.04971
388.315	16.15725
388.529	3.51233
388.743	-59.69913
388.957	16.15725
389.171	28.80304
389.385	-9.13173
389.599	-9.13173
389.813	18.26482
390.027	37.23403
390.241	-15.45344
390.455	24.58768
390.669	-76.55171
390.883	-15.45344
391.097	-7.02445
391.311	-15.45344
391.525	-34.41722
391.738	-66.01904
391.952	75.17808
392.166	-74.44523
392.38	-17.56062
392.594	51.98916
392.808	7.72721
393.022	-63.91243
393.236	-23.88203
393.449	-34.41722
393.663	-13.34623
393.877	68.85356
394.091	58.31314
394.305	-4.91714
394.518	-0.70246
394.732	62.52924
394.946	-9.13173
395.16	-0.70246
395.373	14.04971
395.587	-51.27223
395.801	28.80304
396.015	-9.13173
396.228	-7.02445
396.442	-7.02445
396.656	-25.98912
396.869	-9.13173
397.083	-2.80981
397.297	-51.27223
397.51	-34.41722
397.724	11.94218
397.938	49.88122
398.151	37.23403
398.365	28.80304
398.578	-72.33872
398.792	41.44967
399.005	-0.70246
399.219	-0.70246
399.433	79.39455
399.646	16.15725
399.86	7.72721
400.073	-7.02445
400.287	-84.97739
400.5	-21.77492
400.714	7.72721
400.927	66.74543
401.141	-19.66778
401.354	24.58768
401.567	-40.73804
401.781	-30.20322
401.994	41.44967
402.208	-7.02445
402.421	-38.63112
402.635	14.04971
402.848	-13.34623
403.061	11.94218
403.275	-0.70246
403.488	16.15725
403.701	87.82774
403.915	18.26482
404.128	-49.16544
404.341	35.12624
404.555	-15.45344
404.768	-17.56062
404.981	75.17808
405.195	26.69535
405.408	-15.45344
405.621	43.55752
405.834	-4.91714
406.048	14.04971
406.261	-30.20322
406.474	-0.70246
406.687	-32.31023
406.9	16.15725
407.114	11.94218
407.327	-7.02445
407.54	-42.84492
407.753	70.96171
407.966	49.88122
408.179	-40.73804
408.392	24.58768
408.605	43.55752
408.819	-30.20322
409.032	7.72721
409.245	-15.45344
409.458	-42.84492
409.671	16.15725
409.884	-63.91243
410.097	37.23403
410.31	33.01848
410.523	-59.69913
410.736	14.04971
410.949	28.80304
411.162	33.01848
411.375	11.94218
411.588	-17.56062
411.801	-21.77492
412.014	28.80304
412.227	-0.70246
412.44	43.55752
412.653	28.80304
412.865	-34.41722
413.078	-42.84492
413.291	3.51233
413.504	24.58768
413.717	-0.70246
413.93	-44.95179
414.143	20.37242
414.356	9.83468
414.568	-32.31023
414.781	-44.95179
414.994	20.37242
415.207	-34.41722
415.42	-34.41722
415.632	24.58768
415.845	14.04971
416.058	7.72721
416.271	-25.98912
416.483	-59.69913
416.696	9.83468
416.909	83.6111
417.121	66.74543
417.334	-21.77492
417.547	-40.73804
417.759	24.58768
417.972	41.44967
418.185	3.51233
418.397	-23.88203
418.61	26.69535
418.823	11.94218
419.035	24.58768
419.248	-28.09618
419.46	-30.20322
419.673	66.74543
419.885	-84.97739
420.098	-17.56062
420.311	-59.69913
420.523	-44.95179
420.736	-19.66778
420.948	-34.41722
421.161	11.94218
421.373	-57.59244
421.586	-28.09618
421.798	11.94218
422.01	-13.34623
422.223	-21.77492
422.435	37.23403
422.648	-11.23899
422.86	1.40492
423.073	-0.70246
423.285	43.55752
423.497	33.01848
423.71	-25.98912
423.922	-17.56062
424.134	1.40492
424.347	-25.98912
424.559	-34.41722
424.771	-17.56062
424.984	104.6952
425.196	-91.29638
425.408	-21.77492
425.621	58.31314
425.833	54.09713
426.045	26.69535
426.257	-40.73804
426.47	-51.27223
426.682	-30.20322
426.894	1.40492
427.106	-25.98912
427.318	41.44967
427.531	62.52924
427.743	7.72721
427.955	9.83468
428.167	16.15725
428.379	-4.91714
428.591	-47.05863
428.804	-4.91714
429.016	18.26482
429.228	-47.05863
429.44	-0.70246
429.652	-15.45344
429.864	68.85356
430.076	-68.12563
430.288	-4.91714
430.5	43.55752
430.712	20.37242
430.924	41.44967
431.136	-17.56062
431.348	-7.02445
431.56	24.58768
431.772	41.44967
431.984	20.37242
432.196	-59.69913
432.408	-47.05863
432.62	3.51233
432.832	-19.66778
433.044	-17.56062
433.256	-32.31023
433.468	-2.80981
433.679	3.51233
433.891	-87.08375
434.103	58.31314
434.315	-93.40265
434.527	-51.27223
434.739	7.72721
434.95	3.51233
435.162	41.44967
435.374	41.44967
435.586	24.58768
435.798	-7.02445
436.009	-21.77492
436.221	35.12624
436.433	24.58768
436.645	11.94218
436.856	-32.31023
437.068	-25.98912
437.28	-93.40265
437.491	-59.69913
437.703	58.31314
437.915	47.77329
438.126	-17.56062
438.338	-9.13173
438.55	1.40492
438.761	-38.63112
438.973	-76.55171
439.184	28.80304
439.396	-110.25192
439.608	-76.55171
439.819	41.44967
440.031	-4.91714
440.242	7.72721
440.454	18.26482
440.665	-17.56062
440.877	7.72721
441.088	41.44967
441.3	24.58768
441.511	102.58669
441.723	33.01848
441.934	-55.48573
442.146	49.88122
442.357	-17.56062
442.569	35.12624
442.78	45.6654
442.991	-15.45344
443.203	-34.41722
443.414	-17.56062
443.626	-42.84492
443.837	-32.31023
444.048	-0.70246
444.26	28.80304
444.471	-78.65817
444.682	49.88122
444.894	-40.73804
445.105	-13.34623
445.316	-42.84492
445.528	3.51233
445.739	-7.02445
445.95	49.88122
446.161	11.94218
446.373	-30.20322
446.584	-42.84492
446.795	-17.56062
447.006	62.52924
447.217	83.6111
447.429	-63.91243
447.64	-38.63112
447.851	11.94218
448.062	-38.63112
448.273	-53.37899
448.484	37.23403
448.695	41.44967
448.907	1.40492
449.118	41.44967
449.329	-13.34623
449.54	45.6654
449.751	41.44967
449.962	33.01848
450.173	-55.48573
450.384	16.15725
450.595	7.72721
450.806	-25.98912
451.017	51.98916
451.228	3.51233
451.439	-28.09618
451.65	-63.91243
451.861	-30.20322
452.072	-89.19007
452.283	-53.37899
452.494	33.01848
452.705	-34.41722
452.915	49.88122
453.126	28.80304
453.337	-21.77492
453.548	3.51233
453.759	-25.98912
453.97	16.15725
454.181	-9.13173
454.391	33.01848
454.602	-0.70246
454.813	39.34183
455.024	-55.48573
455.235	-15.45344
455.445	18.26482
455.656	24.58768
455.867	-11.23899
456.078	24.58768
456.288	-30.20322
456.499	35.12624
456.71	66.74543
456.921	-23.88203
457.131	-9.13173
457.342	-108.14586
457.553	-32.31023
457.763	28.80304
457.974	47.77329
458.184	-13.34623
458.395	-66.01904
458.606	26.69535
458.816	-7.02445
459.027	18.26482
459.237	-32.31023
459.448	33.01848
459.659	-23.88203
459.869	-30.20322
460.08	49.88122
460.29	108.91229
460.501	-4.91714
460.711	-47.05863
460.922	18.26482
461.132	-101.8275
461.343	-59.69913
461.553	-51.27223
461.764	28.80304
461.974	-49.16544
462.184	-15.45344
462.395	51.98916
462.605	45.6654
462.816	24.58768
463.026	7.72721
463.236	-49.16544
463.447	-0.70246
463.657	-15.45344
463.867	-70.23219
464.078	11.94218
464.288	-25.98912
464.498	49.88122
464.709	-34.41722
464.919	-7.02445
465.129	-34.41722
465.339	-38.63112
465.55	11.94218
465.76	-0.70246
465.97	24.58768
466.18	-32.31023
466.391	-9.13173
466.601	18.26482
466.811	-42.84492
467.021	20.37242
467.231	18.26482
467.441	22.48004
467.651	-30.20322
467.862	-17.56062
468.072	-9.13173
468.282	16.15725
468.492	9.83468
468.702	-42.84492
468.912	33.01848
469.122	-89.19007
469.332	11.94218
469.542	-13.34623
469.752	-25.98912
469.962	11.94218
470.172	-4.91714
470.382	-9.13173
470.592	-9.13173
470.802	26.69535
471.012	-21.77492
471.222	-38.63112
471.432	11.94218
471.642	79.39455
471.852	-51.27223
472.062	35.12624
472.272	49.88122
472.482	68.85356
472.691	45.6654
472.901	26.69535
473.111	41.44967
473.321	-30.20322
473.531	7.72721
473.741	-15.45344
473.95	-7.02445
474.16	28.80304
474.37	3.51233
474.58	26.69535
474.79	-25.98912
474.999	-13.34623
475.209	11.94218
475.419	7.72721
475.628	68.85356
475.838	3.51233
476.048	-17.56062
476.258	-0.70246
476.467	1.40492
476.677	-57.59244
476.886	-40.73804
477.096	-23.88203
477.306	-15.45344
477.515	-38.63112
477.725	1.40492
477.935	-80.7646
478.144	-47.05863
478.354	33.01848
478.563	33.01848
478.773	-51.27223
478.982	16.15725
479.192	-17.56062
479.401	64.63732
479.611	-32.31023
479.82	9.83468
480.03	20.37242
480.239	-7.02445
480.449	-42.84492
480.658	-70.23219
480.868	-0.70246
481.077	-9.13173
481.287	-4.91714
481.496	-32.31023
481.705	-30.20322
481.915	-7.02445
482.124	18.26482
482.333	9.83468
482.543	-0.70246
482.752	7.72721
482.961	77.2863
483.171	28.80304
483.38	-9.13173
483.589	92.04447
483.799	-25.98912
484.008	16.15725
484.217	7.72721
484.426	-0.70246
484.636	11.94218
484.845	49.88122
485.054	7.72721
485.263	28.80304
485.472	18.26482
485.682	-4.91714
485.891	18.26482
486.1	-13.34623
486.309	51.98916
486.518	24.58768
486.727	-40.73804
486.936	-0.70246
487.146	18.26482
487.355	3.51233
487.564	26.69535
487.773	45.6654
487.982	35.12624
488.191	33.01848
488.4	-13.34623
488.609	39.34183
488.818	-7.02445
489.027	-9.13173
489.236	-78.65817
489.445	43.55752
489.654	-84.97739
489.863	-34.41722
490.072	18.26482
490.281	18.26482
490.49	20.37242
490.698	30.91075
490.907	-17.56062
491.116	11.94218
491.325	-25.98912
491.534	35.12624
491.743	-0.70246
491.952	73.06989
492.16	28.80304
492.369	18.26482
492.578	18.26482
492.787	3.51233
492.996	-13.34623
493.204	-36.52418
493.413	-23.88203
493.622	-25.98912
493.831	49.88122
494.039	-0.70246
494.248	26.69535
494.457	24.58768
494.665	-17.56062
494.874	-61.80579
495.083	60.42118
495.291	24.58768
495.5	-25.98912
495.709	-4.91714
495.917	-23.88203
496.126	-17.56062
496.335	-47.05863
496.543	-4.91714
496.752	7.72721
496.96	-42.84492
497.169	54.09713
497.377	20.37242
497.586	26.69535
497.794	-13.34623
498.003	-15.45344
498.211	24.58768
498.42	58.31314
498.628	41.44967
498.837	68.85356
499.045	-34.41722
499.254	37.23403
499.462	-4.91714
499.671	37.23403
499.879	18.26482
500.087	-9.13173
500.296	26.69535
500.504	-17.56062
500.713	77.2863
500.921	35.12624
501.129	75.17808
501.338	-34.41722
501.546	-23.88203
501.754	11.94218
501.962	-13.34623
502.171	41.44967
502.379	-34.41722
502.587	-15.45344
502.795	30.91075
503.004	37.23403
503.212	-11.23899
503.42	16.15725
503.628	-0.70246
503.837	30.91075
504.045	45.6654
504.253	5.61975
504.461	-13.34623
504.669	-13.34623
504.877	-19.66778
505.085	16.15725
505.294	49.88122
505.502	-25.98912
505.71	117.34672
505.918	51.98916
506.126	-55.48573
506.334	-25.98912
506.542	9.83468
506.75	3.51233
506.958	-0.70246
507.166	26.69535
507.374	33.01848
507.582	35.12624
507.79	-42.84492
507.998	-15.45344
508.206	24.58768
508.414	20.37242
508.622	18.26482
508.83	-32.31023
509.037	26.69535
509.245	108.91229
509.453	-51.27223
509.661	75.17808
509.869	-30.20322
510.077	24.58768
510.285	37.23403
510.492	92.04447
510.7	-21.77492
510.908	33.01848
511.116	28.80304
511.324	24.58768
511.531	-9.13173
511.739	-19.66778
511.947	41.44967
512.155	108.91229
512.362	83.6111
512.57	49.88122
512.778	-23.88203
512.985	-51.27223
513.193	41.44967
513.401	62.52924
513.608	-15.45344
513.816	-13.34623
514.024	26.69535
514.231	54.09713
514.439	41.44967
514.646	3.51233
514.854	49.88122
515.061	33.01848
515.269	43.55752
515.477	111.02086
515.684	-15.45344
515.892	33.01848
516.099	-30.20322
516.307	81.50281
516.514	-4.91714
516.722	16.15725
516.929	77.2863
517.136	58.31314
517.344	3.51233
517.551	77.2863
517.759	43.55752
517.966	-42.84492
518.173	5.61975
518.381	-63.91243
518.588	111.02086
518.796	54.09713
519.003	58.31314
519.21	-57.59244
519.418	-19.66778
519.625	60.42118
519.832	-25.98912
520.039	-13.34623
520.247	-9.13173
520.454	18.26482
520.661	102.58669
520.868	43.55752
521.076	35.12624
521.283	3.51233
521.49	22.48004
521.697	-13.34623
521.904	49.88122
522.112	-25.98912
522.319	35.12624
522.526	-49.16544
522.733	-0.70246
522.94	-44.95179
523.147	-4.91714
523.354	26.69535
523.561	3.51233
523.768	33.01848
523.975	28.80304
524.183	26.69535
524.39	92.04447
524.597	24.58768
524.804	35.12624
525.011	-7.02445
525.218	24.58768
525.425	24.58768
525.632	1.40492
525.838	94.15287
526.045	151.08791
526.252	41.44967
526.459	33.01848
526.666	18.26482
526.873	7.72721
527.08	-0.70246
527.287	-28.09618
527.494	58.31314
527.701	26.69535
527.907	45.6654
528.114	45.6654
528.321	60.42118
528.528	-2.80981
528.735	24.58768
528.941	60.42118
529.148	41.44967
529.355	79.39455
529.562	62.52924
529.768	26.69535
529.975	39.34183
530.182	-23.88203
530.388	100.4782
530.595	83.6111
530.802	41.44967
531.008	66.74543
531.215	79.39455
531.422	16.15725
531.628	75.17808
531.835	58.31314
532.042	1.40492
532.248	14.04971
532.455	83.6111
532.661	70.96171
532.868	68.85356
533.074	45.6654
533.281	64.63732
533.487	24.58768
533.694	43.55752
533.9	92.04447
534.107	41.44967
534.313	92.04447
534.52	75.17808
534.726	68.85356
534.933	60.42118
535.139	81.50281
535.345	49.88122
535.552	41.44967
535.758	49.88122
535.965	119.45538
536.171	66.74543
536.377	18.26482
536.584	28.80304
536.79	85.71941
536.996	81.50281
537.203	35.12624
537.409	66.74543
537.615	125.7815
537.821	33.01848
538.028	75.17808
538.234	94.15287
538.44	49.88122
538.646	62.52924
538.853	49.88122
539.059	-21.77492
539.265	92.04447
539.471	66.74543
539.677	5.61975
539.883	56.20513
540.09	66.74543
540.296	22.48004
540.502	26.69535
540.708	-0.70246
540.914	68.85356
541.12	37.23403
541.326	43.55752
541.532	89.9361
541.738	64.63732
541.944	111.02086
542.15	66.74543
542.356	-0.70246
542.562	-17.56062
542.768	33.01848
542.974	77.2863
543.18	85.71941
543.386	35.12624
543.592	62.52924
543.798	75.17808
544.004	58.31314
544.21	113.12946
544.415	70.96171
544.621	85.71941
544.827	100.4782
545.033	79.39455
545.239	-11.23899
545.445	66.74543
545.651	35.12624
545.856	100.4782
546.062	94.15287
546.268	136.32547
546.474	62.52924
546.679	70.96171
546.885	119.45538
547.091	108.91229
547.297	102.58669
547.502	-15.45344
547.708	129.99903
547.914	117.34672
548.119	111.02086
548.325	108.91229
548.531	92.04447
548.736	24.58768
548.942	37.23403
549.147	9.83468
549.353	125.7815
549.559	85.71941
549.764	77.2863
549.97	159.52406
550.175	66.74543
550.381	111.02086
550.586	96.26129
550.792	58.31314
550.997	117.34672
551.203	193.27198
551.408	142.6521
551.614	45.6654
551.819	68.85356
552.025	68.85356
552.23	79.39455
552.435	85.71941
552.641	94.15287
552.846	60.42118
553.052	35.12624
553.257	96.26129
553.462	83.6111
553.668	96.26129
553.873	62.52924
554.078	87.82774
554.283	104.6952
554.489	75.17808
554.694	79.39455
554.899	83.6111
555.105	60.42118
555.31	142.6521
555.515	115.23808
555.72	75.17808
555.925	111.02086
556.131	51.98916
556.336	94.15287
556.541	106.80373
556.746	134.21663
556.951	146.86997
557.156	92.04447
557.361	129.99903
557.567	33.01848
557.772	102.58669
557.977	51.98916
558.182	159.52406
558.387	92.04447
558.592	129.99903
558.797	170.06972
559.002	98.36974
559.207	87.82774
559.412	77.2863
559.617	155.30595
559.822	121.56407
560.027	117.34672
560.232	113.12946
560.437	108.91229
560.642	138.43433
560.847	136.32547
561.051	102.58669
561.256	134.21663
561.461	163.74226
561.666	138.43433
561.871	125.7815
562.076	92.04447
562.281	142.6521
562.485	193.27198
562.69	100.4782
562.895	138.43433
563.1	163.74226
563.305	92.04447
563.509	176.39736
563.714	136.32547
563.919	172.17891
564.123	155.30595
564.328	216.47669
564.533	121.56407
564.737	153.19692
564.942	159.52406
565.147	138.43433
565.351	136.32547
565.556	214.36707
565.761	125.7815
565.965	201.70978
566.17	193.27198
566.374	210.14789
566.579	125.7815
566.784	79.39455
566.988	161.63315
567.193	163.74226
567.397	186.94385
567.602	136.32547
567.806	210.14789
568.011	184.83451
568.215	119.45538
568.42	148.97893
568.624	208.03833
568.828	155.30595
569.033	174.28813
569.237	216.47669
569.442	157.41499
569.646	201.70978
569.85	302.98769
570.055	267.11341
570.259	184.83451
570.463	191.16258
570.668	129.99903
570.872	151.08791
571.076	159.52406
571.281	197.49084
571.485	220.69599
571.689	229.13482
571.893	113.12946
572.098	222.80567
572.302	193.27198
572.506	189.0532
572.71	134.21663
572.914	174.28813
573.119	159.52406
573.323	186.94385
573.527	243.90353
573.731	220.69599
573.935	117.34672
574.139	281.88452
574.343	167.96055
574.547	189.0532
574.751	205.9288
574.955	248.12334
575.159	222.80567
575.364	197.49084
575.568	220.69599
575.772	267.11341
575.976	197.49084
576.18	290.32557
576.383	165.85139
576.587	220.69599
576.791	167.96055
576.995	235.46415
577.199	229.13482
577.403	260.78321
577.607	237.57397
577.811	307.20854
578.015	260.78321
578.219	315.65046
578.422	294.5462
578.626	243.90353
578.83	231.24458
579.034	222.80567
579.238	231.24458
579.442	258.67319
579.645	220.69599
579.849	271.33363
580.053	319.87153
580.257	248.12334
580.46	212.25747
580.664	362.08609
580.868	317.76099
581.071	315.65046
581.275	260.78321
581.479	286.10501
581.682	227.02509
581.886	262.89326
582.09	239.6838
582.293	366.30793
582.497	321.98209
582.7	311.42946
582.904	302.98769
583.107	241.79366
583.311	227.02509
583.515	294.5462
583.718	381.08489
583.922	328.31388
584.125	279.77431
584.329	338.86722
584.532	336.75651
584.735	311.42946
584.939	248.12334
585.142	334.64583
585.346	305.0981
585.549	414.86386
585.753	328.31388
585.956	336.75651
586.159	334.64583
586.363	364.197
586.566	330.42451
586.769	412.75256
586.973	340.97794
587.176	372.64081
587.379	275.55393
587.582	381.08489
587.786	362.08609
587.989	406.41873
588.192	423.30926
588.395	404.30748
588.599	321.98209
588.802	429.64347
589.005	305.0981
589.208	404.30748
589.411	412.75256
589.615	467.65171
589.818	298.76691
590.021	381.08489
590.224	338.86722
590.427	423.30926
590.63	330.42451
590.833	404.30748
591.036	307.20854
591.239	357.86432
591.442	435.97783
591.645	406.41873
591.848	389.52924
592.051	440.20081
592.254	395.86267
592.457	427.53205
592.66	412.75256
592.863	514.11286
593.066	497.21707
593.269	463.42832
593.472	404.30748
593.675	429.64347
593.878	387.41813
594.081	484.54585
594.284	393.75151
594.486	454.98174
594.689	454.98174
594.892	463.42832
595.095	514.11286
595.298	539.45826
595.5	501.44093
595.703	522.5611
595.906	421.19789
596.109	463.42832
596.311	395.86267
596.514	389.52924
596.717	501.44093
596.92	507.77683
597.122	501.44093
597.325	531.00957
597.528	514.11286
597.73	598.60519
597.933	467.65171
598.136	473.9869
598.338	454.98174
598.541	516.2249
598.743	564.80566
598.946	524.6732
599.148	514.11286
599.351	541.57047
599.554	569.03042
599.756	573.25523
599.959	522.5611
600.161	526.78531
600.363	473.9869
600.566	638.7464
600.768	480.32222
600.971	628.18249
601.173	514.11286
601.376	560.58096
601.578	537.34607
601.78	585.92998
601.983	509.88883
602.185	602.83037
602.388	556.35631
602.59	609.16823
602.792	607.0556
602.995	623.95701
603.197	533.12172
603.399	590.155
603.601	609.16823
603.804	543.68269
604.006	495.10517
604.208	607.0556
604.41	550.01944
604.613	653.53639
604.815	541.57047
605.017	602.83037
605.219	588.04248
605.421	657.76221
605.623	524.6732
605.826	721.15502
606.028	552.13172
606.23	623.95701
606.432	594.38007
606.634	742.28816
606.836	509.88883
607.038	666.21399
607.24	590.155
607.442	666.21399
607.644	577.48009
607.846	727.49485
608.048	630.29525
608.25	719.04176
608.452	573.25523
608.654	750.74171
608.856	645.0849
609.058	590.155
609.26	480.32222
609.462	651.4235
609.664	628.18249
609.866	666.21399
610.067	609.16823
610.269	860.65207
610.471	607.0556
610.673	847.96884
610.875	615.5062
611.077	776.10334
611.278	659.87514
611.48	672.55294
611.682	607.0556
611.884	704.24928
612.085	733.83477
612.287	843.74116
612.489	742.28816
612.69	733.83477
612.892	670.43995
613.094	776.10334
613.295	632.40802
613.497	767.6493
613.699	651.4235
613.9	704.24928
614.102	712.70206
614.304	801.4664
614.505	721.15502
614.707	860.65207
614.908	757.08198
615.11	837.39972
615.311	752.85512
615.513	761.30888
615.714	634.5208
615.916	750.74171
616.117	733.83477
616.319	860.65207
616.52	776.10334
616.722	812.03474
616.923	733.83477
617.124	881.79147
617.326	847.96884
617.527	928.30098
617.729	746.51491
617.93	852.19655
618.131	640.85922
618.333	881.79147
618.534	763.42234
618.735	953.67136
618.937	784.55754
619.138	852.19655
619.339	793.01189
619.54	839.51352
619.742	805.69371
619.943	907.15983
620.144	799.35276
620.345	1004.41511
620.546	805.69371
620.748	860.65207
620.949	716.92852
621.15	856.42429
621.351	738.06144
621.552	1021.33052
621.753	814.14844
621.954	949.44289
622.155	858.53818
622.356	820.48959
622.558	875.44956
622.759	852.19655
622.96	818.37586
623.161	993.84318
623.362	879.67749
623.563	911.388
623.764	784.55754
623.965	886.01945
624.166	864.87988
624.366	998.07193
624.567	898.70358
624.768	981.15708
624.969	953.67136
625.17	970.58551
625.371	852.19655
625.572	966.35693
625.773	888.13345
625.973	953.67136
626.174	911.388
626.375	983.27141
626.576	915.6162
626.777	981.15708
626.977	839.51352
627.178	905.04575
627.379	902.93169
627.58	911.388
627.78	1004.41511
627.981	1046.70436
628.182	934.64348
628.382	1055.16249
628.583	919.84443
628.784	1000.18632
628.984	886.01945
629.185	1025.55943
629.386	974.81412
629.586	1038.24632
629.787	913.50209
629.987	1074.1936
630.188	970.58551
630.388	1095.33978
630.589	780.33042
630.79	1055.16249
630.99	966.35693
631.191	1023.44497
631.391	1093.22514
631.591	993.84318
631.792	962.12838
631.992	1118.60115
632.193	947.32867
632.393	1072.07901
632.594	1017.10163
632.794	1156.66639
632.994	1061.50614
633.195	1141.86307
633.395	1116.48645
633.595	1150.32209
633.796	1031.90285
633.996	1112.25708
634.196	1038.24632
634.397	1139.74833
634.597	1076.30819
634.797	1188.38843
634.997	998.07193
635.198	1152.43685
635.398	1021.33052
635.598	1173.58471
635.798	1198.96263
635.998	1241.26026
636.199	1072.07901
636.399	1260.29458
636.599	1167.24031
636.799	1082.65201
636.999	1082.65201
637.199	1105.91306
637.399	1082.65201
637.599	1099.56908
637.799	1067.84985
637.999	1249.71993
638.199	1173.58471
638.399	1247.60501
638.599	1084.76663
638.799	1334.31872
638.999	1165.12552
639.199	1359.69893
639.399	1207.42206
639.599	1315.28371
639.799	1072.07901
639.999	1311.05372
640.199	1086.88125
640.399	1226.45595
640.599	1053.04795
640.799	1302.59378
640.998	1190.50327
641.198	1368.15904
641.398	1150.32209
641.598	1336.43373
641.798	1258.17964
641.997	1292.01889
642.197	1209.53692
642.397	1351.23884
642.597	1175.69951
642.796	1361.81396
642.996	1211.65179
643.196	1283.55902
643.395	1158.78116
643.595	1359.69893
643.795	1194.73294
643.994	1380.84924
644.194	1418.92003
644.394	1205.3072
644.593	1325.8587
644.793	1317.3987
644.992	1167.24031
645.192	1401.99965
645.392	1220.11129
645.591	1380.84924
645.791	1285.67399
645.99	1435.84043
646.19	1359.69893
646.389	1486.60167
646.589	1319.5137
646.788	1488.71671
646.987	1378.73421
647.187	1319.5137
647.386	1296.24884
647.586	1478.14147
647.785	1306.82375
647.984	1465.45116
648.184	1313.16871
648.383	1541.59271
648.582	1463.33611
648.782	1359.69893
648.981	1387.19436
649.18	1444.30064
649.38	1421.03508
649.579	1359.69893
649.778	1495.06186
649.977	1581.778
650.177	1311.05372
650.376	1488.71671
650.575	1520.44237
650.774	1621.96271
650.973	1292.01889
651.173	1499.29195
651.372	1478.14147
651.571	1588.123
651.77	1344.89378
651.969	1571.20298
652.168	1385.07932
652.367	1626.19264
652.566	1547.93778
652.765	1664.26156
652.964	1535.24762
653.163	1514.09725
653.362	1452.76085
653.561	1545.82276
653.76	1465.45116
653.959	1624.07767
654.158	1537.36265
654.357	1545.82276
654.556	1395.65452
654.755	1514.09725
654.954	1395.65452
655.153	1632.53751
655.352	1399.88461
655.551	1643.11225
655.749	1571.20298
655.948	1611.38785
656.147	1467.56621
656.346	1742.51148
656.545	1660.03172
656.743	1571.20298
656.942	1588.123
657.141	1896.88087
657.34	1511.98221
657.538	1624.07767
657.737	1414.68993
657.936	1801.72443
658.135	1478.14147
658.333	1736.16705
658.532	1473.91137
658.731	1605.04292
658.929	1634.65246
659.128	1605.04292
659.326	1528.90252
659.525	1786.92149
659.724	1731.93742
659.922	1742.51148
660.121	1579.663
660.319	1566.97295
660.518	1717.1336
660.716	1723.47812
660.915	1507.75213
661.113	1740.39667
661.312	1552.16783
661.51	1793.26563
661.709	1592.35299
661.907	1808.06849
662.105	1924.36859
662.304	1854.59033
662.502	1575.43299
662.701	1892.65191
662.899	1666.37647
663.097	1774.23309
663.296	1765.77408
663.494	1822.87113
663.692	1533.13258
663.891	1841.90278
664.089	1693.87013
664.287	1875.73586
664.485	1734.05224
664.684	2011.05412
664.882	1647.34213
665.08	1865.16316
665.278	1632.53751
665.476	1852.47575
665.675	1740.39667
665.873	1820.75648
666.071	1761.54455
666.269	1829.21506
666.467	1630.42255
666.665	1913.7965
666.863	1634.65246
667.061	1770.00359
667.259	1700.21475
667.457	1994.14069
667.655	1791.15092
667.853	1858.81948
668.051	1672.72121
668.249	1877.85038
668.447	1674.83611
668.645	1888.42293
668.843	1850.36117
669.041	1943.39799
669.239	1738.28187
669.437	1841.90278
669.635	1850.36117
669.833	1852.47575
670.031	1829.21506
670.229	1926.48299
670.426	1681.18081
670.624	1977.22685
670.822	1816.52717
671.02	1937.05491
671.218	1964.54121
671.415	1865.16316
671.613	1816.52717
671.811	2040.6516
672.009	1928.59738
672.206	2070.24773
672.404	1886.30843
672.602	1848.24658
672.799	1748.85587
672.997	1915.91093
673.195	1863.0486
673.392	2013.16827
673.59	1681.18081
673.788	2025.85303
673.985	1972.99833
674.183	1854.59033
674.38	1723.47812
674.578	1833.44432
674.775	1791.15092
674.973	1985.68382
675.17	1770.00359
675.368	1951.85535
675.565	1734.05224
675.763	1918.02535
675.96	1742.51148
676.158	1844.01738
676.355	1786.92149
676.553	2163.25466
676.75	1877.85038
676.947	2125.20818
677.145	1928.59738
677.342	2095.61472
677.539	1884.19393
677.737	2137.89062
677.934	1879.9649
678.131	2131.54943
678.329	1744.62628
678.526	2002.59746
678.723	1911.68206
678.92	2131.54943
679.118	1945.51234
679.315	1911.68206
679.512	1791.15092
679.709	2017.39655
679.906	1962.42691
680.104	1985.68382
680.301	1793.26563
680.498	1918.02535
680.695	1863.0486
680.892	2152.68645
681.089	1901.10981
681.286	1890.53742
681.483	1757.315
681.68	1934.94053
681.877	1850.36117
682.075	2063.90582
682.272	1958.19831
682.469	1922.25418
682.665	1926.48299
682.862	1920.13977
683.059	1839.78817
683.256	1886.30843
683.453	1757.315
683.65	1911.68206
683.847	1871.50679
684.044	1994.14069
684.241	1808.06849
684.438	1945.51234
684.635	1803.83912
684.831	2059.67784
685.028	1879.9649
685.225	2021.6248
685.422	1731.93742
685.619	2072.36168
685.815	1886.30843
686.012	1996.25489
686.209	1750.97066
686.405	2066.0198
686.602	1871.50679
686.799	2059.67784
686.996	1867.27771
687.192	2125.20818
687.389	1808.06849
687.586	2013.16827
687.782	1757.315
687.979	2120.98063
688.175	1909.56762
688.372	1905.33873
688.568	1844.01738
688.765	2004.71163
688.962	1937.05491
689.158	2004.71163
689.355	1808.06849
689.551	1951.85535
689.748	1918.02535
689.944	2066.0198
690.14	1947.62668
690.337	2089.27307
690.533	1873.62133
690.73	2184.39047
690.926	1964.54121
691.123	1934.94053
691.319	1793.26563
691.515	2000.48327
691.712	1947.62668
691.908	1987.79805
692.104	1858.81948
692.301	2137.89062
692.497	1996.25489
692.693	1987.79805
692.889	1858.81948
693.086	2027.96713
693.282	1981.45535
693.478	2091.38696
693.674	1928.59738
693.87	2061.79183
694.067	1839.78817
694.263	2040.6516
694.459	1911.68206
694.655	2074.47563
694.851	1886.30843
695.047	2097.72859
695.243	2104.07014
695.439	2061.79183
695.635	2036.42347
695.831	1985.68382
696.027	1977.22685
696.224	2036.42347
696.42	1841.90278
696.615	2055.44984
696.811	2008.93996
697.007	2055.44984
697.203	1767.88883
697.399	1981.45535
697.595	1877.85038
697.791	2125.20818
697.987	1852.47575
698.183	2008.93996
698.379	1820.75648
698.575	2146.34543
698.77	1848.24658
698.966	2133.66317
699.162	1972.99833
699.358	2053.33582
699.554	1829.21506
699.749	2099.84245
699.945	1966.6555
700.141	2131.54943
700.337	1926.48299
700.532	2127.32194
700.728	1943.39799
700.924	2066.0198
701.119	1939.16927
701.315	1932.82616
701.511	1666.37647
701.706	2074.47563
701.902	1816.52717
702.097	2112.52545
702.293	1835.55894
702.489	1894.76639
702.684	1882.07942
702.88	2085.04527
703.075	1994.14069
703.271	2078.70351
703.466	1966.6555
703.662	2152.68645
703.857	1972.99833
704.053	2053.33582
704.248	2095.61472
704.443	2163.25466
704.639	2074.47563
704.834	2076.58957
705.03	1922.25418
705.225	2125.20818
705.42	1968.76978
705.616	2224.54617
705.811	1968.76978
706.006	2175.93624
706.202	1757.315
706.397	2080.81744
706.592	1958.19831
706.787	2142.11804
706.983	1886.30843
707.178	2146.34543
707.373	1934.94053
707.568	2129.43569
707.763	2002.59746
707.959	1930.71177
708.154	2019.51068
708.349	2063.90582
708.544	1886.30843
708.739	2023.73892
708.934	1901.10981
709.129	2038.53754
709.324	1924.36859
709.519	2099.84245
709.714	1909.56762
709.909	2095.61472
710.104	1960.31261
710.299	2161.14104
710.494	1918.02535
710.689	2186.504
710.884	2180.16337
711.079	2268.92511
711.274	1786.92149
711.469	2076.58957
711.664	2013.16827
711.859	2049.10778
712.054	1901.10981
712.249	1962.42691
712.443	1818.64183
712.638	2173.82267
712.833	1863.0486
713.028	2182.27692
713.223	1814.41251
713.417	2082.93136
713.612	1837.67356
713.807	2042.76566
714.002	1985.68382
714.196	2131.54943
714.391	1879.9649
714.586	2027.96713
714.78	1932.82616
714.975	2213.97918
715.17	1791.15092
715.364	2025.85303
715.559	2002.59746
715.754	2101.9563
715.948	1956.08399
716.143	2087.15917
716.337	1892.65191
716.532	2108.29781
716.726	2013.16827
716.921	2040.6516
717.115	1867.27771
717.31	2175.93624
717.504	1909.56762
717.699	1985.68382
717.893	2049.10778
718.088	2093.50084
718.282	1844.01738
718.476	2091.38696
718.671	1858.81948
718.865	2063.90582
719.059	1865.16316
719.254	2095.61472
719.448	1909.56762
719.642	2148.45911
719.837	1791.15092
720.031	2104.07014
720.225	1782.69204
720.419	2036.42347
720.614	1915.91093
720.808	2085.04527
721.002	1734.05224
721.196	2046.99374
721.39	1748.85587
721.585	2044.8797
721.779	1928.59738
721.973	2137.89062
722.167	1960.31261
722.361	2087.15917
722.555	1786.92149
722.749	1909.56762
722.943	1757.315
723.137	2142.11804
723.331	1892.65191
723.525	2076.58957
723.719	1808.06849
723.913	2044.8797
724.107	1958.19831
724.301	2104.07014
724.495	1759.42978
724.689	2120.98063
724.883	1985.68382
725.077	2156.91376
725.271	1926.48299
725.465	1918.02535
725.659	1873.62133
725.853	2061.79183
726.046	2131.54943
726.24	1977.22685
726.434	1651.57201
726.628	1907.45318
726.822	1816.52717
727.015	1985.68382
727.209	1782.69204
727.403	2070.24773
727.596	1740.39667
727.79	2099.84245
727.984	1970.88406
728.177	2061.79183
728.371	1740.39667
728.565	2095.61472
728.758	1892.65191
728.952	2011.05412
729.146	1759.42978
729.339	2070.24773
729.533	1892.65191
729.726	1951.85535
729.92	1793.26563
730.113	2036.42347
730.307	1852.47575
730.5	1932.82616
730.694	1867.27771
730.887	1941.28363
731.081	1683.29571
731.274	1985.68382
731.468	1647.34213
731.661	1970.88406
731.854	1776.34783
732.048	2072.36168
732.241	1831.32969
732.435	2040.6516
732.628	2097.72859
732.821	1932.82616
733.014	1858.81948
733.208	2082.93136
733.401	2004.71163
733.594	1979.3411
733.788	2019.51068
733.981	2030.08122
734.174	1998.36909
734.367	1896.88087
734.56	2004.71163
734.754	1975.11259
734.947	1867.27771
735.14	1985.68382
735.333	1977.22685
735.526	1972.99833
735.719	1918.02535
735.912	1943.39799
736.105	1962.42691
736.298	2078.70351
736.491	2032.19531
736.684	2099.84245
736.877	1926.48299
737.07	2053.33582
737.263	2049.10778
737.456	2089.27307
737.649	1871.50679
737.842	1985.68382
738.035	1998.36909
738.228	2013.16827
738.421	2104.07014
738.614	2030.08122
738.807	1962.42691
739	2129.43569
739.192	1858.81948
739.385	2011.05412
739.578	1962.42691
739.771	1918.02535
739.964	1892.65191
740.156	2053.33582
740.349	2066.0198
740.542	1953.96967
740.735	1782.69204
740.927	1937.05491
741.12	1918.02535
741.313	2006.8258
741.505	2038.53754
741.698	1985.68382
741.891	2015.28241
742.083	2093.50084
742.276	2030.08122
742.468	1996.25489
742.661	1985.68382
742.854	1943.39799
743.046	1905.33873
743.239	2099.84245
743.431	2030.08122
743.624	2036.42347
743.816	1930.71177
744.009	2030.08122
744.201	1945.51234
744.393	1934.94053
744.586	2019.51068
744.778	1818.64183
744.971	2087.15917
745.163	2133.66317
745.355	1915.91093
745.548	1858.81948
745.74	1903.22427
745.932	2002.59746
746.125	2013.16827
746.317	1894.76639
746.509	1844.01738
746.702	2027.96713
746.894	1810.18317
747.086	1930.71177
747.278	1970.88406
747.471	1928.59738
747.663	2019.51068
747.855	2167.48189
748.047	1987.79805
748.239	2123.09441
748.431	1824.98578
748.623	2080.81744
748.815	1968.76978
749.008	2135.7769
749.2	1943.39799
749.392	1926.48299
749.584	1827.10042
749.776	2114.63926
749.968	1985.68382
750.16	2063.90582
750.352	1934.94053
750.544	1979.3411
750.736	2049.10778
750.928	1985.68382
751.12	1901.10981
751.311	2019.51068
751.503	1920.13977
751.695	1837.67356
751.887	1860.93404
752.079	1926.48299
752.271	1875.73586
752.463	2025.85303
752.654	1939.16927
752.846	1987.79805
753.038	1750.97066
753.23	2129.43569
753.421	1784.80677
753.613	1911.68206
753.805	1920.13977
753.997	1964.54121
754.188	1928.59738
754.38	1879.9649
754.572	1744.62628
754.763	1850.36117
754.955	1715.01876
755.146	1837.67356
755.338	1884.19393
755.53	1922.25418
755.721	1822.87113
755.913	1808.06849
756.104	1920.13977
756.296	1964.54121
756.487	1884.19393
756.679	2129.43569
756.87	1892.65191
757.062	1863.0486
757.253	1879.9649
757.445	1977.22685
757.636	1945.51234
757.827	1791.15092
758.019	1858.81948
758.21	1901.10981
758.401	1814.41251
758.593	1875.73586
758.784	1626.19264
758.975	1909.56762
759.167	1721.36328
759.358	1879.9649
759.549	1871.50679
759.74	1848.24658
759.932	1748.85587
760.123	1939.16927
760.314	1723.47812
760.505	1791.15092
760.696	1727.70778
760.888	1867.27771
761.079	1710.78906
761.27	1977.22685
761.461	1708.6742
761.652	1867.27771
761.843	1672.72121
762.034	1884.19393
762.225	1734.05224
762.416	1782.69204
762.607	1619.84774
762.798	1736.16705
762.989	1846.13198
763.18	1890.53742
763.371	1695.98501
763.562	1789.03621
763.753	1799.60974
763.944	1860.93404
764.135	1626.19264
764.326	1774.23309
764.517	1653.68694
764.708	1583.893
764.899	1702.32962
765.089	1725.59295
765.28	1596.58297
765.471	1810.18317
765.662	1598.69796
765.853	1736.16705
766.043	1518.32733
766.234	1651.57201
766.425	1528.90252
766.615	1643.11225
766.806	1579.663
766.997	1615.6178
767.187	1717.1336
767.378	1586.008
767.569	1653.68694
767.759	1816.52717
767.95	1683.29571
768.141	1632.53751
768.331	1531.01755
768.522	1734.05224
768.712	1698.09988
768.903	1778.46257
769.093	1691.75525
769.284	1715.01876
769.474	1630.42255
769.665	1647.34213
769.855	1664.26156
770.046	1651.57201
770.236	1562.74293
770.426	1649.45707
770.617	1581.778
770.807	1634.65246
770.998	1520.44237
771.188	1731.93742
771.378	1566.97295
771.569	1581.778
771.759	1486.60167
771.949	1588.123
772.139	1664.26156
772.33	1647.34213
772.52	1613.50283
772.71	1486.60167
772.9	1528.90252
773.09	1579.663
773.281	1495.06186
773.471	1562.74293
773.661	1486.60167
773.851	1480.25652
774.041	1518.32733
774.231	1579.663
774.421	1406.22974
774.611	1334.31872
774.802	1351.23884
774.992	1501.40699
775.182	1425.26517
775.372	1399.88461
775.562	1256.06471
775.752	1473.91137
775.942	1387.19436
776.131	1600.81295
776.321	1516.21229
776.511	1594.46798
776.701	1552.16783
776.891	1719.24844
777.081	1465.45116
777.271	1507.75213
777.461	1545.82276
777.651	1435.84043
777.84	1465.45116
778.03	1480.25652
778.22	1382.96428
778.41	1588.123
778.599	1376.61917
778.789	1522.55741
778.979	1399.88461
779.169	1359.69893
779.358	1334.31872
779.548	1391.42444
779.738	1277.21415
779.927	1463.33611
780.117	1410.45983
780.307	1469.68126
780.496	1270.86929
780.686	1361.81396
780.875	1336.43373
781.065	1520.44237
781.254	1308.93873
781.444	1325.8587
781.633	1182.04396
781.823	1562.74293
782.012	1260.29458
782.202	1378.73421
782.391	1275.09919
782.581	1366.04401
782.77	1319.5137
782.96	1359.69893
783.149	1296.24884
783.338	1412.57488
783.528	1342.77877
783.717	1429.49528
783.906	1253.94978
784.096	1516.21229
784.285	1228.57084
784.474	1391.42444
784.663	1270.86929
784.853	1401.99965
785.042	1300.4788
785.231	1488.71671
785.42	1224.34106
785.61	1566.97295
785.799	1171.4699
785.988	1296.24884
786.177	1131.2894
786.366	1234.91554
786.555	1179.92914
786.744	1124.94526
786.933	1169.3551
787.122	1401.99965
787.312	1226.45595
787.501	1139.74833
787.69	1038.24632
787.879	1283.55902
788.068	1165.12552
788.257	1173.58471
788.445	1108.02773
788.634	1207.42206
788.823	1080.5374
789.012	1179.92914
789.201	1146.09257
789.39	1272.98424
789.579	1063.6207
789.768	1182.04396
789.957	1186.2736
790.145	1243.37517
790.334	1105.91306
790.523	1247.60501
790.712	1097.45443
790.9	1063.6207
791.089	1277.21415
791.278	1359.69893
791.467	987.5001
791.655	1268.75434
791.844	1192.6181
792.033	1156.66639
792.221	1175.69951
792.41	1207.42206
792.599	1076.30819
792.787	1069.96443
792.976	1069.96443
793.164	1110.1424
793.353	1042.47532
793.541	1171.4699
793.73	1211.65179
793.918	1088.99587
794.107	1038.24632
794.295	1258.17964
794.484	1017.10163
794.672	1139.74833
794.861	951.55712
795.049	1139.74833
795.238	979.04275
795.426	1302.59378
795.614	972.69981
795.803	1002.30071
795.991	1152.43685
796.179	1133.40413
796.368	987.5001
796.556	1046.70436
796.744	1036.13182
796.932	1076.30819
797.121	1004.41511
797.309	964.24265
797.497	1061.50614
797.685	1110.1424
797.874	981.15708
798.062	1053.04795
798.25	968.47122
798.438	1139.74833
798.626	974.81412
798.814	1141.86307
799.002	930.41514
799.19	1122.83055
799.378	998.07193
799.566	987.5001
799.755	947.32867
799.943	1143.97782
800.131	1038.24632
800.318	1110.1424
800.506	1004.41511
800.694	998.07193
800.882	837.39972
801.07	1143.97782
801.258	1006.52951
801.446	1012.87276
801.634	886.01945
801.822	1053.04795
802.01	1084.76663
802.197	1133.40413
802.385	987.5001
802.573	1114.37177
802.761	1101.68373
802.949	1074.1936
803.136	936.75766
803.324	945.21445
803.512	913.50209
803.699	1097.45443
803.887	970.58551
804.075	1008.64392
804.262	919.84443
804.45	1027.6739
804.638	1034.01733
804.825	1004.41511
805.013	1093.22514
805.201	1110.1424
805.388	1000.18632
805.576	1141.86307
805.763	915.6162
805.951	1091.1105
806.138	1074.1936
806.326	1127.05997
806.513	966.35693
806.701	1034.01733
806.888	928.30098
807.075	1063.6207
807.263	1048.81888
807.45	991.72881
807.638	1057.27703
807.825	1012.87276
808.012	987.5001
808.2	1021.33052
808.387	979.04275
808.574	1099.56908
808.761	1105.91306
808.949	1203.19234
809.136	1042.47532
809.323	1203.19234
809.51	1055.16249
809.698	1146.09257
809.885	974.81412
810.072	1167.24031
810.259	1017.10163
810.446	1122.83055
810.633	979.04275
810.82	1234.91554
811.008	1133.40413
811.195	1116.48645
811.382	991.72881
811.569	1105.91306
811.756	974.81412
811.943	1173.58471
812.13	985.38575
812.317	1207.42206
812.504	1093.22514
812.691	1150.32209
812.878	1120.71585
813.064	1245.49009
813.251	1101.68373
813.438	1266.6394
813.625	966.35693
813.812	1285.67399
813.999	957.89985
814.186	1004.41511
814.372	860.65207
814.559	1173.58471
814.746	1004.41511
814.933	1017.10163
815.12	1110.1424
815.306	1131.2894
815.493	898.70358
815.68	1012.87276
815.866	972.69981
816.053	1072.07901
816.24	911.388
816.426	1114.37177
816.613	1006.52951
816.799	1108.02773
816.986	936.75766
817.173	1074.1936
817.359	1000.18632
817.546	1129.17468
817.732	1048.81888
817.919	1150.32209
818.105	1072.07901
818.292	1050.93341
818.478	936.75766
818.665	1190.50327
818.851	1072.07901
819.037	983.27141
819.224	1050.93341
819.41	1084.76663
819.597	985.38575
819.783	1072.07901
819.969	1063.6207
820.156	1084.76663
820.342	894.4755
820.528	1133.40413
820.714	905.04575
820.901	1120.71585
821.087	1061.50614
821.273	1158.78116
821.459	1055.16249
821.646	1148.20733
821.832	1105.91306
822.018	1232.80063
822.204	915.6162
822.39	940.98604
822.576	894.4755
822.762	951.55712
822.948	841.62734
823.134	1014.98719
823.32	911.388
823.507	998.07193
823.693	1004.41511
823.879	1069.96443
824.065	926.18683
824.25	1088.99587
824.436	1061.50614
824.622	1000.18632
824.808	970.58551
824.994	987.5001
825.18	1000.18632
825.366	1084.76663
825.552	1021.33052
825.738	964.24265
825.923	938.87185
826.109	1122.83055
826.295	983.27141
826.481	1146.09257
826.667	955.7856
826.852	1010.75834
827.038	1034.01733
827.224	1116.48645
827.409	892.36148
827.595	1055.16249
827.781	778.21687
827.966	1088.99587
828.152	784.55754
828.338	945.21445
828.523	763.42234
828.709	1065.73527
828.894	860.65207
829.08	998.07193
829.266	856.42429
829.451	886.01945
829.637	784.55754
829.822	852.19655
830.008	818.37586
830.193	962.12838
830.378	788.78469
830.564	953.67136
830.749	839.51352
830.935	877.56352
831.12	873.33561
831.305	1091.1105
831.491	803.58005
831.676	995.95755
831.861	877.56352
832.047	919.84443
832.232	936.75766
832.417	1042.47532
832.602	835.28592
832.788	907.15983
832.973	797.23912
833.158	968.47122
833.343	862.76597
833.528	898.70358
833.714	818.37586
833.899	981.15708
834.084	877.56352
834.269	907.15983
834.454	835.28592
834.639	943.10024
834.824	932.52931
835.009	1099.56908
835.194	902.93169
835.379	962.12838
835.564	854.31041
835.749	953.67136
835.934	839.51352
836.119	1065.73527
836.304	788.78469
836.489	809.92106
836.674	687.34425
836.859	905.04575
837.044	744.40153
837.228	894.4755
837.413	752.85512
837.598	983.27141
837.783	773.98982
837.968	858.53818
838.152	744.40153
838.337	761.30888
838.522	805.69371
838.707	814.14844
838.891	776.10334
839.076	733.83477
839.261	759.19542
839.445	761.30888
839.63	716.92852
839.815	955.7856
839.999	757.08198
840.184	869.10773
840.368	700.02295
840.553	740.1748
840.737	725.38156
840.922	776.10334
841.106	746.51491
841.291	729.60814
841.475	623.95701
841.66	818.37586
841.844	733.83477
842.029	873.33561
842.213	742.28816
842.397	809.92106
842.582	719.04176
842.766	748.6283
842.951	700.02295
843.135	725.38156
843.319	638.7464
843.504	712.70206
843.688	797.23912
843.872	746.51491
844.056	678.89201
844.241	759.19542
844.425	678.89201
844.609	691.57044
844.793	585.92998
844.977	674.66595
845.161	522.5611
845.346	719.04176
845.53	691.57044
845.714	708.47565
845.898	583.81748
846.082	687.34425
846.266	676.77897
846.45	653.53639
846.634	619.73158
846.818	598.60519
847.002	569.03042
847.186	653.53639
847.37	670.43995
847.554	727.49485
847.738	581.70501
847.922	795.1255
848.106	602.83037
848.29	573.25523
848.473	670.43995
848.657	651.4235
848.841	600.71778
849.025	733.83477
849.209	573.25523
849.392	590.155
849.576	550.01944
849.76	598.60519
849.944	594.38007
850.127	550.01944
850.311	505.66485
850.495	615.5062
850.678	651.4235
850.862	598.60519
851.046	526.78531
851.229	558.46863
851.413	406.41873
851.596	600.71778
851.78	581.70501
851.964	687.34425
852.147	604.94298
852.331	611.28088
852.514	488.76953
852.698	632.40802
852.881	556.35631
853.065	552.13172
853.248	482.43403
853.431	571.14282
853.615	440.20081
853.798	640.85922
853.982	550.01944
854.165	528.89743
854.348	516.2249
854.532	465.54001
854.715	505.66485
854.898	457.09336
855.081	395.86267
855.265	480.32222
855.448	406.41873
855.631	438.08931
855.814	442.31232
855.997	556.35631
856.181	457.09336
856.364	552.13172
856.547	408.52999
856.73	516.2249
856.913	404.30748
857.096	480.32222
857.279	533.12172
857.462	423.30926
857.645	387.41813
857.828	524.6732
858.011	522.5611
858.194	518.33696
858.377	440.20081
858.56	478.21043
858.743	482.43403
858.926	347.3102
859.109	433.86636
859.292	383.19595
859.475	395.86267
859.658	461.31665
859.841	406.41873
860.023	457.09336
860.206	421.19789
860.389	497.21707
860.572	313.53995
860.755	389.52924
860.937	412.75256
861.12	362.08609
861.303	450.75854
861.486	429.64347
861.668	425.42065
861.851	452.87013
862.034	383.19595
862.216	421.19789
862.399	406.41873
862.581	400.08505
862.764	374.75181
862.947	406.41873
863.129	243.90353
863.312	452.87013
863.494	423.30926
863.677	351.5318
863.859	353.64262
864.042	438.08931
864.224	378.97385
864.406	343.08867
864.589	338.86722
864.771	279.77431
864.954	345.19943
865.136	313.53995
865.318	296.65654
865.501	355.75346
865.683	252.34322
865.865	328.31388
866.048	302.98769
866.23	315.65046
866.412	311.42946
866.594	324.09267
866.777	300.87729
866.959	269.22351
867.141	340.97794
867.323	395.86267
867.505	349.42099
867.687	353.64262
867.869	338.86722
868.052	336.75651
868.234	324.09267
868.416	351.5318
868.598	311.42946
868.78	366.30793
868.962	319.87153
869.144	269.22351
869.326	340.97794
869.508	423.30926
869.69	355.75346
869.872	402.19626
870.054	319.87153
870.236	389.52924
870.417	317.76099
870.599	277.66411
870.781	260.78321
870.963	294.5462
871.145	334.64583
871.327	340.97794
871.508	317.76099
871.69	370.52983
871.872	313.53995
872.054	305.0981
872.235	260.78321
872.417	298.76691
872.599	353.64262
872.78	414.86386
872.962	210.14789
873.144	311.42946
873.325	311.42946
873.507	313.53995
873.689	294.5462
873.87	378.97385
874.052	275.55393
874.233	326.20327
874.415	290.32557
874.596	362.08609
874.778	349.42099
874.959	362.08609
875.141	252.34322
875.322	271.33363
875.503	319.87153
875.685	391.64037
875.866	294.5462
876.048	353.64262
876.229	281.88452
876.41	220.69599
876.592	252.34322
876.773	315.65046
876.954	366.30793
877.136	319.87153
877.317	319.87153
877.498	281.88452
877.679	224.91537
877.86	227.02509
878.042	298.76691
878.223	324.09267
878.404	231.24458
878.585	281.88452
878.766	374.75181
878.947	313.53995
879.128	256.56318
879.309	309.31899
879.49	267.11341
879.672	235.46415
879.853	328.31388
880.034	319.87153
880.215	374.75181
880.396	298.76691
880.576	229.13482
880.757	321.98209
880.938	271.33363
881.119	227.02509
881.3	381.08489
881.481	343.08867
881.662	302.98769
881.843	298.76691
882.023	338.86722
882.204	319.87153
882.385	286.10501
882.566	330.42451
882.747	336.75651
882.927	305.0981
883.108	265.00332
883.289	315.65046
883.469	324.09267
883.65	338.86722
883.831	353.64262
884.011	347.3102
884.192	421.19789
884.373	324.09267
884.553	298.76691
884.734	387.41813
884.914	222.80567
885.095	355.75346
885.275	311.42946
885.456	311.42946
885.636	391.64037
885.817	345.19943
885.997	328.31388
886.178	372.64081
886.358	389.52924
886.538	408.52999
886.719	370.52983
886.899	440.20081
887.08	319.87153
887.26	307.20854
887.44	220.69599
887.621	296.65654
887.801	260.78321
887.981	224.91537
888.161	334.64583
888.342	340.97794
888.522	336.75651
888.702	378.97385
888.882	262.89326
889.062	340.97794
889.242	345.19943
889.423	355.75346
889.603	381.08489
889.783	345.19943
889.963	328.31388
890.143	374.75181
890.323	328.31388
890.503	353.64262
890.683	248.12334
890.863	362.08609
891.043	340.97794
891.223	260.78321
891.403	260.78321
891.583	330.42451
891.763	277.66411
891.943	381.08489
892.122	391.64037
892.302	256.56318
892.482	286.10501
892.662	338.86722
892.842	328.31388
893.022	307.20854
893.201	300.87729
893.381	298.76691
893.561	387.41813
893.741	340.97794
893.92	305.0981
894.1	364.197
894.28	328.31388
894.459	353.64262
894.639	313.53995
894.819	383.19595
894.998	292.43587
895.178	248.12334
895.357	364.197
895.537	336.75651
895.716	296.65654
895.896	338.86722
896.075	286.10501
896.255	305.0981
896.434	292.43587
896.614	319.87153
896.793	279.77431
896.973	292.43587
897.152	218.58633
897.331	315.65046
897.511	294.5462
897.69	254.45319
897.87	237.57397
898.049	332.53516
898.228	220.69599
898.407	227.02509
898.587	243.90353
898.766	355.75346
898.945	298.76691
899.124	328.31388
899.304	271.33363
899.483	313.53995
899.662	210.14789
899.841	117.34672
900.02	254.45319
900.199	277.66411
900.378	178.50662
900.557	254.45319
900.737	161.63315
900.916	237.57397
901.095	279.77431
901.274	212.25747
901.453	305.0981
901.632	176.39736
901.811	87.82774
901.989	309.31899
902.168	197.49084
902.347	229.13482
902.526	243.90353
902.705	229.13482
902.884	237.57397
903.063	193.27198
903.242	218.58633
903.42	157.41499
903.599	262.89326
903.778	180.61589
903.957	125.7815
904.135	210.14789
904.314	134.21663
904.493	248.12334
904.672	151.08791
904.85	262.89326
905.029	235.46415
905.207	229.13482
905.386	144.76102
905.565	231.24458
905.743	201.70978
905.922	237.57397
906.1	146.86997
906.279	170.06972
906.457	146.86997
906.636	186.94385
906.814	218.58633
906.993	170.06972
907.171	180.61589
907.35	125.7815
907.528	184.83451
907.707	191.16258
907.885	123.67278
908.063	142.6521
908.242	144.76102
908.42	66.74543
908.598	210.14789
908.777	201.70978
908.955	151.08791
909.133	125.7815
909.311	193.27198
909.49	79.39455
909.668	144.76102
909.846	176.39736
910.024	165.85139
910.202	92.04447
910.38	178.50662
910.559	94.15287
910.737	153.19692
910.915	134.21663
911.093	100.4782
911.271	96.26129
911.449	127.89025
911.627	138.43433
911.805	125.7815
911.983	155.30595
912.161	155.30595
912.339	199.6003
912.517	212.25747
912.695	146.86997
912.872	108.91229
913.05	182.72519
913.228	235.46415
913.406	142.6521
913.584	205.9288
913.762	51.98916
913.939	136.32547
914.117	210.14789
914.295	127.89025
914.473	174.28813
914.65	136.32547
914.828	142.6521
915.006	155.30595
915.184	159.52406
915.361	155.30595
915.539	186.94385
915.716	172.17891
915.894	151.08791
916.072	189.0532
916.249	159.52406
916.427	138.43433
916.604	94.15287
916.782	170.06972
916.959	167.96055
917.137	134.21663
917.314	127.89025
917.492	146.86997
917.669	89.9361
917.847	125.7815
918.024	117.34672
918.201	60.42118
918.379	163.74226
918.556	195.3814
918.733	176.39736
918.911	16.15725
919.088	151.08791
919.265	148.97893
919.442	153.19692
919.62	132.10782
919.797	142.6521
919.974	75.17808
920.151	195.3814
920.328	170.06972
920.506	138.43433
920.683	100.4782
920.86	113.12946
921.037	119.45538
921.214	94.15287
921.391	58.31314
921.568	172.17891
921.745	138.43433
921.922	108.91229
922.099	151.08791
922.276	108.91229
922.453	43.55752
922.63	125.7815
922.807	77.2863
922.984	142.6521
923.161	85.71941
923.338	113.12946
923.514	125.7815
923.691	62.52924
923.868	140.5432
924.045	100.4782
924.222	77.2863
924.399	75.17808
924.575	100.4782
924.752	92.04447
924.929	176.39736
925.105	73.06989
925.282	66.74543
925.459	51.98916
925.635	151.08791
925.812	134.21663
925.989	83.6111
926.165	148.97893
926.342	58.31314
926.518	102.58669
926.695	83.6111
926.871	115.23808
927.048	45.6654
927.224	92.04447
927.401	125.7815
927.577	85.71941
927.754	96.26129
927.93	28.80304
928.107	37.23403
928.283	77.2863
928.459	49.88122
928.636	64.63732
928.812	87.82774
928.988	87.82774
929.165	41.44967
929.341	100.4782
929.517	37.23403
929.693	75.17808
929.87	68.85356
930.046	106.80373
930.222	75.17808
930.398	83.6111
930.574	66.74543
930.751	16.15725
930.927	20.37242
931.103	37.23403
931.279	87.82774
931.455	56.20513
931.631	113.12946
931.807	28.80304
931.983	129.99903
932.159	108.91229
932.335	70.96171
932.511	75.17808
932.687	102.58669
932.863	11.94218
933.039	100.4782
933.215	83.6111
933.391	64.63732
933.566	49.88122
933.742	11.94218
933.918	33.01848
934.094	117.34672
934.27	70.96171
934.445	22.48004
934.621	45.6654
934.797	18.26482
934.973	49.88122
935.148	51.98916
935.324	56.20513
935.5	68.85356
935.675	41.44967
935.851	140.5432
936.027	41.44967
936.202	18.26482
936.378	26.69535
936.553	18.26482
936.729	117.34672
936.904	70.96171
937.08	26.69535
937.255	33.01848
937.431	62.52924
937.606	49.88122
937.782	43.55752
937.957	18.26482
938.133	35.12624
938.308	49.88122
938.483	-17.56062
938.659	35.12624
938.834	60.42118
939.009	92.04447
939.185	33.01848
939.36	-9.13173
939.535	33.01848
939.71	-70.23219
939.886	54.09713
940.061	14.04971
940.236	1.40492
940.411	35.12624
940.586	62.52924
940.761	54.09713
940.937	9.83468
941.112	58.31314
941.287	51.98916
941.462	37.23403
941.637	-13.34623
941.812	-17.56062
941.987	51.98916
942.162	-9.13173
942.337	26.69535
942.512	-13.34623
942.687	47.77329
942.862	16.15725
943.037	24.58768
943.212	49.88122
943.386	56.20513
943.561	-34.41722
943.736	68.85356
943.911	7.72721
944.086	66.74543
944.26	11.94218
944.435	37.23403
944.61	43.55752
944.785	43.55752
944.959	16.15725
945.134	22.48004
945.309	-15.45344
945.483	56.20513
945.658	24.58768
945.833	-25.98912
946.007	-2.80981
946.182	16.15725
946.357	-0.70246
946.531	-0.70246
946.706	16.15725
946.88	-42.84492
947.055	79.39455
947.229	-11.23899
947.404	43.55752
947.578	45.6654
947.752	45.6654
947.927	92.04447
948.101	20.37242
948.276	16.15725
948.45	54.09713
948.624	35.12624
948.799	49.88122
948.973	24.58768
949.147	87.82774
949.321	64.63732
949.496	35.12624
949.67	51.98916
949.844	58.31314
950.018	18.26482
950.193	54.09713
950.367	28.80304
950.541	77.2863
950.715	54.09713
950.889	-15.45344
951.063	-25.98912
951.237	9.83468
951.411	41.44967
951.585	5.61975
951.759	33.01848
951.933	-21.77492
952.107	-7.02445
952.281	51.98916
952.455	35.12624
952.629	-0.70246
952.803	-21.77492
952.977	37.23403
953.151	51.98916
953.325	11.94218
953.499	16.15725
953.672	33.01848
953.846	33.01848
954.02	-4.91714
954.194	7.72721
954.368	-51.27223
954.541	-15.45344
954.715	20.37242
954.889	70.96171
955.062	64.63732
955.236	-59.69913
955.41	37.23403
955.583	16.15725
955.757	39.34183
955.93	33.01848
956.104	41.44967
956.278	49.88122
956.451	-15.45344
956.625	94.15287
956.798	11.94218
956.972	77.2863
957.145	43.55752
957.319	47.77329
957.492	16.15725
957.665	-15.45344
957.839	-25.98912
958.012	-7.02445
958.185	14.04971
958.359	-17.56062
958.532	16.15725
958.705	83.6111
958.879	30.91075
959.052	-84.97739
959.225	39.34183
959.398	58.31314
959.572	9.83468
959.745	77.2863
959.918	-51.27223
960.091	18.26482
960.264	45.6654
960.438	37.23403
960.611	60.42118
960.784	14.04971
960.957	-9.13173
961.13	-40.73804
961.303	14.04971
961.476	-9.13173
961.649	83.6111
961.822	49.88122
961.995	-30.20322
962.168	49.88122
962.341	24.58768
962.514	20.37242
962.686	60.42118
962.859	30.91075
963.032	-15.45344
963.205	-17.56062
963.378	-9.13173
963.551	1.40492
963.723	16.15725
963.896	-25.98912
964.069	9.83468
964.242	37.23403
964.414	77.2863
964.587	9.83468
964.76	-11.23899
964.932	24.58768
965.105	35.12624
965.278	41.44967
965.45	26.69535
965.623	16.15725
965.795	54.09713
965.968	14.04971
966.14	11.94218
966.313	7.72721
966.485	-4.91714
966.658	3.51233
966.83	33.01848
967.003	49.88122
967.175	35.12624
967.348	-47.05863
967.52	-9.13173
967.692	102.58669
967.865	68.85356
968.037	33.01848
968.209	-47.05863
968.382	51.98916
968.554	20.37242
968.726	33.01848
968.898	-13.34623
969.071	-7.02445
969.243	-68.12563
969.415	41.44967
969.587	28.80304
969.759	-30.20322
969.932	-23.88203
970.104	16.15725
970.276	49.88122
970.448	-9.13173
970.62	-7.02445
970.792	-59.69913
970.964	41.44967
971.136	-13.34623
971.308	33.01848
971.48	81.50281
971.652	30.91075
971.824	37.23403
971.996	5.61975
972.168	-15.45344
972.339	41.44967
972.511	-47.05863
972.683	22.48004
972.855	33.01848
973.027	-30.20322
973.199	-51.27223
973.37	16.15725
973.542	-9.13173
973.714	-25.98912
973.886	75.17808
974.057	41.44967
974.229	-13.34623
974.401	33.01848
974.572	3.51233
974.744	68.85356
974.915	-38.63112
975.087	-21.77492
975.259	33.01848
975.43	1.40492
975.602	-0.70246
975.773	24.58768
975.945	-47.05863
976.116	-23.88203
976.288	-0.70246
976.459	30.91075
976.63	60.42118
976.802	1.40492
976.973	26.69535
977.145	16.15725
977.316	-38.63112
977.487	3.51233
977.659	-49.16544
977.83	79.39455
978.001	-7.02445
978.172	41.44967
978.344	-25.98912
978.515	58.31314
978.686	16.15725
978.857	-87.08375
979.028	-4.91714
979.2	-68.12563
979.371	98.36974
979.542	24.58768
979.713	43.55752
979.884	-11.23899
980.055	-23.88203
980.226	-34.41722
980.397	-9.13173
980.568	-34.41722
980.739	85.71941
980.91	-4.91714
981.081	11.94218
981.252	16.15725
981.423	49.88122
981.594	35.12624
981.765	28.80304
981.936	7.72721
982.106	64.63732
982.277	22.48004
982.448	22.48004
982.619	18.26482
982.79	51.98916
982.96	11.94218
983.131	-9.13173
983.302	56.20513
983.472	26.69535
983.643	51.98916
983.814	33.01848
983.984	-21.77492
984.155	33.01848
984.326	28.80304
984.496	62.52924
984.667	-23.88203
984.837	7.72721
985.008	16.15725
985.178	-0.70246
985.349	16.15725
985.519	37.23403
985.69	-76.55171
985.86	11.94218
986.031	33.01848
986.201	60.42118
986.371	47.77329
986.542	16.15725
986.712	22.48004
986.882	33.01848
987.053	113.12946
987.223	-9.13173
987.393	-25.98912
987.563	-59.69913
987.734	41.44967
987.904	11.94218
988.074	49.88122
988.244	16.15725
988.414	41.44967
988.585	16.15725
988.755	-17.56062
988.925	26.69535
989.095	62.52924
989.265	3.51233
989.435	-25.98912
989.605	-30.20322
989.775	39.34183
989.945	58.31314
990.115	-9.13173
990.285	-47.05863
990.455	7.72721
990.625	39.34183
990.795	-34.41722
990.965	16.15725
991.134	54.09713
991.304	-84.97739
991.474	-4.91714
991.644	16.15725
991.814	41.44967
991.984	33.01848
992.153	16.15725
992.323	-9.13173
992.493	1.40492
992.662	-84.97739
992.832	83.6111
993.002	45.6654
993.171	28.80304
993.341	68.85356
993.511	102.58669
993.68	7.72721
993.85	-30.20322
994.019	58.31314
994.189	-13.34623
994.358	7.72721
994.528	-4.91714
994.697	-9.13173
994.867	49.88122
995.036	16.15725
995.206	-0.70246
995.375	-17.56062
995.544	7.72721
995.714	-49.16544
995.883	18.26482
996.052	9.83468
996.222	22.48004
996.391	-59.69913
996.56	9.83468
996.73	-61.80579
996.899	24.58768
997.068	41.44967
997.237	3.51233
997.406	-49.16544
997.576	1.40492
997.745	14.04971
997.914	24.58768
998.083	-9.13173
998.252	9.83468
998.421	-84.97739
998.59	14.04971
998.759	22.48004
998.928	-42.84492
999.097	-34.41722
999.266	11.94218
999.435	-36.52418
999.604	60.42118
999.773	-40.73804
999.942	49.88122
1000.111	26.69535
1000.28	45.6654
1000.448	58.31314
1000.617	-25.98912
1000.786	66.74543
1000.955	30.91075
1001.124	-17.56062
1001.292	-32.31023
1001.461	-49.16544
1001.63	14.04971
1001.798	30.91075
1001.967	14.04971
1002.136	28.80304
1002.304	24.58768
1002.473	35.12624
1002.642	20.37242
1002.81	7.72721
1002.979	-15.45344
1003.147	30.91075
1003.316	-84.97739
1003.484	-0.70246
1003.653	75.17808
1003.821	-23.88203
1003.99	-40.73804
1004.158	11.94218
1004.327	33.01848
1004.495	-9.13173
1004.663	16.15725
1004.832	-38.63112
1005	-21.77492
1005.168	-25.98912
1005.337	56.20513
1005.505	7.72721
1005.673	-17.56062
1005.842	-17.56062
1006.01	3.51233
1006.178	26.69535
1006.346	51.98916
1006.514	-59.69913
1006.683	75.17808
1006.851	-17.56062
1007.019	41.44967
1007.187	24.58768
1007.355	68.85356
1007.523	9.83468
1007.691	-42.84492
1007.859	-15.45344
1008.027	-34.41722
1008.195	-25.98912
1008.363	-80.7646
1008.531	-9.13173
1008.699	3.51233
1008.867	-13.34623
1009.035	28.80304
1009.203	-2.80981
1009.37	-7.02445
1009.538	100.4782
1009.706	49.88122
1009.874	-4.91714
1010.042	-17.56062
1010.209	28.80304
1010.377	-21.77492
1010.545	1.40492
1010.713	51.98916
1010.88	-17.56062
1011.048	64.63732
1011.216	-70.23219
1011.383	14.04971
1011.551	-97.61513
1011.718	-17.56062
1011.886	-19.66778
1012.054	5.61975
1012.221	51.98916
1012.389	-15.45344
1012.556	18.26482
1012.724	7.72721
1012.891	11.94218
1013.058	-9.13173
1013.226	-13.34623
1013.393	-17.56062
1013.561	-49.16544
1013.728	56.20513
1013.895	-15.45344
1014.063	30.91075
1014.23	7.72721
1014.397	-40.73804
1014.565	56.20513
1014.732	28.80304
1014.899	20.37242
1015.066	96.26129
1015.233	-19.66778
1015.401	51.98916
1015.568	7.72721
1015.735	33.01848
1015.902	-9.13173
1016.069	16.15725
1016.236	-13.34623
1016.403	-32.31023
1016.57	62.52924
1016.737	-9.13173
1016.904	-55.48573
1017.071	-42.84492
1017.238	-36.52418
1017.405	1.40492
1017.572	-32.31023
1017.739	35.12624
1017.906	-72.33872
1018.073	18.26482
1018.24	62.52924
1018.407	-7.02445
1018.573	35.12624
1018.74	-47.05863
1018.907	9.83468
1019.074	7.72721
1019.241	-7.02445
1019.407	41.44967
1019.574	-89.19007
1019.741	51.98916
1019.907	75.17808
1020.074	14.04971
1020.241	-42.84492
1020.407	-0.70246
1020.574	41.44967
1020.74	-59.69913
1020.907	-23.88203
1021.073	9.83468
1021.24	43.55752
1021.406	-44.95179
1021.573	-34.41722
1021.739	-13.34623
1021.906	-66.01904
1022.072	56.20513
1022.239	14.04971
1022.405	-40.73804
1022.571	41.44967
1022.738	-76.55171
1022.904	-28.09618
1023.07	33.01848
1023.237	-4.91714
1023.403	-9.13173
1023.569	70.96171
1023.735	-17.56062
1023.902	-44.95179
1024.068	-70.23219
1024.234	-76.55171
1024.4	-42.84492
1024.566	51.98916
1024.732	37.23403
1024.898	-44.95179
1025.065	-57.59244
1025.231	18.26482
1025.397	-9.13173
1025.563	58.31314
1025.729	30.91075
1025.895	-25.98912
1026.061	-74.44523
1026.227	-9.13173
1026.392	-42.84492
1026.558	41.44967
1026.724	16.15725
1026.89	33.01848
1027.056	-72.33872
1027.222	-9.13173
1027.388	11.94218
1027.553	3.51233
1027.719	-25.98912
1027.885	77.2863
1028.051	-55.48573
1028.216	-4.91714
1028.382	-13.34623
1028.548	3.51233
1028.713	9.83468
1028.879	-9.13173
1029.045	-11.23899
1029.21	24.58768
1029.376	-0.70246
1029.541	11.94218
1029.707	26.69535
1029.873	-42.84492
1030.038	1.40492
1030.204	-15.45344
1030.369	-9.13173
1030.534	16.15725
1030.7	-76.55171
1030.865	62.52924
1031.031	-17.56062
1031.196	-32.31023
1031.361	-4.91714
1031.527	26.69535
1031.692	-7.02445
1031.857	-4.91714
1032.023	-15.45344
1032.188	37.23403
1032.353	-66.01904
1032.518	49.88122
1032.684	26.69535
1032.849	-9.13173
1033.014	-23.88203
1033.179	41.44967
1033.344	-13.34623
1033.509	-70.23219
1033.674	16.15725
1033.839	-30.20322
1034.004	24.58768
1034.17	-36.52418
1034.335	-38.63112
1034.5	16.15725
1034.664	51.98916
1034.829	41.44967
1034.994	58.31314
1035.159	26.69535
1035.324	9.83468
1035.489	-4.91714
1035.654	-4.91714
1035.819	58.31314
1035.984	-15.45344
1036.148	-9.13173
1036.313	-42.84492
1036.478	-51.27223
1036.643	-49.16544
1036.807	9.83468
1036.972	49.88122
1037.137	-9.13173
1037.301	7.72721
1037.466	-9.13173
1037.631	-30.20322
1037.795	-0.70246
1037.96	-21.77492
1038.124	35.12624
1038.289	16.15725
1038.454	-21.77492
1038.618	-19.66778
1038.783	20.37242
1038.947	-4.91714
1039.111	-32.31023
1039.276	45.6654
1039.44	-17.56062
1039.605	22.48004
1039.769	37.23403
1039.933	11.94218
1040.098	7.72721
1040.262	30.91075
1040.426	30.91075
1040.591	1.40492
1040.755	3.51233
1040.919	11.94218
1041.083	70.96171
1041.248	28.80304
1041.412	26.69535
1041.576	-7.02445
1041.74	54.09713
1041.904	-30.20322
1042.068	-17.56062
1042.232	-17.56062
1042.397	37.23403
1042.561	5.61975
1042.725	-57.59244
1042.889	62.52924
1043.053	-42.84492
1043.217	7.72721
1043.381	-32.31023
1043.544	43.55752
1043.708	-17.56062
1043.872	-49.16544
1044.036	-21.77492
1044.2	-0.70246
1044.364	-17.56062
1044.528	49.88122
1044.691	-0.70246
1044.855	-0.70246
1045.019	33.01848
1045.183	-25.98912
1045.346	30.91075
1045.51	45.6654
1045.674	-44.95179
1045.837	-28.09618
1046.001	54.09713
1046.165	-9.13173
1046.328	-4.91714
1046.492	49.88122
1046.655	-17.56062
1046.819	-17.56062
1046.983	18.26482
1047.146	37.23403
1047.31	11.94218
1047.473	7.72721
1047.636	-13.34623
1047.8	20.37242
1047.963	-28.09618
1048.127	7.72721
1048.29	75.17808
