Data from mixed_try1_USB4F045381__22__00170.txt Node

Date: Thu Apr 03 20:12:02 EDT 2025
User: mmckonesweet
Spectrometer: USB4F04538
Trigger mode: 4
Integration Time (sec): 2.700000E-3
Scans to average: 1
Electric dark correction enabled: true
Nonlinearity correction enabled: true
Boxcar width: 0
XAxis mode: Wavelengths
Number of Pixels in Spectrum: 3648
>>>>>Begin Spectral Data<<<<<
345.52	33.72107
345.736	33.72107
345.952	33.72107
346.168	-40.03573
346.384	40.04444
346.6	0
346.816	8.4297
347.032	-67.42343
347.248	-42.14263
347.464	-21.07254
347.68	-31.6079
347.896	63.23193
348.112	-50.56997
348.328	4.2148
348.544	92.74727
348.76	61.12386
348.975	-16.85823
349.191	-12.64382
349.407	-58.9969
349.623	52.69182
349.839	67.44814
350.055	2.10739
350.27	-8.42931
350.486	-16.85823
350.702	25.29023
350.918	67.44814
351.133	0
351.349	35.82884
351.565	-12.64382
351.781	-33.71489
351.996	-23.17966
352.212	-42.14263
352.428	-14.75104
352.644	4.2148
352.859	10.53718
353.075	4.2148
353.291	-12.64382
353.506	59.01582
353.722	0
353.938	14.75222
354.153	-35.82187
354.369	29.5056
354.584	4.2148
354.8	2.10739
355.016	27.39791
355.231	50.58386
355.447	-12.64382
355.662	75.88082
355.878	27.39791
356.093	-56.89021
356.309	21.07496
356.524	4.2148
356.74	-31.6079
356.955	42.15228
357.171	-33.71489
357.386	-12.64382
357.602	4.2148
357.817	25.29023
358.033	8.4297
358.248	-16.85823
358.464	27.39791
358.679	21.07496
358.895	-109.5499
359.11	-33.71489
359.325	29.5056
359.541	-8.42931
359.756	18.96735
359.972	42.15228
360.187	67.44814
360.402	-6.32202
360.618	-23.17966
360.833	-4.2147
361.048	-18.9654
361.264	0
361.479	56.90779
361.694	21.07496
361.909	37.93663
362.125	18.96735
362.34	80.0973
362.555	-29.50088
362.77	0
362.986	8.4297
363.201	18.96735
363.416	-67.42343
363.631	-4.2147
363.847	0
364.062	31.61332
364.277	-12.64382
364.492	10.53718
364.707	-23.17966
364.922	-14.75104
365.138	40.04444
365.353	23.18258
365.568	0
365.783	52.69182
365.998	25.29023
366.213	16.85977
366.428	-12.64382
366.643	16.85977
366.858	50.58386
367.073	-4.2147
367.288	-40.03573
367.503	12.64469
367.718	59.01582
367.933	56.90779
368.148	-8.42931
368.363	10.53718
368.578	61.12386
368.793	-8.42931
369.008	-6.32202
369.223	0
369.438	10.53718
369.653	82.20557
369.868	-35.82187
370.083	56.90779
370.298	-23.17966
370.513	42.15228
370.728	18.96735
370.943	8.4297
371.157	-33.71489
371.372	21.07496
371.587	-101.12544
371.802	18.96735
372.017	54.79979
372.232	-16.85823
372.446	37.93663
372.661	-16.85823
372.876	25.29023
373.091	12.64469
373.306	50.58386
373.52	6.32224
373.735	-33.71489
373.95	-44.2495
374.165	18.96735
374.379	29.5056
374.594	21.07496
374.809	0
375.023	59.01582
375.238	29.5056
375.453	25.29023
375.667	-44.2495
375.882	46.36803
376.097	96.96411
376.311	-29.50088
376.526	-12.64382
376.741	-44.2495
376.955	-10.53658
377.17	8.4297
377.384	12.64469
377.599	-21.07254
377.813	-8.42931
378.028	-54.78349
378.242	12.64469
378.457	-16.85823
378.672	6.32224
378.886	-18.9654
379.101	65.34002
379.315	-25.28676
379.53	0
379.744	4.2148
379.958	61.12386
380.173	-96.91306
380.387	4.2148
380.602	-2.10736
380.816	63.23193
381.031	50.58386
381.245	-42.14263
381.459	0
381.674	84.31387
381.888	50.58386
382.103	12.64469
382.317	40.04444
382.531	0
382.746	-4.2147
382.96	10.53718
383.174	33.72107
383.388	8.4297
383.603	0
383.817	44.26014
384.031	25.29023
384.246	18.96735
384.46	-25.28676
384.674	50.58386
384.888	23.18258
385.103	16.85977
385.317	-12.64382
385.531	-48.46317
385.745	21.07496
385.959	0
386.174	18.96735
386.388	27.39791
386.602	-48.46317
386.816	-42.14263
387.03	-8.42931
387.244	-23.17966
387.458	-21.07254
387.672	-33.71489
387.887	29.5056
388.101	33.72107
388.315	27.39791
388.529	-58.9969
388.743	75.88082
388.957	40.04444
389.171	-18.9654
389.385	-56.89021
389.599	65.34002
389.813	12.64469
390.027	-14.75104
390.241	8.4297
390.455	0
390.669	-50.56997
390.883	67.44814
391.097	-67.42343
391.311	-25.28676
391.525	-21.07254
391.738	-42.14263
391.952	-2.10736
392.166	31.61332
392.38	42.15228
392.594	16.85977
392.808	33.72107
393.022	-8.42931
393.236	42.15228
393.449	2.10739
393.663	-29.50088
393.877	-29.50088
394.091	29.5056
394.305	33.72107
394.518	-10.53658
394.732	50.58386
394.946	21.07496
395.16	-16.85823
395.373	8.4297
395.587	-48.46317
395.801	10.53718
396.015	31.61332
396.228	35.82884
396.442	-67.42343
396.656	10.53718
396.869	-16.85823
397.083	-71.63655
397.297	-42.14263
397.51	0
397.724	2.10739
397.938	-25.28676
398.151	35.82884
398.365	-4.2147
398.578	2.10739
398.792	-75.84956
399.005	29.5056
399.219	59.01582
399.433	33.72107
399.646	50.58386
399.86	10.53718
400.073	46.36803
400.287	-31.6079
400.5	-4.2147
400.714	0
400.927	-31.6079
401.141	-63.21022
401.354	37.93663
401.567	-33.71489
401.781	0
401.994	67.44814
402.208	52.69182
402.421	-8.42931
402.635	31.61332
402.848	-42.14263
403.061	21.07496
403.275	44.26014
403.488	33.72107
403.701	-54.78349
403.915	-23.17966
404.128	-40.03573
404.341	-25.28676
404.555	16.85977
404.768	75.88082
404.981	-12.64382
405.195	25.29023
405.408	25.29023
405.621	-6.32202
405.834	40.04444
406.048	18.96735
406.261	75.88082
406.474	4.2148
406.687	50.58386
406.9	8.4297
407.114	50.58386
407.327	-67.42343
407.54	-42.14263
407.753	50.58386
407.966	21.07496
408.179	35.82884
408.392	0
408.605	-8.42931
408.819	37.93663
409.032	25.29023
409.245	-10.53658
409.458	-14.75104
409.671	0
409.884	-14.75104
410.097	6.32224
410.31	48.47593
410.523	-12.64382
410.736	42.15228
410.949	16.85977
411.162	12.64469
411.375	0
411.588	25.29023
411.801	40.04444
412.014	-14.75104
412.227	25.29023
412.44	-6.32202
412.653	-23.17966
412.865	29.5056
413.078	25.29023
413.291	8.4297
413.504	-8.42931
413.717	21.07496
413.93	46.36803
414.143	52.69182
414.356	-18.9654
414.568	52.69182
414.781	-16.85823
414.994	42.15228
415.207	-6.32202
415.42	-12.64382
415.632	46.36803
415.845	-25.28676
416.058	-50.56997
416.271	52.69182
416.483	21.07496
416.696	59.01582
416.909	8.4297
417.121	25.29023
417.334	88.53052
417.547	2.10739
417.759	16.85977
417.972	-48.46317
418.185	109.61514
418.397	-44.2495
418.61	-37.92881
418.823	33.72107
419.035	-16.85823
419.248	-65.31684
419.46	-2.10736
419.673	50.58386
419.885	44.26014
420.098	-8.42931
420.311	-42.14263
420.523	-21.07254
420.736	69.55627
420.948	65.34002
421.161	63.23193
421.373	-58.9969
421.586	-42.14263
421.798	94.85568
422.01	10.53718
422.223	-18.9654
422.435	25.29023
422.648	69.55627
422.86	-46.35635
423.073	50.58386
423.285	-8.42931
423.497	37.93663
423.71	-8.42931
423.922	37.93663
424.134	25.29023
424.347	10.53718
424.559	84.31387
424.771	-2.10736
424.984	6.32224
425.196	59.01582
425.408	-25.28676
425.621	16.85977
425.833	8.4297
426.045	46.36803
426.257	4.2148
426.47	67.44814
426.682	75.88082
426.894	10.53718
427.106	77.98905
427.318	-25.28676
427.531	-8.42931
427.743	21.07496
427.955	37.93663
428.167	-12.64382
428.379	-8.42931
428.591	69.55627
428.804	29.5056
429.016	-27.39383
429.228	8.4297
429.44	27.39791
429.652	25.29023
429.864	33.72107
430.076	35.82884
430.288	10.53718
430.5	4.2148
430.712	0
430.924	14.75222
431.136	33.72107
431.348	2.10739
431.56	-27.39383
431.772	27.39791
431.984	18.96735
432.196	67.44814
432.408	40.04444
432.62	27.39791
432.832	-12.64382
433.044	-14.75104
433.256	-16.85823
433.468	25.29023
433.679	75.88082
433.891	21.07496
434.103	-23.17966
434.315	-12.64382
434.527	-42.14263
434.739	-16.85823
434.95	-50.56997
435.162	-4.2147
435.374	80.0973
435.586	21.07496
435.798	16.85977
436.009	40.04444
436.221	29.5056
436.433	40.04444
436.645	56.90779
436.856	-33.71489
437.068	33.72107
437.28	33.72107
437.491	16.85977
437.703	18.96735
437.915	56.90779
438.126	-40.03573
438.338	18.96735
438.55	44.26014
438.761	59.01582
438.973	-10.53658
439.184	-21.07254
439.396	0
439.608	-16.85823
439.819	10.53718
440.031	88.53052
440.242	35.82884
440.454	111.72373
440.665	-12.64382
440.877	63.23193
441.088	-33.71489
441.3	-25.28676
441.511	18.96735
441.723	25.29023
441.934	-6.32202
442.146	54.79979
442.357	63.23193
442.569	-12.64382
442.78	101.18103
442.991	35.82884
443.203	67.44814
443.414	50.58386
443.626	63.23193
443.837	12.64469
444.048	12.64469
444.26	61.12386
444.471	4.2148
444.682	44.26014
444.894	-6.32202
445.105	16.85977
445.316	-50.56997
445.528	4.2148
445.739	18.96735
445.95	-25.28676
446.161	-10.53658
446.373	-56.89021
446.584	92.74727
446.795	10.53718
447.006	-4.2147
447.217	-25.28676
447.429	52.69182
447.64	44.26014
447.851	61.12386
448.062	-50.56997
448.273	21.07496
448.484	50.58386
448.695	31.61332
448.907	21.07496
449.118	27.39791
449.329	80.0973
449.54	37.93663
449.751	54.79979
449.962	-92.70056
450.173	18.96735
450.384	139.13728
450.595	44.26014
450.806	12.64469
451.017	8.4297
451.228	29.5056
451.439	23.18258
451.65	6.32224
451.861	33.72107
452.072	27.39791
452.283	84.31387
452.494	35.82884
452.705	42.15228
452.915	25.29023
453.126	50.58386
453.337	-42.14263
453.548	21.07496
453.759	-14.75104
453.97	50.58386
454.181	0
454.391	16.85977
454.602	8.4297
454.813	-65.31684
455.024	46.36803
455.235	8.4297
455.445	-12.64382
455.656	16.85977
455.867	35.82884
456.078	48.47593
456.288	-10.53658
456.499	2.10739
456.71	59.01582
456.921	8.4297
457.131	-61.10358
457.342	59.01582
457.553	69.55627
457.763	-2.10736
457.974	65.34002
458.184	16.85977
458.395	-31.6079
458.606	-6.32202
458.816	8.4297
459.027	118.04961
459.237	-31.6079
459.448	94.85568
459.659	-37.92881
459.869	8.4297
460.08	50.58386
460.29	33.72107
460.501	2.10739
460.711	16.85977
460.922	59.01582
461.132	16.85977
461.343	44.26014
461.553	42.15228
461.764	94.85568
461.974	103.28953
462.184	27.39791
462.395	-4.2147
462.605	42.15228
462.816	0
463.026	0
463.236	37.93663
463.447	18.96735
463.657	10.53718
463.867	33.72107
464.078	54.79979
464.288	61.12386
464.498	94.85568
464.709	-2.10736
464.919	63.23193
465.129	-14.75104
465.339	109.61514
465.55	71.66443
465.76	-48.46317
465.97	54.79979
466.18	35.82884
466.391	61.12386
466.601	63.23193
466.811	-16.85823
467.021	-16.85823
467.231	21.07496
467.441	21.07496
467.651	69.55627
467.862	61.12386
468.072	12.64469
468.282	-23.17966
468.492	-4.2147
468.702	31.61332
468.912	84.31387
469.122	71.66443
469.332	59.01582
469.542	59.01582
469.752	56.90779
469.962	42.15228
470.172	-2.10736
470.382	2.10739
470.592	-25.28676
470.802	90.63889
471.012	71.66443
471.222	18.96735
471.432	118.04961
471.642	77.98905
471.852	84.31387
472.062	92.74727
472.272	10.53718
472.482	84.31387
472.691	94.85568
472.901	67.44814
473.111	92.74727
473.321	77.98905
473.531	111.72373
473.741	27.39791
473.95	111.72373
474.16	86.42218
474.37	2.10739
474.58	84.31387
474.79	27.39791
474.999	126.48442
475.209	96.96411
475.419	71.66443
475.628	35.82884
475.838	42.15228
476.048	25.29023
476.258	168.6636
476.467	31.61332
476.677	56.90779
476.886	101.18103
477.096	96.96411
477.306	101.18103
477.515	88.53052
477.725	71.66443
477.935	118.04961
478.144	160.22709
478.354	92.74727
478.563	75.88082
478.773	126.48442
478.982	147.57295
479.192	137.02842
479.401	137.02842
479.611	113.83233
479.82	99.07256
480.03	153.89993
480.239	105.39804
480.449	196.08454
480.658	185.53762
480.868	177.10045
481.077	96.96411
481.287	162.33619
481.496	189.75633
481.705	187.64696
481.915	179.20971
482.124	168.6636
482.333	185.53762
482.543	248.82665
482.752	189.75633
482.961	177.10045
483.171	212.96067
483.38	196.08454
483.589	183.42829
483.799	168.6636
484.008	244.60683
484.217	236.16742
484.426	238.27725
484.636	244.60683
484.845	193.97512
485.054	261.48656
485.263	297.36
485.472	253.04654
485.682	196.08454
485.891	185.53762
486.1	316.35397
486.309	345.90302
486.518	364.90064
486.727	227.72833
486.936	248.82665
487.146	350.12459
487.355	312.13296
487.564	215.07028
487.773	345.90302
487.982	301.58075
488.191	388.12183
488.4	443.01617
488.609	354.34623
488.818	320.57505
489.027	314.24345
489.236	364.90064
489.445	377.56649
489.654	419.79031
489.863	430.34728
490.072	407.12248
490.281	440.90465
490.49	474.69081
490.698	447.23925
490.907	390.23295
491.116	512.70485
491.325	476.80258
491.534	400.78878
491.743	350.12459
491.952	516.92892
492.16	457.79724
492.369	512.70485
492.578	447.23925
492.787	531.71362
492.996	531.71362
493.204	554.94811
493.413	540.16233
493.622	571.84695
493.831	497.92105
494.039	624.66125
494.248	525.37723
494.457	736.65255
494.665	622.54853
494.874	692.27481
495.083	557.06041
495.291	633.11228
495.5	696.50105
495.709	797.94367
495.917	736.65255
496.126	683.82246
496.335	770.4673
496.543	848.67345
496.752	601.42197
496.96	804.2846
497.169	717.63293
497.377	747.21937
497.586	772.5808
497.794	806.39826
498.003	800.0573
498.211	878.26818
498.42	793.71643
498.628	844.44577
498.837	827.5354
499.045	890.95213
499.254	762.01336
499.462	939.57658
499.671	931.11986
499.879	863.47061
500.087	886.72411
500.296	998.77672
500.504	981.86185
500.713	990.31924
500.921	935.34821
501.129	960.71887
501.338	867.69844
501.546	1148.91225
501.754	979.74753
501.962	1081.24227
502.171	1081.24227
502.379	1167.94524
502.587	939.57658
502.795	1305.41376
503.004	1051.63825
503.212	1286.37898
503.42	1191.20821
503.628	1159.48609
503.837	1129.87959
504.045	1131.99431
504.253	1060.09644
504.461	1309.64373
504.669	1218.70137
504.877	1292.72388
505.085	1347.71381
505.294	1470.38628
505.502	1301.18379
505.71	1464.04112
505.918	1237.73541
506.126	1360.40394
506.334	1370.97908
506.542	1538.06766
506.75	1423.85514
506.958	1398.47458
507.166	1284.26401
507.374	1402.70467
507.582	1377.32418
507.79	1447.12071
507.998	1442.8906
508.206	1614.20782
508.414	1387.89937
508.622	1584.598
508.83	1497.88192
509.037	1538.06766
509.245	1387.89937
509.453	1650.16205
509.661	1406.93476
509.869	1673.42618
510.077	1519.03235
510.285	1643.81723
510.492	1595.17298
510.7	1614.20782
510.908	1679.77088
511.116	1669.19636
511.324	1461.92607
511.531	1694.57509
511.739	1709.37915
511.947	1622.6677
512.155	1605.74791
512.362	1538.06766
512.57	1726.29789
512.778	1800.31464
512.985	1715.72371
513.193	1789.74111
513.401	1652.27698
513.608	1842.60765
513.816	1867.98256
514.024	1834.14919
514.231	1777.05275
514.439	1817.23206
514.646	1821.46137
514.854	2011.75884
515.061	1753.79037
515.269	2011.75884
515.477	1954.67445
515.684	2104.77476
515.892	1973.70308
516.099	1958.90308
516.307	1844.72225
516.514	2180.86789
516.722	2056.15451
516.929	2083.63599
517.136	1927.18779
517.344	2163.9592
517.551	1977.9316
517.759	2089.9777
517.966	2132.25401
518.173	2240.04403
518.381	2070.95238
518.588	2206.22992
518.796	2244.27063
519.003	2202.003
519.21	2104.77476
519.418	2250.61047
519.625	2240.04403
519.832	2316.11731
520.039	2208.34336
520.247	2385.84021
520.454	2233.70405
520.661	2565.37635
520.868	2358.37491
521.076	2461.88878
521.283	2366.82596
521.49	2447.10264
521.697	2225.25063
521.904	2556.92942
522.112	2347.81088
522.319	2618.1653
522.526	2299.21318
522.733	2375.27684
522.94	2447.10264
523.147	2506.24394
523.354	2377.38954
523.561	2628.72218
523.768	2544.25868
523.975	2772.26412
524.183	2704.72244
524.39	2624.49947
524.597	2485.12305
524.804	2856.67169
525.011	2588.60442
525.218	2890.42844
525.425	2578.04638
525.632	2607.60812
525.838	2670.94658
526.045	2957.93082
526.252	2890.42844
526.459	2966.36756
526.666	2827.13157
526.873	2962.14922
527.08	2941.05664
527.287	2989.56735
527.494	2730.05215
527.701	3016.98293
527.907	2987.45835
528.114	3025.41797
528.321	2909.415
528.528	3126.61908
528.735	3002.22101
528.941	3181.42104
529.148	2841.90197
529.355	3137.15877
529.562	2932.61919
529.768	3067.58949
529.975	3050.72162
530.182	3444.73358
530.388	3255.1754
530.595	3236.21194
530.802	3000.11211
531.008	3227.7833
531.215	3314.16408
531.422	3229.89049
531.628	3356.29062
531.835	3429.99526
532.042	3170.88306
532.248	3366.82118
532.455	3314.16408
532.661	3476.31274
532.868	3429.99526
533.074	3396.30439
533.281	3307.8445
533.487	3573.12997
533.694	3265.71007
533.9	3766.64549
534.107	3305.73794
534.313	3646.76898
534.52	3518.41195
534.726	3796.07921
534.933	3398.4102
535.139	3556.29499
535.345	3549.98156
535.552	3707.76659
535.758	3518.41195
535.965	3836.01883
536.171	3583.65124
536.377	3812.89676
536.584	3642.56165
536.79	3875.95129
536.996	3661.49401
537.203	3777.15797
537.409	3701.45724
537.615	3817.10095
537.821	3861.24016
538.028	4062.90637
538.234	3716.17879
538.44	3941.08874
538.646	3842.32443
538.853	4079.70337
539.059	3817.10095
539.265	4050.30775
539.471	3955.79451
539.677	4182.55583
539.883	3783.46523
540.09	4153.17456
540.296	3985.20307
540.502	4276.96751
540.708	4081.8029
540.914	4268.57711
541.12	4274.86994
541.326	4375.5289
541.532	4186.75282
541.738	4482.42417
541.944	4167.86571
542.15	4356.65914
542.356	4199.34328
542.562	4341.98144
542.768	4228.71804
542.974	4383.9149
543.18	4383.9149
543.386	4723.25127
543.592	4463.56444
543.798	4589.26216
544.004	4497.09162
544.21	4551.56122
544.415	4272.77235
544.621	4490.8057
544.827	4339.88454
545.033	4675.10952
545.239	4365.04592
545.445	4702.32154
545.651	4585.07352
545.856	4878.06081
546.062	4440.51124
546.268	4574.60154
546.474	4647.8937
546.679	4566.22355
546.885	4476.13779
547.091	4702.32154
547.297	4371.33577
547.502	4599.73336
547.708	4631.14362
547.914	4723.25127
548.119	4601.82754
548.325	4850.87356
548.531	4670.92272
548.736	4693.94902
548.942	4892.69849
549.147	4798.57957
549.353	4823.68246
549.559	4924.06117
549.764	4721.1584
549.97	4792.30333
550.175	4775.5657
550.381	5224.87873
550.586	4951.23799
550.792	5158.07195
550.997	4995.13079
551.203	5133.01327
551.408	4819.49887
551.614	4928.24248
551.819	5007.66973
552.025	5216.52918
552.23	5072.44097
552.435	5082.88586
552.641	5412.64444
552.846	5402.21799
553.052	5389.70548
553.257	5260.36011
553.462	5026.47657
553.668	5514.79251
553.873	5289.57499
554.078	5385.53445
554.283	5028.5661
554.489	5727.24584
554.694	5493.95055
554.899	5525.2126
555.105	5471.02168
555.31	5745.97994
555.515	5433.49557
555.72	5462.6832
555.925	5425.1554
556.131	5877.06511
556.336	5347.99101
556.541	5693.93606
556.746	5423.07029
556.951	5666.86741
557.156	5543.96729
557.361	5783.44241
557.567	5741.81698
557.772	5777.19919
557.977	5483.52869
558.182	5600.2199
558.387	5408.47393
558.592	5933.21579
558.797	5683.52551
559.002	5908.26206
559.207	5654.37284
559.412	5951.92887
559.617	5627.29837
559.822	5829.21948
560.027	5508.54017
560.232	5835.46092
560.437	5700.1821
560.642	5718.91896
560.847	5593.97046
561.051	5793.84729
561.256	5787.60443
561.461	6080.7893
561.666	5785.52343
561.871	5924.89826
562.076	5758.46828
562.281	6174.26038
562.485	5850.02346
562.69	6066.24507
562.895	5999.7425
563.1	5962.3242
563.305	5721.00072
563.509	6109.87429
563.714	6068.32289
563.919	6078.71162
564.123	5966.48216
564.328	5918.65986
564.533	6001.82107
564.737	6014.292
564.942	6091.17732
565.147	6232.39616
565.351	6159.72356
565.556	6244.85144
565.761	5970.64003
565.965	6226.16821
566.17	6070.40068
566.374	6298.81457
566.579	6323.71529
566.784	6215.78782
566.988	6439.87424
567.193	6375.581
567.397	6269.75947
567.602	6232.39616
567.806	6159.72356
568.011	6526.94557
568.215	6485.48814
568.42	6613.97604
568.624	6462.6826
568.828	6481.34189
569.033	6412.91528
569.237	6613.97604
569.442	6466.82927
569.646	6381.80391
569.85	6311.26535
570.055	6589.11435
570.259	6491.70735
570.463	6667.83164
570.668	6441.94784
570.872	6715.46018
571.076	6754.79634
571.281	6736.16445
571.485	6626.40564
571.689	6580.82638
571.893	6512.43653
572.098	6642.97715
572.302	6539.38099
572.506	6777.56613
572.71	6622.26253
572.914	6796.1939
573.119	6587.04239
573.323	6732.02378
573.527	6694.75361
573.731	6872.75534
573.935	6833.4439
574.139	6864.47993
574.343	6725.8126
574.547	6736.16445
574.751	6912.05859
574.955	7267.48729
575.159	6707.17783
575.364	6969.96427
575.568	6783.77559
575.772	6798.26354
575.976	6818.95867
576.18	6953.42159
576.383	6821.02806
576.587	7044.38845
576.791	6897.5794
576.995	7131.17994
577.199	6934.80936
577.403	7027.85226
577.607	7089.85558
577.811	7271.61631
578.015	7120.84969
578.219	7133.24593
578.422	7038.18755
578.626	7110.51888
578.83	6980.3027
579.034	7091.92201
579.238	7060.92321
579.442	7242.7113
579.645	7023.71799
579.849	7465.58162
580.053	7327.34951
580.257	7345.92369
580.46	7465.58162
580.664	7477.95586
580.868	7368.62306
581.071	7331.47726
581.275	7362.43259
581.479	7605.77768
581.682	7517.13583
581.886	7314.96574
582.09	7513.01199
582.293	7508.88806
582.497	7432.57983
582.7	7424.32852
582.904	7397.50935
583.107	7657.2955
583.311	7426.39138
583.515	7712.91987
583.718	7729.39821
583.922	7548.06191
584.125	7411.9509
584.329	7558.36952
584.532	7550.12347
584.735	7622.26483
584.939	7513.01199
585.142	7815.88747
585.346	7646.993
585.549	7756.17264
585.753	7885.87567
585.956	7731.4579
586.159	7688.19983
586.363	7735.57724
586.566	7813.82863
586.769	7933.20708
586.973	7731.4579
587.176	7595.47252
587.379	7747.93473
587.582	7902.34001
587.786	7527.44506
587.989	7937.32234
588.192	7846.76757
588.395	8114.20142
588.599	8239.57197
588.802	8321.74221
589.005	8058.68576
589.208	8021.66714
589.411	8159.42557
589.615	7927.03404
589.818	8208.75
590.021	8161.48099
590.224	8044.29041
590.427	8543.4469
590.63	8093.64178
590.833	8403.88122
591.036	8056.62935
591.239	8611.1457
591.442	8241.62661
591.645	8206.69505
591.848	8233.40793
592.051	8198.47502
592.254	8101.86588
592.457	8307.36468
592.66	8163.53638
592.863	8500.35515
593.066	8338.1725
593.269	8473.6751
593.472	8531.13582
593.675	8578.32459
593.878	8494.1985
594.081	8371.02934
594.284	8537.29145
594.486	8691.12712
594.689	8502.40732
594.892	8543.4469
595.095	8368.97593
595.298	8664.46978
595.5	8520.87607
595.703	8703.42945
595.906	8656.2669
596.109	8584.47892
596.311	8719.83153
596.514	8740.33247
596.717	8752.63216
596.92	8935.00087
597.122	8789.52727
597.325	8535.23959
597.528	8389.50913
597.73	8889.93421
597.933	8559.86061
598.136	8736.23243
598.338	8424.41114
598.541	8881.73934
598.743	8754.68204
598.946	9023.06096
599.148	9033.2984
599.351	9021.01342
599.554	8668.57112
599.756	8807.97261
599.959	8668.57112
600.161	9002.58477
600.363	8715.73112
600.566	9080.38501
600.768	8930.90426
600.971	8904.27454
601.173	9059.9137
601.376	9078.33796
601.578	8941.14566
601.78	9276.82248
601.983	8799.77486
602.185	9250.23071
602.388	9133.60234
602.59	9059.9137
602.792	8906.32308
602.995	9031.25095
603.197	9051.72469
603.399	9080.38501
603.601	9084.47907
603.804	9002.58477
604.006	9002.58477
604.208	8994.39381
604.41	8941.14566
604.613	9061.96091
604.815	9059.9137
605.017	9244.09374
605.219	8822.31797
605.421	9340.22228
605.623	9366.80456
605.826	9601.83636
606.028	9010.77546
606.23	9309.54695
606.432	9325.90759
606.634	9397.47298
606.836	9233.86513
607.038	9268.6407
607.24	9311.59209
607.442	9354.53616
607.644	9342.26717
607.846	9730.50444
608.048	9160.20665
608.25	9366.80456
608.452	9448.57887
608.654	9689.66407
608.856	9481.28133
609.058	9593.66487
609.26	9158.16027
609.462	9509.89261
609.664	9274.77706
609.866	9483.3251
610.067	9387.25058
610.269	9550.76045
610.471	9225.68194
610.673	9493.54369
610.875	9293.18525
611.077	9334.08751
611.278	9285.004
611.48	9344.31204
611.682	9342.26717
611.884	9610.00759
612.085	9231.81935
612.287	9593.66487
612.489	9524.19708
612.69	9687.62189
612.892	9697.83263
613.094	9691.70623
613.295	9411.78365
613.497	9571.19199
613.699	9452.6669
613.9	9585.49314
614.102	9689.66407
614.304	9852.98918
614.505	9464.93061
614.707	9914.21141
614.908	9462.8867
615.11	9957.05911
615.311	9591.62196
615.513	9458.79883
615.714	9712.12703
615.916	9897.88678
616.117	9716.21101
616.319	10073.32792
616.52	9683.53748
616.722	9665.15689
616.923	9550.76045
617.124	9706.00095
617.326	9581.40717
617.527	9732.5463
617.729	9783.58782
617.93	9663.11453
618.131	9779.50485
618.333	9767.25556
618.534	9728.46257
618.735	9720.29492
618.937	9820.33187
619.138	9775.42181
619.339	9661.07215
619.54	10059.05179
619.742	9918.29242
619.943	10001.94031
620.144	9779.50485
620.345	9806.0431
620.546	9724.37878
620.748	9922.37337
620.949	9797.87775
621.15	10018.25902
621.351	9763.17235
621.552	10091.68192
621.753	9697.83263
621.954	9914.21141
622.155	9738.67178
622.356	9944.81756
622.558	9828.49656
622.759	10061.09128
622.96	9838.70208
623.161	9875.43887
623.362	9918.29242
623.563	10073.32792
623.764	9846.86623
623.965	10358.70802
624.166	9897.88678
624.366	9973.38035
624.567	9697.83263
624.768	9999.90041
624.969	9759.08907
625.17	9995.82056
625.371	9740.71358
625.572	9904.00862
625.773	9977.46052
625.973	9952.97865
626.174	10020.29879
626.375	10391.30607
626.576	10038.65612
626.777	10036.61647
626.977	9597.75064
627.178	9795.83638
627.379	9924.41382
627.58	9763.17235
627.78	9995.82056
627.981	10220.12828
628.182	10065.17021
628.382	10050.89369
628.583	9995.82056
628.784	10116.15215
628.984	9593.66487
629.185	10399.45506
629.386	9697.83263
629.586	10156.93139
629.787	10097.79967
629.987	10140.62036
630.188	9712.12703
630.388	9936.65624
630.589	9836.661
630.79	10230.32009
630.99	9985.62068
631.191	10087.60335
631.391	10075.36731
631.591	10040.69575
631.792	10207.89766
631.992	10377.04484
632.193	10330.18196
632.393	10332.21962
632.594	10269.04588
632.794	10383.15688
632.994	10497.22672
633.195	10403.52948
633.395	10110.03478
633.595	10267.0078
633.796	10262.93161
633.996	10364.82042
634.196	10362.78297
634.397	10391.30607
634.597	10081.48539
634.797	10313.88018
634.997	10246.62629
635.198	10344.44532
635.398	10138.58142
635.598	10423.90077
635.798	10311.8424
635.998	10183.43492
636.199	10326.1066
636.399	10397.41783
636.599	10393.34334
636.799	10360.7455
636.999	10203.82067
637.199	10277.19806
637.399	10256.81721
637.599	10539.99254
637.799	10018.25902
637.999	10391.30607
638.199	10436.12292
638.399	10289.42592
638.599	10216.05146
638.799	10597.00499
638.999	10680.46998
639.199	10676.399
639.399	10635.68646
639.599	10643.82936
639.799	10423.90077
639.999	10594.969
640.199	10440.19687
640.399	10664.18575
640.599	10262.93161
640.799	11087.33199
640.998	10879.88979
641.198	10983.6254
641.398	10550.17405
641.598	10928.71022
641.798	10814.78556
641.997	10635.68646
642.197	10517.59209
642.397	11058.86635
642.597	10806.6467
642.796	10867.68365
642.996	10489.08021
643.196	10594.969
643.395	10515.55561
643.595	10922.60803
643.795	10682.50546
643.994	11197.10829
644.194	11060.89968
644.394	10940.9143
644.593	10757.80954
644.793	11105.6302
644.992	10725.24763
645.192	11014.13031
645.392	10662.15017
645.591	10993.79398
645.791	11036.499
645.99	10835.13191
646.19	10592.933
646.389	10590.89698
646.589	10792.40323
646.788	11014.13031
646.987	10822.92424
647.187	11030.39858
647.386	10637.7222
647.586	11042.59932
647.785	11050.73292
647.984	11069.0329
648.184	10607.18476
648.383	11172.71623
648.582	10857.51155
648.782	11286.53303
648.981	11164.58521
649.18	11219.46635
649.38	10961.25354
649.579	11077.16593
649.778	10859.54599
649.977	11040.56589
650.177	11058.86635
650.376	11300.75786
650.575	10751.70441
650.774	11107.66328
650.973	10877.85546
651.173	11125.96053
651.372	11001.92865
651.571	10930.74426
651.77	11020.231
651.969	11132.05942
652.168	10959.21967
652.367	11180.84709
652.566	10877.85546
652.765	11237.75838
652.964	11199.1409
653.163	11369.84287
653.362	11107.66328
653.561	11223.53132
653.76	10859.54599
653.959	11050.73292
654.158	11406.41263
654.357	11148.32265
654.556	10912.43747
654.755	11123.92755
654.954	11428.75925
655.153	11373.90634
655.352	11270.27547
655.551	11306.85406
655.749	11229.62869
655.948	11414.53881
656.147	11514.07197
656.346	11056.83301
656.545	11130.02647
656.743	11310.91815
656.942	11111.72941
657.141	11436.88501
657.34	11125.96053
657.538	11485.63627
657.737	11418.60185
657.936	11538.44394
658.135	11256.04957
658.333	11396.25469
658.532	11219.46635
658.731	11564.84539
658.929	11343.42938
659.128	11386.09649
659.326	11217.43386
659.525	11678.55693
659.724	11077.16593
659.922	11463.29263
660.121	11215.40135
660.319	11666.37491
660.518	11115.7955
660.716	11595.30665
660.915	11516.10302
661.113	11757.73227
661.312	11308.88611
661.51	11550.62942
661.709	11538.44394
661.907	11572.9686
662.105	11599.368
662.304	11510.00984
662.502	11414.53881
662.701	11467.3552
662.899	11382.03315
663.097	11292.62945
663.296	11109.69635
663.494	11329.20603
663.692	11371.87461
663.891	11570.93781
664.089	11199.1409
664.287	11682.61753
664.485	11475.48022
664.684	11832.83511
664.882	11353.58862
665.08	11684.64782
665.278	11473.44898
665.476	11684.64782
665.675	11390.1598
665.873	11522.19611
666.071	11229.62869
666.269	11384.06483
666.467	11174.74896
666.665	11603.4293
666.863	11343.42938
667.061	11684.64782
667.259	11922.13154
667.457	12228.46348
667.655	11668.40527
667.853	11505.94767
668.051	11227.59625
668.249	11469.38647
668.447	11467.3552
668.645	11237.75838
668.843	11434.85358
669.041	11735.40212
669.239	11800.35964
669.437	11652.16215
669.635	11776.00161
669.833	11601.39866
670.031	11355.62043
670.229	11617.64359
670.426	11440.94782
670.624	11765.85206
670.822	11317.0142
671.02	11749.61234
671.218	11392.19144
671.415	11552.6603
671.613	11300.75786
671.811	11481.57388
672.009	11609.5212
672.206	11704.9502
672.404	11402.34948
672.602	11247.92025
672.799	11530.3201
672.997	11621.70474
673.195	11497.82323
673.392	11875.45587
673.59	11560.78373
673.788	11670.43562
673.985	11335.30182
674.183	11652.16215
674.38	11499.85435
674.578	11757.73227
674.775	11497.82323
674.973	11702.92
675.17	11550.62942
675.368	11550.62942
675.565	11524.22712
675.763	11524.22712
675.96	11540.47488
676.158	11727.2818
676.355	11406.41263
676.553	11863.27889
676.75	11353.58862
676.947	11353.58862
677.145	11367.81112
677.342	11574.99938
677.539	11392.19144
677.737	11662.31417
677.934	11264.17872
678.131	11572.9686
678.329	11386.09649
678.526	11684.64782
678.723	11538.44394
678.92	11948.51153
679.118	11577.03015
679.315	11723.22159
679.512	11382.03315
679.709	11412.50728
679.906	11314.98219
680.104	11725.2517
680.301	11337.33372
680.498	11304.82201
680.695	11345.46125
680.892	11658.25339
681.089	11349.52495
681.286	11546.56763
681.483	11325.14213
681.68	11390.1598
681.877	11522.19611
682.075	11745.55232
682.272	11520.16509
682.469	11591.24527
682.665	11085.2988
682.862	11304.82201
683.059	11329.20603
683.256	11304.82201
683.453	11193.04305
683.65	11091.39833
683.847	11077.16593
684.044	11150.35551
684.241	11010.06314
684.438	11445.0106
684.635	10971.42274
684.831	11377.96976
685.028	11174.74896
685.225	11170.68349
685.422	11046.66614
685.619	11180.84709
685.815	11150.35551
686.012	11115.7955
686.209	10831.06274
686.405	11160.51963
686.602	11026.33158
686.799	11197.10829
686.996	11062.933
687.192	11024.29806
687.389	11042.59932
687.586	11180.84709
687.782	11166.61798
687.979	11142.22402
688.175	10745.59918
688.372	11390.1598
688.568	11229.62869
688.765	10953.11798
688.962	10818.85493
689.158	11268.24323
689.355	11404.38106
689.551	11176.78168
689.748	11042.59932
689.944	11595.30665
690.14	11191.01042
690.337	10955.15189
690.533	11119.86154
690.73	10983.6254
690.926	11046.66614
691.123	10957.18578
691.319	10778.15918
691.515	11066.99961
691.712	10922.60803
691.908	10993.79398
692.104	11050.73292
692.301	11018.19745
692.497	10896.164
692.693	11176.78168
692.889	11064.96631
693.086	11211.3363
693.282	11134.09236
693.478	11197.10829
693.674	10879.88979
693.87	11014.13031
694.067	10932.77829
694.263	11193.04305
694.459	10881.92411
694.655	11221.49884
694.851	10969.38892
695.047	11150.35551
695.243	10879.88979
695.439	10961.25354
695.635	10794.43804
695.831	10993.79398
696.027	10995.82767
696.224	10814.78556
696.42	10885.9927
696.615	11091.39833
696.811	10989.72659
697.007	11093.43149
697.203	10942.94828
697.399	11073.09944
697.595	10863.61485
697.791	11115.7955
697.987	10814.78556
698.183	11158.48683
698.379	10847.33916
698.575	11020.231
698.77	10904.30083
698.966	11191.01042
699.162	10873.78677
699.358	11140.19112
699.554	10770.01947
699.749	10737.4587
699.945	10778.15918
700.141	11069.0329
700.337	10881.92411
700.532	11069.0329
700.728	10961.25354
700.924	10810.71615
701.119	10949.05013
701.315	11022.26454
701.511	10645.86505
701.706	10761.87956
701.902	10607.18476
702.097	10611.25658
702.293	10621.43591
702.489	10505.37302
702.684	10305.72898
702.88	10684.54092
703.075	10476.86007
703.271	10774.08935
703.466	10254.77906
703.662	10859.54599
703.857	10676.399
704.053	10989.72659
704.248	10711.00083
704.443	10857.51155
704.639	10808.68143
704.834	10977.52412
705.03	10802.57719
705.225	10776.12427
705.42	10660.11457
705.616	10594.969
705.811	10757.80954
706.006	10767.98451
706.202	10342.40773
706.397	10478.89679
706.592	10676.399
706.787	10755.77451
706.983	10564.42765
707.178	10873.78677
707.373	10735.42355
707.568	10796.47285
707.763	10566.46383
707.959	10949.05013
708.154	10688.61181
708.349	10678.4345
708.544	10837.16648
708.739	10623.47174
708.934	10493.15349
709.129	10711.00083
709.324	10501.29989
709.519	10507.40956
709.714	10546.10148
709.909	10794.43804
710.104	10529.81071
710.299	10552.21032
710.494	10372.97009
710.689	10749.66935
710.884	10560.35526
711.079	10841.23559
711.274	10505.37302
711.469	10796.47285
711.664	10761.87956
711.859	10816.82025
712.054	10395.38059
712.249	10619.40007
712.443	10326.1066
712.638	10499.26331
712.833	10075.36731
713.028	10409.641
713.223	10209.93613
713.417	10597.00499
713.612	10507.40956
713.807	10841.23559
714.002	10375.00747
714.196	10423.90077
714.391	10161.00901
714.586	10307.7668
714.78	10370.93269
714.975	10289.42592
715.17	10105.95646
715.364	10641.79365
715.559	10397.41783
715.754	10269.04588
715.948	10138.58142
716.143	10048.85413
716.337	10256.81721
716.532	10397.41783
716.726	10132.46452
716.921	10381.11954
717.115	10203.82067
717.31	10181.39627
717.504	10203.82067
717.699	10613.29247
717.893	10199.74363
718.088	10269.04588
718.282	10124.30844
718.476	10393.34334
718.671	10138.58142
718.865	10173.24154
719.059	10091.68192
719.254	9975.42044
719.448	9799.91911
719.642	9883.60195
719.837	9779.50485
720.031	10187.51218
720.225	9942.77725
720.419	10370.93269
720.614	10089.64264
720.808	10258.85536
721.002	9742.75536
721.196	10240.51157
721.39	10216.05146
721.585	9965.21985
721.779	10085.56404
721.973	10093.72118
722.167	9934.61588
722.361	10128.38651
722.555	10028.45774
722.749	10165.08657
722.943	10146.7371
723.137	10377.04484
723.331	10138.58142
723.525	10262.93161
723.719	10130.42552
723.913	9999.90041
724.107	9991.74065
724.301	10277.19806
724.495	9789.71217
724.689	10140.62036
724.883	9893.80547
725.077	10052.93324
725.271	9959.09931
725.465	9771.33872
725.659	9942.77725
725.853	10107.99563
726.046	9659.02975
726.24	9879.52044
726.434	9689.66407
726.628	10052.93324
726.822	9755.00574
727.015	9908.08978
727.209	9524.19708
727.403	10093.72118
727.596	9669.24157
727.79	9991.74065
727.984	9873.39807
728.177	10089.64264
728.371	9640.64749
728.565	9904.00862
728.758	9789.71217
728.952	9844.82521
729.146	9697.83263
729.339	9922.37337
729.533	9881.56121
729.726	10067.20966
729.92	9959.09931
730.113	9865.23469
730.307	9722.33686
730.5	9938.69659
730.694	9991.74065
730.887	10050.89369
731.081	9734.58814
731.274	9885.64269
731.468	9589.57904
731.661	9575.27811
731.854	9689.66407
732.048	9979.50058
732.241	9814.2082
732.435	10163.0478
732.628	9771.33872
732.821	9985.62068
733.014	9806.0431
733.208	9830.53769
733.401	9552.80368
733.594	9761.13072
733.788	10252.74088
733.981	9881.56121
734.174	10010.09978
734.367	10218.08988
734.56	9918.29242
734.754	10048.85413
734.947	10120.23032
735.14	9901.96802
735.333	10079.44604
735.526	9912.17088
735.719	9789.71217
735.912	9942.77725
736.105	9536.45743
736.298	9934.61588
736.491	9687.62189
736.684	9683.53748
736.877	10024.3783
737.07	10077.40668
737.263	9812.16695
737.456	9785.62928
737.649	9879.52044
737.842	9877.47966
738.035	9730.50444
738.228	9755.00574
738.421	9673.3262
738.614	9518.06669
738.807	9814.2082
739	9554.84689
739.192	9746.83888
739.385	9773.38027
739.578	9585.49314
739.771	9563.01957
739.964	9779.50485
740.156	10044.77497
740.349	9881.56121
740.542	9938.69659
740.735	9681.49525
740.927	9701.91682
741.12	9338.17737
741.313	9524.19708
741.505	9654.94491
741.698	9632.47719
741.891	9526.24051
742.083	9738.67178
742.276	9681.49525
742.468	9652.90247
742.661	9634.51979
742.854	9577.32115
743.046	9720.29492
743.239	9656.98734
743.431	9730.50444
743.624	9550.76045
743.816	9469.01839
744.009	9710.08502
744.201	9522.15363
744.393	9591.62196
744.586	9350.44656
744.778	9685.57969
744.971	9567.10581
745.163	9677.41076
745.355	9520.11017
745.548	9493.54369
745.74	9673.3262
745.932	9550.76045
746.125	9730.50444
746.317	9785.62928
746.509	9583.45016
746.702	9773.38027
746.894	9575.27811
747.086	9665.15689
747.278	9413.82797
747.471	9497.63102
747.663	9477.19375
747.855	9411.78365
748.047	9407.69497
748.239	9391.33959
748.431	9248.18507
748.623	9352.49137
748.815	9599.79351
749.008	9364.75987
749.2	9419.96082
749.392	9610.00759
749.584	9201.13074
749.776	9401.56182
749.968	9289.09466
750.16	9419.96082
750.352	9317.7274
750.544	9303.41143
750.736	9149.97457
750.928	9344.31204
751.12	9227.72776
751.311	9338.17737
751.503	9346.3569
751.695	9135.64893
751.887	9045.58275
752.079	9166.3457
752.271	9039.44066
752.463	9037.39326
752.654	9098.80772
752.846	9139.74205
753.038	8998.48933
753.23	9327.95259
753.421	8982.10683
753.613	9162.25302
753.805	9086.52607
753.997	9055.81923
754.188	9119.27574
754.38	8863.29985
754.572	8982.10683
754.763	9117.22902
754.955	8969.81922
755.146	8814.12073
755.338	8748.53233
755.53	8994.39381
755.721	9199.08469
755.913	9076.29089
756.104	9092.66697
756.296	9248.18507
756.487	9123.36914
756.679	9149.97457
756.87	8908.37161
757.062	9002.58477
757.253	8789.52727
757.445	8814.12073
757.636	8684.9757
757.827	8881.73934
758.019	8826.41648
758.21	8904.27454
758.401	8826.41648
758.593	8810.022
758.784	8559.86061
758.975	8728.03213
759.167	8723.93186
759.358	8994.39381
759.549	8650.11454
759.74	8682.9252
759.932	8744.43244
760.123	8600.88962
760.314	8611.1457
760.505	8660.36838
760.696	8455.2024
760.888	8801.82432
761.079	8350.4944
761.27	8545.49868
761.461	8584.47892
761.652	8492.14624
761.843	8524.98003
762.034	8600.88962
762.225	8288.87788
762.416	8305.31067
762.607	8336.11878
762.798	8664.46978
762.989	8570.11857
763.18	8734.18238
763.371	8590.63307
763.562	8701.37911
763.753	8568.06701
763.944	8699.32875
764.135	8477.77993
764.326	9006.68015
764.517	8777.22955
764.708	8510.61585
764.899	8295.04032
765.089	8465.4652
765.28	8518.82406
765.471	8600.88962
765.662	8233.40793
765.853	8157.37014
766.043	7943.49508
766.234	8461.36014
766.425	8042.23385
766.615	8198.47502
766.806	8173.81305
766.997	8192.3098
767.187	8093.64178
767.378	8280.66101
767.569	8206.69505
767.759	8184.08922
767.95	8366.92251
768.141	8177.92358
768.331	8091.5857
768.522	8231.35321
768.712	8288.87788
768.903	8184.08922
769.093	8089.52961
769.284	7906.45588
769.474	8015.49674
769.665	7887.93379
769.855	7949.66763
770.046	8194.36489
770.236	8050.45997
770.426	7906.45588
770.617	7855.00148
770.807	8138.87034
770.998	8009.32614
771.188	7824.12262
771.378	7976.41323
771.569	8050.45997
771.759	8116.25727
771.949	7824.12262
772.139	7793.23909
772.33	7611.96052
772.52	7614.02142
772.71	7912.62955
772.9	7552.18502
773.09	7696.44018
773.281	7634.62929
773.471	7931.14942
773.661	7607.83865
773.851	7560.43098
774.041	7649.05354
774.231	7673.7784
774.421	7422.26564
774.611	7387.19331
774.802	7362.43259
774.992	7574.8606
775.182	7475.89354
775.372	7488.26713
775.562	7308.77356
775.752	7496.51576
775.942	7546.00032
776.131	7548.06191
776.321	7399.5725
776.511	7432.57983
776.701	7366.55959
776.891	7475.89354
777.081	7354.17831
777.271	7350.05105
777.461	7104.32012
777.651	7552.18502
777.84	7211.73685
778.03	7766.46956
778.22	7603.71669
778.41	7626.3864
778.599	7317.02975
778.789	7292.2601
778.979	7168.36425
779.169	7279.87409
779.358	7067.12337
779.548	7343.85998
779.738	7259.22898
779.927	7337.66872
780.117	7240.64649
780.307	7277.80968
780.496	7021.65082
780.686	7302.58118
780.875	7071.2567
781.065	7261.29359
781.254	6965.82873
781.444	7222.06222
781.633	7124.98186
781.823	7317.02975
782.012	7013.38192
782.202	7246.84085
782.391	6895.51085
782.581	6986.50549
782.77	7058.85644
782.96	7007.18
783.149	6738.23475
783.338	6903.7849
783.528	6936.87748
783.717	7129.11394
783.906	7046.45537
784.096	6746.51573
784.285	6688.5412
784.474	6897.5794
784.663	6825.16676
784.853	6841.72068
785.042	6705.10718
785.231	7077.45653
785.42	6825.16676
785.61	7007.18
785.799	6856.20416
785.988	6945.14972
786.177	6767.21657
786.366	6655.40481
786.555	6570.4659
786.744	6763.07658
786.933	6609.83266
787.122	6765.14659
787.312	6626.40564
787.501	6709.24845
787.69	6340.31391
787.879	6796.1939
788.068	6504.14513
788.257	6587.04239
788.445	6506.21802
788.634	6705.10718
788.823	6647.11979
789.012	6688.5412
789.201	6340.31391
789.39	6406.69343
789.579	6309.19028
789.768	6479.26873
789.957	6663.68946
790.145	6758.93651
790.334	6365.20903
790.523	6377.65533
790.712	6524.87292
790.9	6601.54561
791.089	6460.60923
791.278	6657.47601
791.467	6473.0491
791.655	6651.26235
791.844	6408.7674
792.033	6599.47379
792.221	6265.60836
792.41	6529.0182
792.599	6302.96492
792.787	6508.29088
792.976	6593.2582
793.164	6475.12233
793.353	6292.58886
793.541	6547.67081
793.73	6298.81457
793.918	6464.75594
794.107	6358.98556
794.295	6307.11518
794.484	6082.86695
794.672	5974.79781
794.861	6078.71162
795.049	6217.86394
795.238	5924.89826
795.426	6199.17797
795.614	6012.21357
795.803	6307.11518
795.991	6076.63392
796.179	6207.48308
796.368	6045.46561
796.556	6030.91858
796.744	5587.72081
796.932	5889.54452
797.121	5941.53295
797.309	5956.08707
797.497	5960.24518
797.685	5825.0584
797.874	5899.94339
798.062	5854.18397
798.25	5714.75538
798.438	5802.17077
798.626	5997.6639
798.814	6273.91048
799.002	5908.26206
799.19	6118.18344
799.378	6043.38753
799.566	5895.78391
799.755	5625.21555
799.943	5850.02346
800.131	5575.22086
800.318	6024.68379
800.506	5685.60767
800.694	5933.21579
800.882	5924.89826
801.07	6068.32289
801.258	5993.50664
801.446	5899.94339
801.634	5671.03208
801.822	5716.83719
802.01	5700.1821
802.197	5976.87667
802.385	5847.94317
802.573	6060.01148
802.761	5939.4537
802.949	6182.56662
803.136	5718.91896
803.324	5910.34167
803.512	5891.62435
803.699	5945.69139
803.887	6060.01148
804.075	6141.03167
804.262	5883.30492
804.45	5837.54135
804.638	5800.08994
804.825	5891.62435
805.013	5756.38695
805.201	6068.32289
805.388	5791.76636
805.576	5922.81882
805.763	5937.37442
805.951	5902.02309
806.138	6188.79605
806.326	6062.08937
806.513	5970.64003
806.701	6172.18376
806.888	5966.48216
807.075	6365.20903
807.263	6024.68379
807.45	5989.34929
807.638	5874.98512
807.825	5862.50472
808.012	5602.303
808.2	5652.29033
808.387	5847.94317
808.574	6012.21357
808.761	5791.76636
808.949	6149.33941
809.136	5924.89826
809.323	5926.97768
809.51	5529.38048
809.698	6037.15316
809.885	5741.81698
810.072	5795.9282
810.259	6184.64312
810.446	6165.95376
810.633	6008.05664
810.82	6010.13511
811.008	5704.34602
811.195	5924.89826
811.382	5899.94339
811.569	5924.89826
811.756	5866.66495
811.943	6057.93357
812.13	5804.25158
812.317	6128.56935
812.504	5912.42125
812.691	6238.62391
812.878	6168.03045
813.064	6203.33057
813.251	5920.73935
813.438	6209.5593
813.625	5752.22422
813.812	6068.32289
813.999	6041.30943
814.186	6062.08937
814.372	6099.48732
814.559	5945.69139
814.746	5654.37284
814.933	5802.17077
815.12	5995.58528
815.306	6032.9968
815.493	5893.70414
815.68	6207.48308
815.866	5675.19665
816.053	5858.34439
816.24	5804.25158
816.426	5941.53295
816.613	5985.19184
816.799	6018.44878
816.986	6078.71162
817.173	5939.4537
817.359	5593.97046
817.546	5764.71213
817.732	5498.11913
817.919	5723.08245
818.105	5795.9282
818.292	5750.14282
818.478	5677.2789
818.665	5939.4537
818.851	5916.58035
819.037	6005.97814
819.224	5800.08994
819.41	5958.16614
819.597	5908.26206
819.783	5874.98512
819.969	5675.19665
820.156	6018.44878
820.342	5804.25158
820.528	5785.52343
820.714	5677.2789
820.901	5850.02346
821.087	5783.44241
821.273	5831.29998
821.459	6055.85563
821.646	5918.65986
821.832	5673.11438
822.018	5850.02346
822.204	5641.87743
822.39	5810.49387
822.576	5652.29033
822.762	5650.2078
822.948	5496.03485
823.134	5758.46828
823.32	5373.02082
823.507	5641.87743
823.693	5475.19077
823.879	5598.13678
824.065	5625.21555
824.25	5721.00072
824.436	5521.04463
824.622	5766.79337
824.808	5752.22422
824.994	5625.21555
825.18	5408.47393
825.366	5543.96729
825.552	5268.70768
825.738	5475.19077
825.923	5314.61268
826.109	5621.04984
826.295	5627.29837
826.481	5629.38116
826.667	5654.37284
826.852	5768.87458
827.038	5341.73303
827.224	5739.73546
827.409	5410.55919
827.595	5441.83536
827.781	5537.71594
827.966	5483.52869
828.152	5325.04405
828.338	5510.6243
828.523	5011.84919
828.709	5252.01215
828.894	5204.00417
829.08	5235.31513
829.266	5229.05336
829.451	5370.93513
829.637	4967.96026
829.822	5185.21508
830.008	5059.90633
830.193	5243.66383
830.378	5101.68521
830.564	5304.18072
830.749	5249.92511
830.935	5260.36011
831.12	5160.16003
831.305	5320.87157
831.491	5041.10282
831.676	5300.00777
831.861	5009.75947
832.047	5193.56602
832.232	4924.06117
832.417	5066.17376
832.602	4823.68246
832.788	5078.70797
832.973	5107.95124
833.158	5168.51209
833.343	4936.6048
833.528	4984.68105
833.714	5003.49017
833.899	4967.96026
834.084	4746.27136
834.269	4907.33505
834.454	4702.32154
834.639	4873.8784
834.824	4723.25127
835.009	4976.32084
835.194	4832.04936
835.379	4965.87005
835.564	4589.26216
835.749	4850.87356
835.934	4629.04976
836.119	4551.56122
836.304	4631.14362
836.489	4758.82663
836.674	4823.68246
836.859	4614.39211
837.044	4658.36178
837.228	4677.20289
837.413	4786.02689
837.598	5091.24136
837.783	4589.26216
837.968	4748.36396
838.152	4425.83965
838.337	4614.39211
838.522	4528.51821
838.707	4696.04218
838.891	4308.42845
839.076	4515.94817
839.261	4220.32567
839.445	4413.26314
839.63	4467.75565
839.815	4497.09162
839.999	4172.063
840.184	4497.09162
840.368	4421.64756
840.553	4480.32873
840.737	4484.51959
840.922	4578.7904
841.106	4518.04323
841.291	4645.80002
841.475	4404.87836
841.66	4708.6007
841.844	4323.10856
842.029	4614.39211
842.213	4430.03164
842.397	4371.33577
842.582	4354.56239
842.766	4354.56239
842.951	4337.78762
843.135	4373.43235
843.319	4222.4238
843.504	4331.49673
843.688	4255.99087
843.872	4295.84465
844.056	4258.08863
844.241	4518.04323
844.425	4354.56239
844.609	4086.0019
844.793	4214.03118
844.977	4226.61998
845.161	4086.0019
845.346	4193.04815
845.53	3951.59297
845.714	4207.73649
845.898	4044.00817
846.082	4176.26019
846.266	3917.97767
846.45	4199.34328
846.634	4155.27336
846.818	4297.942
847.002	4058.70692
847.186	4069.2054
847.37	3869.64664
847.554	4081.8029
847.738	3905.3706
847.922	4153.17456
848.106	4220.32567
848.29	3938.98784
848.473	3804.48814
848.657	3959.99598
848.841	3703.56037
849.025	4050.30775
849.209	3901.16808
849.392	4014.60763
849.576	3726.6936
849.76	3938.98784
849.944	3735.10511
850.127	3762.44036
850.311	3636.25053
850.495	3869.64664
850.678	3800.28372
850.862	3896.96548
851.046	3829.71305
851.229	3733.00226
851.413	3718.28179
851.596	3875.95129
851.78	3547.87705
851.964	3926.38198
852.147	3577.33853
852.331	3854.9351
852.514	3339.44084
852.698	3632.04302
852.881	3194.06609
853.065	3606.79637
853.248	3533.14495
853.431	3722.48773
853.615	3286.77814
853.798	3640.45796
853.982	3552.08606
854.165	3486.83823
854.348	3328.90916
854.532	3707.76659
854.715	3337.33454
854.898	3522.62147
855.081	3303.63137
855.265	3716.17879
855.448	3312.05757
855.631	3714.07577
855.814	3396.30439
855.997	3587.85961
856.181	3583.65124
856.364	3484.73317
856.547	3448.94437
856.73	3537.35422
856.913	3280.45789
857.096	3526.83092
857.279	3364.7151
857.462	3406.83328
857.645	3366.82118
857.828	3480.52299
858.011	3168.77541
858.194	3476.31274
858.377	3126.61908
858.56	3465.78681
858.743	3238.31906
858.926	3364.7151
859.109	2865.11122
859.292	3035.96143
859.475	3035.96143
859.658	3362.60901
859.841	3151.91365
860.023	3236.21194
860.206	2822.91132
860.389	3202.49579
860.572	2881.9896
860.755	3162.45237
860.937	2951.60312
861.12	3122.4031
861.303	3044.39592
861.486	3076.02304
861.668	2875.66032
861.851	3031.74409
862.034	2879.87985
862.216	2936.83794
862.399	2839.79196
862.581	3012.76531
862.764	2687.83492
862.947	2806.0298
863.129	2867.22107
863.312	2911.52454
863.494	2702.61154
863.677	2966.36756
863.859	2825.02145
864.042	2911.52454
864.224	2749.0482
864.406	2886.20905
864.589	2544.25868
864.771	2689.9459
864.954	2578.04638
865.136	2698.38971
865.318	2578.04638
865.501	2694.16783
865.683	2670.94658
865.865	2721.60912
866.048	2552.70589
866.23	2734.27359
866.412	2485.12305
866.594	2613.94246
866.777	2622.38809
866.959	2666.72436
867.141	2383.72756
867.323	2504.1319
867.505	2373.16413
867.687	2444.99029
867.869	2400.62851
868.052	2451.32731
868.234	2368.93869
868.416	2730.05215
868.598	2578.04638
868.78	2740.60564
868.962	2569.59974
869.144	2664.61324
869.326	2493.57154
869.508	2673.05766
869.69	2616.05389
869.872	2723.7199
870.054	2470.33776
870.236	2404.85364
870.417	2400.62851
870.599	2485.12305
870.781	2366.82596
870.963	2586.49283
871.145	2233.70405
871.327	2343.5852
871.508	2366.82596
871.69	2413.30378
871.872	2326.68208
872.054	2525.25178
872.235	2299.21318
872.417	2521.02789
872.599	2455.55193
872.78	2679.39085
872.962	2172.41361
873.144	2516.80396
873.325	2261.17669
873.507	2529.47561
873.689	2263.28991
873.87	2434.42839
874.052	2227.364
874.233	2324.56914
874.415	2375.27684
874.596	2506.24394
874.778	2318.23028
874.959	2529.47561
875.141	2197.77604
875.322	2586.49283
875.503	2240.04403
875.685	2510.46799
875.866	2354.14933
876.048	2474.56218
876.229	2282.30845
876.41	2358.37491
876.592	2259.06347
876.773	2493.57154
876.954	2341.47234
877.136	2535.81128
877.317	2290.76089
877.498	2362.60046
877.679	2155.50466
877.86	2489.34732
878.042	2191.43555
878.223	2521.02789
878.404	2265.40312
878.585	2438.65318
878.766	2444.99029
878.947	2512.57999
879.128	2324.56914
879.309	2330.90792
879.49	2155.50466
879.672	2307.66532
879.853	2191.43555
880.034	2278.08217
880.215	2237.93071
880.396	2455.55193
880.576	2333.02082
880.757	2392.17812
880.938	2250.61047
881.119	2578.04638
881.3	2256.95023
881.481	2476.67438
881.662	2195.66255
881.843	2436.54079
882.023	2411.19126
882.204	2656.16861
882.385	2375.27684
882.566	2392.17812
882.747	2269.62951
882.927	2409.07873
883.108	2320.34325
883.289	2392.17812
883.469	2225.25063
883.65	2303.43927
883.831	2240.04403
884.011	2670.94658
884.192	2309.77833
884.373	2523.13984
884.553	2390.06549
884.734	2523.13984
884.914	2590.71599
885.095	2654.05742
885.275	2316.11731
885.456	2611.83103
885.636	2371.05142
885.817	2651.94622
885.997	2464.00104
886.178	2654.05742
886.358	2316.11731
886.538	2552.70589
886.719	2326.68208
886.899	2461.88878
887.08	2451.32731
887.26	2573.82309
887.44	2233.70405
887.621	2641.39002
887.801	2349.92371
887.981	2613.94246
888.161	2476.67438
888.342	2535.81128
888.522	2542.14685
888.702	2537.92315
888.882	2333.02082
889.062	2470.33776
889.242	2411.19126
889.423	2474.56218
889.603	2349.92371
889.783	2556.92942
889.963	2341.47234
890.143	2552.70589
890.323	2381.6149
890.503	2508.35597
890.683	2485.12305
890.863	2489.34732
891.043	2349.92371
891.223	2544.25868
891.403	2402.74108
891.583	2508.35597
891.763	2282.30845
891.943	2421.75375
892.122	2157.61831
892.302	2436.54079
892.482	2214.68365
892.662	2290.76089
892.842	2189.32203
893.022	2345.69805
893.201	2216.79707
893.381	2309.77833
893.561	2115.34386
893.741	2461.88878
893.92	2235.81739
894.1	2328.795
894.28	2307.66532
894.459	2603.38516
894.639	2328.795
894.819	2478.78656
894.998	2227.364
895.178	2343.5852
895.357	2121.68522
895.537	2147.04999
895.716	2049.81245
895.896	2485.12305
896.075	2056.15451
896.255	2326.68208
896.434	1986.38856
896.614	2244.27063
896.793	1918.73016
896.973	2244.27063
897.152	2197.77604
897.331	2275.96902
897.511	2081.52208
897.69	2240.04403
897.87	2128.02652
898.049	2176.64077
898.228	1994.84542
898.407	2208.34336
898.587	2007.53052
898.766	2104.77476
898.945	1971.58881
899.124	2111.11624
899.304	1973.70308
899.483	2163.9592
899.662	1817.23206
899.841	1931.41657
900.02	1857.40976
900.199	2075.18028
900.378	1796.08524
900.557	1829.91994
900.737	1597.28797
900.916	1853.18061
901.095	1677.65598
901.274	1749.5608
901.453	1664.96653
901.632	1800.31464
901.811	1626.89762
901.989	1540.18269
902.168	1487.30668
902.347	1631.12754
902.526	1453.46586
902.705	1810.88806
902.884	1550.75782
903.063	1641.70229
903.242	1512.68723
903.42	1768.59375
903.599	1508.45714
903.778	1597.28797
903.957	1605.74791
904.135	1844.72225
904.314	1447.12071
904.493	1582.483
904.672	1385.78433
904.85	1339.25374
905.029	1343.48377
905.207	1461.92607
905.386	1360.40394
905.565	1428.08524
905.743	1265.22943
905.922	1419.62504
906.1	1167.94524
906.279	1392.12945
906.457	1252.53983
906.636	1601.51794
906.814	1206.01215
906.993	1225.04602
907.171	1098.15931
907.35	1233.5056
907.528	1125.65016
907.707	1294.83886
907.885	1036.83665
908.063	1170.06004
908.242	1009.34873
908.42	1142.56799
908.598	977.6332
908.777	1199.66758
908.955	988.20488
909.133	1140.45325
909.311	1022.03534
909.49	1091.81538
909.668	1022.03534
909.846	1108.73262
910.024	996.66234
910.202	1081.24227
910.38	1005.11991
910.559	1064.32556
910.737	1032.60768
910.915	1053.75279
911.093	1119.30605
911.271	1123.53545
911.449	1034.72216
911.627	1176.40445
911.805	964.94741
911.983	1165.83045
912.161	1115.07666
912.339	1155.25654
912.517	1038.95115
912.695	1258.88462
912.872	1140.45325
913.05	1110.84729
913.228	1087.58612
913.406	1144.68274
913.584	1049.52372
913.762	1151.02701
913.939	1041.06565
914.117	1222.93113
914.295	1151.02701
914.473	1140.45325
914.65	1079.12766
914.828	1206.01215
915.006	1005.11991
915.184	1081.24227
915.361	1005.11991
915.539	1220.81625
915.716	1091.81538
915.894	1250.4249
916.072	1115.07666
916.249	1087.58612
916.427	804.2846
916.604	1072.78387
916.782	1017.80644
916.959	971.29028
917.137	937.46239
917.314	971.29028
917.492	890.95213
917.669	937.46239
917.847	829.64917
918.024	1030.4932
918.201	929.0057
918.379	973.40458
918.556	931.11986
918.733	962.83314
918.911	781.03494
919.088	835.99052
919.265	770.4673
919.442	998.77672
919.62	861.3567
919.797	920.54914
919.974	789.48922
920.151	1153.14177
920.328	861.3567
920.506	971.29028
920.683	861.3567
920.86	863.47061
921.037	825.42165
921.214	1013.57757
921.391	753.55959
921.568	846.55961
921.745	772.5808
921.922	793.71643
922.099	827.5354
922.276	810.62562
922.453	886.72411
922.63	863.47061
922.807	776.80785
922.984	857.12892
923.161	715.51969
923.338	890.95213
923.514	726.08599
923.691	717.63293
923.868	766.24031
924.045	863.47061
924.222	797.94367
924.399	791.60282
924.575	726.08599
924.752	863.47061
924.929	660.57945
925.105	709.18005
925.282	624.66125
925.459	730.31258
925.635	683.82246
925.812	797.94367
925.989	726.08599
926.165	717.63293
926.342	700.72734
926.518	660.57945
926.695	578.18424
926.871	552.83581
927.048	550.72353
927.224	611.98509
927.401	464.13222
927.577	618.32312
927.754	557.06041
927.93	656.3536
928.107	510.59283
928.283	641.5635
928.459	603.53457
928.636	599.30939
928.812	531.71362
928.988	483.13796
929.165	474.69081
929.341	430.34728
929.517	508.48083
929.693	538.05013
929.87	464.13222
930.046	409.23374
930.222	493.69724
930.398	542.27454
930.574	373.34447
930.751	464.13222
930.927	345.90302
931.103	557.06041
931.279	466.24391
931.455	430.34728
931.631	449.35082
931.807	516.92892
931.983	345.90302
932.159	438.79314
932.335	320.57505
932.511	364.90064
932.687	345.90302
932.863	453.574
933.039	364.90064
933.215	354.34623
933.391	362.78973
933.566	320.57505
933.742	388.12183
933.918	388.12183
934.094	337.46008
934.27	295.24965
934.445	286.80843
934.621	373.34447
934.797	286.80843
934.973	242.49695
935.148	267.81677
935.324	253.04654
935.5	193.97512
935.675	263.59661
935.851	227.72833
936.027	204.52245
936.202	151.79091
936.378	187.64696
936.553	111.72373
936.729	156.00896
936.904	177.10045
937.08	202.41294
937.255	259.37653
937.431	181.31899
937.606	122.26697
937.782	158.11802
937.957	118.04961
938.133	96.96411
938.308	170.77278
938.483	109.61514
938.659	151.79091
938.834	139.13728
939.009	94.85568
939.185	52.69182
939.36	27.39791
939.535	92.74727
939.71	75.88082
939.886	42.15228
940.061	160.22709
940.236	105.39804
940.411	101.18103
940.586	118.04961
940.761	88.53052
940.937	134.91958
941.112	124.37568
941.287	94.85568
941.462	88.53052
941.637	126.48442
941.812	105.39804
941.987	130.70195
942.162	42.15228
942.337	84.31387
942.512	92.74727
942.687	65.34002
942.862	122.26697
943.037	75.88082
943.212	61.12386
943.386	124.37568
943.561	14.75222
943.736	120.15828
943.911	67.44814
944.086	35.82884
944.26	61.12386
944.435	33.72107
944.61	29.5056
944.785	84.31387
944.959	8.4297
945.134	59.01582
945.309	111.72373
945.483	67.44814
945.658	69.55627
945.833	101.18103
946.007	92.74727
946.182	92.74727
946.357	86.42218
946.531	25.29023
946.706	59.01582
946.88	21.07496
947.055	109.61514
947.229	-6.32202
947.404	-25.28676
947.578	111.72373
947.752	29.5056
947.927	88.53052
948.101	94.85568
948.276	29.5056
948.45	67.44814
948.624	115.94096
948.799	37.93663
948.973	94.85568
949.147	59.01582
949.321	105.39804
949.496	50.58386
949.67	92.74727
949.844	96.96411
950.018	59.01582
950.193	118.04961
950.367	8.4297
950.541	65.34002
950.715	96.96411
950.889	44.26014
951.063	46.36803
951.237	109.61514
951.411	67.44814
951.585	54.79979
951.759	134.91958
951.933	-16.85823
952.107	42.15228
952.281	151.79091
952.455	122.26697
952.629	134.91958
952.803	35.82884
952.977	67.44814
953.151	61.12386
953.325	46.36803
953.499	120.15828
953.672	67.44814
953.846	50.58386
954.02	35.82884
954.194	113.83233
954.368	8.4297
954.541	88.53052
954.715	27.39791
954.889	103.28953
955.062	109.61514
955.236	168.6636
955.41	10.53718
955.583	50.58386
955.757	54.79979
955.93	50.58386
956.104	113.83233
956.278	65.34002
956.451	29.5056
956.625	-12.64382
956.798	105.39804
956.972	139.13728
957.145	37.93663
957.319	101.18103
957.492	111.72373
957.665	90.63889
957.839	8.4297
958.012	126.48442
958.185	63.23193
958.359	156.00896
958.532	50.58386
958.705	59.01582
958.879	-4.2147
959.052	84.31387
959.225	151.79091
959.398	92.74727
959.572	84.31387
959.745	59.01582
959.918	56.90779
960.091	75.88082
960.264	75.88082
960.438	101.18103
960.611	33.72107
960.784	16.85977
960.957	134.91958
961.13	122.26697
961.303	12.64469
961.476	96.96411
961.649	126.48442
961.822	101.18103
961.995	96.96411
962.168	61.12386
962.341	25.29023
962.514	-8.42931
962.686	109.61514
962.859	80.0973
963.032	67.44814
963.205	35.82884
963.378	42.15228
963.551	-10.53658
963.723	77.98905
963.896	75.88082
964.069	160.22709
964.242	113.83233
964.414	80.0973
964.587	84.31387
964.76	88.53052
964.932	54.79979
965.105	103.28953
965.278	63.23193
965.45	16.85977
965.623	67.44814
965.795	105.39804
965.968	16.85977
966.14	132.81075
966.313	42.15228
966.485	94.85568
966.658	44.26014
966.83	124.37568
967.003	65.34002
967.175	40.04444
967.348	92.74727
967.52	54.79979
967.692	56.90779
967.865	109.61514
968.037	-21.07254
968.209	118.04961
968.382	63.23193
968.554	46.36803
968.726	23.18258
968.898	96.96411
969.071	35.82884
969.243	59.01582
969.415	120.15828
969.587	18.96735
969.759	75.88082
969.932	16.85977
970.104	-8.42931
970.276	0
970.448	46.36803
970.62	75.88082
970.792	99.07256
970.964	54.79979
971.136	77.98905
971.308	50.58386
971.48	50.58386
971.652	-6.32202
971.824	25.29023
971.996	59.01582
972.168	59.01582
972.339	2.10739
972.511	59.01582
972.683	46.36803
972.855	50.58386
973.027	35.82884
973.199	33.72107
973.37	63.23193
973.542	23.18258
973.714	16.85977
973.886	40.04444
974.057	67.44814
974.229	40.04444
974.401	46.36803
974.572	65.34002
974.744	71.66443
974.915	84.31387
975.087	77.98905
975.259	42.15228
975.43	120.15828
975.602	46.36803
975.773	40.04444
975.945	71.66443
976.116	33.72107
976.288	0
976.459	37.93663
976.63	37.93663
976.802	-37.92881
976.973	52.69182
977.145	-33.71489
977.316	29.5056
977.487	54.79979
977.659	16.85977
977.83	118.04961
978.001	82.20557
978.172	71.66443
978.344	25.29023
978.515	75.88082
978.686	31.61332
978.857	88.53052
979.028	18.96735
979.2	67.44814
979.371	44.26014
979.542	52.69182
979.713	109.61514
979.884	50.58386
980.055	84.31387
980.226	-4.2147
980.397	29.5056
980.568	101.18103
980.739	88.53052
980.91	77.98905
981.081	75.88082
981.252	25.29023
981.423	-8.42931
981.594	2.10739
981.765	33.72107
981.936	10.53718
982.106	75.88082
982.277	-16.85823
982.448	-4.2147
982.619	50.58386
982.79	50.58386
982.96	94.85568
983.131	-50.56997
983.302	52.69182
983.472	46.36803
983.643	52.69182
983.814	27.39791
983.984	65.34002
984.155	-12.64382
984.326	-4.2147
984.496	21.07496
984.667	90.63889
984.837	-4.2147
985.008	33.72107
985.178	65.34002
985.349	48.47593
985.519	21.07496
985.69	-4.2147
985.86	50.58386
986.031	42.15228
986.201	8.4297
986.371	42.15228
986.542	23.18258
986.712	23.18258
986.882	61.12386
987.053	73.77262
987.223	21.07496
987.393	80.0973
987.563	25.29023
987.734	10.53718
987.904	59.01582
988.074	42.15228
988.244	86.42218
988.414	33.72107
988.585	86.42218
988.755	35.82884
988.925	63.23193
989.095	-40.03573
989.265	-37.92881
989.435	46.36803
989.605	-50.56997
989.775	88.53052
989.945	10.53718
990.115	59.01582
990.285	37.93663
990.455	80.0973
990.625	25.29023
990.795	-23.17966
990.965	27.39791
991.134	96.96411
991.304	44.26014
991.474	10.53718
991.644	-18.9654
991.814	27.39791
991.984	31.61332
992.153	2.10739
992.323	61.12386
992.493	69.55627
992.662	61.12386
992.832	59.01582
993.002	-29.50088
993.171	18.96735
993.341	65.34002
993.511	21.07496
993.68	75.88082
993.85	37.93663
994.019	84.31387
994.189	111.72373
994.358	27.39791
994.528	46.36803
994.697	-58.9969
994.867	52.69182
995.036	-16.85823
995.206	40.04444
995.375	86.42218
995.544	2.10739
995.714	92.74727
995.883	69.55627
996.052	16.85977
996.222	2.10739
996.391	50.58386
996.56	84.31387
996.73	-16.85823
996.899	12.64469
997.068	-8.42931
997.237	16.85977
997.406	-50.56997
997.576	21.07496
997.745	-29.50088
997.914	35.82884
998.083	-4.2147
998.252	0
998.421	-29.50088
998.59	56.90779
998.759	4.2148
998.928	25.29023
999.097	80.0973
999.266	-10.53658
999.435	71.66443
999.604	-25.28676
999.773	21.07496
999.942	-16.85823
1000.111	61.12386
1000.28	92.74727
1000.448	-16.85823
1000.617	-8.42931
1000.786	40.04444
1000.955	-4.2147
1001.124	-2.10736
1001.292	27.39791
1001.461	33.72107
1001.63	42.15228
1001.798	-16.85823
1001.967	-14.75104
1002.136	8.4297
1002.304	67.44814
1002.473	75.88082
1002.642	37.93663
1002.81	-8.42931
1002.979	-42.14263
1003.147	33.72107
1003.316	-12.64382
1003.484	37.93663
1003.653	4.2148
1003.821	42.15228
1003.99	8.4297
1004.158	-8.42931
1004.327	16.85977
1004.495	12.64469
1004.663	-56.89021
1004.832	4.2148
1005	54.79979
1005.168	52.69182
1005.337	-25.28676
1005.505	80.0973
1005.673	31.61332
1005.842	4.2148
1006.01	-48.46317
1006.178	-23.17966
1006.346	0
1006.514	59.01582
1006.683	50.58386
1006.851	50.58386
1007.019	14.75222
1007.187	33.72107
1007.355	73.77262
1007.523	-50.56997
1007.691	50.58386
1007.859	48.47593
1008.027	37.93663
1008.195	37.93663
1008.363	-25.28676
1008.531	2.10739
1008.699	101.18103
1008.867	14.75222
1009.035	21.07496
1009.203	2.10739
1009.37	33.72107
1009.538	-8.42931
1009.706	63.23193
1009.874	25.29023
1010.042	2.10739
1010.209	75.88082
1010.377	18.96735
1010.545	44.26014
1010.713	-40.03573
1010.88	54.79979
1011.048	21.07496
1011.216	-27.39383
1011.383	37.93663
1011.551	12.64469
1011.718	35.82884
1011.886	35.82884
1012.054	21.07496
1012.221	35.82884
1012.389	-23.17966
1012.556	-16.85823
1012.724	35.82884
1012.891	-6.32202
1013.058	-8.42931
1013.226	59.01582
1013.393	16.85977
1013.561	-12.64382
1013.728	12.64469
1013.895	25.29023
1014.063	27.39791
1014.23	61.12386
1014.397	25.29023
1014.565	63.23193
1014.732	-4.2147
1014.899	-48.46317
1015.066	-18.9654
1015.233	-14.75104
1015.401	25.29023
1015.568	0
1015.735	-14.75104
1015.902	29.5056
1016.069	-25.28676
1016.236	23.18258
1016.403	-31.6079
1016.57	18.96735
1016.737	2.10739
1016.904	-4.2147
1017.071	23.18258
1017.238	-73.74306
1017.405	16.85977
1017.572	35.82884
1017.739	65.34002
1017.906	-99.01926
1018.073	0
1018.24	67.44814
1018.407	46.36803
1018.573	46.36803
1018.74	-56.89021
1018.907	-48.46317
1019.074	88.53052
1019.241	-23.17966
1019.407	35.82884
1019.574	-6.32202
1019.741	75.88082
1019.907	67.44814
1020.074	-21.07254
1020.241	69.55627
1020.407	21.07496
1020.574	-16.85823
1020.74	46.36803
1020.907	37.93663
1021.073	-75.84956
1021.24	-37.92881
1021.406	-18.9654
1021.573	-25.28676
1021.739	21.07496
1021.906	-6.32202
1022.072	-58.9969
1022.239	4.2148
1022.405	-16.85823
1022.571	21.07496
1022.738	-2.10736
1022.904	-8.42931
1023.07	29.5056
1023.237	2.10739
1023.403	75.88082
1023.569	23.18258
1023.735	71.66443
1023.902	46.36803
1024.068	33.72107
1024.234	52.69182
1024.4	2.10739
1024.566	-16.85823
1024.732	82.20557
1024.898	21.07496
1025.065	21.07496
1025.231	52.69182
1025.397	25.29023
1025.563	-33.71489
1025.729	25.29023
1025.895	-8.42931
1026.061	-8.42931
1026.227	-16.85823
1026.392	-25.28676
1026.558	67.44814
1026.724	29.5056
1026.89	44.26014
1027.056	-12.64382
1027.222	37.93663
1027.388	27.39791
1027.553	-29.50088
1027.719	42.15228
1027.885	8.4297
1028.051	33.72107
1028.216	-23.17966
1028.382	16.85977
1028.548	-12.64382
1028.713	75.88082
1028.879	-4.2147
1029.045	-12.64382
1029.21	59.01582
1029.376	37.93663
1029.541	48.47593
1029.707	50.58386
1029.873	-25.28676
1030.038	29.5056
1030.204	-29.50088
1030.369	101.18103
1030.534	18.96735
1030.7	46.36803
1030.865	54.79979
1031.031	-71.63655
1031.196	0
1031.361	27.39791
1031.527	10.53718
1031.692	44.26014
1031.857	-42.14263
1032.023	-40.03573
1032.188	8.4297
1032.353	-23.17966
1032.518	33.72107
1032.684	21.07496
1032.849	16.85977
1033.014	-48.46317
1033.179	44.26014
1033.344	23.18258
1033.509	-8.42931
1033.674	8.4297
1033.839	-2.10736
1034.004	-8.42931
1034.17	42.15228
1034.335	90.63889
1034.5	-37.92881
1034.664	-63.21022
1034.829	-58.9969
1034.994	-46.35635
1035.159	16.85977
1035.324	-48.46317
1035.489	-4.2147
1035.654	27.39791
1035.819	18.96735
1035.984	-12.64382
1036.148	31.61332
1036.313	42.15228
1036.478	122.26697
1036.643	4.2148
1036.807	21.07496
1036.972	42.15228
1037.137	-8.42931
1037.301	-101.12544
1037.466	23.18258
1037.631	-6.32202
1037.795	31.61332
1037.96	25.29023
1038.124	-23.17966
1038.289	16.85977
1038.454	-61.10358
1038.618	10.53718
1038.783	4.2148
1038.947	59.01582
1039.111	-42.14263
1039.276	35.82884
1039.44	2.10739
1039.605	16.85977
1039.769	44.26014
1039.933	59.01582
1040.098	2.10739
1040.262	46.36803
1040.426	46.36803
1040.591	27.39791
1040.755	-33.71489
1040.919	52.69182
1041.083	54.79979
1041.248	-31.6079
1041.412	42.15228
1041.576	75.88082
1041.74	-29.50088
1041.904	23.18258
1042.068	46.36803
1042.232	-33.71489
1042.397	25.29023
1042.561	27.39791
1042.725	111.72373
1042.889	0
1043.053	-31.6079
1043.217	35.82884
1043.381	-23.17966
1043.544	33.72107
1043.708	-23.17966
1043.872	-50.56997
1044.036	18.96735
1044.2	-8.42931
1044.364	0
1044.528	-29.50088
1044.691	-16.85823
1044.855	0
1045.019	96.96411
1045.183	84.31387
1045.346	0
1045.51	-29.50088
1045.674	-10.53658
1045.837	-14.75104
1046.001	16.85977
1046.165	44.26014
1046.328	16.85977
1046.492	59.01582
1046.655	12.64469
1046.819	33.72107
1046.983	-37.92881
1047.146	-23.17966
1047.31	44.26014
1047.473	-16.85823
1047.636	6.32224
1047.8	90.63889
1047.963	84.31387
1048.127	-4.2147
1048.29	77.98905
