Data from mixed_try1_USB4F045381__13__00161.txt Node

Date: Thu Apr 03 20:08:42 EDT 2025
User: mmckonesweet
Spectrometer: USB4F04538
Trigger mode: 4
Integration Time (sec): 2.700000E-3
Scans to average: 1
Electric dark correction enabled: true
Nonlinearity correction enabled: true
Boxcar width: 0
XAxis mode: Wavelengths
Number of Pixels in Spectrum: 3648
>>>>>Begin Spectral Data<<<<<
345.52	-44.60065
345.736	-44.60065
345.952	-44.60065
346.168	-25.63794
346.384	3.86356
346.6	-27.74501
346.816	3.86356
347.032	-78.3071
347.248	20.72369
347.464	24.93896
347.68	3.86356
347.896	-12.99502
348.112	29.15432
348.328	1.75615
348.544	-38.27997
348.76	5.97099
348.975	67.09678
349.191	-4.56592
349.407	27.04663
349.623	3.86356
349.839	-21.42373
350.055	-4.56592
350.27	5.97099
350.486	-36.17303
350.702	-10.88778
350.918	35.47754
351.133	5.97099
351.349	-40.38689
351.565	18.61609
351.781	-27.74501
351.996	-21.42373
352.212	-12.99502
352.428	-23.53085
352.644	-65.66794
352.859	-48.81431
353.075	-2.45859
353.291	-10.88778
353.506	-27.74501
353.722	1.75615
353.938	-19.31659
354.153	73.42125
354.369	-48.81431
354.584	29.15432
354.8	35.47754
355.016	-23.53085
355.231	-74.09415
355.447	18.61609
355.662	8.07845
355.878	-6.67324
356.093	10.18593
356.309	69.20492
356.524	-19.31659
356.74	-31.95906
356.955	-19.31659
357.171	-27.74501
357.386	-23.53085
357.602	-0.35123
357.817	10.18593
358.033	-19.31659
358.248	12.29343
358.464	39.69314
358.679	-34.06606
358.895	-4.56592
359.11	-2.45859
359.325	-10.88778
359.541	-55.13461
359.756	-38.27997
359.972	-59.34802
360.187	18.61609
360.402	94.50427
360.618	-44.60065
360.833	-6.67324
361.048	35.47754
361.264	-57.24133
361.479	-40.38689
361.694	54.44846
361.909	35.47754
362.125	-57.24133
362.34	-8.78052
362.555	-12.99502
362.77	-40.38689
362.986	-23.53085
363.201	1.75615
363.416	12.29343
363.631	41.80097
363.847	56.55646
364.062	-57.24133
364.277	-12.99502
364.492	-57.24133
364.707	41.80097
364.922	-12.99502
365.138	27.04663
365.353	37.58533
365.568	-10.88778
365.783	-29.85205
365.998	-48.81431
366.213	-57.24133
366.428	-80.41353
366.643	62.88058
366.858	-74.09415
367.073	-19.31659
367.288	-38.27997
367.503	-25.63794
367.718	-48.81431
367.933	27.04663
368.148	-57.24133
368.363	-2.45859
368.578	-10.88778
368.793	27.04663
369.008	5.97099
369.223	-12.99502
369.438	-4.56592
369.653	8.07845
369.868	-36.17303
370.083	1.75615
370.298	27.04663
370.513	10.18593
370.728	-6.67324
370.943	35.47754
371.157	-21.42373
371.372	-23.53085
371.587	18.61609
371.802	41.80097
372.017	1.75615
372.232	79.74592
372.446	-31.95906
372.661	5.97099
372.876	-23.53085
373.091	50.23254
373.306	8.07845
373.52	-44.60065
373.735	-15.10224
373.95	35.47754
374.165	20.72369
374.379	10.18593
374.594	18.61609
374.809	1.75615
375.023	10.18593
375.238	27.04663
375.453	58.66448
375.667	-6.67324
375.882	35.47754
376.097	39.69314
376.311	3.86356
376.526	-23.53085
376.741	-23.53085
376.955	-86.73269
377.17	5.97099
377.384	27.04663
377.599	-10.88778
377.813	1.75615
378.028	-57.24133
378.242	12.29343
378.457	-15.10224
378.672	-27.74501
378.886	14.40096
379.101	52.34049
379.315	5.97099
379.53	73.42125
379.744	-15.10224
379.958	27.04663
380.173	-17.20943
380.387	10.18593
380.602	37.58533
380.816	16.50851
381.031	64.98867
381.245	-29.85205
381.459	-10.88778
381.674	27.04663
381.888	43.90883
382.103	-6.67324
382.317	-74.09415
382.531	-25.63794
382.746	-36.17303
382.96	1.75615
383.174	10.18593
383.388	1.75615
383.603	3.86356
383.817	29.15432
384.031	-40.38689
384.246	-6.67324
384.46	-4.56592
384.674	-10.88778
384.888	-8.78052
385.103	-65.66794
385.317	-19.31659
385.531	14.40096
385.745	16.50851
385.959	-29.85205
386.174	-27.74501
386.388	86.0708
386.602	-23.53085
386.816	-27.74501
387.03	56.55646
387.244	14.40096
387.458	1.75615
387.672	12.29343
387.887	14.40096
388.101	-12.99502
388.315	-19.31659
388.529	-63.56133
388.743	31.26204
388.957	-12.99502
389.171	69.20492
389.385	-82.51994
389.599	22.83131
389.813	1.75615
390.027	1.75615
390.241	35.47754
390.455	-12.99502
390.669	-31.95906
390.883	-15.10224
391.097	12.29343
391.311	-57.24133
391.525	10.18593
391.738	-65.66794
391.952	-38.27997
392.166	-40.38689
392.38	16.50851
392.594	-2.45859
392.808	1.75615
393.022	-0.35123
393.236	-31.95906
393.449	-23.53085
393.663	10.18593
393.877	10.18593
394.091	29.15432
394.305	27.04663
394.518	-4.56592
394.732	-71.98763
394.946	-40.38689
395.16	5.97099
395.373	-19.31659
395.587	86.0708
395.801	27.04663
396.015	31.26204
396.228	27.04663
396.442	24.93896
396.656	-17.20943
396.869	22.83131
397.083	-12.99502
397.297	-36.17303
397.51	5.97099
397.724	54.44846
397.938	29.15432
398.151	-23.53085
398.365	12.29343
398.578	5.97099
398.792	-12.99502
399.005	-4.56592
399.219	20.72369
399.433	52.34049
399.646	3.86356
399.86	-82.51994
400.073	18.61609
400.287	-21.42373
400.5	-27.74501
400.714	27.04663
400.927	-61.45468
401.141	35.47754
401.354	43.90883
401.567	-12.99502
401.781	20.72369
401.994	5.97099
402.208	-15.10224
402.421	-4.56592
402.635	29.15432
402.848	27.04663
403.061	10.18593
403.275	-23.53085
403.488	22.83131
403.701	-29.85205
403.915	90.28749
404.128	69.20492
404.341	-23.53085
404.555	-12.99502
404.768	31.26204
404.981	20.72369
405.195	18.61609
405.408	27.04663
405.621	-6.67324
405.834	43.90883
406.048	20.72369
406.261	46.01671
406.474	67.09678
406.687	-97.26409
406.9	-15.10224
407.114	27.04663
407.327	-8.78052
407.54	-12.99502
407.753	5.97099
407.966	-44.60065
408.179	-15.10224
408.392	-23.53085
408.605	-4.56592
408.819	-65.66794
409.032	14.40096
409.245	-27.74501
409.458	52.34049
409.671	-63.56133
409.884	10.18593
410.097	35.47754
410.31	-6.67324
410.523	48.12461
410.736	-2.45859
410.949	22.83131
411.162	-29.85205
411.375	-12.99502
411.588	-15.10224
411.801	-2.45859
412.014	-36.17303
412.227	52.34049
412.44	-46.70749
412.653	-19.31659
412.865	48.12461
413.078	10.18593
413.291	20.72369
413.504	46.01671
413.717	-40.38689
413.93	14.40096
414.143	75.52945
414.356	43.90883
414.568	-2.45859
414.781	-15.10224
414.994	31.26204
415.207	31.26204
415.42	-29.85205
415.632	14.40096
415.845	8.07845
416.058	-69.8811
416.271	1.75615
416.483	-17.20943
416.696	27.04663
416.909	-36.17303
417.121	-29.85205
417.334	-2.45859
417.547	35.47754
417.759	52.34049
417.972	-6.67324
418.185	35.47754
418.397	77.63768
418.61	-36.17303
418.823	52.34049
419.035	43.90883
419.248	-42.49378
419.46	37.58533
419.673	-67.77453
419.885	-4.56592
420.098	22.83131
420.311	-48.81431
420.523	-27.74501
420.736	1.75615
420.948	-6.67324
421.161	-23.53085
421.373	-4.56592
421.586	-21.42373
421.798	-23.53085
422.01	-6.67324
422.223	-48.81431
422.435	48.12461
422.648	-71.98763
422.86	27.04663
423.073	-46.70749
423.285	1.75615
423.497	31.26204
423.71	96.6127
423.922	79.74592
424.134	3.86356
424.347	-34.06606
424.559	-12.99502
424.771	-12.99502
424.984	-48.81431
425.196	-65.66794
425.408	77.63768
425.621	-0.35123
425.833	-6.67324
426.045	33.36978
426.257	94.50427
426.47	-17.20943
426.682	10.18593
426.894	58.66448
427.106	-8.78052
427.318	77.63768
427.531	-12.99502
427.743	-4.56592
427.955	-31.95906
428.167	14.40096
428.379	18.61609
428.591	-6.67324
428.804	-53.02787
429.016	73.42125
429.228	-27.74501
429.44	27.04663
429.652	1.75615
429.864	43.90883
430.076	-2.45859
430.288	-31.95906
430.5	43.90883
430.712	43.90883
430.924	8.07845
431.136	-10.88778
431.348	18.61609
431.56	-19.31659
431.772	-29.85205
431.984	5.97099
432.196	56.55646
432.408	77.63768
432.62	-63.56133
432.832	54.44846
433.044	-19.31659
433.256	35.47754
433.468	-74.09415
433.679	-15.10224
433.891	1.75615
434.103	18.61609
434.315	22.83131
434.527	-12.99502
434.739	43.90883
434.95	16.50851
435.162	1.75615
435.374	12.29343
435.586	31.26204
435.798	27.04663
436.009	-0.35123
436.221	1.75615
436.433	-65.66794
436.645	-57.24133
436.856	-57.24133
437.068	77.63768
437.28	-6.67324
437.491	-38.27997
437.703	-4.56592
437.915	-59.34802
438.126	8.07845
438.338	33.36978
438.55	46.01671
438.761	5.97099
438.973	3.86356
439.184	-4.56592
439.396	14.40096
439.608	-17.20943
439.819	10.18593
440.031	31.26204
440.242	10.18593
440.454	22.83131
440.665	18.61609
440.877	-12.99502
441.088	-6.67324
441.3	5.97099
441.511	35.47754
441.723	-6.67324
441.934	-38.27997
442.146	5.97099
442.357	-67.77453
442.569	1.75615
442.78	60.77252
442.991	-36.17303
443.203	18.61609
443.414	35.47754
443.626	56.55646
443.837	35.47754
444.048	1.75615
444.26	27.04663
444.471	-40.38689
444.682	-23.53085
444.894	81.85419
445.105	-4.56592
445.316	14.40096
445.528	3.86356
445.739	14.40096
445.95	29.15432
446.161	60.77252
446.373	10.18593
446.584	18.61609
446.795	-19.31659
447.006	22.83131
447.217	-6.67324
447.429	20.72369
447.64	20.72369
447.851	-8.78052
448.062	-19.31659
448.273	27.04663
448.484	10.18593
448.695	-44.60065
448.907	-57.24133
449.118	-23.53085
449.329	-48.81431
449.54	48.12461
449.751	33.36978
449.962	46.01671
450.173	22.83131
450.384	71.31307
450.595	-23.53085
450.806	-57.24133
451.017	1.75615
451.228	-21.42373
451.439	-27.74501
451.65	-74.09415
451.861	-0.35123
452.072	58.66448
452.283	12.29343
452.494	-6.67324
452.705	31.26204
452.915	-27.74501
453.126	98.72115
453.337	-57.24133
453.548	-15.10224
453.759	1.75615
453.97	3.86356
454.181	-69.8811
454.391	-48.81431
454.602	-57.24133
454.813	60.77252
455.024	3.86356
455.235	-38.27997
455.445	-46.70749
455.656	-59.34802
455.867	31.26204
456.078	1.75615
456.288	22.83131
456.499	62.88058
456.71	46.01671
456.921	-19.31659
457.131	-46.70749
457.342	-46.70749
457.553	46.01671
457.763	-12.99502
457.974	18.61609
458.184	3.86356
458.395	-17.20943
458.606	-15.10224
458.816	-44.60065
459.027	39.69314
459.237	-6.67324
459.448	16.50851
459.659	-57.24133
459.869	52.34049
460.08	-6.67324
460.29	-29.85205
460.501	73.42125
460.711	-15.10224
460.922	43.90883
461.132	-50.9211
461.343	14.40096
461.553	22.83131
461.764	54.44846
461.974	-15.10224
462.184	-65.66794
462.395	-23.53085
462.605	-6.67324
462.816	43.90883
463.026	-80.41353
463.236	-21.42373
463.447	54.44846
463.657	54.44846
463.867	-86.73269
464.078	10.18593
464.288	-15.10224
464.498	18.61609
464.709	-19.31659
464.919	31.26204
465.129	43.90883
465.339	29.15432
465.55	1.75615
465.76	-67.77453
465.97	-0.35123
466.18	71.31307
466.391	-21.42373
466.601	-25.63794
466.811	-12.99502
467.021	-10.88778
467.231	22.83131
467.441	14.40096
467.651	-17.20943
467.862	-17.20943
468.072	-63.56133
468.282	-63.56133
468.492	35.47754
468.702	33.36978
468.912	20.72369
469.122	43.90883
469.332	35.47754
469.542	-71.98763
469.752	52.34049
469.962	1.75615
470.172	-15.10224
470.382	31.26204
470.592	29.15432
470.802	14.40096
471.012	-21.42373
471.222	-6.67324
471.432	-29.85205
471.642	-36.17303
471.852	43.90883
472.062	18.61609
472.272	10.18593
472.482	-67.77453
472.691	-6.67324
472.901	18.61609
473.111	37.58533
473.321	-53.02787
473.531	64.98867
473.741	29.15432
473.95	24.93896
474.16	35.47754
474.37	31.26204
474.58	-6.67324
474.79	52.34049
474.999	1.75615
475.209	27.04663
475.419	52.34049
475.628	39.69314
475.838	-10.88778
476.048	-19.31659
476.258	90.28749
476.467	18.61609
476.677	-38.27997
476.886	5.97099
477.096	18.61609
477.306	-10.88778
477.515	12.29343
477.725	10.18593
477.935	43.90883
478.144	-10.88778
478.354	56.55646
478.563	37.58533
478.773	86.0708
478.982	-40.38689
479.192	-2.45859
479.401	12.29343
479.611	14.40096
479.82	1.75615
480.03	-4.56592
480.239	10.18593
480.449	-15.10224
480.658	31.26204
480.868	48.12461
481.077	79.74592
481.287	1.75615
481.496	29.15432
481.705	-6.67324
481.915	-40.38689
482.124	100.82962
482.333	58.66448
482.543	41.80097
482.752	64.98867
482.961	29.15432
483.171	145.11251
483.38	54.44846
483.589	-19.31659
483.799	54.44846
484.008	60.77252
484.217	-6.67324
484.426	-27.74501
484.636	27.04663
484.845	18.61609
485.054	48.12461
485.263	14.40096
485.472	73.42125
485.682	-10.88778
485.891	37.58533
486.1	27.04663
486.309	86.0708
486.518	-36.17303
486.727	10.18593
486.936	3.86356
487.146	29.15432
487.355	102.93811
487.564	29.15432
487.773	10.18593
487.982	54.44846
488.191	-6.67324
488.4	54.44846
488.609	69.20492
488.818	8.07845
489.027	54.44846
489.236	18.61609
489.445	64.98867
489.654	-15.10224
489.863	113.4809
490.072	54.44846
490.281	14.40096
490.49	86.0708
490.698	29.15432
490.907	79.74592
491.116	60.77252
491.325	20.72369
491.534	111.37229
491.743	105.04662
491.952	52.34049
492.16	43.90883
492.369	41.80097
492.578	94.50427
492.787	60.77252
492.996	102.93811
493.204	90.28749
493.413	130.35049
493.622	35.47754
493.831	43.90883
494.039	119.80683
494.248	39.69314
494.457	69.20492
494.665	81.85419
494.874	60.77252
495.083	79.74592
495.291	147.22146
495.5	96.6127
495.709	64.98867
495.917	75.52945
496.126	52.34049
496.335	27.04663
496.543	77.63768
496.752	27.04663
496.96	69.20492
497.169	113.4809
497.377	88.17913
497.586	136.67694
497.794	113.4809
498.003	174.63967
498.211	52.34049
498.42	136.67694
498.628	79.74592
498.837	111.37229
499.045	39.69314
499.254	183.07674
499.462	94.50427
499.671	121.91552
499.879	94.50427
500.087	113.4809
500.296	92.39587
500.504	121.91552
500.713	105.04662
500.921	134.5681
501.129	98.72115
501.338	102.93811
501.546	86.0708
501.754	102.93811
501.962	149.33043
502.171	151.43941
502.379	145.11251
502.587	153.54842
502.795	140.89469
503.004	147.22146
503.212	180.96744
503.42	172.53045
503.628	111.37229
503.837	183.07674
504.045	136.67694
504.253	157.7665
504.461	164.09378
504.669	121.91552
504.877	170.42125
505.085	157.7665
505.294	128.24171
505.502	145.11251
505.71	168.31207
505.918	94.50427
506.126	98.72115
506.334	94.50427
506.542	240.03545
506.75	130.35049
506.958	204.17086
507.166	195.73297
507.374	221.0476
507.582	204.17086
507.79	170.42125
507.998	153.54842
508.206	187.2954
508.414	174.63967
508.622	130.35049
508.83	136.67694
509.037	320.22329
509.245	115.58952
509.453	60.77252
509.661	204.17086
509.869	202.06136
510.077	183.07674
510.285	223.15728
510.492	282.23623
510.7	166.20292
510.908	119.80683
511.116	197.84241
511.324	221.0476
511.531	214.71868
511.739	242.1453
511.947	157.7665
512.155	223.15728
512.362	174.63967
512.57	187.2954
512.778	265.355
512.985	174.63967
513.193	199.95188
513.401	250.58493
513.608	250.58493
513.816	341.32972
514.024	166.20292
514.231	278.01581
514.439	313.8917
514.646	288.56699
514.854	286.45672
515.061	187.2954
515.269	273.79547
515.477	347.662
515.684	345.55122
515.892	252.69488
516.099	242.1453
516.307	218.93794
516.514	286.45672
516.722	164.09378
516.929	347.662
517.136	313.8917
517.344	322.33385
517.551	288.56699
517.759	347.662
517.966	206.28038
518.173	351.8836
518.381	263.24494
518.588	233.70599
518.796	221.0476
519.003	332.88694
519.21	320.22329
519.418	242.1453
519.625	305.44984
519.832	330.77629
520.039	366.65975
520.247	362.43791
520.454	299.11864
520.661	381.43673
520.868	345.55122
521.076	381.43673
521.283	267.46509
521.49	383.5478
521.697	419.43842
521.904	402.54813
522.112	358.21613
522.319	322.33385
522.526	305.44984
522.733	432.10681
522.94	417.32708
523.147	457.4453
523.354	358.21613
523.561	474.33885
523.768	375.10364
523.975	375.10364
524.183	305.44984
524.39	444.77578
524.597	408.88187
524.804	501.79293
525.011	364.54882
525.218	381.43673
525.425	434.21827
525.632	499.68099
525.838	387.76998
526.045	465.89196
526.252	404.65936
526.459	577.83217
526.666	482.78599
526.873	563.04536
527.08	398.32572
527.287	493.34525
527.494	512.35284
527.701	577.83217
527.907	482.78599
528.114	552.48376
528.321	423.66115
528.528	556.70836
528.735	516.57691
528.941	470.11538
529.148	436.32974
529.355	508.12883
529.562	586.28206
529.768	491.23337
529.975	394.10337
530.182	575.71972
530.388	554.59606
530.595	510.24083
530.802	544.03473
531.008	569.38248
531.215	533.47375
531.422	641.21136
531.628	451.11047
531.835	651.77565
532.042	613.74564
532.248	691.92262
532.455	550.37148
532.661	645.43704
532.868	626.42187
533.074	647.5499
533.281	643.32419
533.487	660.22729
533.694	628.53462
533.9	696.14886
534.107	613.74564
534.313	772.22855
534.52	698.262
534.726	609.52034
534.933	601.06987
535.139	770.11505
535.345	710.94105
535.552	748.98054
535.758	653.88854
535.965	721.50723
536.171	719.39397
536.377	837.75202
536.584	755.32078
536.79	808.15966
536.996	751.09394
537.203	801.81867
537.409	825.06936
537.615	880.02982
537.821	922.31091
538.028	820.84188
538.234	770.11505
538.44	901.16997
538.646	727.84706
538.853	772.22855
539.059	778.56913
539.265	884.25779
539.471	803.93232
539.677	922.31091
539.883	748.98054
540.09	968.8236
540.296	863.11829
540.502	892.71381
540.708	915.96855
540.914	998.42433
541.12	901.16997
541.326	1057.62946
541.532	911.74035
541.738	882.1438
541.944	992.08121
542.15	1085.11906
542.356	926.53919
542.562	1066.0877
542.768	945.56682
542.974	1051.28583
543.18	964.59503
543.386	1002.65311
543.592	1178.16679
543.798	1091.46294
544.004	1116.8389
544.21	1093.57758
544.415	1083.00445
544.621	1186.62608
544.827	975.1665
545.033	1140.10079
545.239	1114.72421
545.445	1277.56664
545.651	1011.11074
545.856	1167.59277
546.062	1099.92152
546.268	1135.87131
546.474	1116.8389
546.679	1140.10079
546.885	1091.46294
547.091	1294.48636
547.297	1102.03617
547.502	1262.762
547.708	1116.8389
547.914	1334.67122
548.119	1201.42996
548.325	1283.91152
548.531	1212.00427
548.736	1391.77694
548.942	1226.80843
549.147	1353.70636
549.353	1163.36319
549.559	1396.00703
549.764	1226.80843
549.97	1421.38758
550.175	1178.16679
550.381	1389.6619
550.586	1315.63621
550.792	1412.92739
550.997	1214.11914
551.203	1334.67122
551.408	1474.26387
551.614	1387.54686
551.819	1286.02648
552.025	1415.04244
552.23	1370.62658
552.435	1525.02495
552.641	1362.16646
552.846	1565.21044
553.052	1455.22841
553.257	1582.1305
553.462	1387.54686
553.668	1499.64446
553.873	1436.19294
554.078	1590.5905
554.283	1442.53809
554.489	1696.33749
554.694	1421.38758
554.899	1592.70549
555.105	1624.43017
555.31	1654.03943
555.515	1379.08671
555.72	1495.41436
555.925	1577.9005
556.131	1848.59901
556.336	1522.90992
556.541	1774.58555
556.746	1641.3498
556.951	1599.05046
557.156	1529.25502
557.361	1632.89
557.567	1656.15435
557.772	1675.1886
557.977	1611.74035
558.182	1795.73279
558.387	1683.64819
558.592	1725.94542
558.797	1666.72896
559.002	1654.03943
559.207	1780.92976
559.412	1810.53561
559.617	1673.07369
559.822	1774.58555
560.027	1732.28989
560.232	1842.25521
560.437	1649.80956
560.642	1962.7793
560.847	1764.01177
561.051	1937.4073
561.256	1846.48442
561.461	1810.53561
561.666	2005.06399
561.871	1996.60726
562.076	1802.07688
562.281	2030.43357
562.485	1683.64819
562.69	1962.7793
562.895	1785.15922
563.1	1992.37885
563.305	1967.00788
563.509	2013.52063
563.714	1869.74468
563.919	1937.4073
564.123	1878.2028
564.328	2102.30861
564.533	1907.80559
564.737	2034.66174
564.942	2066.37212
565.147	2028.31948
565.351	1924.72099
565.556	2224.8984
565.761	2066.37212
565.965	2231.23848
566.17	1950.09341
566.374	2157.26603
566.579	1988.15042
566.784	2060.03017
566.988	2131.90172
567.193	2205.87767
567.397	2165.72055
567.602	2216.44483
567.806	1962.7793
568.011	2341.1202
568.215	2100.19475
568.42	2182.62918
568.624	2085.39759
568.828	2229.12513
569.033	2165.72055
569.237	2339.00733
569.442	2121.33293
569.646	2093.85316
569.85	2233.35183
570.055	2440.4135
570.259	2345.34591
570.463	2438.30112
570.668	2142.47033
570.872	2419.28919
571.076	2345.34591
571.281	2459.42446
571.485	2284.06939
571.689	2385.48811
571.893	2300.97406
572.098	2520.6759
572.302	2309.42617
572.506	2472.09794
572.71	2292.5218
572.914	2402.38898
573.119	2419.28919
573.323	2469.98572
573.527	2336.89446
573.731	2645.26067
573.935	2389.71339
574.139	2535.4593
574.343	2288.29561
574.547	2598.81023
574.751	2605.14473
574.955	2541.79487
575.159	2402.38898
575.364	2607.25621
575.568	2415.0642
575.772	2560.80095
575.976	2541.79487
576.18	2793.01636
576.383	2505.89194
576.587	2562.91268
576.791	2438.30112
576.995	2727.58963
577.199	2609.36767
577.403	2655.81674
577.607	2676.92796
577.811	2683.26107
578.015	2655.81674
578.219	2771.91237
578.422	2558.68921
578.626	2708.59238
578.83	2641.03815
579.034	2858.42995
579.238	2765.58091
579.442	2784.57493
579.645	2725.47887
579.849	2845.7703
580.053	2824.66976
580.257	2913.28249
580.46	2841.55031
580.664	2968.12518
580.868	2782.46453
581.071	2887.96714
581.275	2647.37191
581.479	2843.66031
581.682	2919.611
581.886	2987.10685
582.09	2812.00877
582.293	2928.04881
582.497	2801.45757
582.7	3065.12965
582.904	3006.0873
583.107	3111.5115
583.311	2786.6853
583.515	3044.04449
583.718	2959.6885
583.922	3073.56328
584.125	2816.22916
584.329	3115.72765
584.532	2930.15822
584.735	3107.29529
584.939	3001.86953
585.142	3086.21326
585.346	3151.56236
585.549	3138.91534
585.753	3237.96787
585.956	3318.02597
586.159	3221.11044
586.363	3313.813
586.566	3071.4549
586.769	3385.42408
586.973	3107.29529
587.176	3212.68132
587.379	3122.05176
587.582	3246.39619
587.786	3132.59162
587.989	3385.42408
588.192	3267.46581
588.395	3427.53879
588.599	3176.85463
588.802	3406.48232
589.005	3254.82424
589.208	3545.42177
589.411	3358.04575
589.615	3433.85538
589.818	3364.36409
590.021	3330.66447
590.224	3267.46581
590.427	3574.88355
590.63	3259.03816
590.833	3497.01243
591.036	3503.32724
591.239	3734.75463
591.442	3406.48232
591.645	3524.37542
591.848	3288.53373
592.051	3673.76415
592.254	3406.48232
592.457	3497.01243
592.66	3469.64637
592.863	3616.96548
593.066	3459.12015
593.269	3722.13724
593.472	3488.59243
593.675	3869.29638
593.878	3627.4848
594.081	3736.85747
594.284	3473.85673
594.486	3743.16584
594.689	3541.21264
594.892	3860.88989
595.095	3705.31297
595.298	3944.94035
595.5	3732.65178
595.703	3844.07595
595.906	3659.0399
596.109	3783.11483
596.311	3677.97091
596.514	3812.54641
596.717	3736.85747
596.92	4045.75807
597.122	3795.72883
597.325	3871.39795
597.528	3755.78207
597.73	4016.35778
597.933	3743.16584
598.136	3944.94035
598.338	3917.62748
598.541	4146.52822
598.743	3768.3976
598.946	3995.3551
599.148	4024.75827
599.351	4062.55642
599.554	3806.23997
599.756	4188.50154
599.959	4056.25719
600.161	4020.55807
600.363	3995.3551
600.566	4091.95034
600.768	4157.02234
600.971	4224.17222
601.173	3978.55149
601.376	4272.42275
601.578	3951.24283
601.78	4121.34019
601.983	4112.94351
602.185	4115.04271
602.388	3865.09317
602.59	4299.68978
602.792	4089.85091
602.995	4167.51593
603.197	4064.65612
603.399	4415.00992
603.601	4148.62709
603.804	4192.69841
604.006	4070.9551
604.208	4215.77967
604.41	3839.87227
604.613	4148.62709
604.815	4123.43931
605.017	4301.7871
605.219	4352.11616
605.421	4375.17948
605.623	4259.83674
605.826	4465.31079
606.028	4251.44564
606.23	4456.92819
606.432	4280.81299
606.634	4578.44133
606.836	4201.09189
607.038	4366.79312
607.24	4079.35345
607.442	4492.55181
607.644	4419.20214
607.846	4473.69304
608.048	4192.69841
608.25	4433.87423
608.452	4513.50391
608.654	4505.12333
608.856	4215.77967
609.058	4551.2121
609.26	4213.68148
609.462	4576.34691
609.664	4354.21293
609.866	4599.38433
610.067	4364.69647
610.269	4341.63196
610.471	4375.17948
610.673	4710.34487
610.875	4534.45379
611.077	4616.13713
611.278	4628.70078
611.48	4660.1064
611.682	4519.7891
611.884	4649.63842
612.085	4391.95115
612.287	4517.69406
612.489	4347.92254
612.69	4599.38433
612.892	4618.23113
613.094	4704.06577
613.295	4540.73833
613.497	4574.25247
613.699	4479.97949
613.9	4658.01285
614.102	4523.97912
614.304	4689.41375
614.505	4488.36112
614.707	4798.23089
614.908	4555.40146
615.11	4722.90246
615.311	4465.31079
615.513	4576.34691
615.714	4521.88413
615.916	4616.13713
616.117	4375.17948
616.319	4863.07344
616.52	4563.77991
616.722	4741.73732
616.923	4624.51299
617.124	4791.95465
617.326	4440.16193
617.527	4825.4256
617.729	4490.45648
617.93	4660.1064
618.131	4649.63842
618.333	4720.80958
618.534	4643.35737
618.735	4959.25093
618.937	4618.23113
619.138	4934.16583
619.339	4750.10778
619.54	4823.33383
619.742	4771.03235
619.943	4992.69257
620.144	4785.67819
620.345	4842.15889
620.546	4626.6069
620.748	4877.71228
620.949	4791.95465
621.15	4879.80345
621.351	4632.88849
621.552	5019.85956
621.753	4837.9757
621.954	4998.96222
622.155	4607.76091
622.356	4873.52987
622.558	4724.99531
622.759	4867.25608
622.96	4750.10778
623.161	4819.15024
623.362	4695.69332
623.563	4835.88407
623.764	4783.586
623.965	5163.9881
624.166	4624.51299
624.366	4959.25093
624.567	4842.15889
624.768	5047.02265
624.969	4871.43863
625.17	5122.22308
625.371	4858.89071
625.572	4812.87467
625.773	4766.84761
625.973	4957.16063
626.174	4986.42271
626.375	5034.48632
626.576	5001.05206
626.777	5151.45957
626.977	4844.25044
627.178	5172.33999
627.379	4919.53133
627.58	5145.19499
627.78	4965.52168
627.981	4946.70879
628.182	4768.93999
628.382	5216.18128
628.583	5078.35981
628.784	5245.40309
628.984	4963.43146
629.185	5241.22883
629.386	5080.44877
629.586	5276.7071
629.787	5161.90007
629.987	5481.09684
630.188	4938.34691
630.388	5113.86896
630.589	5136.8419
630.79	5195.30576
630.99	5084.62662
631.191	5220.3561
631.391	5230.79276
631.591	5209.91887
631.792	5195.30576
631.992	5443.57277
632.193	4929.98466
632.393	5339.29931
632.594	5161.90007
632.794	5191.13037
632.994	5180.6915
633.195	5439.40296
633.395	5270.44672
633.595	5418.55249
633.796	5268.35988
633.996	5347.64335
634.196	5272.53353
634.397	5289.22722
634.597	5161.90007
634.797	5518.61328
634.997	5293.40041
635.198	5516.52923
635.398	5230.79276
635.598	5362.24451
635.798	5247.49019
635.998	5381.01574
636.199	5410.21165
636.399	5368.50179
636.599	5280.88057
636.799	5312.17861
636.999	5130.57683
637.199	5368.50179
637.399	5287.14059
637.599	5531.11706
637.799	5341.38536
637.999	5616.53689
638.199	5422.72278
638.399	5639.44766
638.599	5445.65764
638.799	5749.79591
638.999	5558.20569
639.199	5710.24473
639.399	5360.1587
639.599	5724.81721
639.799	5541.53623
639.999	5612.37099
640.199	5435.23305
640.399	5745.63303
640.599	5017.76993
640.799	5656.10825
640.998	5485.26571
641.198	5737.30699
641.398	5551.95482
641.598	5701.91708
641.798	5414.38212
641.997	5708.16285
642.197	5462.33576
642.397	5747.71449
642.597	5376.84452
642.796	5643.61295
642.996	5514.44516
643.196	5762.28399
643.395	5645.69556
643.595	5714.40841
643.795	5620.7027
643.994	5830.95323
644.194	5579.04038
644.394	5660.27316
644.593	5660.27316
644.793	5547.78746
644.992	5535.2848
645.192	5909.99507
645.392	5703.99903
645.591	6026.4157
645.791	5797.66227
645.99	5843.43579
646.19	5606.12196
646.389	5857.99769
646.589	5633.19955
646.788	5976.53019
646.987	5529.03316
647.187	5945.34486
647.386	5839.27503
647.586	5909.99507
647.785	5995.23885
647.984	6144.83943
648.184	5926.63111
648.383	5851.75702
648.582	5706.08095
648.782	6018.10239
648.981	6009.7887
649.18	5870.47841
649.38	5751.87732
649.579	6117.83723
649.778	5928.71051
649.977	6221.67011
650.177	5793.50047
650.376	5868.39835
650.575	5887.11804
650.774	6082.52068
650.973	5972.37245
651.173	5989.00284
651.372	5762.28399
651.571	6003.55319
651.77	5895.43729
651.969	6076.28764
652.168	6034.72863
652.367	6167.68434
652.566	5997.31747
652.765	6178.06745
652.964	6061.74305
653.163	6171.83765
653.362	6036.8068
653.561	6092.9086
653.76	6117.83723
653.959	6053.43135
654.158	5995.23885
654.357	6061.74305
654.556	5893.35751
654.755	6153.147
654.954	6018.10239
655.153	6186.37352
655.352	5997.31747
655.551	6148.99326
655.749	5934.94857
655.948	6232.05017
656.147	6094.98612
656.346	6209.21326
656.545	5993.1602
656.743	6267.338
656.942	6018.10239
657.141	6387.6809
657.34	5857.99769
657.538	6227.89822
657.737	6047.19732
657.936	6271.48907
658.135	6192.60282
658.333	6115.75998
658.532	6107.45072
658.731	6553.54254
658.929	6180.144
659.128	6331.66898
659.326	6219.59403
659.525	6261.11123
659.724	6088.7535
659.922	6265.26243
660.121	6395.97752
660.319	6261.11123
660.518	6294.31825
660.716	6200.90823
660.915	6236.20203
661.113	6528.67276
661.312	6254.88425
661.51	6427.08651
661.709	6304.69421
661.907	6306.76933
662.105	6259.03559
662.304	6512.09106
662.502	6209.21326
662.701	6462.33704
662.899	6244.50547
663.097	6507.9454
663.296	6325.44439
663.494	6520.3821
663.692	6217.51792
663.891	6609.48737
664.089	6294.31825
664.287	6389.75509
664.485	6400.12569
664.684	6665.41538
664.882	6223.74617
665.08	6665.41538
665.278	6568.04837
665.476	6599.12849
665.675	6209.21326
665.873	6617.77406
666.071	6342.04284
666.269	6425.01274
666.467	6209.21326
666.665	6321.29454
666.863	6315.06959
667.061	6799.98822
667.259	6408.42174
667.457	6615.70242
667.655	6499.65381
667.853	6354.49071
668.051	6456.11684
668.249	6551.47019
668.447	6541.10807
668.645	6510.01824
668.843	6427.08651
669.041	6470.6303
669.239	6300.54389
669.437	6565.97618
669.635	6565.97618
669.833	6466.48372
670.031	6153.147
670.229	6445.74939
670.426	6292.24298
670.624	6514.16385
670.822	6371.08655
671.02	6661.27314
671.218	6352.41612
671.415	6408.42174
671.613	6549.39781
671.811	6557.68718
672.009	6487.21572
672.206	6677.84155
672.404	6331.66898
672.602	6640.56056
672.799	6427.08651
672.997	6503.79965
673.195	6520.3821
673.392	6607.41564
673.59	6439.52864
673.788	6582.55307
673.985	6366.93773
674.183	6441.60225
674.38	6474.7768
674.578	6619.84568
674.775	6354.49071
674.973	6565.97618
675.17	6514.16385
675.368	6476.85001
675.565	6530.74537
675.763	6758.5915
675.96	6485.14262
676.158	6599.12849
676.355	6159.37743
676.553	6717.18562
676.75	6507.9454
676.947	6677.84155
677.145	6391.82926
677.342	6543.18054
677.539	6400.12569
677.737	6553.54254
677.934	6352.41612
678.131	6638.48917
678.329	6356.56527
678.526	6541.10807
678.723	6526.60013
678.92	6665.41538
679.118	6557.68718
679.315	6708.90335
679.512	6561.83173
679.709	6588.76903
679.906	6584.62508
680.104	6862.0662
680.301	6366.93773
680.498	6756.52142
680.695	6512.09106
680.892	6648.84587
681.089	6146.91636
681.286	6657.13081
681.483	6352.41612
681.68	6578.40899
681.877	6445.74939
682.075	6590.84097
682.272	6609.48737
682.469	6594.98477
682.665	6304.69421
682.862	6503.79965
683.059	6333.7438
683.256	6466.48372
683.453	6512.09106
683.65	6632.27488
683.847	6615.70242
684.044	6451.96993
684.241	6661.27314
684.438	6650.91714
684.635	6377.30961
684.831	6650.91714
685.028	6485.14262
685.225	6607.41564
685.422	6146.91636
685.619	6723.39709
685.815	6433.30768
686.012	6557.68718
686.209	6418.79129
686.405	6586.69707
686.602	6288.09239
686.799	6483.0695
686.996	6261.11123
687.192	6267.338
687.389	6327.51927
687.586	6315.06959
687.782	6404.27376
687.979	6584.62508
688.175	6121.99168
688.372	6541.10807
688.568	6236.20203
688.765	6607.41564
688.962	6458.19026
689.158	6652.98838
689.355	6441.60225
689.551	6634.34634
689.748	6395.97752
689.944	6458.19026
690.14	6422.93895
690.337	6250.73281
690.533	6356.56527
690.73	6684.05432
690.926	6476.85001
691.123	6470.6303
691.319	6144.83943
691.515	6420.86513
691.712	6134.45444
691.908	6532.81796
692.104	6557.68718
692.301	6574.26481
692.497	6286.01705
692.693	6393.9034
692.889	6389.75509
693.086	6300.54389
693.282	6418.79129
693.478	6510.01824
693.674	6321.29454
693.87	6449.89644
694.067	6221.67011
694.263	6532.81796
694.459	6387.6809
694.655	6454.0434
694.851	6302.61906
695.047	6549.39781
695.243	6327.51927
695.439	6422.93895
695.635	6466.48372
695.831	6312.99456
696.027	6246.58127
696.224	6429.16026
696.42	6503.79965
696.615	6659.20199
696.811	6516.23662
697.007	6652.98838
697.203	6377.30961
697.399	6485.14262
697.595	6431.23398
697.791	6510.01824
697.987	6086.67592
698.183	6510.01824
698.379	6259.03559
698.575	6694.40848
698.77	6356.56527
698.966	6395.97752
699.162	6514.16385
699.358	6483.0695
699.554	6300.54389
699.749	6669.55753
699.945	6221.67011
700.141	6559.75947
700.337	6259.03559
700.532	6373.16093
700.728	6196.75557
700.924	6294.31825
701.119	6105.37334
701.315	6315.06959
701.511	6236.20203
701.706	6379.38391
701.902	6097.06361
702.097	6568.04837
702.293	6101.21852
702.489	6499.65381
702.684	6130.30028
702.88	6358.63981
703.075	6184.29704
703.271	6342.04284
703.466	6040.96308
703.662	6414.64354
703.857	6194.67921
704.053	6335.8186
704.248	6261.11123
704.443	6406.34776
704.639	6342.04284
704.834	6300.54389
705.03	6213.36564
705.225	6323.36947
705.42	6271.48907
705.616	6310.91951
705.811	6223.74617
706.006	6549.39781
706.202	6229.97421
706.397	6342.04284
706.592	6184.29704
706.787	6487.21572
706.983	6232.05017
707.178	6536.96306
707.373	6271.48907
707.568	6543.18054
707.763	6263.18684
707.959	6385.60669
708.154	6242.42965
708.349	6375.23528
708.544	6277.71549
708.739	6252.80854
708.934	6161.45419
709.129	6437.45501
709.324	6259.03559
709.519	6408.42174
709.714	6036.8068
709.909	6225.82221
710.104	6092.9086
710.299	6383.53245
710.494	6300.54389
710.689	6460.26366
710.884	6051.35336
711.079	6298.4687
711.274	6250.73281
711.469	6623.98884
711.664	6186.37352
711.859	6541.10807
712.054	6242.42965
712.249	6207.13704
712.443	6005.63172
712.638	6194.67921
712.833	6130.30028
713.028	6304.69421
713.223	6040.96308
713.417	6342.04284
713.612	6026.4157
713.807	6362.78882
714.002	6404.27376
714.196	6369.01215
714.391	6277.71549
714.586	6151.07014
714.78	6192.60282
714.975	6391.82926
715.17	6250.73281
715.364	6252.80854
715.559	5893.35751
715.754	6198.83191
715.948	5905.83582
716.143	6198.83191
716.337	6067.97659
716.532	6163.53093
716.726	6038.88495
716.921	6211.28946
717.115	5961.9777
717.31	6369.01215
717.504	6184.29704
717.699	6460.26366
717.893	6105.37334
718.088	5980.68784
718.282	6092.9086
718.476	6101.21852
718.671	6005.63172
718.865	6013.94559
719.059	5862.15803
719.254	6242.42965
719.448	5993.1602
719.642	6329.59414
719.837	5912.07465
720.031	6209.21326
720.225	5874.63846
720.419	6109.52807
720.614	5889.19789
720.808	6200.90823
721.002	5870.47841
721.196	6250.73281
721.39	6026.4157
721.585	6128.22316
721.779	6011.86716
721.973	6130.30028
722.167	5918.31328
722.361	6070.05439
722.555	5980.68784
722.749	6200.90823
722.943	5924.55169
723.137	6256.95993
723.331	6026.4157
723.525	6146.91636
723.719	5818.46983
723.913	6061.74305
724.107	5943.26565
724.301	5980.68784
724.495	5901.67648
724.689	6225.82221
724.883	5845.51613
725.077	6072.13216
725.271	5920.39277
725.465	5943.26565
725.659	6121.99168
725.853	6067.97659
726.046	5876.71845
726.24	5949.50321
726.434	5901.67648
726.628	5916.23376
726.822	5826.79219
727.015	6124.06886
727.209	5918.31328
727.403	6028.49396
727.596	5872.55844
727.79	5957.81963
727.984	5835.11418
728.177	5989.00284
728.371	5943.26565
728.565	5932.86924
728.758	5880.87835
728.952	5943.26565
729.146	5756.04006
729.339	6275.64004
729.533	6080.44302
729.726	6026.4157
729.92	5976.53019
730.113	6007.71022
730.307	5970.29355
730.5	6009.7887
730.694	5749.79591
730.887	6057.58725
731.081	5885.03817
731.274	5845.51613
731.468	6043.04118
731.661	5778.93344
731.854	5826.79219
732.048	5993.1602
732.241	5662.35558
732.435	6082.52068
732.628	5945.34486
732.821	6067.97659
733.014	6022.25909
733.208	5843.43579
733.401	5874.63846
733.594	5932.86924
733.788	6074.20991
733.981	6113.6827
734.174	6059.66516
734.367	6028.49396
734.56	5968.21462
734.754	6067.97659
734.947	5845.51613
735.14	6088.7535
735.333	6134.45444
735.526	6036.8068
735.719	5660.27316
735.912	5914.15422
736.105	5980.68784
736.298	6063.82092
736.491	6254.88425
736.684	6317.1446
736.877	5851.75702
737.07	5993.1602
737.263	5816.38918
737.456	5986.92412
737.649	5768.52771
737.842	6126.14603
738.035	6020.18075
738.228	6061.74305
738.421	5918.31328
738.614	6028.49396
738.807	6026.4157
739	5918.31328
739.192	5984.84538
739.385	5976.53019
739.578	5926.63111
739.771	5853.83727
739.964	6011.86716
740.156	6018.10239
740.349	5803.90478
740.542	5853.83727
740.735	5793.50047
740.927	5964.05669
741.12	5776.85234
741.313	6001.47464
741.505	5860.07787
741.698	5851.75702
741.891	5670.68503
742.083	5980.68784
742.276	6011.86716
742.468	5885.03817
742.661	5826.79219
742.854	5897.51704
743.046	5791.41954
743.239	6030.57221
743.431	6009.7887
743.624	5791.41954
743.816	5930.78989
744.009	5897.51704
744.201	5720.65376
744.393	5876.71845
744.586	5841.35542
744.778	5966.13567
744.971	5610.288
745.163	5901.67648
745.355	5839.27503
745.548	5795.58138
745.74	5862.15803
745.932	5805.98557
746.125	5964.05669
746.317	5810.14709
746.509	5728.98056
746.702	6109.52807
746.894	5654.02576
747.086	5643.61295
747.278	5843.43579
747.471	5793.50047
747.663	5751.87732
747.855	5853.83727
748.047	5731.06221
748.239	5860.07787
748.431	5820.55045
748.623	5708.16285
748.815	5618.61981
749.008	5868.39835
749.2	5803.90478
749.392	5818.46983
749.584	5720.65376
749.776	5845.51613
749.968	5633.19955
750.16	5764.36526
750.352	5901.67648
750.544	5726.8989
750.736	5689.42489
750.928	5689.42489
751.12	5643.61295
751.311	5676.93186
751.503	5872.55844
751.695	5937.02787
751.887	5714.40841
752.079	5899.59677
752.271	5651.94325
752.463	5893.35751
752.654	5843.43579
752.846	5822.63106
753.038	5803.90478
753.23	5951.58235
753.421	5585.29033
753.613	5562.37281
753.805	5753.9587
753.997	5666.52035
754.188	5718.572
754.38	5706.08095
754.572	5547.78746
754.763	5797.66227
754.955	5595.70644
755.146	5543.62
755.338	5431.06306
755.53	5506.10864
755.721	5328.86874
755.913	5433.14807
756.104	5479.01236
756.296	5753.9587
756.487	5689.42489
756.679	5695.67109
756.87	5335.12715
757.062	5562.37281
757.253	5581.12372
757.445	5697.75311
757.636	5585.29033
757.827	5522.7813
758.019	5604.0389
758.21	5679.01409
758.401	5501.94024
758.593	5485.26571
758.784	5403.95577
758.975	5445.65764
759.167	5264.18613
759.358	5599.87272
759.549	5443.57277
759.74	5481.09684
759.932	5420.63765
760.123	5418.55249
760.314	5241.22883
760.505	5387.27239
760.696	5234.96726
760.888	5351.81522
761.079	5245.40309
761.27	5485.26571
761.461	5239.14166
761.652	5355.98701
761.843	5163.9881
762.034	5458.16637
762.225	5168.16409
762.416	5474.84335
762.607	5138.9302
762.798	5385.18686
762.989	5616.53689
763.18	5393.52883
763.371	5143.10675
763.562	4967.61189
763.753	4942.5279
763.944	5153.54772
764.135	5105.51447
764.326	5216.18128
764.517	5226.61817
764.708	5168.16409
764.899	4984.33271
765.089	5201.56866
765.28	5218.2687
765.471	5222.44348
765.662	4990.60264
765.853	5184.86712
766.043	4810.78277
766.234	4959.25093
766.425	4846.34198
766.615	5055.37973
766.806	4957.16063
766.997	5092.98204
767.187	5051.20124
767.378	5101.33709
767.569	5021.94917
767.759	5109.69176
767.95	5007.32143
768.141	5184.86712
768.331	5176.51579
768.522	5061.64731
768.712	5042.84397
768.903	5113.86896
769.093	4944.61836
769.284	5132.66521
769.474	4946.70879
769.665	5088.80438
769.855	4950.8896
770.046	4944.61836
770.236	4823.33383
770.426	4932.07526
770.617	5040.75459
770.807	4950.8896
770.998	4676.854
771.188	5024.03875
771.378	4800.32293
771.569	5015.68028
771.759	4578.44133
771.949	4611.94906
772.139	4722.90246
772.33	4716.62377
772.52	4637.07611
772.71	4842.15889
772.9	4433.87423
773.09	4739.64465
773.281	4720.80958
773.471	5007.32143
773.661	4817.0584
773.851	4748.0152
774.041	4685.22725
774.231	4699.87959
774.421	4375.17948
774.611	4549.11739
774.802	4741.73732
774.992	4632.88849
775.182	4574.25247
775.372	4668.48038
775.562	4519.7891
775.752	4733.3665
775.942	4471.59751
776.131	4505.12333
776.321	4634.98231
776.511	4695.69332
776.701	4484.17035
776.891	4773.12468
777.081	4526.0741
777.271	4737.55195
777.461	4523.97912
777.651	4731.27373
777.84	4383.56549
778.03	4651.73206
778.22	4429.68231
778.41	4492.55181
778.599	4362.59981
778.789	4547.02266
778.979	4339.53506
779.169	4358.40641
779.358	4373.08292
779.548	4347.92254
779.738	4232.56442
779.927	4609.855
780.117	4347.92254
780.307	4500.93291
780.496	4285.00798
780.686	4456.92819
780.875	4167.51593
781.065	4408.72143
781.254	4526.0741
781.444	4526.0741
781.633	4389.85477
781.823	4381.46902
782.012	4345.8257
782.202	4230.4664
782.391	4108.74504
782.581	4333.24422
782.77	4154.92356
782.96	4389.85477
783.149	4215.77967
783.338	4243.0542
783.528	4322.75905
783.717	4402.43274
783.906	4240.95629
784.096	4259.83674
784.285	4196.89519
784.474	4297.59245
784.663	4144.42933
784.853	4226.2703
785.042	4081.45298
785.231	4012.15741
785.42	4066.7558
785.61	4150.72593
785.799	4201.09189
785.988	4075.15432
786.177	3823.05675
786.366	4276.61791
786.555	4148.62709
786.744	4018.45793
786.933	4064.65612
787.122	4305.98166
787.312	4003.75642
787.501	3997.45546
787.69	3699.00355
787.879	4096.14914
788.068	3886.1084
788.257	3865.09317
788.445	3726.34312
788.634	3715.82828
788.823	3879.80404
789.012	3785.21721
789.201	3751.57674
789.39	3875.60103
789.579	3768.3976
789.768	3865.09317
789.957	3736.85747
790.145	3965.94792
790.334	3753.67942
790.523	3785.21721
790.712	3785.21721
790.9	4045.75807
791.089	3841.97412
791.278	4049.95778
791.467	3745.2686
791.655	4077.25389
791.844	3886.1084
792.033	3978.55149
792.221	3919.72859
792.41	4039.45835
792.599	3686.3842
792.787	3949.14203
792.976	3928.13283
793.164	3869.29638
793.353	3728.44603
793.541	3835.66851
793.73	3837.7704
793.918	3928.13283
794.107	3633.79616
794.295	3818.85267
794.484	3591.71722
794.672	3818.85267
794.861	3722.13724
795.049	3793.62655
795.238	3560.15311
795.426	3745.2686
795.614	3652.72922
795.803	3940.73859
795.991	3680.07426
796.179	3892.41258
796.368	3806.23997
796.556	3797.8311
796.744	3583.30053
796.932	3789.42192
797.121	3568.57062
797.309	3707.41607
797.497	3776.80756
797.685	3738.96028
797.874	3667.45387
798.062	3513.85156
798.25	3402.27081
798.438	3823.05675
798.626	3610.65367
798.814	3534.89882
799.002	3518.06116
799.19	3471.75156
799.378	3250.61025
799.566	3494.90746
799.755	3509.64189
799.943	3669.55732
800.131	3616.96548
800.318	3568.57062
800.506	3568.57062
800.694	3545.42177
800.882	3450.69884
801.07	3730.54891
801.258	3501.22232
801.446	3633.79616
801.634	3309.59996
801.822	3585.40473
802.01	3440.17181
802.197	3673.76415
802.385	3395.95342
802.573	3425.43322
802.761	3398.05924
802.949	3680.07426
803.136	3486.48738
803.324	3694.79718
803.512	3555.94425
803.699	3431.74987
803.887	3494.90746
804.075	3564.3619
804.262	3583.30053
804.45	3665.35041
804.638	3558.04869
804.825	3751.57674
805.013	3499.11739
805.201	3465.43593
805.388	3370.68227
805.576	3608.5497
805.763	3370.68227
805.951	3515.95637
806.138	3339.08979
806.326	3652.72922
806.513	3473.85673
806.701	3532.79418
806.888	3659.0399
807.075	3810.44428
807.263	3482.27724
807.45	3677.97091
807.638	3518.06116
807.825	3726.34312
808.012	3457.01485
808.2	3759.98733
808.387	3454.90953
808.574	3595.92545
808.761	3644.31471
808.949	3743.16584
809.136	3610.65367
809.323	3762.08992
809.51	3389.63587
809.698	3642.21104
809.885	3576.98782
810.072	3570.67495
810.259	3513.85156
810.446	3810.44428
810.633	3492.80247
810.82	3638.00364
811.008	3795.72883
811.195	3837.7704
811.382	3749.47404
811.569	3671.66074
811.756	3633.79616
811.943	3823.05675
812.13	3520.16593
812.317	3576.98782
812.504	3566.46627
812.691	3881.90551
812.878	3520.16593
813.064	3759.98733
813.251	3644.31471
813.438	3757.88471
813.625	3537.00345
813.812	3650.62562
813.999	3673.76415
814.186	3549.63081
814.372	3638.00364
814.559	3734.75463
814.746	3332.77082
814.933	3560.15311
815.12	3263.25202
815.306	3526.48014
815.493	3398.05924
815.68	3642.21104
815.866	3619.06938
816.053	3595.92545
816.24	3400.16503
816.426	3633.79616
816.613	3484.38232
816.799	3825.15876
816.986	3560.15311
817.173	3751.57674
817.359	3488.59243
817.546	3663.24692
817.732	3412.79945
817.919	3587.50891
818.105	3511.74673
818.292	3478.06702
818.478	3473.85673
818.665	3593.82135
818.851	3237.96787
819.037	3642.21104
819.224	3343.30235
819.41	3619.06938
819.597	3372.7883
819.783	3551.73531
819.969	3562.25752
820.156	3585.40473
820.342	3619.06938
820.528	3738.96028
820.714	3417.01078
820.901	3686.3842
821.087	3328.55809
821.273	3642.21104
821.459	3288.53373
821.646	3738.96028
821.832	3404.37658
822.018	3604.34169
822.204	3339.08979
822.39	3313.813
822.576	3259.03816
822.762	3431.74987
822.948	3349.62105
823.134	3507.53702
823.32	3237.96787
823.507	3490.69746
823.693	3423.32764
823.879	3459.12015
824.065	3364.36409
824.25	3355.9396
824.436	3263.25202
824.622	3560.15311
824.808	3400.16503
824.994	3339.08979
825.18	3406.48232
825.366	3475.96188
825.552	3454.90953
825.738	3505.43214
825.923	3391.74174
826.109	3629.5886
826.295	3242.18207
826.481	3600.13361
826.667	3440.17181
826.852	3454.90953
827.038	3256.93121
827.224	3417.01078
827.409	3364.36409
827.595	3349.62105
827.781	3071.4549
827.966	3358.04575
828.152	2995.54276
828.338	3364.36409
828.523	3001.86953
828.709	3271.67953
828.894	3027.17524
829.08	3406.48232
829.266	3065.12965
829.451	3195.8223
829.637	3166.31647
829.822	3056.69577
830.008	3079.88834
830.193	3170.53178
830.378	3058.80427
830.564	3221.11044
830.749	3060.91274
830.935	3391.74174
831.12	2978.67071
831.305	3200.03715
831.491	2925.93938
831.676	3060.91274
831.861	2774.02283
832.047	3115.72765
832.232	2828.88998
832.417	2980.77976
832.602	2911.17296
832.788	3039.82727
832.973	3138.91534
833.158	3200.03715
833.343	2913.28249
833.528	3086.21326
833.714	2993.4338
833.899	3044.04449
834.084	2877.41846
834.269	3073.56328
834.454	2892.18651
834.639	3069.3465
834.824	2799.34729
835.009	2989.21585
835.194	2860.53984
835.379	3109.4034
835.564	2877.41846
835.749	2824.66976
835.934	2900.62507
836.119	2790.90602
836.304	2915.39201
836.489	2982.88881
836.674	2782.46453
836.859	2877.41846
837.044	2733.92181
837.228	3018.74025
837.413	2712.81408
837.598	2989.21585
837.783	2892.18651
837.968	2934.37701
838.152	2681.15005
838.337	2961.79769
838.522	2885.85743
838.707	2902.73468
838.891	2795.12668
839.076	2731.81109
839.261	2738.14319
839.445	2917.50151
839.63	2691.70505
839.815	2750.80704
839.999	2630.48163
840.184	2816.22916
840.368	2603.03324
840.553	2719.14653
840.737	2571.35947
840.922	2607.25621
841.106	2554.4657
841.291	2664.26138
841.475	2501.66784
841.66	2860.53984
841.844	2562.91268
842.029	2845.7703
842.213	2322.10404
842.397	2676.92796
842.582	2598.81023
842.766	2700.14882
842.951	2410.83917
843.135	2740.25387
843.319	2218.55824
843.504	2482.65887
843.688	2326.32992
843.872	2529.12363
844.056	2387.60075
844.241	2495.33162
844.425	2377.03742
844.609	2360.13556
844.793	2461.53674
844.977	2546.01853
845.161	2389.71339
845.346	2436.18873
845.53	2467.87349
845.714	2603.03324
845.898	2377.03742
846.082	2562.91268
846.266	2275.61682
846.45	2588.25249
846.634	2328.44285
846.818	2472.09794
847.002	2336.89446
847.186	2488.9953
847.37	2319.99109
847.554	2586.1409
847.738	2142.47033
847.922	2355.90999
848.106	2343.23306
848.29	2284.06939
848.473	2334.78157
848.657	2294.63488
848.841	2216.44483
849.025	2300.97406
849.209	2165.72055
849.392	2412.95169
849.576	2184.74272
849.76	2178.40207
849.944	2072.71401
850.127	2393.93863
850.311	1996.60726
850.495	2347.45874
850.678	2125.56047
850.862	2351.68439
851.046	2174.17493
851.229	2343.23306
851.413	2038.88988
851.596	2246.03171
851.78	2106.53629
851.964	2269.27731
852.147	1928.94978
852.331	2134.01546
852.514	2005.06399
852.698	2212.21799
852.881	1922.60658
853.065	2336.89446
853.248	2047.34608
853.431	2148.81139
853.615	2024.09127
853.798	2117.10535
853.982	2009.29232
854.165	1950.09341
854.348	2000.83564
854.532	2049.46012
854.715	1869.74468
854.898	1992.37885
855.081	1793.61808
855.265	2093.85316
855.448	1962.7793
855.631	1897.23328
855.814	1835.91138
855.997	1969.12216
856.181	1831.68213
856.364	1947.97907
856.547	1778.81503
856.73	1941.63603
856.913	1954.32206
857.096	2017.7489
857.279	1734.40471
857.462	1958.55069
857.645	1700.56723
857.828	1884.54634
858.011	1725.94542
858.194	1818.99427
858.377	1577.9005
858.56	1840.14061
858.743	1725.94542
858.926	1829.5675
859.109	1698.45236
859.292	1780.92976
859.475	1694.22261
859.658	1804.19157
859.841	1493.29932
860.023	1666.72896
860.206	1685.76308
860.389	1835.91138
860.572	1550.40531
860.755	1785.15922
860.937	1725.94542
861.12	1704.79696
861.303	1497.52941
861.486	1751.32312
861.668	1626.54513
861.851	1689.99285
862.034	1408.6973
862.216	1772.4708
862.399	1408.6973
862.581	1609.62537
862.764	1489.06922
862.947	1582.1305
863.129	1575.78549
863.312	1711.14153
863.494	1406.58225
863.677	1687.87797
863.859	1474.26387
864.042	1618.08527
864.224	1389.6619
864.406	1467.91872
864.589	1412.92739
864.771	1673.07369
864.954	1353.70636
865.136	1470.03377
865.318	1237.38293
865.501	1288.14145
865.683	1243.72766
865.865	1393.89199
866.048	1446.7682
866.23	1425.61768
866.412	1271.22178
866.594	1560.98041
866.777	1315.63621
866.959	1391.77694
867.141	1423.50263
867.323	1391.77694
867.505	1341.01625
867.687	1497.52941
867.869	1290.25642
868.052	1440.42304
868.234	1262.762
868.416	1383.31679
868.598	1296.60134
868.78	1372.74161
868.962	1176.05198
869.144	1525.02495
869.326	1256.4172
869.508	1518.67984
869.69	1288.14145
869.872	1381.20175
870.054	1288.14145
870.236	1281.79656
870.417	1226.80843
870.599	1412.92739
870.781	1260.64707
870.963	1450.9983
871.145	1121.0683
871.327	1300.83129
871.508	1252.18734
871.69	1296.60134
871.872	1296.60134
872.054	1353.70636
872.235	1235.26802
872.417	1279.6816
872.599	1302.94628
872.78	1446.7682
872.962	1154.90408
873.144	1396.00703
873.325	1133.75658
873.507	1349.47632
873.689	1296.60134
873.87	1328.3262
874.052	1108.38017
874.233	1254.30227
874.415	1311.40622
874.596	1336.78623
874.778	1131.64186
874.959	1216.23401
875.141	1209.8894
875.322	1341.01625
875.503	1273.33673
875.685	1233.15312
875.866	1123.183
876.048	1222.57865
876.229	1161.24841
876.41	1167.59277
876.592	1220.46377
876.773	1228.92332
876.954	1135.87131
877.136	1205.65967
877.317	1176.05198
877.498	1252.18734
877.679	1076.66063
877.86	1319.8662
878.042	1201.42996
878.223	1338.90124
878.404	1121.0683
878.585	1277.56664
878.766	1057.62946
878.947	1192.97058
879.128	1059.74401
879.309	1243.72766
879.49	1099.92152
879.672	1415.04244
879.853	1184.51125
880.034	1203.54481
880.215	1167.59277
880.396	1355.82139
880.576	1108.38017
880.757	1286.02648
880.938	1125.29771
881.119	1353.70636
881.3	1146.44503
881.481	1357.93641
881.662	1239.49783
881.843	1379.08671
882.023	1366.39652
882.204	1421.38758
882.385	1273.33673
882.566	1231.03822
882.747	1205.65967
882.927	1176.05198
883.108	1212.00427
883.289	1273.33673
883.469	1173.93717
883.65	1398.12207
883.831	1338.90124
884.011	1296.60134
884.192	1199.31511
884.373	1345.24629
884.553	1169.70757
884.734	1486.95417
884.914	1178.16679
885.095	1510.21968
885.275	1319.8662
885.456	1470.03377
885.636	1296.60134
885.817	1404.4672
885.997	1324.09619
886.178	1516.5648
886.358	1195.08542
886.538	1429.84778
886.719	1209.8894
886.899	1423.50263
887.08	1241.61274
887.26	1438.30799
887.44	1142.21553
887.621	1461.57356
887.801	1254.30227
887.981	1565.21044
888.161	1288.14145
888.342	1336.78623
888.522	1254.30227
888.702	1434.07789
888.882	1277.56664
889.062	1362.16646
889.242	1277.56664
889.423	1262.762
889.603	1207.77453
889.783	1362.16646
889.963	1142.21553
890.143	1184.51125
890.323	1121.0683
890.503	1266.99189
890.683	1167.59277
890.863	1400.23711
891.043	1220.46377
891.223	1484.83912
891.403	1159.13363
891.583	1283.91152
891.763	1218.34889
891.943	1406.58225
892.122	1144.33028
892.302	1353.70636
892.482	1231.03822
892.662	1288.14145
892.842	1152.78931
893.022	1271.22178
893.201	1083.00445
893.381	1309.29123
893.561	1188.74091
893.741	1391.77694
893.92	1144.33028
894.1	1328.3262
894.28	1159.13363
894.459	1296.60134
894.639	1302.94628
894.819	1220.46377
894.998	1245.84257
895.178	1245.84257
895.357	1178.16679
895.537	1150.67455
895.716	1099.92152
895.896	1209.8894
896.075	1112.60953
896.255	1294.48636
896.434	1083.00445
896.614	1256.4172
896.793	1066.0877
896.973	1286.02648
897.152	1110.49485
897.331	1188.74091
897.511	951.90949
897.69	1163.36319
897.87	998.42433
898.049	966.70931
898.228	975.1665
898.407	1040.71324
898.587	1032.25526
898.766	1150.67455
898.945	985.73814
899.124	1118.9536
899.304	1085.11906
899.483	1176.05198
899.662	968.8236
899.841	992.08121
900.02	846.2073
900.199	1040.71324
900.378	880.02982
900.557	998.42433
900.737	913.85444
900.916	922.31091
901.095	702.4883
901.274	996.30995
901.453	926.53919
901.632	841.97964
901.811	820.84188
901.989	776.4556
902.168	710.94105
902.347	905.3981
902.526	725.73377
902.705	839.86582
902.884	890.59979
903.063	992.08121
903.242	755.32078
903.42	977.28082
903.599	799.70503
903.778	856.7766
903.957	736.30033
904.135	787.02337
904.314	685.58335
904.493	841.97964
904.672	727.84706
904.85	803.93232
905.029	706.71465
905.207	806.04598
905.386	787.02337
905.565	744.75376
905.743	706.71465
905.922	584.16957
906.1	617.971
906.279	795.47777
906.457	567.2701
906.636	742.64038
906.814	560.93302
906.993	603.18247
907.171	487.00965
907.35	550.37148
907.528	444.77578
907.707	645.43704
907.885	565.15772
908.063	541.92251
908.242	541.92251
908.42	577.83217
908.598	584.16957
908.777	620.0837
908.955	512.35284
909.133	495.45715
909.311	518.68897
909.49	590.50708
909.668	465.89196
909.846	567.2701
910.024	438.44123
910.202	506.01685
910.38	415.21575
910.559	527.13733
910.737	432.10681
910.915	459.55694
911.093	516.57691
911.271	569.38248
911.449	429.99538
911.627	584.16957
911.805	448.99889
911.983	506.01685
912.161	484.89782
912.339	579.94462
912.517	525.02522
912.695	609.52034
912.872	550.37148
913.05	685.58335
913.228	569.38248
913.406	643.32419
913.584	550.37148
913.762	516.57691
913.939	512.35284
914.117	601.06987
914.295	406.7706
914.473	508.12883
914.65	510.24083
914.828	579.94462
915.006	482.78599
915.184	527.13733
915.361	533.47375
915.539	527.13733
915.716	423.66115
915.894	639.09854
916.072	440.55273
916.249	518.68897
916.427	531.3616
916.604	535.58592
916.782	398.32572
916.959	571.49488
917.137	442.66424
917.314	474.33885
917.492	520.80104
917.669	442.66424
917.847	425.77255
918.024	558.82068
918.201	514.46487
918.379	508.12883
918.556	508.12883
918.733	482.78599
918.911	461.6686
919.088	495.45715
919.265	360.32701
919.442	442.66424
919.62	366.65975
919.797	391.99222
919.974	427.88395
920.151	503.90488
920.328	372.99264
920.506	453.22206
920.683	436.32974
920.86	453.22206
921.037	448.99889
921.214	423.66115
921.391	297.00827
921.568	432.10681
921.745	339.219
921.922	444.77578
922.099	446.88733
922.276	459.55694
922.453	364.54882
922.63	406.7706
922.807	351.8836
922.984	360.32701
923.161	299.11864
923.338	381.43673
923.514	216.8283
923.691	413.10444
923.868	385.65888
924.045	339.219
924.222	423.66115
924.399	370.88166
924.575	309.67074
924.752	366.65975
924.929	377.21465
925.105	383.5478
925.282	415.21575
925.459	364.54882
925.635	334.99761
925.812	358.21613
925.989	290.67728
926.165	345.55122
926.342	316.00221
926.518	256.91485
926.695	356.10527
926.871	341.32972
927.048	267.46509
927.224	398.32572
927.401	290.67728
927.577	221.0476
927.754	183.07674
927.93	235.81579
928.107	265.355
928.283	269.5752
928.459	254.80485
928.636	263.24494
928.812	212.60907
928.988	271.68532
929.165	297.00827
929.341	240.03545
929.517	240.03545
929.693	267.46509
929.87	212.60907
930.046	313.8917
930.222	204.17086
930.398	316.00221
930.574	225.26699
930.751	229.48645
930.927	233.70599
931.103	263.24494
931.279	204.17086
931.455	250.58493
931.631	246.36508
931.807	191.51415
931.983	172.53045
932.159	195.73297
932.335	187.2954
932.511	221.0476
932.687	145.11251
932.863	136.67694
933.039	161.98467
933.215	96.6127
933.391	259.02486
933.566	189.40476
933.742	153.54842
933.918	199.95188
934.094	170.42125
934.27	183.07674
934.445	170.42125
934.621	223.15728
934.797	77.63768
934.973	178.85816
935.148	128.24171
935.324	197.84241
935.5	79.74592
935.675	98.72115
935.851	69.20492
936.027	155.65745
936.202	64.98867
936.378	86.0708
936.553	90.28749
936.729	67.09678
936.904	86.0708
937.08	147.22146
937.255	60.77252
937.431	121.91552
937.606	128.24171
937.782	113.4809
937.957	18.61609
938.133	52.34049
938.308	27.04663
938.483	18.61609
938.659	100.82962
938.834	43.90883
939.009	71.31307
939.185	-31.95906
939.36	29.15432
939.535	22.83131
939.71	54.44846
939.886	98.72115
940.061	35.47754
940.236	5.97099
940.411	111.37229
940.586	46.01671
940.761	86.0708
940.937	-6.67324
941.112	1.75615
941.287	96.6127
941.462	132.45929
941.637	8.07845
941.812	18.61609
941.987	71.31307
942.162	50.23254
942.337	62.88058
942.512	90.28749
942.687	-36.17303
942.862	39.69314
943.037	86.0708
943.212	60.77252
943.386	14.40096
943.561	5.97099
943.736	10.18593
943.911	60.77252
944.086	67.09678
944.26	31.26204
944.435	64.98867
944.61	-6.67324
944.785	64.98867
944.959	-31.95906
945.134	-12.99502
945.309	-36.17303
945.483	43.90883
945.658	64.98867
945.833	-38.27997
946.007	10.18593
946.182	46.01671
946.357	29.15432
946.531	-46.70749
946.706	71.31307
946.88	27.04663
947.055	128.24171
947.229	77.63768
947.404	10.18593
947.578	-8.78052
947.752	35.47754
947.927	-29.85205
948.101	54.44846
948.276	37.58533
948.45	94.50427
948.624	48.12461
948.799	29.15432
948.973	102.93811
949.147	33.36978
949.321	-6.67324
949.496	50.23254
949.67	-21.42373
949.844	35.47754
950.018	83.96248
950.193	-19.31659
950.367	62.88058
950.541	50.23254
950.715	-10.88778
950.889	35.47754
951.063	90.28749
951.237	107.15516
951.411	24.93896
951.585	52.34049
951.759	10.18593
951.933	43.90883
952.107	77.63768
952.281	98.72115
952.455	-15.10224
952.629	48.12461
952.803	22.83131
952.977	79.74592
953.151	119.80683
953.325	10.18593
953.499	35.47754
953.672	113.4809
953.846	20.72369
954.02	54.44846
954.194	35.47754
954.368	77.63768
954.541	10.18593
954.715	115.58952
954.889	24.93896
955.062	18.61609
955.236	43.90883
955.41	46.01671
955.583	39.69314
955.757	60.77252
955.93	64.98867
956.104	-21.42373
956.278	39.69314
956.451	43.90883
956.625	3.86356
956.798	-4.56592
956.972	60.77252
957.145	77.63768
957.319	102.93811
957.492	46.01671
957.665	62.88058
957.839	43.90883
958.012	16.50851
958.185	102.93811
958.359	31.26204
958.532	50.23254
958.705	60.77252
958.879	41.80097
959.052	67.09678
959.225	75.52945
959.398	48.12461
959.572	102.93811
959.745	60.77252
959.918	77.63768
960.091	62.88058
960.264	75.52945
960.438	60.77252
960.611	48.12461
960.784	10.18593
960.957	20.72369
961.13	69.20492
961.303	60.77252
961.476	10.18593
961.649	1.75615
961.822	130.35049
961.995	77.63768
962.168	12.29343
962.341	46.01671
962.514	14.40096
962.686	62.88058
962.859	18.61609
963.032	35.47754
963.205	8.07845
963.378	69.20492
963.551	88.17913
963.723	-0.35123
963.896	-2.45859
964.069	64.98867
964.242	136.67694
964.414	56.55646
964.587	31.26204
964.76	-6.67324
964.932	12.29343
965.105	-21.42373
965.278	5.97099
965.45	39.69314
965.623	-27.74501
965.795	14.40096
965.968	5.97099
966.14	58.66448
966.313	18.61609
966.485	69.20492
966.658	14.40096
966.83	41.80097
967.003	18.61609
967.175	35.47754
967.348	77.63768
967.52	71.31307
967.692	126.13296
967.865	43.90883
968.037	12.29343
968.209	77.63768
968.382	73.42125
968.554	52.34049
968.726	31.26204
968.898	46.01671
969.071	-12.99502
969.243	69.20492
969.415	39.69314
969.587	-23.53085
969.759	71.31307
969.932	18.61609
970.104	48.12461
970.276	-34.06606
970.448	1.75615
970.62	-12.99502
970.792	71.31307
970.964	-4.56592
971.136	33.36978
971.308	-65.66794
971.48	8.07845
971.652	77.63768
971.824	-15.10224
971.996	-6.67324
972.168	-27.74501
972.339	1.75615
972.511	43.90883
972.683	8.07845
972.855	43.90883
973.027	64.98867
973.199	69.20492
973.37	41.80097
973.542	-31.95906
973.714	-0.35123
973.886	98.72115
974.057	56.55646
974.229	-8.78052
974.401	67.09678
974.572	-36.17303
974.744	-15.10224
974.915	35.47754
975.087	-15.10224
975.259	3.86356
975.43	-6.67324
975.602	-46.70749
975.773	77.63768
975.945	20.72369
976.116	10.18593
976.288	-25.63794
976.459	43.90883
976.63	46.01671
976.802	77.63768
976.973	145.11251
977.145	117.69816
977.316	-4.56592
977.487	3.86356
977.659	73.42125
977.83	62.88058
978.001	31.26204
978.172	-31.95906
978.344	29.15432
978.515	-53.02787
978.686	-0.35123
978.857	-36.17303
979.028	-12.99502
979.2	79.74592
979.371	-2.45859
979.542	-27.74501
979.713	62.88058
979.884	-4.56592
980.055	52.34049
980.226	-0.35123
980.397	27.04663
980.568	-4.56592
980.739	-8.78052
980.91	77.63768
981.081	27.04663
981.252	-19.31659
981.423	-19.31659
981.594	-53.02787
981.765	43.90883
981.936	-15.10224
982.106	69.20492
982.277	52.34049
982.448	-21.42373
982.619	3.86356
982.79	77.63768
982.96	-6.67324
983.131	-10.88778
983.302	22.83131
983.472	-21.42373
983.643	-29.85205
983.814	92.39587
983.984	-2.45859
984.155	54.44846
984.326	20.72369
984.496	-71.98763
984.667	81.85419
984.837	5.97099
985.008	35.47754
985.178	-40.38689
985.349	33.36978
985.519	27.04663
985.69	-25.63794
985.86	35.47754
986.031	73.42125
986.201	-21.42373
986.371	-0.35123
986.542	48.12461
986.712	54.44846
986.882	1.75615
987.053	39.69314
987.223	29.15432
987.393	-4.56592
987.563	-57.24133
987.734	33.36978
987.904	60.77252
988.074	10.18593
988.244	-2.45859
988.414	18.61609
988.585	43.90883
988.755	-40.38689
988.925	-63.56133
989.095	-8.78052
989.265	29.15432
989.435	1.75615
989.605	52.34049
989.775	8.07845
989.945	-17.20943
990.115	-6.67324
990.285	27.04663
990.455	79.74592
990.625	18.61609
990.795	5.97099
990.965	20.72369
991.134	5.97099
991.304	39.69314
991.474	27.04663
991.644	-107.79484
991.814	54.44846
991.984	-4.56592
992.153	29.15432
992.323	56.55646
992.493	12.29343
992.662	22.83131
992.832	10.18593
993.002	-29.85205
993.171	18.61609
993.341	24.93896
993.511	35.47754
993.68	-12.99502
993.85	71.31307
994.019	-48.81431
994.189	3.86356
994.358	1.75615
994.528	-10.88778
994.697	52.34049
994.867	52.34049
995.036	-15.10224
995.206	35.47754
995.375	46.01671
995.544	-4.56592
995.714	-38.27997
995.883	27.04663
996.052	29.15432
996.222	-38.27997
996.391	5.97099
996.56	27.04663
996.73	18.61609
996.899	-40.38689
997.068	-65.66794
997.237	24.93896
997.406	-65.66794
997.576	10.18593
997.745	1.75615
997.914	37.58533
998.083	-46.70749
998.252	69.20492
998.421	22.83131
998.59	12.29343
998.759	27.04663
998.928	77.63768
999.097	-63.56133
999.266	-2.45859
999.435	52.34049
999.604	39.69314
999.773	1.75615
999.942	-29.85205
1000.111	35.47754
1000.28	-34.06606
1000.448	14.40096
1000.617	18.61609
1000.786	-12.99502
1000.955	37.58533
1001.124	1.75615
1001.292	-31.95906
1001.461	-19.31659
1001.63	10.18593
1001.798	-23.53085
1001.967	-57.24133
1002.136	90.28749
1002.304	86.0708
1002.473	-71.98763
1002.642	1.75615
1002.81	-31.95906
1002.979	52.34049
1003.147	1.75615
1003.316	39.69314
1003.484	-29.85205
1003.653	22.83131
1003.821	-57.24133
1003.99	-15.10224
1004.158	10.18593
1004.327	-59.34802
1004.495	33.36978
1004.663	43.90883
1004.832	-55.13461
1005	-25.63794
1005.168	22.83131
1005.337	-10.88778
1005.505	3.86356
1005.673	-36.17303
1005.842	10.18593
1006.01	-55.13461
1006.178	46.01671
1006.346	52.34049
1006.514	94.50427
1006.683	29.15432
1006.851	69.20492
1007.019	20.72369
1007.187	16.50851
1007.355	-27.74501
1007.523	3.86356
1007.691	79.74592
1007.859	1.75615
1008.027	27.04663
1008.195	-21.42373
1008.363	16.50851
1008.531	100.82962
1008.699	29.15432
1008.867	24.93896
1009.035	-12.99502
1009.203	-23.53085
1009.37	35.47754
1009.538	22.83131
1009.706	-27.74501
1009.874	37.58533
1010.042	-29.85205
1010.209	-48.81431
1010.377	-57.24133
1010.545	29.15432
1010.713	-63.56133
1010.88	-63.56133
1011.048	77.63768
1011.216	-6.67324
1011.383	18.61609
1011.551	-46.70749
1011.718	10.18593
1011.886	-46.70749
1012.054	62.88058
1012.221	20.72369
1012.389	-2.45859
1012.556	5.97099
1012.724	-19.31659
1012.891	-0.35123
1013.058	-61.45468
1013.226	10.18593
1013.393	-27.74501
1013.561	-23.53085
1013.728	-21.42373
1013.895	-19.31659
1014.063	31.26204
1014.23	-40.38689
1014.397	35.47754
1014.565	18.61609
1014.732	-57.24133
1014.899	-74.09415
1015.066	33.36978
1015.233	1.75615
1015.401	5.97099
1015.568	-15.10224
1015.735	48.12461
1015.902	8.07845
1016.069	20.72369
1016.236	-15.10224
1016.403	46.01671
1016.57	-90.94533
1016.737	18.61609
1016.904	-12.99502
1017.071	-2.45859
1017.238	-76.20064
1017.405	-0.35123
1017.572	-27.74501
1017.739	43.90883
1017.906	-38.27997
1018.073	-27.74501
1018.24	73.42125
1018.407	-15.10224
1018.573	-29.85205
1018.74	81.85419
1018.907	-12.99502
1019.074	8.07845
1019.241	5.97099
1019.407	27.04663
1019.574	-15.10224
1019.741	-10.88778
1019.907	10.18593
1020.074	27.04663
1020.241	1.75615
1020.407	54.44846
1020.574	37.58533
1020.74	-19.31659
1020.907	62.88058
1021.073	8.07845
1021.24	10.18593
1021.406	39.69314
1021.573	16.50851
1021.739	31.26204
1021.906	-63.56133
1022.072	3.86356
1022.239	117.69816
1022.405	10.18593
1022.571	-12.99502
1022.738	10.18593
1022.904	113.4809
1023.07	60.77252
1023.237	46.01671
1023.403	-78.3071
1023.569	-23.53085
1023.735	-23.53085
1023.902	10.18593
1024.068	43.90883
1024.234	-82.51994
1024.4	-65.66794
1024.566	1.75615
1024.732	-31.95906
1024.898	100.82962
1025.065	-48.81431
1025.231	37.58533
1025.397	-19.31659
1025.563	12.29343
1025.729	3.86356
1025.895	-23.53085
1026.061	-4.56592
1026.227	-15.10224
1026.392	35.47754
1026.558	-71.98763
1026.724	56.55646
1026.89	39.69314
1027.056	-15.10224
1027.222	-46.70749
1027.388	-46.70749
1027.553	14.40096
1027.719	29.15432
1027.885	14.40096
1028.051	-40.38689
1028.216	-46.70749
1028.382	18.61609
1028.548	69.20492
1028.713	10.18593
1028.879	14.40096
1029.045	12.29343
1029.21	-6.67324
1029.376	-23.53085
1029.541	-8.78052
1029.707	-34.06606
1029.873	-31.95906
1030.038	31.26204
1030.204	-4.56592
1030.369	20.72369
1030.534	-23.53085
1030.7	10.18593
1030.865	-46.70749
1031.031	67.09678
1031.196	-61.45468
1031.361	-61.45468
1031.527	1.75615
1031.692	-10.88778
1031.857	-31.95906
1032.023	-31.95906
1032.188	-6.67324
1032.353	22.83131
1032.518	1.75615
1032.684	77.63768
1032.849	-21.42373
1033.014	37.58533
1033.179	-71.98763
1033.344	-42.49378
1033.509	20.72369
1033.674	35.47754
1033.839	29.15432
1034.004	37.58533
1034.17	-4.56592
1034.335	20.72369
1034.5	-34.06606
1034.664	62.88058
1034.829	-21.42373
1034.994	-4.56592
1035.159	-19.31659
1035.324	3.86356
1035.489	22.83131
1035.654	5.97099
1035.819	31.26204
1035.984	31.26204
1036.148	18.61609
1036.313	-19.31659
1036.478	18.61609
1036.643	1.75615
1036.807	39.69314
1036.972	-23.53085
1037.137	-44.60065
1037.301	-0.35123
1037.466	-15.10224
1037.631	1.75615
1037.795	-48.81431
1037.96	22.83131
1038.124	56.55646
1038.289	-15.10224
1038.454	-15.10224
1038.618	-15.10224
1038.783	-15.10224
1038.947	39.69314
1039.111	-27.74501
1039.276	1.75615
1039.44	24.93896
1039.605	31.26204
1039.769	-23.53085
1039.933	37.58533
1040.098	48.12461
1040.262	18.61609
1040.426	-4.56592
1040.591	20.72369
1040.755	1.75615
1040.919	12.29343
1041.083	-2.45859
1041.248	-4.56592
1041.412	20.72369
1041.576	-44.60065
1041.74	20.72369
1041.904	31.26204
1042.068	33.36978
1042.232	41.80097
1042.397	12.29343
1042.561	-38.27997
1042.725	-55.13461
1042.889	-23.53085
1043.053	-86.73269
1043.217	27.04663
1043.381	8.07845
1043.544	-29.85205
1043.708	22.83131
1043.872	-17.20943
1044.036	-46.70749
1044.2	-48.81431
1044.364	10.18593
1044.528	-48.81431
1044.691	-29.85205
1044.855	27.04663
1045.019	18.61609
1045.183	35.47754
1045.346	-15.10224
1045.51	-48.81431
1045.674	29.15432
1045.837	-6.67324
1046.001	-15.10224
1046.165	-2.45859
1046.328	-48.81431
1046.492	-6.67324
1046.655	-12.99502
1046.819	3.86356
1046.983	5.97099
1047.146	14.40096
1047.31	-46.70749
1047.473	-65.66794
1047.636	10.18593
1047.8	-38.27997
1047.963	88.17913
1048.127	94.50427
1048.29	-44.60065
