Data from mixed_try1_USB4F045381__28__00176.txt Node

Date: Thu Apr 03 20:12:51 EDT 2025
User: mmckonesweet
Spectrometer: USB4F04538
Trigger mode: 4
Integration Time (sec): 2.700000E-3
Scans to average: 1
Electric dark correction enabled: true
Nonlinearity correction enabled: true
Boxcar width: 0
XAxis mode: Wavelengths
Number of Pixels in Spectrum: 3648
>>>>>Begin Spectral Data<<<<<
345.52	31.78897
345.736	31.78897
345.952	31.78897
346.168	4.39042
346.384	33.89672
346.6	21.25059
346.816	86.59788
347.032	4.39042
347.248	-12.46822
347.464	17.0354
347.68	33.89672
347.896	0.17561
348.112	-105.16222
348.328	59.19149
348.544	-29.32529
348.76	-79.88693
348.975	4.39042
349.191	-60.92802
349.407	4.39042
349.623	-12.46822
349.839	63.4076
350.055	12.82031
350.27	44.4358
350.486	-23.00407
350.702	-67.24789
350.918	-4.03909
351.133	-27.21824
351.349	-46.18078
351.565	-20.89695
351.781	33.89672
351.996	27.57355
352.212	33.89672
352.428	21.25059
352.644	42.32793
352.859	-63.03467
353.075	-18.7898
353.291	-35.64629
353.506	-10.36097
353.722	6.49786
353.938	14.92785
354.153	-8.2537
354.369	21.25059
354.584	23.35822
354.8	71.84011
355.016	46.54368
355.231	-12.46822
355.447	19.14299
355.662	54.97546
355.878	21.25059
356.093	-20.89695
356.309	-12.46822
356.524	-25.11117
356.74	0.17561
356.955	88.70622
357.171	42.32793
357.386	-20.89695
357.602	-50.3944
357.817	2.283
358.033	50.75953
358.248	71.84011
358.464	38.11228
358.679	29.68125
358.895	-20.89695
359.11	-8.2537
359.325	38.11228
359.541	-33.53931
359.756	36.00449
359.972	29.68125
360.187	-27.21824
360.402	122.44269
360.618	-20.89695
360.833	-8.2537
361.048	-33.53931
361.264	-33.53931
361.479	2.283
361.694	-39.86016
361.909	90.81458
362.125	46.54368
362.34	-10.36097
362.555	12.82031
362.77	10.7128
362.986	4.39042
363.201	-46.18078
363.416	-8.2537
363.631	25.46587
363.847	38.11228
364.062	-4.03909
364.277	-41.96706
364.492	14.92785
364.707	25.46587
364.922	25.46587
365.138	12.82031
365.353	-29.32529
365.568	42.32793
365.783	21.25059
365.998	-35.64629
366.213	-8.2537
366.428	17.0354
366.643	29.68125
366.858	33.89672
367.073	-12.46822
367.288	17.0354
367.503	12.82031
367.718	-1.93175
367.933	82.38126
368.148	-10.36097
368.363	8.60532
368.578	21.25059
368.793	-54.60793
369.008	-52.50118
369.223	-33.53931
369.438	8.60532
369.653	-10.36097
369.868	23.35822
370.083	38.11228
370.298	31.78897
370.513	8.60532
370.728	67.62381
370.943	-23.00407
371.157	-37.75323
371.372	-4.03909
371.587	-29.32529
371.802	0.17561
372.017	25.46587
372.232	50.75953
372.446	40.22009
372.661	29.68125
372.876	-25.11117
373.091	48.65159
373.306	59.19149
373.52	-63.03467
373.735	-23.00407
373.95	-65.14129
374.165	-29.32529
374.379	-79.88693
374.594	-88.31244
374.809	21.25059
375.023	21.25059
375.238	27.57355
375.453	12.82031
375.667	25.46587
375.882	12.82031
376.097	31.78897
376.311	-25.11117
376.526	-16.68263
376.741	36.00449
376.955	12.82031
377.17	63.4076
377.384	40.22009
377.599	-12.46822
377.813	23.35822
378.028	23.35822
378.242	36.00449
378.457	25.46587
378.672	-16.68263
378.886	-4.03909
379.101	63.4076
379.315	-25.11117
379.53	-20.89695
379.744	-14.57544
379.958	31.78897
380.173	4.39042
380.387	52.86748
380.602	-39.86016
380.816	63.4076
381.031	6.49786
381.245	-33.53931
381.459	2.283
381.674	122.44269
381.888	6.49786
382.103	2.283
382.317	-23.00407
382.531	-16.68263
382.746	-41.96706
382.96	29.68125
383.174	57.08346
383.388	14.92785
383.603	4.39042
383.817	6.49786
384.031	-35.64629
384.246	-37.75323
384.46	21.25059
384.674	21.25059
384.888	0.17561
385.103	80.27299
385.317	-25.11117
385.531	-10.36097
385.745	14.92785
385.959	-27.21824
386.174	-12.46822
386.388	73.9483
386.602	-35.64629
386.816	31.78897
387.03	-84.09974
387.244	-29.32529
387.458	-79.88693
387.672	21.25059
387.887	-10.36097
388.101	-16.68263
388.315	-84.09974
388.529	29.68125
388.743	33.89672
388.957	6.49786
389.171	19.14299
389.385	40.22009
389.599	2.283
389.813	42.32793
390.027	-58.82135
390.241	105.57375
390.455	-25.11117
390.669	31.78897
390.883	-44.07393
391.097	-14.57544
391.311	-29.32529
391.525	-1.93175
391.738	-35.64629
391.952	4.39042
392.166	-33.53931
392.38	46.54368
392.594	0.17561
392.808	25.46587
393.022	-20.89695
393.236	-35.64629
393.449	-50.3944
393.663	-10.36097
393.877	-12.46822
394.091	29.68125
394.305	-35.64629
394.518	8.60532
394.732	40.22009
394.946	29.68125
395.16	4.39042
395.373	114.00805
395.587	-46.18078
395.801	71.84011
396.015	40.22009
396.228	12.82031
396.442	21.25059
396.656	63.4076
396.869	-50.3944
397.083	21.25059
397.297	-14.57544
397.51	12.82031
397.724	57.08346
397.938	31.78897
398.151	46.54368
398.365	73.9483
398.578	-29.32529
398.792	-25.11117
399.005	17.0354
399.219	31.78897
399.433	38.11228
399.646	48.65159
399.86	50.75953
400.073	31.78897
400.287	-4.03909
400.5	-20.89695
400.714	-8.2537
400.927	54.97546
401.141	63.4076
401.354	-44.07393
401.567	10.7128
401.781	40.22009
401.994	2.283
402.208	-27.21824
402.421	48.65159
402.635	-16.68263
402.848	71.84011
403.061	0.17561
403.275	14.92785
403.488	21.25059
403.701	-56.71465
403.915	21.25059
404.128	-12.46822
404.341	12.82031
404.555	-8.2537
404.768	42.32793
404.981	14.92785
405.195	-46.18078
405.408	12.82031
405.621	-6.14641
405.834	-16.68263
406.048	4.39042
406.261	21.25059
406.474	65.5157
406.687	42.32793
406.9	84.48956
407.114	-33.53931
407.327	-27.21824
407.54	6.49786
407.753	-10.36097
407.966	42.32793
408.179	29.68125
408.392	6.49786
408.605	50.75953
408.819	90.81458
409.032	4.39042
409.245	-50.3944
409.458	-41.96706
409.671	31.78897
409.884	42.32793
410.097	4.39042
410.31	-29.32529
410.523	52.86748
410.736	23.35822
410.949	57.08346
411.162	-46.18078
411.375	-16.68263
411.588	-37.75323
411.801	-25.11117
412.014	97.13981
412.227	-4.03909
412.44	63.4076
412.653	-16.68263
412.865	-10.36097
413.078	-8.2537
413.291	-4.03909
413.504	-33.53931
413.717	-29.32529
413.93	14.92785
414.143	59.19149
414.356	0.17561
414.568	-1.93175
414.781	12.82031
414.994	-71.461
415.207	54.97546
415.42	25.46587
415.632	38.11228
415.845	33.89672
416.058	44.4358
416.271	-44.07393
416.483	40.22009
416.696	-8.2537
416.909	-18.7898
417.121	29.68125
417.334	-1.93175
417.547	46.54368
417.759	73.9483
417.972	-4.03909
418.185	42.32793
418.397	33.89672
418.61	14.92785
418.823	23.35822
419.035	-4.03909
419.248	2.283
419.46	17.0354
419.673	90.81458
419.885	6.49786
420.098	-79.88693
420.311	-18.7898
420.523	63.4076
420.736	42.32793
420.948	-8.2537
421.161	54.97546
421.373	-52.50118
421.586	0.17561
421.798	-65.14129
422.01	-4.03909
422.223	27.57355
422.435	4.39042
422.648	38.11228
422.86	29.68125
423.073	54.97546
423.285	36.00449
423.497	54.97546
423.71	33.89672
423.922	-10.36097
424.134	107.68229
424.347	6.49786
424.559	17.0354
424.771	-29.32529
424.984	50.75953
425.196	63.4076
425.408	-35.64629
425.621	14.92785
425.833	-50.3944
426.045	6.49786
426.257	25.46587
426.47	84.48956
426.682	0.17561
426.894	-92.52504
427.106	14.92785
427.318	42.32793
427.531	31.78897
427.743	4.39042
427.955	44.4358
428.167	-27.21824
428.379	21.25059
428.591	19.14299
428.804	-6.14641
429.016	-27.21824
429.228	-10.36097
429.44	4.39042
429.652	-12.46822
429.864	-50.3944
430.076	0.17561
430.288	12.82031
430.5	31.78897
430.712	-1.93175
430.924	33.89672
431.136	12.82031
431.348	31.78897
431.56	-18.7898
431.772	4.39042
431.984	8.60532
432.196	2.283
432.408	54.97546
432.62	8.60532
432.832	54.97546
433.044	21.25059
433.256	29.68125
433.468	71.84011
433.679	6.49786
433.891	23.35822
434.103	29.68125
434.315	-12.46822
434.527	76.05651
434.739	-8.2537
434.95	50.75953
435.162	73.9483
435.374	14.92785
435.586	6.49786
435.798	46.54368
436.009	21.25059
436.221	-63.03467
436.433	33.89672
436.645	42.32793
436.856	46.54368
437.068	21.25059
437.28	-20.89695
437.491	4.39042
437.703	4.39042
437.915	38.11228
438.126	-27.21824
438.338	-20.89695
438.55	0.17561
438.761	19.14299
438.973	12.82031
439.184	48.65159
439.396	31.78897
439.608	54.97546
439.819	12.82031
440.031	31.78897
440.242	-16.68263
440.454	19.14299
440.665	76.05651
440.877	4.39042
441.088	29.68125
441.3	2.283
441.511	71.84011
441.723	-12.46822
441.934	12.82031
442.146	92.92297
442.357	8.60532
442.569	84.48956
442.78	-90.41875
442.991	48.65159
443.203	23.35822
443.414	8.60532
443.626	12.82031
443.837	38.11228
444.048	23.35822
444.26	46.54368
444.471	-1.93175
444.682	38.11228
444.894	61.29953
445.105	-37.75323
445.316	50.75953
445.528	76.05651
445.739	21.25059
445.95	33.89672
446.161	76.05651
446.373	82.38126
446.584	21.25059
446.795	63.4076
447.006	6.49786
447.217	-6.14641
447.429	-8.2537
447.64	65.5157
447.851	122.44269
448.062	46.54368
448.273	-35.64629
448.484	-46.18078
448.695	54.97546
448.907	54.97546
449.118	31.78897
449.329	57.08346
449.54	71.84011
449.751	-18.7898
449.962	29.68125
450.173	31.78897
450.384	46.54368
450.595	-18.7898
450.806	-4.03909
451.017	-1.93175
451.228	82.38126
451.439	8.60532
451.65	10.7128
451.861	92.92297
452.072	-37.75323
452.283	14.92785
452.494	-1.93175
452.705	29.68125
452.915	4.39042
453.126	29.68125
453.337	-12.46822
453.548	44.4358
453.759	25.46587
453.97	54.97546
454.181	69.73195
454.391	48.65159
454.602	6.49786
454.813	29.68125
455.024	-37.75323
455.235	50.75953
455.445	42.32793
455.656	19.14299
455.867	33.89672
456.078	40.22009
456.288	73.9483
456.499	50.75953
456.71	90.81458
456.921	52.86748
457.131	42.32793
457.342	6.49786
457.553	42.32793
457.763	-35.64629
457.974	80.27299
458.184	50.75953
458.395	12.82031
458.606	46.54368
458.816	71.84011
459.027	-69.35446
459.237	23.35822
459.448	-27.21824
459.659	73.9483
459.869	84.48956
460.08	46.54368
460.29	128.76891
460.501	6.49786
460.711	63.4076
460.922	29.68125
461.132	54.97546
461.343	42.32793
461.553	105.57375
461.764	44.4358
461.974	80.27299
462.184	-20.89695
462.395	21.25059
462.605	65.5157
462.816	6.49786
463.026	130.87769
463.236	46.54368
463.447	-8.2537
463.657	40.22009
463.867	21.25059
464.078	38.11228
464.288	29.68125
464.498	-10.36097
464.709	59.19149
464.919	8.60532
465.129	36.00449
465.339	63.4076
465.55	76.05651
465.76	80.27299
465.97	4.39042
466.18	21.25059
466.391	97.13981
466.601	76.05651
466.811	48.65159
467.021	61.29953
467.231	2.283
467.441	84.48956
467.651	120.334
467.862	122.44269
468.072	111.89944
468.282	92.92297
468.492	88.70622
468.702	71.84011
468.912	107.68229
469.122	105.57375
469.332	97.13981
469.542	126.66015
469.752	90.81458
469.962	105.57375
470.172	17.0354
470.382	151.96666
470.592	80.27299
470.802	143.53082
471.012	143.53082
471.222	166.73021
471.432	217.35571
471.642	101.35674
471.852	61.29953
472.062	114.00805
472.272	158.29377
472.482	126.66015
472.691	164.62107
472.901	137.20416
473.111	97.13981
473.321	122.44269
473.531	164.62107
473.741	200.47924
473.95	179.38548
474.16	164.62107
474.37	143.53082
474.58	211.02688
474.79	232.12365
474.999	267.99262
475.209	308.08789
475.419	234.23344
475.628	253.22237
475.838	261.6624
476.048	200.47924
476.258	251.11241
476.467	327.08269
476.677	259.55236
476.886	358.74385
477.096	367.18749
477.306	367.18749
477.515	386.18665
477.725	352.41131
477.935	314.41933
478.144	476.97856
478.354	367.18749
478.563	405.18717
478.773	381.9645
478.982	388.29776
479.192	460.08485
479.401	460.08485
479.611	464.30819
479.82	525.55324
480.03	428.41181
480.239	470.64331
480.449	443.19213
480.658	629.0628
480.868	434.74613
481.077	460.08485
481.287	521.32906
481.496	637.51393
481.705	654.41676
481.915	664.98142
482.124	582.5852
482.333	724.14881
482.543	582.5852
482.752	626.95005
482.961	717.80903
483.171	768.52992
483.38	764.30296
483.589	876.33038
483.799	859.41896
484.008	853.07732
484.217	764.30296
484.426	937.63857
484.636	861.53286
484.845	927.06773
485.054	933.41021
485.263	1017.98265
485.472	912.26887
485.682	1106.79417
485.891	946.09537
486.1	1053.929
486.309	975.69508
486.518	1102.56484
486.727	1111.02352
486.936	1195.61413
487.146	1235.79675
487.355	1146.97372
487.564	1161.7771
487.773	1347.89006
487.982	1246.3713
488.191	1324.62495
488.4	1305.59001
488.609	1519.2086
488.818	1307.70499
489.027	1487.48294
489.236	1432.4916
489.445	1525.55371
489.654	1347.89006
489.863	1686.2918
490.072	1485.36789
490.281	1597.46422
490.49	1527.66875
490.698	1703.21081
490.907	1500.17322
491.116	1698.98108
491.325	1601.69419
491.534	1751.85182
491.743	1741.27784
491.952	1931.59277
492.16	1796.26147
492.369	1944.27897
492.578	1781.45845
492.787	1959.07927
492.996	1912.56308
493.204	1956.96496
493.413	1923.13518
493.622	2140.88505
493.831	1950.62199
494.039	2231.76682
494.248	1988.67897
494.457	2212.74635
494.665	2109.17857
494.874	2320.51933
495.083	2174.70332
495.291	2316.29339
495.5	2261.35279
495.709	2316.29339
495.917	2185.27111
496.126	2295.16314
496.335	2195.83868
496.543	2390.24154
496.752	2178.93046
496.96	2550.77008
497.169	2246.56003
497.377	2447.27867
497.586	2322.63228
497.794	2753.44528
498.003	2491.63544
498.211	2730.22805
498.42	2677.45572
498.628	2692.23279
498.837	2669.0114
499.045	2768.21903
499.254	2730.22805
499.462	3080.41542
499.671	2814.64652
499.879	2934.90436
500.087	2721.78502
500.296	2974.97982
500.504	3029.81112
500.713	2979.19797
500.921	2955.99737
501.129	2839.96779
501.338	2823.08717
501.546	3204.77879
501.754	2858.95742
501.962	3067.76519
502.171	3166.84339
502.379	3234.2804
502.587	3404.90301
502.795	3335.40374
503.004	2939.12308
503.212	3404.90301
503.42	3168.95105
503.628	3501.74855
503.837	3181.59667
504.045	3375.4208
504.253	3339.61636
504.461	3497.53867
504.669	3417.53719
504.877	3527.00631
505.085	3468.06746
505.294	3474.38302
505.502	3463.857
505.71	3649.04791
505.918	3503.85347
506.126	3890.83655
506.334	3501.74855
506.542	3817.27612
506.75	3514.37776
506.958	3768.92323
507.166	3661.6693
507.374	3737.38317
507.582	3661.6693
507.79	3855.11024
507.998	3783.64043
508.206	4081.97786
508.414	3884.53232
508.622	4056.78214
508.83	3745.79428
509.037	4077.77878
509.245	3680.6001
509.453	4050.48274
509.661	3960.17104
509.869	4224.69674
510.077	3911.84932
510.285	4128.16224
510.492	3985.37811
510.7	4025.28329
510.908	3930.75909
511.116	4031.58343
511.324	4203.71478
511.531	4268.75191
511.739	4006.38176
511.947	4272.94715
512.155	4107.1706
512.362	4254.0679
512.57	4216.30421
512.778	4321.18623
512.985	4499.36148
513.193	4426.01431
513.401	4241.48077
513.608	4396.66793
513.816	4390.37886
514.024	4501.45672
514.231	4310.70044
514.439	4700.40287
514.646	4377.80014
514.854	4415.53395
515.061	4488.88497
515.269	4618.75462
515.477	4570.58713
515.684	4694.12345
515.892	4587.34238
516.099	4710.86812
516.307	4618.75462
516.514	4821.765
516.722	4629.22425
516.929	4836.40698
517.136	4589.43669
517.344	4687.84382
517.551	4694.12345
517.759	4861.50493
517.966	5049.63428
518.173	4892.87274
518.381	4878.23507
518.588	5037.09813
518.796	5028.74023
519.003	5062.16959
519.21	4928.4167
519.418	4974.4049
519.625	5045.45565
519.832	5241.75062
520.039	5041.27694
520.247	5252.18607
520.454	5078.88205
520.661	5539.9734
520.868	5116.47966
521.076	5298.09514
521.283	5089.32659
521.49	5398.22103
521.697	5204.17814
521.904	5339.82082
522.112	5325.2179
522.319	5596.22723
522.526	5354.4226
522.733	5471.19539
522.94	5523.3023
523.147	5521.2183
523.354	5567.06072
523.561	5748.23485
523.768	5560.81015
523.975	5748.23485
524.183	5656.62887
524.39	5856.43754
524.597	5739.90892
524.804	5721.1742
525.011	5829.39285
525.218	5721.1742
525.425	5798.18248
525.632	5873.07845
525.838	5879.3184
526.045	5835.63429
526.252	5821.07061
526.459	5956.26033
526.666	5912.59455
526.873	6186.89263
527.08	5993.67986
527.287	6078.88476
527.494	5781.53478
527.701	6280.30977
527.907	6224.26518
528.114	6197.27466
528.321	6114.20202
528.528	6062.26252
528.735	6319.73832
528.941	6290.68652
529.148	5966.65541
529.355	6311.43827
529.562	5945.86466
529.768	6421.38359
529.975	6182.73966
530.182	6551.98828
530.388	6153.66621
530.595	6539.5537
530.802	6269.93243
531.008	6527.11829
531.215	6444.19422
531.422	6616.22033
531.628	6535.40866
531.835	6508.46361
532.042	6539.5537
532.248	6634.8642
532.455	6456.6352
532.661	6792.22703
532.868	6678.35929
533.074	6761.17906
533.281	6587.21506
533.487	6719.77376
533.694	6610.0053
533.9	6947.39005
534.107	6462.85538
534.313	6899.8203
534.52	6870.85893
534.726	7061.09544
534.933	6759.10901
535.139	7207.77864
535.345	7100.3597
535.552	7123.08796
535.758	6901.8888
535.965	7017.68868
536.171	6932.91357
536.377	7461.62857
536.584	7098.29336
536.79	7123.08796
536.996	7073.49555
537.203	7244.94815
537.409	7313.0737
537.615	7275.91728
537.821	7240.81856
538.028	7389.4285
538.234	7416.24877
538.44	7455.44103
538.646	7249.07766
538.853	7467.81591
539.059	7344.03196
539.265	7634.80102
539.471	7370.85846
539.677	7389.4285
539.883	7502.87385
540.09	7593.58318
540.296	7502.87385
540.502	7686.31136
540.708	7521.43141
540.914	7803.7057
541.12	7923.09005
541.326	7795.46972
541.532	7758.40368
541.738	8089.70095
541.944	7842.82204
542.15	7990.98469
542.356	7818.11786
542.562	8017.72496
542.768	7824.29419
542.974	7999.21283
543.18	8038.29206
543.386	8169.87372
543.592	8040.34866
543.798	8161.65227
544.004	8091.75704
544.21	8313.69776
544.415	7937.49381
544.621	8334.23619
544.827	8280.8322
545.033	8326.02105
545.239	8120.54024
545.445	8412.2645
545.651	8235.63385
545.856	8576.44407
546.062	8445.11019
546.268	8547.72142
546.474	8342.45101
546.679	8399.9461
546.885	8252.07072
547.091	8572.34106
547.297	8124.6518
547.502	8451.26821
547.708	8434.84644
547.914	8477.95096
548.119	8572.34106
548.325	8537.46243
548.531	8330.12866
548.736	8756.90273
548.942	8547.72142
549.147	8761.0024
549.353	8722.05255
549.559	8871.6661
549.764	8705.65064
549.97	8779.45002
550.175	8830.68569
550.381	9023.23159
550.586	8508.73475
550.792	8859.37273
550.997	8814.29151
551.203	9129.67967
551.408	8914.6878
551.614	8711.80149
551.819	8740.5033
552.025	9186.97859
552.23	9076.46148
552.435	9041.65865
552.641	9027.32662
552.846	9066.22588
553.052	9231.98984
553.257	9426.26388
553.462	9195.16307
553.668	9391.50996
553.873	9236.08136
554.078	9207.43926
554.283	9305.62705
554.489	9362.88555
554.694	9528.45421
554.899	9346.5273
555.105	9381.28733
555.31	9573.40532
555.515	9303.58187
555.72	9542.75767
555.925	9213.57713
556.131	9444.66111
556.336	9336.30286
556.541	9710.25519
556.746	9446.70516
556.951	9403.77659
557.156	9505.97578
557.361	9671.45409
557.567	9779.67497
557.772	9771.50885
557.977	9687.79207
558.182	9759.25921
558.387	9738.84193
558.592	9771.50885
558.797	9940.90696
559.002	9818.46076
559.207	9704.12907
559.412	9955.1889
559.617	9618.3488
559.822	9926.6243
560.027	9930.70513
560.232	9889.89417
560.437	9818.46076
560.642	10161.17891
560.847	10104.08722
561.051	10012.30959
561.256	9855.20021
561.461	10124.47836
561.666	10038.82609
561.871	9934.78591
562.076	9908.25983
562.281	10275.32987
562.485	9842.95427
562.69	9971.51026
562.895	10069.41904
563.1	10210.106
563.305	9936.82627
563.509	10185.64345
563.714	10042.90533
563.919	10110.20471
564.123	10185.64345
564.328	10401.66204
564.533	10201.95204
564.737	10283.48188
564.942	10299.78525
565.147	10383.32665
565.351	10208.06753
565.556	10415.92217
565.761	10071.45846
565.965	10489.24993
566.17	10077.57663
566.374	10403.69924
566.579	10568.66967
566.784	10607.35442
566.988	10542.19856
567.193	10680.63961
567.397	10525.90759
567.602	10764.08414
567.806	10419.99637
568.011	10580.88639
568.215	10580.88639
568.42	10629.7488
568.624	10770.18905
568.828	10591.06665
569.033	10489.24993
569.237	10794.60761
569.442	10668.42651
569.646	10804.78151
569.85	10686.74599
570.055	10835.30146
570.259	10635.85611
570.463	11109.86578
570.668	10652.1417
570.872	10747.80386
571.076	10983.79488
571.281	10983.79488
571.485	11052.93574
571.689	10975.65982
571.893	10766.11912
572.098	10959.38916
572.302	10851.57769
572.506	11154.59059
572.71	11024.46752
572.914	11274.50927
573.119	11097.6672
573.323	10937.01582
573.527	11095.63406
573.731	11124.09696
573.935	11392.36074
574.139	11241.99252
574.343	11120.03096
574.547	11176.95107
574.751	11244.0249
574.955	11268.41258
575.159	11430.95999
575.364	11420.80264
575.568	11363.91691
575.772	11390.3291
575.976	11258.25123
576.18	11441.11711
576.383	11404.55036
576.587	11424.86561
576.791	11227.76562
576.995	11516.27227
577.199	11241.99252
577.403	11380.17077
577.607	11435.02287
577.811	11652.33135
578.015	11404.55036
578.219	11621.87395
578.422	11327.34342
578.626	11751.8115
578.83	11701.05898
579.034	11759.93139
579.238	11493.93021
579.442	11780.23052
579.645	11571.10704
579.849	11640.14863
580.053	11717.30038
580.257	12050.12943
580.46	11826.91526
580.664	12106.9322
580.868	11656.39218
581.071	11865.47753
581.275	11605.62916
581.479	12042.01425
581.682	11761.96134
581.886	12147.50194
582.09	11715.27024
582.293	12088.67482
582.497	11855.32986
582.7	12023.75464
582.904	12167.78569
583.107	12058.24448
583.311	11973.03015
583.515	12155.61553
583.718	11863.44801
583.922	12135.33134
584.125	12054.18697
584.329	12165.75735
584.532	11810.6776
584.735	12396.9418
584.939	12062.30196
585.142	12169.81402
585.346	12147.50194
585.549	12184.01215
585.753	12175.89898
585.956	12658.43992
586.159	12488.17418
586.363	12546.96139
586.566	12553.04252
586.769	12561.15061
586.973	12419.24429
587.176	12510.47341
587.379	12423.2992
587.582	12814.47963
587.786	12405.05189
587.989	12530.74477
588.192	12593.58195
588.395	12599.66265
588.599	12721.26522
588.802	12575.33952
589.005	12638.17247
589.208	12931.99418
589.411	12838.79448
589.615	12863.10854
589.818	12648.30627
590.021	12877.29138
590.224	12808.40079
590.427	12911.73433
590.63	12717.21214
590.833	12889.44789
591.036	13049.49117
591.239	13245.95852
591.442	12873.23916
591.645	13150.76844
591.848	12907.6823
592.051	13166.97171
592.254	12897.55212
592.457	13098.10574
592.66	13081.9012
592.863	13004.92534
593.066	13006.95112
593.269	13274.31113
593.472	13013.0284
593.675	13397.83786
593.878	13059.61944
594.081	13478.83092
594.284	13118.361
594.486	13440.35998
594.689	13440.35998
594.892	13476.80616
595.095	13430.23582
595.298	13484.90515
595.5	13476.80616
595.703	13659.0194
595.906	13537.54711
596.109	13517.30049
596.311	13260.13493
596.514	13351.264
596.717	13612.45648
596.92	13778.45558
597.122	13428.21098
597.325	13590.18663
597.528	13442.3848
597.73	13780.47983
597.933	13569.94094
598.136	13717.72669
598.338	13573.99011
598.541	13768.33429
598.743	13778.45558
598.946	13997.05819
599.148	14053.72798
599.351	13513.25113
599.554	13936.33839
599.756	13829.06092
599.959	13796.67371
600.161	13768.33429
600.363	13901.92947
600.566	14080.03833
600.768	14029.44116
600.971	14260.15321
601.173	13950.50655
601.376	14051.70409
601.578	14049.6802
601.78	14132.65788
601.983	14031.46507
602.185	14256.10586
602.388	14015.27368
602.59	14154.91955
602.792	13897.88131
602.995	14102.30063
603.197	14203.4896
603.399	14436.20627
603.601	14106.34829
603.804	14136.70547
604.006	14047.65631
604.208	14088.13374
604.41	14078.01447
604.613	14158.9671
604.815	14233.84529
605.017	14407.87672
605.219	13946.45852
605.421	14193.37094
605.623	14231.8216
605.826	14413.94736
606.028	14316.81536
606.23	14446.32389
606.432	14646.64609
606.634	14707.34762
606.836	14203.4896
607.038	14583.92021
607.24	14397.75895
607.442	14581.89678
607.644	14361.33466
607.846	14721.51118
608.048	14278.3662
608.25	14456.44148
608.452	14395.73539
608.654	14494.88799
608.856	14326.93346
609.058	14351.21671
609.26	14326.93346
609.462	14460.4885
609.664	14802.44509
609.866	14537.38094
610.067	14683.06711
610.269	15045.24109
610.471	14304.67359
610.673	14780.18839
610.875	14770.07168
611.077	14848.98156
611.278	14359.31107
611.48	14836.84164
611.682	14723.53455
611.884	14954.19333
612.085	14683.06711
612.287	14776.14171
612.489	14733.65135
612.69	14766.02499
612.892	14755.90825
613.094	14913.72742
613.295	14448.34741
613.497	14810.53841
613.699	14276.34254
613.9	15150.45128
614.102	14626.41205
614.304	14606.1779
614.505	14420.01799
614.707	14879.33125
614.908	14347.16952
615.11	14705.32424
615.311	14634.50568
615.513	14470.60604
615.714	14654.73968
615.916	14721.51118
616.117	14713.41772
616.319	15012.86862
616.52	14913.72742
616.722	14733.65135
616.923	14539.4044
617.124	14755.90825
617.326	14502.98193
617.527	14899.56431
617.729	14871.23801
617.93	14832.795
618.131	14901.58762
618.333	14889.44779
618.534	14759.95495
618.735	15180.80034
618.937	14774.11836
619.138	15251.61486
619.339	15012.86862
619.54	15079.63677
619.742	14879.33125
619.943	15075.59022
620.144	14650.69289
620.345	15158.54436
620.546	14824.70171
620.748	15188.89342
620.949	14786.25841
621.15	14778.16505
621.351	14853.02819
621.552	14905.63422
621.753	15067.49712
621.954	15128.1953
622.155	14761.97829
622.356	15045.24109
622.558	14853.02819
622.759	15120.10222
622.96	14855.05151
623.161	14830.77168
623.362	14654.73968
623.563	15231.38212
623.764	14927.89051
623.965	15397.29123
624.166	15488.33999
624.366	15182.82361
624.567	15120.10222
624.768	15093.79968
624.969	14865.16808
625.17	15360.87198
625.371	15020.96175
625.572	15061.4273
625.773	14954.19333
625.973	15006.79878
626.174	15354.80212
626.375	15358.8487
626.576	15105.93932
626.777	15494.40995
626.977	15180.80034
627.178	15437.75722
627.379	14857.07482
627.58	15255.6614
627.78	15120.10222
627.981	15283.98726
628.182	15130.21857
628.382	15203.05632
628.583	15213.17268
628.784	15411.45431
628.984	15112.00913
629.185	15310.28989
629.386	14986.56594
629.586	15360.87198
629.787	15085.70659
629.987	15251.61486
630.188	15263.7545
630.388	15634.02059
630.589	15314.33645
630.79	15526.78314
630.99	15650.20757
631.191	15488.33999
631.391	15415.5009
631.591	15427.64071
631.792	15508.5732
631.992	15585.45998
632.193	15457.99029
632.393	15731.1433
632.594	15644.13745
632.794	15328.49942
632.994	15397.29123
633.195	15583.43663
633.395	15585.45998
633.595	15719.00284
633.796	15565.22652
633.996	15532.85313
634.196	15360.87198
634.397	15949.67824
634.597	15528.80647
634.797	15994.19639
634.997	15435.73392
635.198	15771.61174
635.398	15457.99029
635.598	15852.54992
635.798	15816.12752
635.998	15611.76359
636.199	15536.89979
636.399	15676.51152
636.599	15409.43101
636.799	15686.62846
636.999	15178.77707
637.199	15803.9868
637.399	15500.47991
637.599	15658.30108
637.799	15589.50668
637.999	15852.54992
638.199	15844.45602
638.399	15820.17443
638.599	15557.13316
638.799	15856.59687
638.999	15895.0432
639.199	15931.46645
639.399	15834.33867
639.599	16044.78602
639.799	15549.0398
639.999	15963.84303
640.199	15702.81562
640.399	15935.51351
640.599	15514.64317
640.799	15994.19639
640.998	15858.62035
641.198	15838.38561
641.398	15534.87646
641.598	16042.76241
641.798	15646.16082
641.997	16384.77443
642.197	15838.38561
642.397	16000.2671
642.597	16073.11661
642.796	16362.51175
642.996	16032.64442
643.196	16402.98953
643.395	16087.28201
643.595	15986.10213
643.795	16111.56574
643.994	16398.94172
644.194	16241.0829
644.394	16243.10666
644.593	16176.32347
644.793	16629.68032
644.992	16121.68403
645.192	16141.92072
645.392	16301.7965
645.591	16241.0829
645.791	16030.62083
645.99	16251.20172
646.19	16344.29699
646.389	16386.79832
646.589	16411.08518
646.788	16356.44014
646.987	16228.94037
647.187	16380.72665
647.386	16077.16386
647.586	16382.75054
647.785	16194.53688
647.984	16239.05914
648.184	16405.01344
648.383	16115.61305
648.582	16154.06281
648.782	16502.16349
648.981	16348.3447
649.18	16490.01948
649.38	16216.79791
649.579	16332.15391
649.778	16388.82222
649.977	16605.39073
650.177	16166.20497
650.376	16508.23553
650.575	16281.55845
650.774	16680.28469
650.973	16322.03473
651.173	16348.3447
651.372	16054.90405
651.571	16554.78844
651.77	16655.99442
651.969	16702.55108
652.168	16451.56392
652.367	16619.55962
652.566	16370.60724
652.765	16633.72862
652.964	16196.5606
653.163	16522.40368
653.362	16386.79832
653.561	16550.74031
653.76	16346.32085
653.959	16338.22544
654.158	16524.42772
654.357	16615.51136
654.556	16273.46328
654.755	16836.15544
654.954	16720.76923
655.153	16643.8494
655.352	16508.23553
655.551	16366.55949
655.749	16589.19785
655.948	16241.0829
656.147	16990.01645
656.346	16953.57433
656.545	16494.06747
656.743	16791.61947
656.942	17135.79375
657.141	16674.21209
657.34	16700.52685
657.538	16791.61947
657.737	16562.88471
657.936	17028.48408
658.135	16589.19785
658.333	16583.12555
658.532	16797.69249
658.731	16807.81423
658.929	16564.90879
659.128	16678.26049
659.326	16915.10856
659.525	16921.18204
659.724	16892.83934
659.922	16712.67225
660.121	16856.39946
660.319	16811.86295
660.518	16429.30052
660.716	16868.546
660.915	16838.17983
661.113	16852.35064
661.312	16568.95694
661.51	16554.78844
661.709	16655.99442
661.907	17010.26245
662.105	16613.48723
662.304	17068.97738
662.502	16692.42996
662.701	17014.31168
662.899	16548.71625
663.097	16807.81423
663.296	16560.86064
663.494	16959.64795
663.692	16799.71683
663.891	16864.49714
664.089	16996.09022
664.287	17237.03656
664.485	16813.88731
664.684	17036.58265
664.882	16842.22862
665.08	17111.49654
665.278	17097.32335
665.476	17166.16584
665.675	17044.68127
665.873	17073.02677
666.071	16799.71683
666.269	16734.93905
666.467	16714.69649
666.665	16998.11482
666.863	16761.25472
667.061	16872.59486
667.259	17127.69463
667.457	16945.47619
667.655	16815.91167
667.853	16824.00915
668.051	16759.23043
668.249	16769.35194
668.447	16985.96728
668.645	16747.08469
668.843	16838.17983
669.041	16969.77072
669.239	16799.71683
669.437	16963.69705
669.635	16917.13305
669.833	16939.40262
670.031	16653.97024
670.229	16696.4784
670.426	16726.842
670.624	16945.47619
670.822	16907.01063
671.02	17095.29862
671.218	17368.66319
671.415	17004.18862
671.613	16915.10856
671.811	16876.64374
672.009	17111.49654
672.206	17054.8046
672.404	16664.09114
672.602	16880.69262
672.799	16779.47351
672.997	16998.11482
673.195	16935.35358
673.392	16801.74118
673.59	16601.3425
673.788	16781.49783
673.985	16773.40056
674.183	16787.57081
674.38	16927.25554
674.578	16967.74616
674.775	16751.13326
674.973	16730.89052
675.17	16662.06696
675.368	16927.25554
675.565	16554.78844
675.763	16643.8494
675.96	16421.20479
676.158	17032.53336
676.355	16694.45418
676.553	17344.36194
676.75	16625.63204
676.947	16834.13105
677.145	16548.71625
677.342	16888.79042
677.539	16700.52685
677.737	16856.39946
677.934	16556.8125
678.131	16710.64801
678.329	16568.95694
678.526	16898.91273
678.723	16738.98759
678.92	17002.16402
679.118	16686.35732
679.315	16787.57081
679.512	16664.09114
679.709	17071.00208
679.906	16757.20613
680.104	17028.48408
680.301	16647.89773
680.498	16573.00511
680.695	16593.24605
680.892	16611.4631
681.089	16631.70447
681.286	16779.47351
681.483	16326.08239
681.68	16728.86626
681.877	16696.4784
682.075	16564.90879
682.272	16409.06127
682.469	16651.94607
682.665	16346.32085
682.862	16417.15694
683.059	16453.58788
683.256	16196.5606
683.453	16249.17795
683.65	16307.86795
683.847	16239.05914
684.044	16293.70126
684.241	16492.04347
684.438	16726.842
684.635	16390.84611
684.831	16826.03353
685.028	16492.04347
685.225	16601.3425
685.422	16190.48945
685.619	16317.98706
685.815	16121.68403
686.012	16370.60724
686.209	16038.71521
686.405	16322.03473
686.602	16303.82031
686.799	16065.02212
686.996	16427.27658
687.192	16532.52386
687.389	16121.68403
687.586	16526.45175
687.782	16194.53688
687.979	16332.15391
688.175	16113.5894
688.372	16117.63671
688.568	16121.68403
688.765	16097.40021
688.962	16283.58225
689.158	15917.30181
689.355	16208.70297
689.551	16216.79791
689.748	16372.63112
689.944	16168.22866
690.14	16186.44202
690.337	16101.44749
690.533	16253.22549
690.73	16192.51316
690.926	16194.53688
691.123	16188.46573
691.319	16036.69161
691.515	16192.51316
691.712	15901.11372
691.908	15858.62035
692.104	16077.16386
692.301	16220.84539
692.497	15994.19639
692.693	16004.31424
692.889	15834.33867
693.086	16109.54209
693.282	15696.74543
693.478	16101.44749
693.674	16065.02212
693.87	16097.40021
694.067	16232.98788
694.263	16267.39193
694.459	16089.30565
694.655	16127.75502
694.851	15670.44136
695.047	16054.90405
695.243	15824.22135
695.439	15882.90221
695.635	15941.5841
695.831	15860.64384
696.027	15688.65186
696.224	15986.10213
696.42	15826.24481
696.615	16119.66037
696.811	15634.02059
697.007	16077.16386
697.203	15897.06671
697.399	15998.24352
697.595	15961.81949
697.791	16190.48945
697.987	15986.10213
698.183	15830.29174
698.379	15882.90221
698.575	16020.50288
698.77	15913.25478
698.966	15785.7758
699.162	15714.95603
699.358	15888.9727
699.554	15587.48333
699.749	15779.70548
699.945	15478.22341
700.141	15716.97944
700.337	15712.93263
700.532	15931.46645
700.728	15797.91645
700.924	15706.86242
701.119	15660.32446
701.315	15747.33063
701.511	15358.8487
701.706	16081.21111
701.902	15338.61584
702.097	15795.89301
702.293	15615.81031
702.489	15631.99722
702.684	15816.12752
702.88	15696.74543
703.075	15514.64317
703.271	15621.8804
703.466	15680.5583
703.662	15581.41328
703.857	15648.18419
704.053	15644.13745
704.248	15739.23695
704.443	15678.53491
704.639	15166.63744
704.834	15480.24673
705.03	15437.75722
705.225	15605.69351
705.42	15636.04396
705.616	15395.26794
705.811	15302.19677
706.006	15261.73123
706.202	15215.19595
706.397	15366.94185
706.592	15227.33558
706.787	15320.40629
706.983	15553.08648
707.178	15797.91645
707.373	15447.87375
707.568	15686.62846
707.763	15551.06314
707.959	15549.0398
708.154	15597.60009
708.349	15601.6468
708.544	15292.08037
708.739	15397.29123
708.934	15439.78053
709.129	15466.08353
709.324	15158.54436
709.519	15480.24673
709.714	15364.91856
709.909	15781.72892
710.104	15075.59022
710.299	15314.33645
710.494	15595.57674
710.689	15405.38442
710.884	15105.93932
711.079	15447.87375
711.274	15073.56695
711.469	15389.19805
711.664	15326.47614
711.859	15441.80383
712.054	15302.19677
712.249	15389.19805
712.443	15020.96175
712.638	15340.63912
712.833	14956.21662
713.028	15441.80383
713.223	15083.68332
713.417	15277.91743
713.612	15464.06022
713.807	15241.49849
714.002	15188.89342
714.196	15447.87375
714.391	15079.63677
714.586	15334.56927
714.78	15358.8487
714.975	15176.7538
715.17	15085.70659
715.364	15213.17268
715.559	15025.0083
715.754	15160.56763
715.948	14859.09814
716.143	14933.9604
716.337	15192.93996
716.532	15055.35747
716.726	15306.24333
716.921	14990.61251
717.115	14988.58923
717.31	15168.66072
717.504	15087.72986
717.699	14966.33307
717.893	14701.2775
718.088	14786.25841
718.282	14622.36523
718.476	14589.9905
718.671	14575.82647
718.865	14602.13106
719.059	14391.68827
719.254	14913.72742
719.448	14869.2147
719.642	14944.07687
719.837	14729.60463
720.031	14962.28649
720.225	14509.05237
720.419	14577.84991
720.614	14278.3662
720.808	14808.51508
721.002	14294.5554
721.196	14844.93492
721.39	14626.41205
721.585	14660.80986
721.779	14298.60268
721.973	14565.70927
722.167	14395.73539
722.361	14454.41796
722.555	14373.47615
722.749	14727.58127
722.943	14322.88622
723.137	14600.10764
723.331	14604.15448
723.525	14500.95845
723.719	14298.60268
723.913	14533.33402
724.107	14092.18144
724.301	14511.07585
724.495	14565.70927
724.689	14517.14628
724.883	14122.53885
725.077	14533.33402
725.271	14420.01799
725.465	14559.63893
725.659	14268.24789
725.853	14502.98193
726.046	14405.85317
726.24	14201.46587
726.434	14084.08604
726.628	14502.98193
726.822	14203.4896
727.015	14393.71183
727.209	14007.17793
727.403	14140.75306
727.596	14298.60268
727.79	14511.07585
727.984	14252.0585
728.177	14733.65135
728.371	14428.11214
728.565	14262.17688
728.758	14104.32446
728.952	14163.01464
729.146	14326.93346
729.339	14622.36523
729.533	14189.32346
729.726	14523.21669
729.92	14424.06507
730.113	14235.86899
730.307	14245.98745
730.5	14057.77575
730.694	14189.32346
730.887	14270.27156
731.081	14274.31888
731.274	14308.72085
731.468	14041.58461
731.661	14201.46587
731.854	14456.44148
732.048	14545.47478
732.241	14339.07511
732.435	14355.2639
732.628	14322.88622
732.821	14466.55903
733.014	14207.53705
733.208	14731.62799
733.401	14132.65788
733.594	14102.30063
733.788	14181.22847
733.981	14328.95707
734.174	14347.16952
734.367	14523.21669
734.56	14152.89577
734.754	14379.54687
734.947	14165.03841
735.14	14122.53885
735.333	14335.0279
735.526	14387.64114
735.719	14225.75049
735.912	14300.62632
736.105	14134.68168
736.298	14053.72798
736.491	14130.63408
736.684	14193.37094
736.877	13910.02576
737.07	14053.72798
737.263	13990.98631
737.456	14173.13346
737.649	14270.27156
737.842	14069.91901
738.035	14183.25222
738.228	14013.24975
738.421	14003.13004
738.614	14241.94007
738.807	14266.22422
739	14003.13004
739.192	13857.39912
739.385	13873.59213
739.578	13792.62526
739.771	13764.28575
739.964	13816.91581
740.156	14160.99087
740.349	13806.7948
740.542	14160.99087
740.735	14130.63408
740.927	13776.43133
741.12	13786.55256
741.313	13758.21292
741.505	13893.83314
741.698	14098.25296
741.891	14120.51504
742.083	14187.29972
742.276	14051.70409
742.468	13944.4345
742.661	13885.73677
742.854	13782.50407
743.046	13541.59639
743.239	13966.69858
743.431	14252.0585
743.624	13881.68857
743.816	14039.56071
744.009	14017.29762
744.201	13610.43197
744.393	13748.09148
744.586	13837.15761
744.778	13798.69794
744.971	13598.28481
745.163	13893.83314
745.355	13695.45873
745.548	13800.72216
745.74	13521.34984
745.932	13622.57901
746.125	13999.08214
746.317	13673.19037
746.509	13711.65365
746.702	13885.73677
746.894	13626.62799
747.086	13650.92163
747.278	13774.40707
747.471	13586.13752
747.663	13499.07823
747.855	13630.67697
748.047	13464.65757
748.239	13509.20175
748.431	13462.6328
748.623	13667.11712
748.815	13677.23919
749.008	13861.44739
749.2	13555.76875
749.392	13515.27581
749.584	13245.95852
749.776	13428.21098
749.968	13569.94094
750.16	13804.77059
750.352	13391.76313
750.544	13160.89552
750.736	13505.15235
750.928	13715.70234
751.12	13426.18613
751.311	13519.32517
751.503	13628.65248
751.695	13612.45648
751.887	13256.08455
752.079	13365.43888
752.271	13191.27607
752.463	13450.48405
752.654	13284.43685
752.846	13395.81295
753.038	13237.85762
753.23	13294.56247
753.421	13428.21098
753.613	13229.75665
753.805	13162.92092
753.997	13000.87379
754.188	13067.72196
754.38	12980.61569
754.572	13140.64124
754.763	13193.3014
754.955	13229.75665
755.146	13081.9012
755.338	12940.09797
755.53	12871.21305
755.721	12970.48645
755.913	13197.35206
756.104	13031.25999
756.296	13029.23428
756.487	13300.63779
756.679	13274.31113
756.87	12840.82068
757.062	12723.29175
757.253	13027.20856
757.445	12942.1239
757.636	12753.68899
757.827	12954.27941
758.019	12844.87306
758.21	12486.14694
758.401	12451.68284
758.593	12749.6361
758.784	12358.41739
758.975	12506.41907
759.167	12749.6361
759.358	12696.94642
759.549	12567.23161
759.74	12567.23161
759.932	12626.01171
760.123	12680.73342
760.314	12626.01171
760.505	12662.49333
760.696	12759.76828
760.888	12857.03009
761.079	12583.44733
761.27	12769.90032
761.461	12544.93434
761.652	12686.81334
761.843	12530.74477
762.034	12510.47341
762.225	12394.91426
762.416	12542.90727
762.607	12321.9183
762.798	12384.77647
762.989	12465.87417
763.18	12476.01064
763.371	12224.57624
763.562	12232.68871
763.753	12127.21745
763.944	12630.06532
764.135	12368.55563
764.326	12413.16188
764.517	12396.9418
764.708	12261.08144
764.899	11881.71337
765.089	12173.87067
765.28	12252.96937
765.471	12175.89898
765.662	11928.38846
765.853	12123.16046
766.043	11763.99129
766.234	12100.84648
766.425	11940.56386
766.615	12242.82913
766.806	12184.01215
766.997	11960.85553
767.187	11735.57129
767.378	12070.41683
767.569	11567.04544
767.759	11867.50704
767.95	11772.11098
768.141	11741.66143
768.331	11684.81701
768.522	11723.39077
768.712	11632.02664
768.903	11788.34993
769.093	11497.99249
769.284	11504.08583
769.474	11447.21126
769.665	11548.76777
769.855	11772.11098
770.046	11696.99854
770.236	11721.36065
770.426	11656.39218
770.617	11481.74315
770.807	11678.72612
770.998	11798.499
771.188	11652.33135
771.378	11365.94868
771.569	11623.90451
771.759	11339.53494
771.949	11349.69427
772.139	11479.71194
772.33	11398.4556
772.52	11489.86789
772.71	11528.45837
772.9	11168.82014
773.09	11162.72183
773.281	11209.47313
773.471	11105.79963
773.661	11284.67022
773.851	11400.48719
774.041	11185.08184
774.231	11162.72183
774.421	10878.02499
774.611	11107.83271
774.802	10953.28747
774.992	11388.29746
775.182	11195.24506
775.372	11024.46752
775.562	10829.19768
775.752	10880.05932
775.942	10631.78458
776.131	10880.05932
776.321	10786.46828
776.511	11034.63499
776.701	10823.0938
776.891	10698.95843
777.081	11038.7019
777.271	10932.9478
777.461	11081.40182
777.651	11217.60323
777.84	11065.13575
778.03	11203.37545
778.22	11065.13575
778.41	11315.15153
778.599	10841.40513
778.789	10884.12794
778.979	10696.92306
779.169	10595.13867
779.358	10456.66188
779.548	10880.05932
779.738	10503.50618
779.927	10688.78143
780.117	10745.76877
780.307	10715.24101
780.496	10821.05915
780.686	10741.69856
780.875	10440.36661
781.065	10654.17734
781.254	10554.41626
781.444	10560.52494
781.633	10389.43857
781.823	10395.55036
782.012	10373.13987
782.202	10656.21298
782.391	10515.72532
782.581	10613.46213
782.77	10468.88278
782.96	10191.75927
783.149	10055.14273
783.338	10216.22133
783.528	10454.62501
783.717	10560.52494
783.906	10299.78525
784.096	10203.99055
784.285	10044.94493
784.474	10095.93037
784.663	10075.53725
784.853	10281.4439
785.042	10057.18224
785.231	10138.75133
785.42	10142.8292
785.61	10244.75791
785.799	10224.37491
785.988	10181.56616
786.177	9826.6255
786.366	9969.47014
786.555	9971.51026
786.744	9849.07731
786.933	10006.19006
787.122	10181.56616
787.312	9938.86662
787.501	10069.41904
787.69	10095.93037
787.879	10169.33398
788.068	9720.46508
788.257	9612.22059
788.445	9591.7922
788.634	9587.70634
788.823	9469.18871
789.012	9883.77201
789.201	9679.6232
789.39	9818.46076
789.579	9751.09248
789.768	9798.04786
789.957	9595.87801
790.145	9747.00903
790.334	9800.08922
790.523	9620.3915
790.712	9595.87801
790.9	9742.92551
791.089	9546.84423
791.278	9516.19348
791.467	9646.94526
791.655	9708.21316
791.844	9508.01935
792.033	9473.27642
792.221	9448.7492
792.41	9651.03022
792.599	9231.98984
792.787	9597.92088
792.976	9683.70767
793.164	9634.69001
793.353	9141.95913
793.541	9642.86024
793.73	9463.05703
793.918	9638.77515
794.107	9369.01963
794.295	9896.01619
794.484	9426.26388
794.672	9548.88748
794.861	9344.48245
795.049	9348.57214
795.238	9211.53119
795.426	9346.5273
795.614	9358.79609
795.803	9293.35569
795.991	9270.85662
796.179	9493.714
796.368	9227.89824
796.556	9172.65511
796.744	8980.2296
796.932	9231.98984
797.121	9000.7077
797.309	9015.04133
797.497	9043.70602
797.685	9031.42157
797.874	8967.94189
798.062	8881.91007
798.25	8701.54997
798.438	8890.10493
798.626	8869.61725
798.814	8984.32536
799.002	8920.83311
799.19	9195.16307
799.378	9031.42157
799.566	9084.64965
799.755	9055.98984
799.943	9051.8953
800.131	8967.94189
800.318	9105.11887
800.506	8959.74973
800.694	9037.56387
800.882	9076.46148
801.07	9023.23159
801.258	9092.83755
801.446	9199.2552
801.634	8830.68569
801.822	8935.17156
802.01	8795.84667
802.197	9010.9461
802.385	8851.17679
802.573	8908.54232
802.761	8916.73625
802.949	8849.12776
803.136	8834.78406
803.324	8761.0024
803.512	8859.37273
803.699	8742.5533
803.887	8746.65323
804.075	8744.60327
804.262	8777.40036
804.45	8847.07872
804.638	8947.46096
804.825	8957.70165
805.013	8873.71493
805.201	8875.76374
805.388	8775.35068
805.576	9082.60264
805.763	8929.02662
805.951	9092.83755
806.138	9123.5397
806.326	9086.69665
806.513	8746.65323
806.701	8951.55729
806.888	8916.73625
807.075	8965.89388
807.263	8801.99511
807.45	8937.21984
807.638	8965.89388
807.825	9219.71485
808.012	8920.83311
808.2	8816.34085
808.387	8756.90273
808.574	9027.32662
808.761	8883.95881
808.949	9268.81115
809.136	8834.78406
809.323	8937.21984
809.51	9027.32662
809.698	8910.59083
809.885	8935.17156
810.072	9023.23159
810.259	8918.78469
810.446	9006.85079
810.633	8951.55729
810.82	8920.83311
811.008	8912.63932
811.195	8939.2681
811.382	8820.43946
811.569	9189.02474
811.756	8717.95218
811.943	8974.08582
812.13	8931.07495
812.317	9019.1365
812.504	8906.4938
812.691	9060.08431
812.878	8771.25126
813.064	9115.35284
813.251	8605.16304
813.438	9105.11887
813.625	8859.37273
813.812	9135.81948
813.999	8752.80298
814.186	9086.69665
814.372	8683.09607
814.559	9121.49301
814.746	8951.55729
814.933	8771.25126
815.12	8972.03786
815.306	8795.84667
815.493	8982.27749
815.68	8795.84667
815.866	8678.995
816.053	8801.99511
816.24	8732.30315
816.426	9049.84801
816.613	8658.48854
816.799	8949.50914
816.986	8779.45002
817.173	8820.43946
817.359	8722.05255
817.546	8644.13292
817.732	8514.891
817.919	8910.59083
818.105	8543.61788
818.292	8838.88235
818.478	8619.52115
818.665	8820.43946
818.851	8732.30315
819.037	9000.7077
819.224	8793.79715
819.41	8883.95881
819.597	8640.03114
819.783	8646.18377
819.969	8672.84326
820.156	8750.75308
820.342	8683.09607
820.528	8650.28544
820.714	8441.00475
820.901	8383.52048
821.087	8360.93323
821.273	8613.36778
821.459	8553.87658
821.646	8516.94304
821.832	8498.47397
822.018	8687.19707
822.204	8508.73475
822.39	8845.02965
822.576	8383.52048
822.762	8603.11181
822.948	8449.21555
823.134	8596.958
823.32	8260.28868
823.507	8344.50467
823.693	8274.66935
823.879	8424.58221
824.065	8173.98432
824.25	8301.37376
824.436	8264.39754
824.622	8210.97618
824.808	8213.0311
824.994	8397.89296
825.18	8136.98601
825.366	8475.89856
825.552	8184.26049
825.738	8260.28868
825.923	8210.97618
826.109	8301.37376
826.295	8260.28868
826.481	8266.45194
826.667	8305.48184
826.852	8215.08599
827.038	8095.86917
827.224	8449.21555
827.409	8118.48443
827.595	8136.98601
827.781	7935.43619
827.966	8102.03721
828.152	7842.82204
828.338	7848.99762
828.523	7719.27105
828.709	8153.4305
828.894	7824.29419
829.08	8085.5887
829.266	7659.52764
829.451	8036.23544
829.637	7591.52207
829.822	7645.10415
830.008	7927.20551
830.193	7760.46308
830.378	7628.61888
830.564	8077.36397
830.749	7686.31136
830.935	7927.20551
831.12	7661.58805
831.305	8015.66814
831.491	7758.40368
831.676	7824.29419
831.861	7593.58318
832.047	7793.41067
832.232	7234.62401
832.417	7461.62857
832.602	7329.58539
832.788	7525.55508
832.973	7706.9118
833.158	7554.41833
833.343	7354.35028
833.528	7587.39977
833.714	7216.03915
833.899	7622.43656
834.084	7426.56329
834.269	7544.11051
834.454	7381.17537
834.639	7494.62548
834.824	7364.66806
835.009	7552.35681
835.194	7558.54131
835.379	7789.29252
835.564	7319.26575
835.749	7568.84839
835.934	7517.30766
836.119	7638.92233
836.304	7344.03196
836.489	7407.99677
836.674	7374.98529
836.859	7424.50043
837.044	7201.58303
837.228	7329.58539
837.413	7238.75373
837.598	7647.16471
837.783	7106.55858
837.968	7465.75349
838.152	6937.04982
838.337	7176.79858
838.522	7145.81352
838.707	7366.73155
838.891	6994.94786
839.076	7056.96189
839.261	6769.45902
839.445	7083.82836
839.63	6932.91357
839.815	7110.69106
839.999	6703.20907
840.184	7253.20707
840.368	6839.82395
840.553	6966.00105
840.737	6885.34017
840.922	7001.15017
841.106	6518.82756
841.291	6862.58343
841.475	6676.28832
841.66	7015.62145
841.844	6804.64478
842.029	6843.96224
842.213	6841.89311
842.397	6765.31909
842.582	6537.48119
842.766	6786.01785
842.951	6527.11829
843.135	6806.71433
843.319	6539.5537
843.504	6674.21733
843.688	6576.85493
843.872	6663.86205
844.056	6578.92701
844.241	6730.12594
844.425	6512.60926
844.609	6819.13112
844.793	6601.71826
844.977	6564.42202
845.161	6556.13295
845.346	6479.44149
845.53	6311.43827
845.714	6516.75481
845.898	6325.96311
846.082	6663.86205
846.266	6520.90027
846.45	6502.24497
846.634	6199.35099
846.818	6404.79226
847.002	6249.17599
847.186	6298.9875
847.37	6097.58298
847.554	6288.61122
847.738	6340.4868
847.922	6427.60495
848.106	6440.04704
848.29	6286.53589
848.473	6330.11285
848.657	6157.81984
848.841	6070.57383
849.025	6053.95084
849.209	6128.74245
849.392	6197.27466
849.576	6112.12472
849.76	6166.12682
849.944	5727.41932
850.127	6020.70034
850.311	5854.35732
850.495	6051.87286
850.678	5895.95723
850.862	6016.5436
851.046	6029.01353
851.229	5887.638
851.413	5579.56122
851.596	5875.15846
851.78	5870.99842
851.964	6041.48261
852.147	5821.07061
852.331	5997.83712
852.514	5779.45371
852.698	5687.86331
852.881	5637.88566
853.065	5727.41932
853.248	5775.2915
853.431	6016.5436
853.615	5712.84704
853.798	5746.1534
853.982	5548.30838
854.165	5714.92887
854.348	5621.22342
854.532	5837.71472
854.715	5431.58431
854.898	5629.55473
855.081	5268.88159
855.265	5725.33763
855.448	5327.3041
855.631	5754.47904
855.814	5533.72191
855.997	5733.66422
856.181	5521.2183
856.364	5602.4766
856.547	5529.55413
856.73	5714.92887
856.913	5371.10894
857.096	5596.22723
857.279	5298.09514
857.462	5464.94157
857.645	5129.01053
857.828	5391.96474
858.011	5304.35459
858.194	5416.98861
858.377	5208.35323
858.56	5504.5455
858.743	5498.29282
858.926	5162.42208
859.109	5055.90204
859.292	5264.70785
859.475	5120.65671
859.658	5331.47644
859.841	5145.71705
860.023	5214.6157
860.206	5122.7452
860.389	5289.74888
860.572	4936.77902
860.755	5220.87795
860.937	5024.56114
861.12	5174.94988
861.303	5126.92211
861.486	5181.21346
861.668	4922.14471
861.851	4836.40698
862.034	4915.87253
862.216	4940.96004
862.399	4853.13931
862.581	5062.16959
862.764	4673.19058
862.947	5020.38196
863.129	4769.46308
863.312	4754.81601
863.494	4694.12345
863.677	4593.62523
863.859	4984.85521
864.042	4848.95637
864.224	4681.564
864.406	4777.83234
864.589	4417.63007
864.771	4894.96374
864.954	4645.9745
865.136	4828.04027
865.318	4461.64344
865.501	4767.37071
865.683	4562.20898
865.865	4696.21661
866.048	4499.36148
866.23	4419.72616
866.412	4511.93257
866.594	4501.45672
866.777	4275.04474
866.959	4694.12345
867.141	4212.10782
867.323	4495.17094
867.505	4277.1423
867.687	4553.83046
867.869	4331.67148
868.052	4719.23991
868.234	4411.34166
868.416	4612.47258
868.598	4241.48077
868.78	4602.00205
868.962	4419.72616
869.144	4719.23991
869.326	4254.0679
869.508	4342.15618
869.69	4216.30421
869.872	4388.28246
870.054	4220.50052
870.236	4308.60322
870.417	4163.84324
870.599	4319.08911
870.781	4130.26129
870.963	4321.18623
871.145	4214.20603
871.327	4241.48077
871.508	4050.48274
871.69	4260.36118
871.872	4277.1423
872.054	4384.0896
872.235	4161.74452
872.417	4245.67657
872.599	4128.16224
872.78	4342.15618
872.962	4245.67657
873.144	4258.26344
873.325	4161.74452
873.507	4258.26344
873.689	3874.02489
873.87	4254.0679
874.052	4086.17686
874.233	4138.65728
874.415	3945.46556
874.596	4304.40871
874.778	3993.77982
874.959	4021.0831
875.141	4025.28329
875.322	4094.5746
875.503	4037.88339
875.685	4358.93059
875.866	4081.97786
876.048	4027.38336
876.229	3901.34318
876.41	4044.18316
876.592	3806.76551
876.773	4266.65426
876.954	3829.88821
877.136	4081.97786
877.317	3897.14059
877.498	3949.66723
877.679	3913.95049
877.86	4260.36118
878.042	3945.46556
878.223	4153.34946
878.404	4121.86497
878.585	4214.20603
878.766	4224.69674
878.947	4298.11678
879.128	4090.37577
879.309	4165.94193
879.49	4094.5746
879.672	4254.0679
879.853	3890.83655
880.034	4086.17686
880.215	4002.1812
880.396	4249.87228
880.576	3895.03926
880.757	4266.65426
880.938	3985.37811
881.119	4220.50052
881.3	3888.73516
881.481	4067.28072
881.662	4142.85515
881.843	4226.79482
882.023	4075.67921
882.204	4272.94715
882.385	4134.45933
882.566	4058.88189
882.747	3939.16291
882.927	4172.23788
883.108	3890.83655
883.289	4321.18623
883.469	4081.97786
883.65	4149.1518
883.831	3958.07032
884.011	4224.69674
884.192	4270.84954
884.373	4426.01431
884.553	4115.56751
884.734	4388.28246
884.914	4191.12459
885.095	4344.25306
885.275	4058.88189
885.456	4333.76846
885.636	4050.48274
885.817	4377.80014
885.997	4073.57962
886.178	4258.26344
886.358	4111.36909
886.538	4375.70361
886.719	4151.25064
886.899	4327.47744
887.08	4123.96408
887.26	4329.57447
887.44	4027.38336
887.621	4266.65426
887.801	4000.08088
887.981	4304.40871
888.161	4140.75623
888.342	4210.00959
888.522	4165.94193
888.702	4134.45933
888.882	4086.17686
889.062	4126.06317
889.242	3890.83655
889.423	4149.1518
889.603	4157.54703
889.783	4174.33649
889.963	4006.38176
890.143	4308.60322
890.323	3964.37242
890.503	4233.08893
890.683	4046.28304
890.863	4130.26129
891.043	4006.38176
891.223	4207.91135
891.403	4151.25064
891.583	4224.69674
891.763	4018.98297
891.943	4300.21411
892.122	4216.30421
892.302	4308.60322
892.482	4126.06317
892.662	4270.84954
892.842	4216.30421
893.022	4165.94193
893.201	3884.53232
893.381	4157.54703
893.561	3913.95049
893.741	4180.63219
893.92	3916.05163
894.1	4119.76584
894.28	4073.57962
894.459	4147.05294
894.639	4090.37577
894.819	3995.88019
894.998	3844.60141
895.178	4084.07737
895.357	3775.23072
895.537	4014.78265
895.716	3623.80309
895.896	3878.22792
896.075	3569.0967
896.255	4069.38037
896.434	3831.99015
896.614	4155.44826
896.793	3762.61557
896.973	3850.90677
897.152	3606.9717
897.331	3806.76551
897.511	3539.6342
897.69	3680.6001
897.87	3714.25102
898.049	3880.32941
898.228	3569.0967
898.407	3955.96958
898.587	3518.58735
898.766	3754.20508
898.945	3609.07569
899.124	3590.13911
899.304	3476.48817
899.483	3653.25512
899.662	3482.80351
899.841	3585.93078
900.02	3331.19106
900.199	3495.4337
900.378	3261.67183
900.557	3514.37776
900.737	3251.137
900.916	3571.20103
901.095	3217.42273
901.274	3501.74855
901.453	3316.44611
901.632	3331.19106
901.811	3029.81112
901.989	3187.91926
902.168	3341.72264
902.347	3295.38044
902.526	3171.05869
902.705	3183.70422
902.884	3101.49789
903.063	3421.74844
903.242	3158.41258
903.42	3358.57228
903.599	2998.17893
903.778	2947.56034
903.957	2770.32952
904.135	3021.37621
904.314	2745.00283
904.493	3000.28785
904.672	2827.30741
904.85	2863.17719
905.029	2848.40777
905.207	2812.53633
905.386	2654.23335
905.565	2609.89553
905.743	2464.17706
905.922	2656.34454
906.1	2379.67828
906.279	2631.00946
906.457	2286.71078
906.636	2671.1225
906.814	2459.95253
906.993	2542.32283
907.171	2341.64842
907.35	2438.82922
907.528	2286.71078
907.707	2464.17706
907.885	2206.40604
908.063	2443.05397
908.242	2322.63228
908.42	2305.72839
908.598	2094.38162
908.777	2280.37141
908.955	2185.27111
909.133	2278.25827
909.311	2233.88016
909.49	2407.14224
909.668	2109.17857
909.846	2326.85816
910.024	2119.74759
910.202	2388.12891
910.38	2193.72518
910.559	2288.82389
910.737	2043.64651
910.915	2400.80455
911.093	2231.76682
911.271	2333.1969
911.449	2100.72322
911.627	2345.87412
911.805	2130.31642
911.983	2350.09978
912.161	2242.33344
912.339	2259.23957
912.517	2210.63292
912.695	2542.32283
912.872	2168.36256
913.05	2388.12891
913.228	2166.24895
913.406	2293.05007
913.584	2227.54011
913.762	2523.31584
913.939	2269.8056
914.117	2466.28931
914.295	2128.20267
914.473	2367.00202
914.65	2271.91878
914.828	2417.70483
915.006	2178.93046
915.184	2443.05397
915.361	2073.2425
915.539	2449.39101
915.716	2176.8169
915.894	2354.3254
916.072	2181.04402
916.249	2347.98695
916.427	2200.06565
916.604	2559.21715
916.782	2119.74759
916.959	2278.25827
917.137	2045.76055
917.314	2117.6338
917.492	1779.34371
917.669	2079.58431
917.847	1861.81511
918.024	1887.18947
918.201	1804.72024
918.379	1969.65073
918.556	1923.13518
918.733	2018.27744
918.911	1887.18947
919.088	1897.7619
919.265	1800.49086
919.442	2166.24895
919.62	1618.61401
919.797	2033.07618
919.974	1847.01306
920.151	2077.47038
920.328	1792.03205
920.506	2100.72322
920.683	1880.84595
920.86	1787.80262
921.037	1838.55465
921.214	1863.92967
921.391	1732.8186
921.568	2041.53246
921.745	1650.33829
921.922	1880.84595
922.099	1772.99949
922.276	1872.38785
922.453	1751.85182
922.63	1838.55465
922.807	1614.38407
922.984	1832.21079
923.161	1525.55371
923.338	1705.32568
923.514	1443.06686
923.691	1565.7392
923.868	1622.84394
924.045	1743.39264
924.222	1531.89881
924.399	1732.8186
924.575	1514.97852
924.752	1534.01385
924.929	1540.35894
925.105	1665.14277
925.282	1436.7217
925.459	1510.74844
925.635	1373.27037
925.812	1601.69419
925.989	1339.42999
926.165	1443.06686
926.342	1388.07562
926.518	1563.62418
926.695	1339.42999
926.871	1432.4916
927.048	1197.72897
927.224	1407.11101
927.401	1159.66232
927.577	1356.35014
927.754	1153.318
927.93	1318.27995
928.107	1098.33553
928.283	1263.29074
928.459	1208.30325
928.636	1299.24506
928.812	1182.92513
928.988	1290.78516
929.165	1111.02352
929.341	1254.831
929.517	1051.81447
929.693	1223.10737
929.87	1195.61413
930.046	1237.91165
930.222	1098.33553
930.398	1220.99249
930.574	943.98116
930.751	1113.1382
930.927	1022.21154
931.103	1144.85897
931.279	846.73576
931.455	1077.18928
931.631	853.07732
931.807	1026.44046
931.983	876.33038
932.159	1028.55493
932.335	855.19119
932.511	874.21642
932.687	705.12977
932.863	800.23344
933.039	760.07603
933.215	952.43805
933.391	905.92662
933.566	781.21107
933.742	755.84914
933.918	901.69849
934.094	660.75553
934.27	698.79028
934.445	686.11162
934.621	713.58257
934.797	616.38649
934.973	629.0628
935.148	508.65683
935.324	574.1354
935.5	512.88085
935.675	474.86679
935.851	411.52097
936.027	514.99288
936.202	453.74996
936.378	426.3004
936.553	381.9645
936.729	620.61188
936.904	371.40941
937.08	472.75504
937.255	324.97208
937.431	394.63116
937.606	333.4146
937.782	339.74668
937.957	219.46535
938.133	265.88252
938.308	183.60407
938.483	257.44235
938.659	310.19835
938.834	282.76378
939.009	267.99262
939.185	208.91732
939.36	192.04149
939.535	196.26033
939.71	185.7134
939.886	149.85767
940.061	217.35571
940.236	232.12365
940.411	200.47924
940.586	202.58873
940.761	181.49477
940.937	194.1509
941.112	179.38548
941.287	130.87769
941.462	160.40285
941.637	40.22009
941.812	166.73021
941.987	177.27622
942.162	63.4076
942.337	164.62107
942.512	130.87769
942.687	63.4076
942.862	42.32793
943.037	135.09531
943.212	99.24826
943.386	109.79086
943.561	143.53082
943.736	132.98649
943.911	107.68229
944.086	59.19149
944.26	177.27622
944.435	114.00805
944.61	149.85767
944.785	128.76891
944.959	116.11668
945.134	63.4076
945.309	54.97546
945.483	147.7487
945.658	105.57375
945.833	124.55141
946.007	99.24826
946.182	114.00805
946.357	109.79086
946.531	168.83937
946.706	166.73021
946.88	84.48956
947.055	105.57375
947.229	149.85767
947.404	65.5157
947.578	219.46535
947.752	97.13981
947.927	116.11668
948.101	88.70622
948.276	166.73021
948.45	97.13981
948.624	135.09531
948.799	78.16474
948.973	160.40285
949.147	92.92297
949.321	126.66015
949.496	143.53082
949.67	2.283
949.844	149.85767
950.018	198.36978
950.193	177.27622
950.367	162.51195
950.541	158.29377
950.715	147.7487
950.889	120.334
951.063	52.86748
951.237	82.38126
951.411	156.18471
951.585	160.40285
951.759	175.16697
951.933	109.79086
952.107	175.16697
952.281	130.87769
952.455	168.83937
952.629	175.16697
952.803	143.53082
952.977	90.81458
953.151	118.22533
953.325	73.9483
953.499	173.05775
953.672	206.80777
953.846	114.00805
954.02	151.96666
954.194	126.66015
954.368	42.32793
954.541	181.49477
954.715	82.38126
954.889	208.91732
955.062	114.00805
955.236	128.76891
955.41	130.87769
955.583	151.96666
955.757	168.83937
955.93	122.44269
956.104	38.11228
956.278	151.96666
956.451	78.16474
956.625	189.93211
956.798	137.20416
956.972	158.29377
957.145	181.49477
957.319	107.68229
957.492	114.00805
957.665	90.81458
957.839	147.7487
958.012	181.49477
958.185	122.44269
958.359	156.18471
958.532	132.98649
958.705	116.11668
958.879	166.73021
959.052	173.05775
959.225	147.7487
959.398	114.00805
959.572	124.55141
959.745	177.27622
959.918	122.44269
960.091	128.76891
960.264	141.42191
960.438	173.05775
960.611	147.7487
960.784	120.334
960.957	88.70622
961.13	151.96666
961.303	63.4076
961.476	132.98649
961.649	139.31302
961.822	118.22533
961.995	126.66015
962.168	177.27622
962.341	143.53082
962.514	101.35674
962.686	109.79086
962.859	145.63975
963.032	99.24826
963.205	88.70622
963.378	135.09531
963.551	111.89944
963.723	177.27622
963.896	158.29377
964.069	181.49477
964.242	54.97546
964.414	67.62381
964.587	99.24826
964.76	73.9483
964.932	143.53082
965.105	101.35674
965.278	139.31302
965.45	82.38126
965.623	101.35674
965.795	149.85767
965.968	109.79086
966.14	54.97546
966.313	92.92297
966.485	162.51195
966.658	206.80777
966.83	114.00805
967.003	128.76891
967.175	48.65159
967.348	118.22533
967.52	105.57375
967.692	135.09531
967.865	63.4076
968.037	149.85767
968.209	143.53082
968.382	73.9483
968.554	164.62107
968.726	90.81458
968.898	160.40285
969.071	109.79086
969.243	99.24826
969.415	44.4358
969.587	67.62381
969.759	48.65159
969.932	27.57355
970.104	164.62107
970.276	97.13981
970.448	65.5157
970.62	46.54368
970.792	88.70622
970.964	124.55141
971.136	130.87769
971.308	50.75953
971.48	36.00449
971.652	173.05775
971.824	99.24826
971.996	156.18471
972.168	84.48956
972.339	57.08346
972.511	118.22533
972.683	130.87769
972.855	54.97546
973.027	33.89672
973.199	88.70622
973.37	50.75953
973.542	67.62381
973.714	124.55141
973.886	124.55141
974.057	114.00805
974.229	29.68125
974.401	166.73021
974.572	109.79086
974.744	109.79086
974.915	46.54368
975.087	42.32793
975.259	63.4076
975.43	42.32793
975.602	88.70622
975.773	114.00805
975.945	151.96666
976.116	33.89672
976.288	38.11228
976.459	80.27299
976.63	109.79086
976.802	114.00805
976.973	61.29953
977.145	109.79086
977.316	114.00805
977.487	88.70622
977.659	46.54368
977.83	97.13981
978.001	48.65159
978.172	88.70622
978.344	97.13981
978.515	105.57375
978.686	101.35674
978.857	27.57355
979.028	103.46523
979.2	114.00805
979.371	73.9483
979.542	92.92297
979.713	80.27299
979.884	69.73195
980.055	135.09531
980.226	128.76891
980.397	65.5157
980.568	73.9483
980.739	65.5157
980.91	84.48956
981.081	42.32793
981.252	67.62381
981.423	46.54368
981.594	114.00805
981.765	78.16474
981.936	124.55141
982.106	109.79086
982.277	8.60532
982.448	99.24826
982.619	118.22533
982.79	118.22533
982.96	10.7128
983.131	14.92785
983.302	-10.36097
983.472	46.54368
983.643	57.08346
983.814	54.97546
983.984	23.35822
984.155	40.22009
984.326	76.05651
984.496	23.35822
984.667	-12.46822
984.837	109.79086
985.008	4.39042
985.178	80.27299
985.349	25.46587
985.519	14.92785
985.69	114.00805
985.86	31.78897
986.031	54.97546
986.201	31.78897
986.371	17.0354
986.542	23.35822
986.712	38.11228
986.882	17.0354
987.053	46.54368
987.223	12.82031
987.393	63.4076
987.563	31.78897
987.734	42.32793
987.904	23.35822
988.074	40.22009
988.244	50.75953
988.414	29.68125
988.585	12.82031
988.755	0.17561
988.925	31.78897
989.095	-8.2537
989.265	36.00449
989.435	23.35822
989.605	33.89672
989.775	-4.03909
989.945	109.79086
990.115	48.65159
990.285	-12.46822
990.455	50.75953
990.625	27.57355
990.795	82.38126
990.965	36.00449
991.134	50.75953
991.304	25.46587
991.474	46.54368
991.644	-16.68263
991.814	10.7128
991.984	-20.89695
992.153	40.22009
992.323	25.46587
992.493	61.29953
992.662	88.70622
992.832	6.49786
993.002	4.39042
993.171	63.4076
993.341	23.35822
993.511	46.54368
993.68	38.11228
993.85	29.68125
994.019	2.283
994.189	-25.11117
994.358	-12.46822
994.528	76.05651
994.697	88.70622
994.867	63.4076
995.036	-20.89695
995.206	-6.14641
995.375	63.4076
995.544	38.11228
995.714	14.92785
995.883	-20.89695
996.052	-31.43231
996.222	-1.93175
996.391	57.08346
996.56	29.68125
996.73	67.62381
996.899	4.39042
997.068	31.78897
997.237	57.08346
997.406	-27.21824
997.576	107.68229
997.745	4.39042
997.914	42.32793
998.083	54.97546
998.252	48.65159
998.421	29.68125
998.59	54.97546
998.759	57.08346
998.928	-4.03909
999.097	40.22009
999.266	-8.2537
999.435	57.08346
999.604	54.97546
999.773	29.68125
999.942	4.39042
1000.111	-25.11117
1000.28	-20.89695
1000.448	-10.36097
1000.617	14.92785
1000.786	-4.03909
1000.955	-4.03909
1001.124	12.82031
1001.292	42.32793
1001.461	-12.46822
1001.63	54.97546
1001.798	27.57355
1001.967	73.9483
1002.136	10.7128
1002.304	61.29953
1002.473	29.68125
1002.642	38.11228
1002.81	88.70622
1002.979	57.08346
1003.147	12.82031
1003.316	46.54368
1003.484	65.5157
1003.653	65.5157
1003.821	38.11228
1003.99	-23.00407
1004.158	-6.14641
1004.327	-50.3944
1004.495	59.19149
1004.663	48.65159
1004.832	84.48956
1005	33.89672
1005.168	17.0354
1005.337	82.38126
1005.505	-25.11117
1005.673	19.14299
1005.842	31.78897
1006.01	-58.82135
1006.178	48.65159
1006.346	40.22009
1006.514	23.35822
1006.683	46.54368
1006.851	63.4076
1007.019	42.32793
1007.187	116.11668
1007.355	42.32793
1007.523	-14.57544
1007.691	52.86748
1007.859	27.57355
1008.027	50.75953
1008.195	25.46587
1008.363	103.46523
1008.531	50.75953
1008.699	46.54368
1008.867	-8.2537
1009.035	76.05651
1009.203	40.22009
1009.37	25.46587
1009.538	-4.03909
1009.706	27.57355
1009.874	29.68125
1010.042	54.97546
1010.209	-27.21824
1010.377	29.68125
1010.545	63.4076
1010.713	-6.14641
1010.88	21.25059
1011.048	12.82031
1011.216	-10.36097
1011.383	88.70622
1011.551	65.5157
1011.718	-63.03467
1011.886	-16.68263
1012.054	65.5157
1012.221	25.46587
1012.389	-12.46822
1012.556	14.92785
1012.724	54.97546
1012.891	57.08346
1013.058	14.92785
1013.226	88.70622
1013.393	12.82031
1013.561	54.97546
1013.728	46.54368
1013.895	4.39042
1014.063	-27.21824
1014.23	12.82031
1014.397	105.57375
1014.565	63.4076
1014.732	46.54368
1014.899	17.0354
1015.066	-54.60793
1015.233	21.25059
1015.401	29.68125
1015.568	29.68125
1015.735	42.32793
1015.902	4.39042
1016.069	31.78897
1016.236	-4.03909
1016.403	29.68125
1016.57	-20.89695
1016.737	-1.93175
1016.904	-20.89695
1017.071	82.38126
1017.238	17.0354
1017.405	21.25059
1017.572	-8.2537
1017.739	48.65159
1017.906	-41.96706
1018.073	76.05651
1018.24	97.13981
1018.407	29.68125
1018.573	31.78897
1018.74	-10.36097
1018.907	-25.11117
1019.074	4.39042
1019.241	14.92785
1019.407	-12.46822
1019.574	-58.82135
1019.741	33.89672
1019.907	-33.53931
1020.074	38.11228
1020.241	12.82031
1020.407	46.54368
1020.574	25.46587
1020.74	0.17561
1020.907	6.49786
1021.073	-29.32529
1021.24	-27.21824
1021.406	10.7128
1021.573	38.11228
1021.739	48.65159
1021.906	48.65159
1022.072	23.35822
1022.239	-25.11117
1022.405	-16.68263
1022.571	69.73195
1022.738	46.54368
1022.904	12.82031
1023.07	40.22009
1023.237	48.65159
1023.403	12.82031
1023.569	29.68125
1023.735	14.92785
1023.902	33.89672
1024.068	57.08346
1024.234	-25.11117
1024.4	-33.53931
1024.566	-18.7898
1024.732	17.0354
1024.898	-46.18078
1025.065	-8.2537
1025.231	-25.11117
1025.397	-6.14641
1025.563	4.39042
1025.729	17.0354
1025.895	-33.53931
1026.061	63.4076
1026.227	31.78897
1026.392	-12.46822
1026.558	40.22009
1026.724	-35.64629
1026.89	36.00449
1027.056	84.48956
1027.222	76.05651
1027.388	48.65159
1027.553	57.08346
1027.719	38.11228
1027.885	38.11228
1028.051	4.39042
1028.216	-33.53931
1028.382	-18.7898
1028.548	31.78897
1028.713	40.22009
1028.879	-33.53931
1029.045	-1.93175
1029.21	23.35822
1029.376	19.14299
1029.541	-4.03909
1029.707	19.14299
1029.873	54.97546
1030.038	19.14299
1030.204	-69.35446
1030.369	0.17561
1030.534	-29.32529
1030.7	-6.14641
1030.865	10.7128
1031.031	135.09531
1031.196	-4.03909
1031.361	23.35822
1031.527	-33.53931
1031.692	33.89672
1031.857	29.68125
1032.023	-12.46822
1032.188	-16.68263
1032.353	27.57355
1032.518	8.60532
1032.684	-10.36097
1032.849	29.68125
1033.014	14.92785
1033.179	-12.46822
1033.344	-27.21824
1033.509	-4.03909
1033.674	-1.93175
1033.839	61.29953
1034.004	0.17561
1034.17	46.54368
1034.335	4.39042
1034.5	-71.461
1034.664	73.9483
1034.829	4.39042
1034.994	-12.46822
1035.159	21.25059
1035.324	21.25059
1035.489	-92.52504
1035.654	63.4076
1035.819	92.92297
1035.984	31.78897
1036.148	17.0354
1036.313	-67.24789
1036.478	17.0354
1036.643	33.89672
1036.807	33.89672
1036.972	-29.32529
1037.137	-12.46822
1037.301	4.39042
1037.466	54.97546
1037.631	54.97546
1037.795	0.17561
1037.96	88.70622
1038.124	-20.89695
1038.289	-4.03909
1038.454	84.48956
1038.618	-37.75323
1038.783	38.11228
1038.947	4.39042
1039.111	12.82031
1039.276	50.75953
1039.44	-33.53931
1039.605	-8.2537
1039.769	14.92785
1039.933	14.92785
1040.098	12.82031
1040.262	-1.93175
1040.426	21.25059
1040.591	38.11228
1040.755	-4.03909
1040.919	54.97546
1041.083	-35.64629
1041.248	-103.05609
1041.412	-35.64629
1041.576	38.11228
1041.74	14.92785
1041.904	-39.86016
1042.068	-46.18078
1042.232	-18.7898
1042.397	63.4076
1042.561	-37.75323
1042.725	27.57355
1042.889	-54.60793
1043.053	44.4358
1043.217	73.9483
1043.381	29.68125
1043.544	17.0354
1043.708	4.39042
1043.872	-37.75323
1044.036	-88.31244
1044.2	6.49786
1044.364	14.92785
1044.528	-20.89695
1044.691	46.54368
1044.855	-1.93175
1045.019	42.32793
1045.183	46.54368
1045.346	19.14299
1045.51	-1.93175
1045.674	21.25059
1045.837	27.57355
1046.001	-37.75323
1046.165	21.25059
1046.328	54.97546
1046.492	17.0354
1046.655	38.11228
1046.819	29.68125
1046.983	-50.3944
1047.146	73.9483
1047.31	29.68125
1047.473	-63.03467
1047.636	38.11228
1047.8	-12.46822
1047.963	31.78897
1048.127	46.54368
1048.29	-10.36097
