Data from mixed_try1_USB4F045381__19__00167.txt Node

Date: Thu Apr 03 20:11:43 EDT 2025
User: mmckonesweet
Spectrometer: USB4F04538
Trigger mode: 4
Integration Time (sec): 2.700000E-3
Scans to average: 1
Electric dark correction enabled: true
Nonlinearity correction enabled: true
Boxcar width: 0
XAxis mode: Wavelengths
Number of Pixels in Spectrum: 3648
>>>>>Begin Spectral Data<<<<<
345.52	27.74919
345.736	27.74919
345.952	27.74919
346.168	-20.72135
346.384	-1.75614
346.6	-16.50703
346.816	-5.9708
347.032	27.74919
347.248	12.99594
347.464	6.67348
347.68	-54.43236
347.896	10.88843
348.112	57.25913
348.328	48.82725
348.544	-77.60495
348.76	-16.50703
348.975	6.67348
349.191	48.82725
349.407	-52.32561
349.623	0.35123
349.839	-60.75247
350.055	31.96461
350.27	-18.61421
350.486	-22.82848
350.702	-60.75247
350.918	8.78094
351.133	-50.21884
351.349	-77.60495
351.565	36.18013
351.781	-5.9708
351.996	-10.18537
352.212	15.10348
352.428	-5.9708
352.644	25.64151
352.859	31.96461
353.075	-10.18537
353.291	15.10348
353.506	-12.29261
353.722	17.21104
353.938	42.50359
354.153	-10.18537
354.369	42.50359
354.584	27.74919
354.8	25.64151
355.016	69.90763
355.231	-12.29261
355.447	-41.79148
355.662	23.53386
355.878	6.67348
356.093	-5.9708
356.309	29.85689
356.524	-41.79148
356.74	27.74919
356.955	40.39575
357.171	36.18013
357.386	15.10348
357.602	29.85689
357.817	-16.50703
358.033	-29.1497
358.248	-58.64579
358.464	-43.89836
358.679	-35.47071
358.895	2.45862
359.11	6.67348
359.325	6.67348
359.541	-60.75247
359.756	2.45862
359.972	-56.53909
360.187	-18.61421
360.402	15.10348
360.618	17.21104
360.833	133.16222
361.048	0.35123
361.264	-100.77442
361.479	23.53386
361.694	0.35123
361.909	-27.04265
362.125	-56.53909
362.34	4.56604
362.555	-50.21884
362.77	15.10348
362.986	-27.04265
363.201	25.64151
363.416	-10.18537
363.631	53.04315
363.847	-14.39983
364.062	-1.75614
364.277	-14.39983
364.492	-8.0781
364.707	6.67348
364.922	95.20708
365.138	61.47521
365.353	15.10348
365.568	2.45862
365.783	2.45862
365.998	-5.9708
366.213	-27.04265
366.428	10.88843
366.643	-20.72135
366.858	25.64151
367.073	-16.50703
367.288	-8.0781
367.503	15.10348
367.718	6.67348
367.933	-18.61421
368.148	-50.21884
368.363	-8.0781
368.578	6.67348
368.793	0.35123
369.008	0.35123
369.223	-50.21884
369.438	-56.53909
369.653	-33.36373
369.868	-16.50703
370.083	74.12398
370.298	53.04315
370.513	42.50359
370.728	34.07236
370.943	2.45862
371.157	-71.28546
371.372	29.85689
371.587	31.96461
371.802	6.67348
372.017	-33.36373
372.232	-1.75614
372.446	-3.86348
372.661	17.21104
372.876	-16.50703
373.091	42.50359
373.306	-56.53909
373.52	15.10348
373.735	25.64151
373.95	15.10348
374.165	55.15113
374.379	10.88843
374.594	31.96461
374.809	12.99594
375.023	29.85689
375.238	-1.75614
375.453	-31.25673
375.667	0.35123
375.882	44.61145
376.097	10.88843
376.311	-41.79148
376.526	31.96461
376.741	27.74919
376.955	-29.1497
377.17	-24.93558
377.384	15.10348
377.599	6.67348
377.813	-58.64579
378.028	29.85689
378.242	17.21104
378.457	48.82725
378.672	-27.04265
378.886	4.56604
379.101	-5.9708
379.315	-24.93558
379.53	6.67348
379.744	38.28793
379.958	-58.64579
380.173	-62.85911
380.387	-10.18537
380.602	8.78094
380.816	-22.82848
381.031	59.36716
381.245	-64.96574
381.459	-1.75614
381.674	4.56604
381.888	-22.82848
382.103	25.64151
382.317	6.67348
382.531	-35.47071
382.746	25.64151
382.96	-18.61421
383.174	-62.85911
383.388	-22.82848
383.603	15.10348
383.817	23.53386
384.031	-31.25673
384.246	116.2924
384.46	8.78094
384.674	10.88843
384.888	25.64151
385.103	-43.89836
385.317	-14.39983
385.531	42.50359
385.745	-54.43236
385.959	6.67348
386.174	0.35123
386.388	-18.61421
386.602	-60.75247
386.816	34.07236
387.03	-33.36373
387.244	-8.0781
387.458	42.50359
387.672	-27.04265
387.887	-20.72135
388.101	-31.25673
388.315	-41.79148
388.529	6.67348
388.743	17.21104
388.957	50.93519
389.171	6.67348
389.385	-31.25673
389.599	63.58328
389.813	19.31862
390.027	50.93519
390.241	6.67348
390.455	76.23219
390.669	-24.93558
390.883	-27.04265
391.097	-52.32561
391.311	6.67348
391.525	69.90763
391.738	-1.75614
391.952	-33.36373
392.166	-27.04265
392.38	42.50359
392.594	-35.47071
392.808	-14.39983
393.022	-18.61421
393.236	97.31551
393.449	-27.04265
393.663	15.10348
393.877	-8.0781
394.091	-46.00521
394.305	-12.29261
394.518	38.28793
394.732	-39.68458
394.946	27.74919
395.16	-43.89836
395.373	6.67348
395.587	-27.04265
395.801	-43.89836
396.015	65.69137
396.228	-8.0781
396.442	-35.47071
396.656	59.36716
396.869	-39.68458
397.083	-22.82848
397.297	-16.50703
397.51	15.10348
397.724	-1.75614
397.938	15.10348
398.151	-29.1497
398.365	-35.47071
398.578	2.45862
398.792	-14.39983
399.005	10.88843
399.219	-98.66823
399.433	-48.11204
399.646	6.67348
399.86	10.88843
400.073	0.35123
400.287	-18.61421
400.5	10.88843
400.714	15.10348
400.927	-67.07234
401.141	-64.96574
401.354	105.74946
401.567	-10.18537
401.781	-27.04265
401.994	-18.61421
402.208	2.45862
402.421	36.18013
402.635	80.44868
402.848	15.10348
403.061	29.85689
403.275	86.77357
403.488	65.69137
403.701	6.67348
403.915	-1.75614
404.128	-54.43236
404.341	40.39575
404.555	6.67348
404.768	17.21104
404.981	-10.18537
405.195	59.36716
405.408	23.53386
405.621	23.53386
405.834	-20.72135
406.048	-69.17891
406.261	-41.79148
406.474	107.85801
406.687	38.28793
406.9	-1.75614
407.114	-16.50703
407.327	118.40105
407.54	-18.61421
407.753	-35.47071
407.966	23.53386
408.179	-18.61421
408.392	15.10348
408.605	61.47521
408.819	6.67348
409.032	34.07236
409.245	38.28793
409.458	69.90763
409.671	50.93519
409.884	48.82725
410.097	12.99594
410.31	19.31862
410.523	-14.39983
410.736	31.96461
410.949	-90.24323
411.162	36.18013
411.375	-18.61421
411.588	0.35123
411.801	29.85689
412.014	-60.75247
412.227	44.61145
412.44	-10.18537
412.653	-43.89836
412.865	-27.04265
413.078	-62.85911
413.291	-27.04265
413.504	-46.00521
413.717	6.67348
413.93	59.36716
414.143	25.64151
414.356	-18.61421
414.568	19.31862
414.781	25.64151
414.994	31.96461
415.207	-31.25673
415.42	40.39575
415.632	-29.1497
415.845	40.39575
416.058	-8.0781
416.271	6.67348
416.483	-16.50703
416.696	-1.75614
416.909	-27.04265
417.121	17.21104
417.334	2.45862
417.547	23.53386
417.759	-5.9708
417.972	-1.75614
418.185	-43.89836
418.397	-22.82848
418.61	6.67348
418.823	6.67348
419.035	10.88843
419.248	-1.75614
419.46	-37.57766
419.673	29.85689
419.885	-41.79148
420.098	8.78094
420.311	-1.75614
420.523	42.50359
420.736	-27.04265
420.948	44.61145
421.161	23.53386
421.373	-1.75614
421.586	-33.36373
421.798	23.53386
422.01	-27.04265
422.223	25.64151
422.435	-8.0781
422.648	10.88843
422.86	80.44868
423.073	-33.36373
423.285	44.61145
423.497	-60.75247
423.71	42.50359
423.922	-1.75614
424.134	46.71934
424.347	23.53386
424.559	-27.04265
424.771	29.85689
424.984	10.88843
425.196	17.21104
425.408	21.42623
425.621	-37.57766
425.833	-16.50703
426.045	6.67348
426.257	69.90763
426.47	-8.0781
426.682	23.53386
426.894	48.82725
427.106	-5.9708
427.318	31.96461
427.531	-67.07234
427.743	34.07236
427.955	25.64151
428.167	42.50359
428.379	-39.68458
428.591	12.99594
428.804	93.09867
429.016	-35.47071
429.228	36.18013
429.44	17.21104
429.652	-14.39983
429.864	86.77357
430.076	-18.61421
430.288	-22.82848
430.5	44.61145
430.712	-50.21884
430.924	36.18013
431.136	10.88843
431.348	15.10348
431.56	8.78094
431.772	31.96461
431.984	-46.00521
432.196	-62.85911
432.408	15.10348
432.62	-18.61421
432.832	6.67348
433.044	-43.89836
433.256	36.18013
433.468	23.53386
433.679	-27.04265
433.891	-10.18537
434.103	-8.0781
434.315	10.88843
434.527	-39.68458
434.739	25.64151
434.95	6.67348
435.162	-18.61421
435.374	74.12398
435.586	-1.75614
435.798	-14.39983
436.009	-10.18537
436.221	23.53386
436.433	-22.82848
436.645	57.25913
436.856	-22.82848
437.068	-8.0781
437.28	8.78094
437.491	74.12398
437.703	19.31862
437.915	23.53386
438.126	-75.49848
438.338	-16.50703
438.55	-41.79148
438.761	-18.61421
438.973	-1.75614
439.184	31.96461
439.396	12.99594
439.608	44.61145
439.819	-43.89836
440.031	6.67348
440.242	0.35123
440.454	15.10348
440.665	15.10348
440.877	-1.75614
441.088	36.18013
441.3	44.61145
441.511	15.10348
441.723	53.04315
441.934	27.74919
442.146	-16.50703
442.357	23.53386
442.569	2.45862
442.78	6.67348
442.991	-16.50703
443.203	2.45862
443.414	31.96461
443.626	29.85689
443.837	-1.75614
444.048	27.74919
444.26	50.93519
444.471	-1.75614
444.682	-18.61421
444.894	23.53386
445.105	-48.11204
445.316	17.21104
445.528	34.07236
445.739	15.10348
445.95	40.39575
446.161	19.31862
446.373	-10.18537
446.584	-8.0781
446.795	57.25913
447.006	19.31862
447.217	76.23219
447.429	15.10348
447.64	-52.32561
447.851	82.55695
448.062	6.67348
448.273	19.31862
448.484	42.50359
448.695	27.74919
448.907	-1.75614
449.118	-33.36373
449.329	31.96461
449.54	12.99594
449.751	40.39575
449.962	48.82725
450.173	-35.47071
450.384	-10.18537
450.595	101.53244
450.806	0.35123
451.017	154.25143
451.228	8.78094
451.439	59.36716
451.65	-18.61421
451.861	-10.18537
452.072	19.31862
452.283	57.25913
452.494	29.85689
452.705	-27.04265
452.915	48.82725
453.126	46.71934
453.337	42.50359
453.548	0.35123
453.759	-1.75614
453.97	42.50359
454.181	4.56604
454.391	76.23219
454.602	40.39575
454.813	-16.50703
455.024	82.55695
455.235	61.47521
455.445	67.79949
455.656	23.53386
455.867	76.23219
456.078	40.39575
456.288	-3.86348
456.499	-1.75614
456.71	65.69137
456.921	48.82725
457.131	15.10348
457.342	-33.36373
457.553	-43.89836
457.763	6.67348
457.974	101.53244
458.184	0.35123
458.395	-10.18537
458.606	-35.47071
458.816	-1.75614
459.027	-20.72135
459.237	99.42397
459.448	-18.61421
459.659	31.96461
459.869	-24.93558
460.08	40.39575
460.29	48.82725
460.501	99.42397
460.711	103.64094
460.922	6.67348
461.132	-29.1497
461.343	65.69137
461.553	82.55695
461.764	59.36716
461.974	-3.86348
462.184	38.28793
462.395	42.50359
462.605	15.10348
462.816	116.2924
463.026	42.50359
463.236	74.12398
463.447	17.21104
463.657	23.53386
463.867	50.93519
464.078	-35.47071
464.288	44.61145
464.498	97.31551
464.709	-20.72135
464.919	74.12398
465.129	90.99028
465.339	109.96657
465.55	76.23219
465.76	78.34042
465.97	57.25913
466.18	23.53386
466.391	141.59765
466.601	15.10348
466.811	69.90763
467.021	82.55695
467.231	23.53386
467.441	74.12398
467.651	48.82725
467.862	112.07516
468.072	105.74946
468.282	57.25913
468.492	99.42397
468.702	118.40105
468.912	72.0158
469.122	95.20708
469.332	95.20708
469.542	76.23219
469.752	23.53386
469.962	141.59765
470.172	152.14241
470.382	40.39575
470.592	103.64094
470.802	118.40105
471.012	95.20708
471.222	107.85801
471.432	76.23219
471.642	76.23219
471.852	6.67348
472.062	21.42623
472.272	133.16222
472.482	133.16222
472.691	139.48876
472.901	101.53244
473.111	150.03342
473.321	82.55695
473.531	120.50972
473.741	124.72714
473.95	185.88917
474.16	114.18377
474.37	143.70656
474.58	107.85801
474.79	166.90597
474.999	175.34274
475.209	118.40105
475.419	179.56125
475.628	154.25143
475.838	133.16222
476.048	194.32669
476.258	150.03342
476.467	150.03342
476.677	293.49103
476.886	204.87403
477.096	211.20268
477.306	215.42188
477.515	225.97022
477.725	211.20268
477.935	225.97022
478.144	247.06838
478.354	192.21728
478.563	274.49885
478.773	304.04289
478.982	215.42188
479.192	306.15332
479.401	295.60137
479.611	280.82941
479.82	352.58721
480.03	301.93248
480.239	377.91833
480.449	318.81625
480.658	325.14796
480.868	320.92681
481.077	352.58721
481.287	316.70572
481.496	405.3631
481.705	472.93102
481.915	468.70756
482.124	407.47436
482.333	456.03755
482.543	405.3631
482.752	447.59118
482.961	532.06565
483.171	572.19902
483.38	513.05685
483.589	582.76124
483.799	517.28093
484.008	489.82546
484.217	498.27303
484.426	631.35163
484.636	576.42387
484.845	775.04658
485.054	538.40216
485.263	734.89144
485.472	766.59256
485.682	741.23147
485.891	692.62699
486.1	787.7279
486.309	690.51389
486.518	779.27365
486.727	772.93306
486.936	758.1387
487.146	756.02526
487.355	903.98872
487.564	762.36561
487.773	975.87127
487.982	853.25348
488.191	1073.1363
488.4	851.13962
488.609	1007.58672
488.818	903.98872
489.027	969.52836
489.236	984.32858
489.445	1168.2977
489.654	1028.73113
489.863	1049.87614
490.072	935.70057
490.281	1335.37622
490.49	1223.28361
490.698	1248.66247
490.907	1240.2028
491.116	1282.50154
491.325	1214.82409
491.534	1415.74745
491.743	1280.38658
491.952	1278.27162
492.16	1324.8012
492.369	1458.04848
492.578	1318.4562
492.787	1494.00433
492.996	1341.72126
493.204	1487.65919
493.413	1538.42016
493.622	1534.1901
493.831	1419.97755
494.039	1705.50191
494.248	1521.49989
494.457	1768.94621
494.665	1671.66375
494.874	1699.15732
495.083	1616.67529
495.291	1790.09357
495.5	1743.56888
495.709	1819.69916
495.917	1692.81269
496.126	1933.88335
496.335	1673.77866
496.543	1971.94119
496.752	1823.92846
496.96	2035.36643
497.169	1849.30387
497.377	1971.94119
497.586	1969.82692
497.794	2136.83376
498.003	1976.16972
498.211	2035.36643
498.42	1997.31199
498.628	2098.78552
498.837	2043.82268
499.045	2189.67429
499.254	2018.45361
499.462	2212.92247
499.671	2217.1493
499.879	2272.09488
500.087	2215.03589
500.296	2466.46533
500.504	2280.5475
500.713	2428.44319
500.921	2394.64283
501.129	2466.46533
501.338	2212.92247
501.546	2555.16962
501.754	2409.43082
501.962	2517.15596
502.171	2542.49882
502.379	2662.85396
502.587	2483.36292
502.795	2673.40951
503.004	2331.26007
503.212	2660.74281
503.42	2561.50486
503.628	2823.26301
503.837	2544.61065
504.045	2692.4087
504.253	2702.96336
504.461	2964.60993
504.669	2770.50539
504.877	2859.13325
505.085	2762.06338
505.294	2947.73612
505.502	2778.94718
505.71	3171.23433
505.918	2787.38876
506.126	3063.72402
506.334	2949.8454
506.542	2827.48325
506.75	3015.22559
506.958	3268.1681
507.166	2852.8035
507.374	3261.84741
507.582	3002.57249
507.79	3301.87587
507.998	3139.61797
508.206	3297.66264
508.414	3228.1345
508.622	3255.52656
508.83	3299.76926
509.037	3289.23597
509.245	3181.7723
509.453	3335.57927
509.661	3371.38428
509.869	3522.97226
510.077	3202.84702
510.285	3598.7309
510.492	3356.64165
510.7	3607.14704
510.908	3301.87587
511.116	3325.04743
511.324	3461.92718
511.531	3512.44834
511.739	3428.24064
511.947	3470.3481
512.155	3520.86752
512.362	3487.18907
512.57	3573.48069
512.778	3680.77537
512.985	3565.06336
513.193	3701.80776
513.401	3792.22502
513.608	3790.1227
513.816	3638.70488
514.024	3886.80887
514.231	3539.80959
514.439	3823.75742
514.646	3790.1227
514.854	3916.22673
515.061	3689.18856
515.269	4002.35622
515.477	3853.18366
515.684	4075.85418
515.892	3937.23706
516.099	3996.05522
516.307	4143.03006
516.514	4197.59465
516.722	4143.03006
516.929	4193.39788
517.136	4080.05329
517.344	4063.25632
517.551	3926.73215
517.759	4187.10257
517.966	4260.53599
518.173	4306.68074
518.381	4185.00409
518.588	4220.67536
518.796	4245.85139
519.003	4436.66879
519.21	4302.4862
519.418	4428.28499
519.625	4382.16784
519.832	4572.85616
520.039	4375.87832
520.247	4438.76468
520.454	4495.34555
520.661	4863.77056
520.868	4612.64708
521.076	4792.65202
521.283	4516.29735
521.49	4658.7107
521.697	4539.34178
521.904	4849.13066
522.112	4430.38097
522.319	4907.68353
522.526	4704.76346
522.733	5008.01802
522.94	4671.27162
523.147	4830.30629
523.354	4794.74411
523.561	4767.54508
523.768	4817.75568
523.975	5120.83075
524.183	4838.6729
524.39	5049.80838
524.597	4872.13571
524.804	5041.45105
525.011	4976.66919
525.218	5173.03596
525.425	5104.12202
525.632	5031.00386
525.838	5008.01802
526.045	5275.31592
526.252	5173.03596
526.459	5319.13301
526.666	5081.14509
526.873	5277.40268
527.08	5225.22661
527.287	5573.48469
527.494	5231.48851
527.701	5494.29793
527.907	5531.81169
528.114	5608.89933
528.321	5606.81631
528.528	5369.19704
528.735	5700.5291
528.941	5594.31766
529.148	5450.52225
529.355	5690.11893
529.562	5667.21447
529.768	5900.29001
529.975	5590.15125
530.182	5823.32459
530.388	5627.6455
530.595	5785.87027
530.802	5481.79165
531.008	5885.73146
531.215	5879.49173
531.422	5919.00644
531.628	5702.61106
531.835	5956.43358
532.042	5762.97775
532.248	6031.26495
532.455	5883.65157
532.661	6176.68307
532.868	6014.6384
533.074	6234.81809
533.281	6002.16749
533.487	6151.76243
533.694	5970.98652
533.9	6201.60033
534.107	6193.29495
534.313	6238.96989
534.52	6241.04575
534.726	6365.55477
534.933	6392.52064
535.139	6494.12587
535.345	6380.07534
535.552	6574.95552
535.758	6330.28576
535.965	6448.5141
536.171	6384.22387
536.377	6523.14569
536.584	6454.73455
536.79	6653.67879
536.996	6639.17964
537.203	6616.39297
537.409	6342.73441
537.615	6655.75001
537.821	6566.66692
538.028	7001.32245
538.234	6661.96352
538.44	6748.93095
538.646	6616.39297
538.853	6777.91111
539.059	6761.35156
539.265	7127.39225
539.471	6782.05076
539.677	6823.44231
539.883	6893.78705
540.09	7094.33282
540.296	6895.85561
540.502	7094.33282
540.708	6957.90204
540.914	7021.99535
541.12	7042.666
541.326	7210.0159
541.532	7185.23253
541.738	7160.44597
541.944	7133.59025
542.15	7191.42867
542.356	7011.65918
542.562	7447.36257
542.768	7207.95074
542.974	7408.16869
543.18	7166.64291
543.386	7496.85945
543.592	7573.14284
543.798	7457.67545
544.004	7486.54862
544.21	7649.39696
544.415	7447.36257
544.621	7616.42578
544.827	7589.63269
545.033	7571.08151
545.239	7612.304
545.445	7752.39697
545.651	7768.87209
545.856	8091.92838
546.062	7970.58435
546.268	7987.04193
546.474	7620.54748
546.679	7756.51588
546.885	7612.304
547.091	7768.87209
547.297	7649.39696
547.502	7830.64188
547.708	7721.5025
547.914	7840.93502
548.119	7871.81134
548.325	7869.75306
548.531	7746.21846
548.736	8124.82312
548.942	7832.70055
549.147	8028.18016
549.353	8036.40683
549.559	8215.25723
549.764	8046.68971
549.97	8258.40542
550.175	7952.06802
550.381	8496.59277
550.586	8192.65232
550.792	8346.72945
550.997	8196.76248
551.203	8262.51432
551.408	8139.21295
551.614	8416.54156
551.819	8332.35358
552.025	8244.02366
552.23	8229.64093
552.435	8476.06959
552.641	8545.84064
552.846	8558.15091
553.052	8443.22854
553.257	8673.01414
553.462	8595.07763
553.668	8342.62215
553.873	8590.97496
554.078	8896.42161
554.283	8664.81157
554.489	8953.77611
554.694	8750.92391
554.899	8869.78798
555.105	8732.47399
555.31	9035.68708
555.515	8687.36794
555.72	9076.63207
555.925	8931.24564
556.131	9076.63207
556.336	8855.44555
556.541	9197.37965
556.746	9002.92606
556.951	9140.08314
557.156	8793.96795
557.361	9320.11332
557.567	8884.12954
557.772	9193.28748
557.977	8949.67982
558.182	9041.82927
558.387	9058.20768
558.592	9213.74763
558.797	9152.36209
559.002	9600.13398
559.207	9244.43469
559.412	9401.90256
559.617	9158.50133
559.822	9520.45075
560.027	9166.68675
560.232	9524.53765
560.437	9258.75402
560.642	9422.34578
560.847	9506.14607
561.051	9377.36854
561.256	9504.10249
561.461	9745.13742
561.666	9794.13522
561.871	9542.92794
562.076	9751.26262
562.281	9802.30068
562.485	9622.60442
562.69	9538.84132
562.895	9459.13949
563.1	9663.45492
563.305	9459.13949
563.509	9757.38769
563.714	9620.56173
563.919	9802.30068
564.123	9706.34129
564.328	9612.39082
564.533	9830.87788
564.737	9730.84475
564.942	9800.25933
565.147	10041.03568
565.351	9783.92806
565.556	10002.28029
565.761	9822.71326
565.965	10002.28029
566.17	9853.32934
566.374	10120.57017
566.579	9902.30812
566.784	9920.67298
566.988	10132.80435
567.193	10255.11875
567.397	9902.30812
567.602	10210.27587
567.806	9837.00118
568.011	10218.42961
568.215	10352.9351
568.42	10426.27733
568.624	10210.27587
568.828	10267.34749
569.033	10234.73644
569.237	10546.44087
569.442	10230.65982
569.646	10240.85128
569.85	10240.85128
570.055	10348.86003
570.259	10487.383
570.463	10519.96797
570.668	10483.30965
570.872	10462.94212
571.076	10350.89757
571.281	10682.8447
571.485	10511.82203
571.689	10585.12821
571.893	10424.24028
572.098	10627.88266
572.302	10524.04086
572.506	10660.45384
572.71	10538.29559
572.914	10849.71275
573.119	10601.41626
573.323	10495.52955
573.527	10589.20029
573.731	10990.06554
573.935	10731.69242
574.139	10662.48943
574.343	10522.00442
574.547	10941.2533
574.751	10918.87886
574.955	11075.47157
575.159	11059.20524
575.364	10872.09147
575.568	10988.03182
575.772	10992.09924
575.976	10831.40184
576.18	10829.36723
576.383	11254.35597
576.587	10996.16661
576.791	10853.78171
576.995	11105.96905
577.199	11083.60447
577.403	11229.96743
577.607	11142.56284
577.811	11207.60996
578.015	11258.42058
578.219	11099.86975
578.422	11000.23394
578.626	11325.48079
578.83	10865.98832
579.034	11236.06471
579.238	11242.16189
579.442	11439.25499
579.645	11252.32365
579.849	11530.6586
580.053	11199.47966
580.257	11303.12862
580.46	11569.24548
580.664	11414.8774
580.868	11418.94043
581.071	11794.60855
581.275	11550.9679
581.479	11952.90806
581.682	11276.71083
581.886	11223.87007
582.09	11443.31778
582.293	11733.7104
582.497	11577.36861
582.7	12007.69243
582.904	11812.87649
583.107	11528.62762
583.311	11595.6451
583.515	11796.63836
583.718	11435.19215
583.922	11782.42954
584.125	11707.31876
584.329	11636.25687
584.532	11926.5283
584.735	12186.20945
584.939	11924.49903
585.142	11859.55808
585.346	11975.22832
585.549	11950.87889
585.753	12263.27844
585.956	12131.44345
586.159	11881.88249
586.363	12305.86474
586.566	11995.51862
586.769	12157.81294
586.973	11971.17016
587.176	12151.72779
587.379	12025.95259
587.582	12234.88582
587.786	12090.8725
587.989	12360.61403
588.192	12532.94079
588.395	12611.99279
588.599	12309.92042
588.802	12427.52304
589.005	12253.13838
589.208	12634.28781
589.411	12551.18441
589.615	12534.96789
589.818	12770.06919
590.021	12735.61967
590.224	12455.90648
590.427	12573.48146
590.63	12482.26138
590.833	12376.83507
591.036	12561.31953
591.239	12958.50002
591.442	12620.10015
591.645	12909.87715
591.848	12666.71562
592.051	12936.21491
592.254	12703.19508
592.457	12737.64616
592.66	12701.16849
592.863	13136.75912
593.066	13035.48021
593.269	13132.70819
593.472	12952.42233
593.675	13124.60628
593.878	12988.88781
594.081	13132.70819
594.284	13321.05734
594.486	13094.22343
594.689	13201.57147
594.892	13161.0643
595.095	12980.78451
595.298	13078.01881
595.5	13082.07
595.703	13746.23587
595.906	13256.25332
596.109	13140.81003
596.311	13053.7113
596.514	13306.88183
596.717	13262.32888
596.92	13418.25544
597.122	13325.10745
597.325	13466.85108
597.528	13308.90692
597.73	13685.5055
597.933	13406.10619
598.136	13564.03588
598.338	13509.37047
598.541	14082.23084
598.743	13855.54366
598.946	13711.82234
599.148	13353.45775
599.351	13559.98668
599.554	13462.80153
599.756	13515.44453
599.959	13906.14629
600.161	13863.6402
600.363	13649.06588
600.566	13910.19443
600.768	13815.06029
600.971	13740.16296
601.173	13879.83314
601.376	14181.39712
601.578	13906.14629
601.78	14080.20698
601.983	13798.86662
602.185	13906.14629
602.388	13796.8424
602.59	14057.94441
602.792	13946.62719
602.995	13974.96319
603.197	13495.19752
603.399	14146.99308
603.601	13794.81817
603.804	13835.30212
604.006	14165.20706
604.208	13896.0259
604.41	13857.5678
604.613	13942.57914
604.815	13857.5678
605.017	14157.11198
605.219	13827.20542
605.421	14100.44545
605.623	14094.37393
605.826	14337.22014
606.028	14191.51584
606.23	14096.39777
606.432	14254.25082
606.634	14440.42195
606.836	14108.54077
607.038	14343.29095
607.24	14229.96654
607.442	14252.22714
607.644	13946.62719
607.846	14375.66836
608.048	14177.34962
608.25	14401.97469
608.452	14312.93675
608.654	14683.23572
608.856	14122.7075
609.058	14460.65713
609.26	14412.09244
609.462	14335.19654
609.664	14493.03313
609.866	14563.85445
610.067	14549.69031
610.269	14798.56703
610.471	14369.59762
610.673	14665.02525
610.875	14543.61994
611.077	14737.86668
611.278	14424.2337
611.48	14525.40878
611.682	14414.11599
611.884	14739.89004
612.085	14644.79131
612.287	15029.22347
612.489	14495.05662
612.69	14569.92477
612.892	14571.94821
613.094	14853.1968
613.295	14598.25283
613.497	14806.66036
613.699	14395.90402
613.9	14598.25283
614.102	14575.99509
614.304	14321.03124
614.505	14491.00964
614.707	14786.42702
614.908	14531.47918
615.11	14796.5437
615.311	14802.6137
615.513	14551.71376
615.714	14756.07686
615.916	14735.84332
616.117	14614.44019
616.319	14703.46949
616.52	14756.07686
616.722	14810.70702
616.923	14812.73035
617.124	14687.28248
617.326	14863.31338
617.527	14980.66469
617.729	14847.12685
617.93	15013.03723
618.131	15081.82865
618.333	15328.66803
618.534	15006.96739
618.735	14921.98923
618.937	15017.08379
619.138	14919.96593
619.339	15057.54935
619.54	15185.01549
619.742	14861.29006
619.943	14992.8044
620.144	14717.63307
620.345	15203.22492
620.546	15116.22428
620.748	15229.52746
620.949	14812.73035
621.15	15077.7821
621.351	14863.31338
621.552	15089.92174
621.753	15093.96829
621.954	15215.36455
622.155	14784.40368
622.356	15302.36537
622.558	15235.59728
622.759	15476.36871
622.96	15182.99222
623.161	15385.32008
623.362	14958.40852
623.563	15296.29554
623.764	15352.94744
623.965	15401.50643
624.166	15506.71849
624.366	15312.48177
624.567	14950.31536
624.768	15041.36314
624.969	14988.75783
625.17	15037.31658
625.371	14948.29207
625.572	14964.47839
625.773	14796.5437
625.973	15225.48091
626.174	15235.59728
626.375	15162.75951
626.576	15466.25214
626.777	15794.03818
626.977	15263.92311
627.178	15539.09174
627.379	15057.54935
627.58	15272.01621
627.78	15433.87922
627.981	15573.48851
628.182	15316.52833
628.382	15288.20242
628.583	15668.5866
628.784	15664.53983
628.984	15322.59818
629.185	15528.97508
629.386	15191.0853
629.586	15468.27545
629.787	15365.08717
629.987	15377.22691
630.188	15170.85259
630.388	15280.10932
630.589	15021.13035
630.79	15437.92583
630.99	15328.66803
631.191	15682.7503
631.391	15500.64852
631.591	15561.34845
631.792	15207.27147
631.992	15729.2885
632.193	15579.55855
632.393	15524.92842
632.594	15423.76271
632.794	15816.29614
632.994	15496.60188
633.195	15530.99841
633.395	15431.85592
633.595	15923.54099
633.796	15563.37179
633.996	15874.97686
634.196	15498.6252
634.397	15771.78036
634.597	15535.04507
634.797	15939.72919
634.997	15648.35281
635.198	15812.24923
635.398	15622.04901
635.598	15961.98811
635.798	16144.11304
635.998	16267.56058
636.199	15879.02385
636.399	15907.35287
636.599	15816.29614
636.799	15925.56451
636.999	15670.60998
637.199	16121.85267
637.399	15622.04901
637.599	15658.46969
637.799	15668.5866
637.999	15816.29614
638.199	15836.53076
638.399	16024.71869
638.599	15929.61156
638.799	16073.28524
638.999	15648.35281
639.199	16210.89534
639.399	15986.27076
639.599	16328.27488
639.799	15541.11507
639.999	15872.95337
640.199	15787.96786
640.399	15761.66321
640.599	15182.99222
640.799	16484.11616
640.998	16528.64445
641.198	16330.29872
641.398	16065.19076
641.598	16241.25155
641.798	16360.65653
641.997	16366.72815
642.197	16233.15652
642.397	16589.36652
642.597	16133.99466
642.796	16656.1631
642.996	16451.73258
643.196	16350.53721
643.395	16277.67951
643.595	16399.11038
643.795	16117.80535
643.994	16314.10806
644.194	16354.58494
644.394	16273.63193
644.593	16401.13428
644.793	16672.35658
644.992	16308.0366
645.192	16196.72925
645.392	16364.70427
645.591	16299.94133
645.791	16441.61282
645.99	16502.33216
646.19	16506.38018
646.389	16413.27776
646.589	16546.86087
646.788	16469.94828
646.987	16326.25105
647.187	17048.89932
647.386	16763.44771
647.586	16565.07746
647.785	16391.01477
647.984	16789.76383
648.184	17142.03685
648.383	16694.62286
648.582	16858.59258
648.782	17174.43391
648.981	16427.44524
649.18	16716.88943
649.38	16484.11616
649.579	17093.44262
649.778	16933.49778
649.977	16919.32625
650.177	16791.78817
650.376	16838.34853
650.575	16666.28401
650.774	16741.18055
650.973	16749.27767
651.173	16846.44612
651.372	16559.00524
651.571	16639.96976
651.77	16577.22195
651.969	16925.39975
652.168	16567.10154
652.367	16716.88943
652.566	16409.22993
652.765	16945.6449
652.964	17140.01206
653.163	17411.36022
653.362	17032.70208
653.561	16945.6449
653.76	17162.28493
653.959	16917.30176
654.158	16850.49493
654.357	17040.80068
654.556	17000.30813
654.755	17087.36845
654.954	16623.77657
655.153	16621.75243
655.352	17111.66527
655.551	17154.18566
655.749	17093.44262
655.948	17150.13605
656.147	17385.03304
656.346	16996.25894
656.545	16992.20976
656.743	16953.74304
656.942	16844.42172
657.141	17200.75706
657.34	17249.35493
657.538	17137.98727
657.737	17125.83859
657.936	17617.94576
658.135	17083.31902
658.333	16921.35075
658.532	17178.48359
658.731	17352.63106
658.929	17184.55814
659.128	16903.13038
659.326	16984.11142
659.525	17253.40483
659.724	17233.15545
659.922	17227.0807
660.121	17061.04736
660.319	17332.38023
660.518	16901.10591
660.716	17087.36845
660.915	17231.13053
661.113	17569.3344
661.312	17054.97333
661.51	17235.18038
661.709	17091.41789
661.907	17186.58299
662.105	16842.39732
662.304	17494.39553
662.502	17395.15881
662.701	17289.85445
662.899	17243.2801
663.097	17299.97952
663.296	17376.93247
663.494	17551.10563
663.692	17383.00789
663.891	17312.12969
664.089	17020.55427
664.287	17235.18038
664.485	17514.64885
664.684	17636.1755
664.882	17383.00789
665.08	17320.22987
665.278	17206.8317
665.476	17277.70447
665.675	17052.94865
665.873	17168.3594
666.071	17336.43037
666.269	16996.25894
666.467	16978.0377
666.665	17549.08022
666.863	17249.35493
667.061	17472.11725
667.259	17261.50466
667.457	17549.08022
667.655	17334.4053
667.853	17466.04142
668.051	16856.56816
668.249	17358.70637
668.447	17166.33457
668.645	17030.67744
668.843	17291.87946
669.041	17555.15644
669.239	17265.5546
669.437	17486.29429
669.635	17308.07962
669.833	17164.30975
670.031	17020.55427
670.229	17293.90447
670.426	17362.7566
670.624	17518.69955
670.822	17453.88984
671.02	17974.48797
671.218	17227.0807
671.415	17289.85445
671.613	17253.40483
671.811	17409.33503
672.009	17330.35516
672.206	17579.46162
672.404	17447.8141
672.602	17504.52215
672.799	17125.83859
672.997	17486.29429
673.195	17194.68244
673.392	17350.60597
673.59	17180.50844
673.788	17079.26961
673.985	17237.2053
674.183	17591.61438
674.38	17127.86336
674.578	17782.02311
674.775	17344.53069
674.973	17168.3594
675.17	17656.43108
675.368	17700.99453
675.565	17239.23023
675.763	17113.69002
675.96	17028.6528
676.158	17370.85708
676.355	17028.6528
676.553	17581.48707
676.75	17318.20482
676.947	17933.96644
677.145	17192.65758
677.342	17287.82945
677.539	17376.93247
677.737	17605.79275
677.934	17407.30985
678.131	17468.06669
678.329	17399.20915
678.526	17642.25214
678.723	17798.22948
678.92	17792.15207
679.118	17611.86924
679.315	17253.40483
679.512	17415.4106
679.709	17585.53798
679.906	17591.61438
680.104	17721.25117
680.301	17470.09197
680.498	17204.80682
680.695	17225.05578
680.892	17528.82636
681.089	17283.77945
681.286	17332.38023
681.483	17036.75137
681.68	17615.92025
681.877	17235.18038
682.075	17399.20915
682.272	16888.95913
682.469	17846.84989
682.665	17079.26961
682.862	17306.05459
683.059	16893.00805
683.256	16961.84121
683.453	16959.81667
683.65	16769.52063
683.847	17154.18566
684.044	16844.42172
684.241	16789.76383
684.438	17212.90637
684.635	17073.1955
684.831	17312.12969
685.028	17192.65758
685.225	17433.63747
685.422	16971.964
685.619	16988.16058
685.815	17229.10561
686.012	17044.84999
686.209	16753.32624
686.405	17061.04736
686.602	16846.44612
686.799	17208.85659
686.996	16990.18517
687.192	16773.56925
687.389	16901.10591
687.586	17054.97333
687.782	17030.67744
687.979	17052.94865
688.175	16676.40498
688.372	17065.09673
688.568	16947.66943
688.765	17158.23529
688.962	17154.18566
689.158	16852.51934
689.355	16773.56925
689.551	16982.08684
689.748	16484.11616
689.944	16759.39912
690.14	16591.39063
690.337	16737.132
690.533	16957.79212
690.73	16957.79212
690.926	16803.93422
691.123	16767.49632
691.319	16534.71657
691.515	16862.64142
691.712	16609.60765
691.908	17028.6528
692.104	16605.55941
692.301	17008.40656
692.497	16781.66652
692.693	16921.35075
692.889	16552.93305
693.086	16599.48706
693.282	16666.28401
693.478	16731.05921
693.674	16676.40498
693.87	16739.15628
694.067	16660.21146
694.263	16731.05921
694.459	16945.6449
694.655	16824.17785
694.851	16755.35053
695.047	17048.89932
695.243	16757.37482
695.439	16761.42341
695.635	16832.27537
695.831	17034.72673
696.027	16840.37293
696.224	16743.20482
696.42	16757.37482
696.615	16508.4042
696.811	16583.29423
697.007	16633.8973
697.203	16267.56058
697.399	16496.26014
697.595	16615.68003
697.791	16573.17378
697.987	16366.72815
698.183	16832.27537
698.379	16518.5243
698.575	16625.80071
698.77	16496.26014
698.966	16388.99088
699.162	16516.50027
699.358	16403.15819
699.554	16316.13189
699.749	16688.55021
699.945	16476.02022
700.141	16735.10774
700.337	16386.96698
700.532	16674.38078
700.728	16749.27767
700.924	16919.32625
701.119	16366.72815
701.315	16609.60765
701.511	16301.96515
701.706	16415.30168
701.902	16388.99088
702.097	16243.27531
702.293	16393.03867
702.489	16623.77657
702.684	16117.80535
702.88	16496.26014
703.075	16279.70331
703.271	16409.22993
703.466	16212.91908
703.662	16421.37345
703.857	16672.35658
704.053	16459.82843
704.248	16334.34641
704.443	16348.51336
704.639	16449.70863
704.834	16380.89531
705.03	16514.47625
705.225	16235.18028
705.42	16186.61066
705.616	16148.1604
705.811	16087.45065
706.006	16370.7759
706.202	16257.44168
706.397	16024.71869
706.592	16429.46918
706.787	16295.89371
706.983	16097.56884
707.178	16510.42821
707.373	16182.56324
707.568	16514.47625
707.763	16563.05339
707.959	16514.47625
708.154	16463.87636
708.349	16366.72815
708.544	16571.1497
708.739	16544.83681
708.934	16123.87633
709.129	16267.56058
709.324	16172.4447
709.519	16437.56493
709.714	16081.37975
709.909	16433.51705
710.104	16089.47428
710.299	16591.39063
710.494	15909.37638
710.689	16350.53721
710.884	16061.14352
711.079	16269.58436
711.274	15889.14133
711.469	16162.32622
711.664	16083.40338
711.859	16198.75297
712.054	16221.01404
712.249	16259.46546
712.443	15909.37638
712.638	16198.75297
712.833	15745.47583
713.028	16004.48287
713.223	16000.43573
713.417	15810.22577
713.612	15893.18833
713.807	16283.7509
714.002	16051.02547
714.196	16223.03778
714.391	16083.40338
714.586	16194.70553
714.78	15842.60117
714.975	16057.0963
715.17	15846.64811
715.364	16476.02022
715.559	16283.7509
715.754	15931.63508
715.948	15620.02565
716.143	15587.65194
716.337	15435.90253
716.532	15891.16482
716.726	15642.28269
716.921	15856.7655
717.115	15371.15704
717.31	15648.35281
717.504	15753.56951
717.699	16065.19076
717.893	15524.92842
718.088	15982.22364
718.282	15751.54609
718.476	15530.99841
718.671	15860.81246
718.865	15959.96457
719.059	15846.64811
719.254	15640.25932
719.448	15573.48851
719.642	15646.32943
719.837	15476.36871
720.031	15731.31192
720.225	15352.94744
720.419	15686.79708
720.614	15429.83262
720.808	16040.90745
721.002	15288.20242
721.196	15547.18508
721.39	15199.17838
721.585	15533.02174
721.779	15646.32943
721.973	15658.46969
722.167	15199.17838
722.361	15632.16584
722.555	15395.43654
722.749	15375.20362
722.943	15518.85844
723.137	15203.22492
723.331	15215.36455
723.525	15409.59962
723.719	15235.59728
723.913	15437.92583
724.107	14982.68798
724.301	15363.06388
724.495	15102.06138
724.689	15172.87586
724.883	15231.55073
725.077	15061.5959
725.271	14828.91696
725.465	15013.03723
725.659	14944.24548
725.853	15261.89983
726.046	14996.85097
726.24	15053.5028
726.434	14448.51604
726.628	15239.64382
726.822	14792.49703
727.015	14940.19889
727.209	14871.40662
727.403	15083.85192
727.596	15126.34064
727.79	15516.83511
727.984	15385.32008
728.177	15895.21183
728.371	15100.0381
728.565	15350.92416
728.758	15112.17774
728.952	15176.9224
729.146	15209.29474
729.339	15348.90087
729.533	14938.1756
729.726	14996.85097
729.92	15071.71228
730.113	15458.1589
730.307	15344.8543
730.5	15435.90253
730.694	15464.22883
730.887	15278.08604
731.081	15235.59728
731.274	15326.64474
731.468	14986.73455
731.661	15174.89913
731.854	15110.15447
732.048	14960.43181
732.241	15061.5959
732.435	14911.87273
732.628	15061.5959
732.821	15219.4111
733.014	15023.15363
733.208	15150.61989
733.401	15340.80773
733.594	15310.45849
733.788	15055.52608
733.981	15530.99841
734.174	15460.18221
734.367	15498.6252
734.56	15522.90509
734.754	15573.48851
734.947	15555.27843
735.14	15787.96786
735.333	15502.67184
735.526	15272.01621
735.719	14895.68631
735.912	15346.87758
736.105	14802.6137
736.298	15185.01549
736.491	15004.9441
736.684	15276.06276
736.877	14972.57154
737.07	14994.82769
737.263	14930.08242
737.456	14928.05912
737.649	14956.38523
737.842	15168.82932
738.035	15002.92082
738.228	15164.78278
738.421	15265.94638
738.614	15203.22492
738.807	14936.1523
739	14905.80283
739.192	14442.44547
739.385	14990.78112
739.578	15443.99575
739.771	14859.26675
739.964	15004.9441
740.156	14988.75783
740.349	14820.82366
740.542	14948.29207
740.735	14727.74989
740.927	14798.56703
741.12	14310.91312
741.313	14624.55726
741.505	15106.10792
741.698	15004.9441
741.891	14919.96593
742.083	14808.68369
742.276	14988.75783
742.468	14891.6397
742.661	14812.73035
742.854	14879.49986
743.046	14543.61994
743.239	14610.39336
743.431	14665.02525
743.624	14584.08883
743.816	14675.14219
744.009	14826.89364
744.201	14875.45324
744.393	14733.81997
744.586	14707.51623
744.778	14513.26795
744.971	14667.04864
745.163	14932.10571
745.355	14780.357
745.548	14630.62748
745.74	14725.72652
745.932	14778.33366
746.125	14863.31338
746.317	14723.70316
746.509	14632.65089
746.702	15102.06138
746.894	14867.36
747.086	14839.03357
747.278	14525.40878
747.471	14632.65089
747.663	14505.17404
747.855	14555.76066
748.047	14632.65089
748.239	14252.22714
748.431	14041.75327
748.623	14337.22014
748.815	14359.47971
749.008	14816.77701
749.2	14818.80034
749.392	14917.94263
749.584	14406.0218
749.776	14325.07848
749.968	14377.69193
750.16	14333.17293
750.352	14191.51584
750.544	14280.55849
750.736	14189.4921
750.928	14620.51043
751.12	14397.92758
751.311	14266.39286
751.503	14371.6212
751.695	14656.93169
751.887	14179.37337
752.079	14393.88046
752.271	14213.77686
752.463	14246.15609
752.654	13800.89084
752.846	14280.55849
753.038	14290.67675
753.23	14418.16308
753.421	14416.13953
753.613	14359.47971
753.805	14349.36175
753.997	14120.68369
754.188	14240.08502
754.38	13958.77125
754.572	13908.17036
754.763	13871.73669
754.955	13894.00182
755.146	14203.65825
755.338	14007.34659
755.53	14041.75327
755.721	13989.13101
755.913	14227.94283
756.104	14015.44234
756.296	14195.56332
756.487	14171.27835
756.679	14236.03763
756.87	13794.81817
757.062	13926.38687
757.253	13711.82234
757.445	14029.60982
757.636	14118.65987
757.827	14017.46628
758.019	13728.01706
758.21	13762.43017
758.401	13744.21157
758.593	13614.6497
758.784	13592.37989
758.975	13349.40775
759.167	13555.93747
759.358	13916.26662
759.549	13545.81437
759.74	13636.91911
759.932	13276.50504
760.123	13195.49551
760.314	13185.36882
760.505	13201.57147
760.696	13300.80655
760.888	13711.82234
761.079	13636.91911
761.27	13653.11478
761.461	13333.20762
761.652	13574.15882
761.843	13402.0564
762.034	13329.15754
762.225	13458.75196
762.416	13497.22224
762.607	13134.73366
762.798	13385.85711
762.989	13375.73242
763.18	13476.97489
763.371	13132.70819
763.562	13106.3767
763.753	13426.35487
763.944	13588.33079
764.135	13385.85711
764.326	13705.74927
764.517	13325.10745
764.708	13284.60561
764.899	13025.35165
765.089	12847.0681
765.28	13126.63176
765.471	13383.83218
765.662	13120.55529
765.853	13327.1325
766.043	12812.62221
766.234	13017.24871
766.425	12682.92895
766.615	12818.70101
766.806	12879.48632
766.997	12741.69912
767.187	12917.98117
767.378	12986.86199
767.569	12524.83235
767.759	12818.70101
767.95	12660.63552
768.141	12743.72559
768.331	12796.41183
768.522	12792.35917
768.712	12814.64848
768.903	12782.22745
769.093	12449.82442
769.284	12316.00388
769.474	12743.72559
769.665	12382.91785
769.855	12579.56235
770.046	12693.06209
770.236	12362.64168
770.426	12541.04913
770.617	12751.83142
770.807	12778.17472
770.998	12828.83224
771.188	12717.38102
771.378	12579.56235
771.569	12603.88533
771.759	12581.5893
771.949	12395.08323
772.139	12267.33441
772.33	11855.49899
772.52	12125.358
772.71	12084.7866
772.9	12401.16582
773.09	12269.36239
773.281	12176.068
773.471	12506.588
773.661	12336.28164
773.851	12161.86967
774.041	12281.53009
774.231	12565.37353
774.421	11928.55756
774.611	12283.55802
774.802	11756.04063
774.992	12096.95834
775.182	11871.73516
775.372	12133.47192
775.562	11934.6453
775.752	12072.61458
775.942	11731.68032
776.131	12001.60556
776.321	12123.3295
776.511	12007.69243
776.701	11751.98066
776.891	11689.04674
777.081	11936.67453
777.271	11977.25739
777.461	11764.16045
777.651	11922.46976
777.84	11802.72772
778.03	11652.50055
778.22	11958.9955
778.41	11885.94137
778.599	11664.68294
778.789	11869.70567
778.979	11940.73296
779.169	11548.93702
779.358	11715.43942
779.548	11788.51909
779.738	11473.78752
779.927	11528.62762
780.117	11414.8774
780.307	11506.28619
780.496	11516.44152
780.686	11814.90621
780.875	11546.90612
781.065	11577.36861
781.254	11366.11799
781.444	11490.03716
781.633	11270.61417
781.823	11563.15304
782.012	11418.94043
782.202	11508.31727
782.391	11248.25898
782.581	11284.83956
782.77	11435.19215
782.96	11684.9862
783.149	11158.82563
783.338	11362.05445
783.528	11455.50594
783.717	11408.78279
783.906	11042.93822
784.096	10957.52476
784.285	10988.03182
784.474	11036.83791
784.663	11238.09711
784.853	10967.69406
785.042	10831.40184
785.231	10778.49833
785.42	10780.53323
785.61	11032.77098
785.799	10636.02575
785.988	10935.15132
786.177	10385.53375
786.366	10910.74235
786.555	10863.95391
786.744	10847.67825
786.933	10831.40184
787.122	10992.09924
787.312	10872.09147
787.501	10929.04923
787.69	10750.00853
787.879	10782.56811
788.068	10693.02188
788.257	10690.98647
788.445	10707.26943
788.634	10786.63785
788.823	10631.95423
789.012	10804.95108
789.201	10550.51343
789.39	10623.81104
789.579	10495.52955
789.768	10664.52501
789.957	10299.95507
790.145	10511.82203
790.334	10609.55999
790.523	10501.63932
790.712	10615.66766
790.9	10709.30474
791.089	10723.55161
791.278	10764.25372
791.467	10359.04761
791.655	10778.49833
791.844	10560.69462
792.033	10287.72763
792.221	10220.46801
792.41	10617.70352
792.599	9967.60002
792.787	10383.49643
792.976	10479.23624
793.164	10063.47066
793.353	9971.68027
793.541	10267.34749
793.73	10142.99911
793.918	10267.34749
794.107	10204.16042
794.295	10442.57331
794.484	10271.42362
794.672	10291.8035
794.861	10026.75798
795.049	10020.63875
795.238	9985.96068
795.426	10193.96773
795.614	10106.29633
795.803	10179.69739
795.991	10096.1003
796.179	10149.1158
796.368	10185.81333
796.556	10053.27316
796.744	9706.34129
796.932	9802.30068
797.121	9728.80288
797.309	10112.41377
797.497	9739.01208
797.685	9826.7956
797.874	9618.51902
798.062	9467.31516
798.25	9397.81372
798.438	9687.96225
798.626	9792.09382
798.814	10096.1003
799.002	9643.03045
799.19	9967.60002
799.378	9736.97027
799.566	9920.67298
799.755	9634.86022
799.943	9936.9963
800.131	9808.42461
800.318	9855.37029
800.506	9667.53963
800.694	9581.74767
800.882	9524.53765
801.07	9659.37015
801.258	9606.26247
801.446	9732.88661
801.634	9669.58196
801.822	9692.04659
802.01	9551.10099
802.197	9843.12435
802.385	9957.39914
802.573	10010.43975
802.761	9685.92006
802.949	9855.37029
803.136	9485.70947
803.324	9710.42536
803.512	9291.48084
803.699	9647.11547
803.887	9706.34129
804.075	9892.10491
804.262	9679.79339
804.45	9718.5933
804.638	9471.40289
804.825	9724.71909
805.013	9602.17683
805.201	9965.55987
805.388	9779.8451
805.576	9606.26247
805.763	9843.12435
805.951	9771.67898
806.138	9761.47099
806.326	9785.96953
806.513	9665.49728
806.701	9718.5933
806.888	9755.34602
807.075	9747.17917
807.263	9532.71127
807.45	9745.13742
807.638	9369.19001
807.825	9792.09382
808.012	9589.91952
808.2	9845.16538
808.387	9869.65655
808.574	9761.47099
808.761	9828.83675
808.949	9934.95594
809.136	9818.63086
809.323	9818.63086
809.51	9818.63086
809.698	9700.21508
809.885	9469.35903
810.072	9865.57483
810.259	9810.46589
810.446	9857.41123
810.633	9540.88464
810.82	9679.79339
811.008	9536.79799
811.195	9549.05775
811.382	9751.26262
811.569	9714.50936
811.756	9504.10249
811.943	9837.00118
812.13	9604.21966
812.317	9551.10099
812.504	9700.21508
812.691	9834.9601
812.878	9663.45492
813.064	9990.04067
813.251	9800.25933
813.438	10122.60923
813.625	9859.45215
813.812	10120.57017
813.999	9728.80288
814.186	9724.71909
814.372	9655.28532
814.559	10132.80435
814.746	9692.04659
814.933	9771.67898
815.12	9549.05775
815.306	9365.10065
815.493	9367.14534
815.68	9806.38331
815.866	9463.22735
816.053	9446.8755
816.24	9471.40289
816.426	9828.83675
816.613	9638.94536
816.799	9567.44633
816.986	9667.53963
817.173	9567.44633
817.359	9565.40322
817.546	9502.05888
817.732	9246.48036
817.919	9600.13398
818.105	9536.79799
818.292	9788.01097
818.478	9636.9028
818.665	9773.72053
818.851	9669.58196
819.037	9843.12435
819.224	9690.00443
819.41	9826.7956
819.597	9775.76207
819.783	9714.50936
819.969	9526.58108
820.156	9755.34602
820.342	9698.17298
820.528	9708.38333
820.714	9442.78737
820.901	9640.98791
821.087	9430.52261
821.273	9354.87696
821.459	9422.34578
821.646	9594.00536
821.832	9602.17683
822.018	9559.27379
822.204	9289.43554
822.39	9508.18965
822.576	9164.64042
822.762	9242.389
822.948	9275.11796
823.134	9004.97375
823.32	9291.48084
823.507	9643.03045
823.693	9491.84062
823.879	9495.92797
824.065	9131.89684
824.25	9450.96356
824.436	9358.96648
824.622	9223.97707
824.808	9540.88464
824.994	9217.83946
825.18	8945.58346
825.366	9252.61726
825.552	9183.05677
825.738	9250.57164
825.923	9228.06873
826.109	9334.42833
826.295	9318.06825
826.481	9520.45075
826.667	9328.29342
826.852	9500.01526
827.038	9172.82564
827.224	9152.36209
827.409	9234.20609
827.595	9301.7071
827.781	8984.49601
827.966	9009.06909
828.152	8771.42207
828.338	9099.14886
828.523	8773.47179
828.709	8894.37298
828.894	8787.81929
829.08	8837.00397
829.266	8697.6201
829.451	8779.62083
829.637	8675.06474
829.822	8714.0226
830.008	8601.23149
830.193	8517.11404
830.378	8533.5297
830.564	8611.48756
830.749	8476.06959
830.935	8654.55793
831.12	8443.22854
831.305	8951.72797
831.491	8389.85133
831.676	8554.04756
831.861	8270.73188
832.047	8549.94414
832.232	8363.15784
832.417	8437.07029
832.602	8153.60179
832.788	8130.99031
832.973	8295.38268
833.158	8609.43638
833.343	8291.27441
833.528	8625.84526
833.714	8278.94913
833.899	8597.12894
834.084	8404.2234
834.269	8578.6665
834.454	8455.54451
834.639	8541.73707
834.824	8566.35737
835.009	8634.04925
835.194	8527.37397
835.379	8529.4259
835.564	8116.59991
835.749	8435.01751
835.934	8215.25723
836.119	8161.82356
836.304	8180.32135
836.489	8246.07826
836.674	8093.98445
836.859	8098.09654
837.044	7991.15612
837.228	8266.62314
837.413	8061.08489
837.598	8517.11404
837.783	8352.89024
837.968	8114.54406
838.152	7803.87728
838.337	8118.65574
838.522	7847.11066
838.707	8381.6383
838.891	7595.81603
839.076	7824.46575
839.261	7690.6033
839.445	7877.98604
839.63	7950.01054
839.815	7690.6033
839.999	7740.03975
840.184	7579.3267
840.368	7608.18214
840.553	7818.28943
840.737	7705.02352
840.922	7639.09405
841.106	7729.74149
841.291	7830.64188
841.475	7488.61083
841.66	7632.91205
841.844	7566.9588
842.029	7933.55002
842.213	7552.52861
842.397	7651.45748
842.582	7639.09405
842.766	7686.48304
842.951	7399.91635
843.135	7727.68177
843.319	7307.05347
843.504	7401.97947
843.688	7257.50845
843.872	7420.54655
844.056	7651.45748
844.241	7682.36271
844.425	7387.53719
844.609	7591.69383
844.793	7529.85047
844.977	7632.91205
845.161	7075.73437
845.346	7331.82123
845.53	7467.98778
845.714	7482.42414
845.898	6995.12015
846.082	7307.05347
846.266	7108.79702
846.45	7183.16711
846.634	7228.60133
846.818	7280.21816
847.002	7201.75513
847.186	7265.76684
847.37	7193.49401
847.554	7472.11256
847.738	6968.24114
847.922	7302.9252
848.106	6953.76625
848.29	7098.46556
848.473	6947.56239
848.657	6918.60833
848.841	6916.54002
849.025	6897.92415
849.209	6680.60281
849.392	6993.05267
849.576	6819.30357
849.76	6753.07124
849.944	6719.9463
850.127	6844.13467
850.311	6711.66415
850.495	7181.10166
850.678	6724.08724
850.862	7141.85395
851.046	6885.51256
851.229	6784.12056
851.413	6887.58121
851.596	7042.666
851.78	6835.858
851.964	6606.03447
852.147	6494.12587
852.331	6562.52248
852.514	6587.38772
852.698	6473.39464
852.881	6270.10539
853.065	6460.95479
853.248	6382.14962
853.431	6398.74297
853.615	6120.60687
853.798	6483.76055
853.982	6411.18701
854.165	6635.03682
854.348	6558.37795
854.532	6577.02761
854.715	6305.38592
854.898	6334.4354
855.081	6047.89
855.265	6346.88378
855.448	6326.13602
855.631	6299.16043
855.814	6214.05769
855.997	6628.82241
856.181	6180.83618
856.364	6278.4073
856.547	6176.68307
856.73	6006.32456
856.913	5941.87949
857.096	6303.31078
857.279	6022.95186
857.462	6299.16043
857.645	6103.98841
857.828	6338.58495
858.011	6292.93474
858.194	6290.85946
858.377	6155.9161
858.56	6477.54107
858.743	5987.61703
858.926	6193.29495
859.109	5960.59168
859.292	6099.83356
859.475	5846.20957
859.658	5910.68826
859.841	5669.29681
860.023	5792.11318
860.206	5542.23083
860.389	5891.97098
860.572	5648.47234
860.755	6018.79518
860.937	5808.75993
861.12	5810.84066
861.303	5656.80241
861.486	6006.32456
861.668	5650.55489
861.851	5765.05901
862.034	5375.45409
862.216	5631.81106
862.399	5521.39197
862.581	5590.15125
862.764	5339.99466
862.947	5250.27295
863.129	5312.87406
863.312	5410.90673
863.494	5300.35552
863.677	5373.36843
863.859	5381.71093
864.042	5648.47234
864.224	5314.9604
864.406	5608.89933
864.589	5279.48942
864.771	5398.39481
864.954	4941.13424
865.136	5321.21928
865.318	5139.6263
865.501	5264.88176
865.683	5118.74224
865.865	5490.12927
866.048	5306.61489
866.23	5131.27296
866.412	4972.48895
866.594	4964.1282
866.777	5131.27296
866.959	5321.21928
867.141	5116.65371
867.323	5049.80838
867.505	4991.29929
867.687	5135.44968
867.869	4947.4056
868.052	5358.76814
868.234	4792.65202
868.416	5302.442
868.598	4943.22472
868.78	5239.83738
868.962	5106.21069
869.144	5072.78914
869.326	5008.01802
869.508	5087.4118
869.69	4805.20426
869.872	4897.22897
870.054	4918.13751
870.236	4884.68275
870.417	4985.02938
870.599	4882.59164
870.781	4482.77341
870.963	4738.24952
871.145	4673.36503
871.327	4928.59091
871.508	4621.02309
871.69	4997.56898
871.872	4951.58639
872.054	5202.26452
872.235	4882.59164
872.417	4824.03109
872.599	4604.27071
872.78	4890.95597
872.962	4587.51691
873.144	4807.29622
873.325	4713.13552
873.507	4773.82212
873.689	4704.76346
873.87	4880.5005
874.052	4566.57264
874.233	4830.30629
874.415	4790.5599
874.596	4980.84933
874.778	4482.77341
874.959	4805.20426
875.141	4625.21096
875.322	4949.49601
875.503	4754.99038
875.685	4807.29622
875.866	4662.89777
876.048	4859.58784
876.229	4604.27071
876.41	4683.83174
876.592	4648.24265
876.773	4708.94953
876.954	4880.5005
877.136	4999.65884
877.317	4715.22847
877.498	4899.31993
877.679	4600.0824
877.86	4671.27162
878.042	4675.45842
878.223	4796.83619
878.404	4788.46775
878.585	4842.85607
878.766	4729.87855
878.947	4888.86492
879.128	4648.24265
879.309	4692.2047
879.49	4677.55178
879.672	4867.95318
879.853	4805.20426
880.034	4738.24952
880.215	4980.84933
880.396	4985.02938
880.576	4683.83174
880.757	5031.00386
880.938	4807.29622
881.119	4874.22694
881.3	4784.2834
881.481	5106.21069
881.662	4667.08474
881.843	5097.85586
882.023	4943.22472
882.204	5068.61103
882.385	4780.09896
882.566	4698.48418
882.747	4595.89399
882.927	4838.6729
883.108	4644.05527
883.289	4782.19119
883.469	4641.96155
883.65	4918.13751
883.831	4474.39154
884.011	4809.38816
884.192	4828.21458
884.373	5137.538
884.553	4932.77212
884.734	4985.02938
884.914	4997.56898
885.095	5127.09615
885.275	4813.57197
885.456	5214.78965
885.636	5135.44968
885.817	5221.0519
885.997	5045.62976
886.178	4993.38921
886.358	4740.34221
886.538	4865.86188
886.719	4673.36503
886.899	4692.2047
887.08	4813.57197
887.26	4926.50028
887.44	4821.93931
887.621	5018.46648
887.801	4683.83174
887.981	5070.7001
888.161	4855.40504
888.342	4957.8574
888.522	4746.62013
888.702	4916.04676
888.882	4704.76346
889.062	4813.57197
889.242	4545.62616
889.423	4715.22847
889.603	4495.34555
889.783	4836.58128
889.963	4788.46775
890.143	4880.5005
890.323	4702.67039
890.503	4913.95598
890.683	4587.51691
890.863	4788.46775
891.043	4838.6729
891.223	4985.02938
891.403	4851.22214
891.583	5039.36166
891.763	4830.30629
891.943	4886.77385
892.122	4727.78575
892.302	4876.31815
892.482	4717.32141
892.662	4683.83174
892.842	4834.48964
893.022	4675.45842
893.201	4581.23386
893.381	4865.86188
893.561	4547.72091
893.741	4725.69292
893.92	4574.95062
894.1	4863.77056
894.28	4631.4926
894.459	4842.85607
894.639	4461.81808
894.819	4715.22847
894.998	4721.50721
895.178	4708.94953
895.357	4675.45842
895.537	4648.24265
895.716	4484.86882
895.896	4834.48964
896.075	4294.09684
896.255	4633.58643
896.434	4298.29156
896.614	4455.53105
896.793	4136.73323
896.973	4279.41464
897.152	4256.34049
897.331	4432.47693
897.511	4247.94925
897.69	4340.23403
897.87	4616.83513
898.049	4491.15492
898.228	4361.20202
898.407	4352.81508
898.587	4151.42554
898.766	4310.87521
898.945	4067.45569
899.124	4212.28267
899.304	4294.09684
899.483	4296.19421
899.662	4046.45803
899.841	4134.63425
900.02	3836.36914
900.199	4088.45128
900.378	3924.6311
900.557	3943.53977
900.737	3804.83851
900.916	3966.64814
901.095	3596.62682
901.274	3758.58558
901.453	3607.14704
901.632	3672.36188
901.811	3579.79349
901.989	3748.07224
902.168	3596.62682
902.347	3878.40305
902.526	3607.14704
902.705	3781.71323
902.884	3632.39365
903.063	3760.68819
903.242	3674.46528
903.42	3647.11958
903.599	3327.15383
903.778	3504.02888
903.957	3350.32312
904.135	3396.65536
904.314	3072.15769
904.493	3588.2103
904.672	3322.94101
904.85	3335.57927
905.029	3167.01903
905.207	3384.02014
905.386	3145.94153
905.565	3285.02253
905.743	3131.18633
905.922	3141.72584
906.1	2882.34122
906.279	3295.556
906.457	2930.86136
906.636	3110.1061
906.814	2966.71909
906.993	2797.94042
907.171	2854.91343
907.35	2838.0336
907.528	2715.62852
907.707	3057.39861
907.885	2673.40951
908.063	2871.79236
908.242	2563.61659
908.42	2721.96092
908.598	2474.91422
908.777	2705.07425
908.955	2409.43082
909.133	2797.94042
909.311	2536.16326
909.49	2637.51934
909.668	2350.27584
909.846	2669.18733
910.024	2348.16302
910.202	2555.16962
910.38	2390.4176
910.559	2529.8276
910.737	2458.01627
910.915	2736.73607
911.093	2618.5172
911.271	2770.50539
911.449	2502.37186
911.627	2814.82237
911.805	2768.39491
911.983	2789.49912
912.161	2517.15596
912.339	2776.83676
912.517	2667.07622
912.695	2770.50539
912.872	2595.29102
913.05	2793.7198
913.228	2626.96272
913.406	2755.73173
913.584	2641.7419
913.762	2890.78006
913.939	2660.74281
914.117	3013.11678
914.295	2553.05785
914.473	2740.95742
914.65	2654.40929
914.828	2673.40951
915.006	2578.39832
915.184	2715.62852
915.361	2508.70797
915.539	2812.71218
915.716	2400.9806
915.894	2897.10903
916.072	2512.93199
916.249	2624.85136
916.427	2525.60376
916.604	2626.96272
916.782	2398.86802
916.959	2563.61659
917.137	2369.29081
917.314	2751.51057
917.492	2291.11307
917.669	2512.93199
917.847	2162.19785
918.024	2466.46533
918.201	2343.93734
918.379	2441.11763
918.556	2341.82449
918.733	2584.73317
918.911	2346.05019
919.088	2529.8276
919.265	2035.36643
919.442	2274.20805
919.62	2117.80995
919.797	2354.50146
919.974	2098.78552
920.151	2217.1493
920.328	2149.51595
920.506	2225.60286
920.683	2081.8744
920.86	1942.34081
921.037	2071.30471
921.214	2250.96268
921.391	2035.36643
921.568	2198.12829
921.745	2048.05076
921.922	2373.51625
922.099	1891.59467
922.276	2324.9213
922.453	2094.55778
922.63	2210.80904
922.807	1895.82363
922.984	1950.79818
923.161	1942.34081
923.338	2229.82958
923.514	1828.15774
923.691	2090.33002
923.868	1815.46984
924.045	1978.28398
924.222	1866.22043
924.399	1955.02683
924.575	1705.50191
924.752	1847.18928
924.929	1819.69916
925.105	1823.92846
925.282	1536.30513
925.459	1732.99483
925.635	1692.81269
925.812	1870.44952
925.989	1699.15732
926.165	1897.93811
926.342	1756.25761
926.518	1836.61625
926.695	1796.43769
926.871	1675.89356
927.048	1620.90523
927.224	1802.78178
927.401	1468.62374
927.577	1580.7205
927.754	1350.18133
927.93	1561.68542
928.107	1487.65919
928.283	1591.29549
928.459	1441.12806
928.636	1436.89795
928.812	1333.26121
928.988	1453.81837
929.165	1284.61651
929.341	1589.1805
929.517	1168.2977
929.693	1316.3412
929.87	1090.05319
930.046	1185.21619
930.222	1219.05385
930.398	1426.3227
930.574	1164.06812
930.751	1386.13684
930.927	1119.6585
931.103	1350.18133
931.279	1117.5438
931.455	1261.35204
931.631	961.07124
931.807	1159.83855
931.983	1094.28246
932.159	1155.609
932.335	990.67163
932.511	1083.70932
932.687	1056.21976
932.863	1092.16782
933.039	815.20529
933.215	1049.87614
933.391	1028.73113
933.566	1090.05319
933.742	980.09991
933.918	982.21424
934.094	737.00477
934.27	893.41849
934.445	766.59256
934.621	935.70057
934.797	715.8719
934.973	766.59256
935.148	635.5772
935.324	620.78794
935.5	631.35163
935.675	677.83549
935.851	648.25418
936.027	618.67523
936.202	574.31144
936.378	538.40216
936.553	439.14506
936.729	437.03357
936.904	437.03357
937.08	477.15454
937.255	470.81928
937.431	496.16112
937.606	361.03064
937.782	428.58776
937.957	327.25857
938.133	420.14221
938.308	234.40925
938.483	373.69631
938.659	249.1783
938.834	306.15332
939.009	280.82941
939.185	308.26376
939.36	270.27857
939.535	183.77985
939.71	261.83823
939.886	228.07995
940.061	230.1897
940.236	194.32669
940.411	179.56125
940.586	179.56125
940.761	230.1897
940.937	200.65503
941.112	177.45199
941.287	225.97022
941.462	177.45199
941.637	234.40925
941.812	209.09311
941.987	166.90597
942.162	116.2924
942.337	112.07516
942.512	135.27105
942.687	145.81549
942.862	84.66525
943.037	194.32669
943.212	126.83588
943.386	114.18377
943.561	42.50359
943.736	171.12431
943.911	152.14241
944.086	120.50972
944.26	76.23219
944.435	156.36047
944.61	135.27105
944.785	118.40105
944.959	97.31551
945.134	44.61145
945.309	128.94464
945.483	76.23219
945.658	228.07995
945.833	135.27105
946.007	126.83588
946.182	156.36047
946.357	50.93519
946.531	150.03342
946.706	48.82725
946.88	90.99028
947.055	112.07516
947.229	158.46953
947.404	166.90597
947.578	171.12431
947.752	116.2924
947.927	135.27105
948.101	59.36716
948.276	171.12431
948.45	93.09867
948.624	209.09311
948.799	209.09311
948.973	78.34042
949.147	42.50359
949.321	135.27105
949.496	124.72714
949.67	82.55695
949.844	145.81549
950.018	215.42188
950.193	107.85801
950.367	105.74946
950.541	116.2924
950.715	133.16222
950.889	187.99852
951.063	204.87403
951.237	124.72714
951.411	124.72714
951.585	150.03342
951.759	204.87403
951.933	74.12398
952.107	230.1897
952.281	103.64094
952.455	202.76452
952.629	82.55695
952.803	192.21728
952.977	179.56125
953.151	133.16222
953.325	162.68771
953.499	145.81549
953.672	187.99852
953.846	156.36047
954.02	112.07516
954.194	202.76452
954.368	185.88917
954.541	169.01513
954.715	99.42397
954.889	124.72714
955.062	177.45199
955.236	192.21728
955.41	31.96461
955.583	242.84859
955.757	156.36047
955.93	194.32669
956.104	139.48876
956.278	179.56125
956.451	200.65503
956.625	156.36047
956.798	101.53244
956.972	84.66525
957.145	76.23219
957.319	215.42188
957.492	118.40105
957.665	162.68771
957.839	192.21728
958.012	162.68771
958.185	234.40925
958.359	150.03342
958.532	53.04315
958.705	175.34274
958.879	76.23219
959.052	124.72714
959.225	112.07516
959.398	141.59765
959.572	162.68771
959.745	99.42397
959.918	150.03342
960.091	160.57861
960.264	90.99028
960.438	166.90597
960.611	114.18377
960.784	137.37989
960.957	67.79949
961.13	190.10789
961.303	209.09311
961.476	171.12431
961.649	217.53151
961.822	187.99852
961.995	124.72714
962.168	145.81549
962.341	124.72714
962.514	162.68771
962.686	133.16222
962.859	109.96657
963.032	103.64094
963.205	128.94464
963.378	107.85801
963.551	128.94464
963.723	74.12398
963.896	105.74946
964.069	133.16222
964.242	221.75083
964.414	166.90597
964.587	116.2924
964.76	109.96657
964.932	166.90597
965.105	15.10348
965.278	164.79683
965.45	141.59765
965.623	209.09311
965.795	141.59765
965.968	95.20708
966.14	143.70656
966.313	107.85801
966.485	192.21728
966.658	120.50972
966.83	154.25143
967.003	179.56125
967.175	192.21728
967.348	141.59765
967.52	158.46953
967.692	107.85801
967.865	175.34274
968.037	65.69137
968.209	65.69137
968.382	99.42397
968.554	99.42397
968.726	59.36716
968.898	25.64151
969.071	69.90763
969.243	143.70656
969.415	101.53244
969.587	107.85801
969.759	118.40105
969.932	166.90597
970.104	101.53244
970.276	86.77357
970.448	143.70656
970.62	40.39575
970.792	156.36047
970.964	152.14241
971.136	150.03342
971.308	86.77357
971.48	99.42397
971.652	84.66525
971.824	23.53386
971.996	107.85801
972.168	67.79949
972.339	65.69137
972.511	63.58328
972.683	107.85801
972.855	133.16222
973.027	90.99028
973.199	99.42397
973.37	99.42397
973.542	42.50359
973.714	31.96461
973.886	112.07516
974.057	31.96461
974.229	209.09311
974.401	44.61145
974.572	88.88192
974.744	53.04315
974.915	63.58328
975.087	57.25913
975.259	99.42397
975.43	93.09867
975.602	19.31862
975.773	90.99028
975.945	101.53244
976.116	128.94464
976.288	40.39575
976.459	141.59765
976.63	0.35123
976.802	76.23219
976.973	40.39575
977.145	23.53386
977.316	61.47521
977.487	93.09867
977.659	183.77985
977.83	107.85801
978.001	40.39575
978.172	65.69137
978.344	53.04315
978.515	76.23219
978.686	65.69137
978.857	99.42397
979.028	27.74919
979.2	50.93519
979.371	42.50359
979.542	67.79949
979.713	31.96461
979.884	65.69137
980.055	61.47521
980.226	86.77357
980.397	15.10348
980.568	6.67348
980.739	105.74946
980.91	80.44868
981.081	59.36716
981.252	109.96657
981.423	150.03342
981.594	61.47521
981.765	-1.75614
981.936	59.36716
982.106	23.53386
982.277	74.12398
982.448	53.04315
982.619	15.10348
982.79	42.50359
982.96	74.12398
983.131	171.12431
983.302	21.42623
983.472	74.12398
983.643	74.12398
983.814	19.31862
983.984	36.18013
984.155	44.61145
984.326	65.69137
984.496	8.78094
984.667	175.34274
984.837	78.34042
985.008	23.53386
985.178	50.93519
985.349	2.45862
985.519	-18.61421
985.69	99.42397
985.86	46.71934
986.031	90.99028
986.201	34.07236
986.371	-22.82848
986.542	23.53386
986.712	34.07236
986.882	19.31862
987.053	133.16222
987.223	67.79949
987.393	74.12398
987.563	-18.61421
987.734	-5.9708
987.904	74.12398
988.074	31.96461
988.244	112.07516
988.414	78.34042
988.585	99.42397
988.755	76.23219
988.925	40.39575
989.095	10.88843
989.265	29.85689
989.435	124.72714
989.605	40.39575
989.775	93.09867
989.945	44.61145
990.115	23.53386
990.285	82.55695
990.455	-14.39983
990.625	25.64151
990.795	38.28793
990.965	63.58328
991.134	31.96461
991.304	74.12398
991.474	-1.75614
991.644	42.50359
991.814	99.42397
991.984	25.64151
992.153	59.36716
992.323	25.64151
992.493	25.64151
992.662	44.61145
992.832	23.53386
993.002	-27.04265
993.171	67.79949
993.341	46.71934
993.511	23.53386
993.68	61.47521
993.85	8.78094
994.019	23.53386
994.189	99.42397
994.358	50.93519
994.528	15.10348
994.697	31.96461
994.867	53.04315
995.036	57.25913
995.206	67.79949
995.375	-22.82848
995.544	40.39575
995.714	-1.75614
995.883	-10.18537
996.052	53.04315
996.222	48.82725
996.391	19.31862
996.56	76.23219
996.73	29.85689
996.899	10.88843
997.068	48.82725
997.237	-8.0781
997.406	74.12398
997.576	-5.9708
997.745	-79.71139
997.914	103.64094
998.083	0.35123
998.252	34.07236
998.421	21.42623
998.59	40.39575
998.759	-12.29261
998.928	34.07236
999.097	-31.25673
999.266	57.25913
999.435	34.07236
999.604	0.35123
999.773	6.67348
999.942	42.50359
1000.111	-10.18537
1000.28	23.53386
1000.448	-5.9708
1000.617	4.56604
1000.786	65.69137
1000.955	-18.61421
1001.124	-16.50703
1001.292	15.10348
1001.461	23.53386
1001.63	63.58328
1001.798	69.90763
1001.967	59.36716
1002.136	8.78094
1002.304	2.45862
1002.473	-43.89836
1002.642	-24.93558
1002.81	17.21104
1002.979	-33.36373
1003.147	82.55695
1003.316	-10.18537
1003.484	-24.93558
1003.653	-41.79148
1003.821	4.56604
1003.99	6.67348
1004.158	42.50359
1004.327	65.69137
1004.495	6.67348
1004.663	40.39575
1004.832	-24.93558
1005	-52.32561
1005.168	6.67348
1005.337	17.21104
1005.505	48.82725
1005.673	10.88843
1005.842	93.09867
1006.01	-39.68458
1006.178	-35.47071
1006.346	82.55695
1006.514	57.25913
1006.683	120.50972
1006.851	27.74919
1007.019	-35.47071
1007.187	-1.75614
1007.355	-10.18537
1007.523	48.82725
1007.691	-22.82848
1007.859	-46.00521
1008.027	-16.50703
1008.195	-41.79148
1008.363	-35.47071
1008.531	6.67348
1008.699	-62.85911
1008.867	0.35123
1009.035	0.35123
1009.203	61.47521
1009.37	-35.47071
1009.538	61.47521
1009.706	-24.93558
1009.874	-31.25673
1010.042	48.82725
1010.209	-35.47071
1010.377	2.45862
1010.545	2.45862
1010.713	27.74919
1010.88	-39.68458
1011.048	6.67348
1011.216	23.53386
1011.383	27.74919
1011.551	-29.1497
1011.718	48.82725
1011.886	-8.0781
1012.054	-18.61421
1012.221	67.79949
1012.389	-31.25673
1012.556	8.78094
1012.724	-39.68458
1012.891	-71.28546
1013.058	93.09867
1013.226	17.21104
1013.393	59.36716
1013.561	23.53386
1013.728	-41.79148
1013.895	-8.0781
1014.063	-52.32561
1014.23	-5.9708
1014.397	-27.04265
1014.565	0.35123
1014.732	-48.11204
1014.899	-41.79148
1015.066	67.79949
1015.233	-24.93558
1015.401	-1.75614
1015.568	-43.89836
1015.735	27.74919
1015.902	38.28793
1016.069	48.82725
1016.236	-22.82848
1016.403	-31.25673
1016.57	-41.79148
1016.737	42.50359
1016.904	-43.89836
1017.071	40.39575
1017.238	-27.04265
1017.405	-14.39983
1017.572	-10.18537
1017.739	6.67348
1017.906	-5.9708
1018.073	-35.47071
1018.24	17.21104
1018.407	61.47521
1018.573	78.34042
1018.74	42.50359
1018.907	17.21104
1019.074	36.18013
1019.241	-33.36373
1019.407	61.47521
1019.574	-18.61421
1019.741	-31.25673
1019.907	8.78094
1020.074	59.36716
1020.241	-43.89836
1020.407	6.67348
1020.574	-1.75614
1020.74	59.36716
1020.907	23.53386
1021.073	36.18013
1021.24	34.07236
1021.406	-69.17891
1021.573	-64.96574
1021.739	8.78094
1021.906	40.39575
1022.072	-1.75614
1022.239	-20.72135
1022.405	6.67348
1022.571	57.25913
1022.738	57.25913
1022.904	-1.75614
1023.07	-39.68458
1023.237	-5.9708
1023.403	-39.68458
1023.569	-5.9708
1023.735	19.31862
1023.902	8.78094
1024.068	61.47521
1024.234	-3.86348
1024.4	-50.21884
1024.566	-10.18537
1024.732	-24.93558
1024.898	59.36716
1025.065	15.10348
1025.231	63.58328
1025.397	40.39575
1025.563	-1.75614
1025.729	31.96461
1025.895	36.18013
1026.061	2.45862
1026.227	36.18013
1026.392	25.64151
1026.558	95.20708
1026.724	27.74919
1026.89	-5.9708
1027.056	15.10348
1027.222	34.07236
1027.388	-14.39983
1027.553	48.82725
1027.719	15.10348
1027.885	-24.93558
1028.051	-16.50703
1028.216	-12.29261
1028.382	2.45862
1028.548	0.35123
1028.713	-10.18537
1028.879	69.90763
1029.045	44.61145
1029.21	8.78094
1029.376	23.53386
1029.541	17.21104
1029.707	40.39575
1029.873	4.56604
1030.038	-18.61421
1030.204	21.42623
1030.369	48.82725
1030.534	74.12398
1030.7	25.64151
1030.865	10.88843
1031.031	50.93519
1031.196	36.18013
1031.361	31.96461
1031.527	29.85689
1031.692	10.88843
1031.857	57.25913
1032.023	44.61145
1032.188	-20.72135
1032.353	36.18013
1032.518	-33.36373
1032.684	-5.9708
1032.849	-20.72135
1033.014	36.18013
1033.179	82.55695
1033.344	0.35123
1033.509	69.90763
1033.674	-39.68458
1033.839	65.69137
1034.004	-73.39198
1034.17	48.82725
1034.335	-29.1497
1034.5	19.31862
1034.664	-8.0781
1034.829	69.90763
1034.994	21.42623
1035.159	48.82725
1035.324	-39.68458
1035.489	25.64151
1035.654	-67.07234
1035.819	-35.47071
1035.984	-24.93558
1036.148	-5.9708
1036.313	-46.00521
1036.478	-60.75247
1036.643	15.10348
1036.807	10.88843
1036.972	-16.50703
1037.137	-77.60495
1037.301	-56.53909
1037.466	-56.53909
1037.631	-12.29261
1037.795	10.88843
1037.96	10.88843
1038.124	25.64151
1038.289	-8.0781
1038.454	42.50359
1038.618	31.96461
1038.783	10.88843
1038.947	-27.04265
1039.111	-16.50703
1039.276	8.78094
1039.44	23.53386
1039.605	55.15113
1039.769	59.36716
1039.933	6.67348
1040.098	8.78094
1040.262	55.15113
1040.426	40.39575
1040.591	29.85689
1040.755	2.45862
1040.919	-14.39983
1041.083	4.56604
1041.248	-10.18537
1041.412	17.21104
1041.576	31.96461
1041.74	17.21104
1041.904	57.25913
1042.068	31.96461
1042.232	-5.9708
1042.397	-50.21884
1042.561	57.25913
1042.725	-37.57766
1042.889	-12.29261
1043.053	25.64151
1043.217	36.18013
1043.381	57.25913
1043.544	-1.75614
1043.708	-12.29261
1043.872	-56.53909
1044.036	57.25913
1044.2	-33.36373
1044.364	-39.68458
1044.528	25.64151
1044.691	25.64151
1044.855	-14.39983
1045.019	-10.18537
1045.183	57.25913
1045.346	-3.86348
1045.51	27.74919
1045.674	42.50359
1045.837	42.50359
1046.001	19.31862
1046.165	-22.82848
1046.328	8.78094
1046.492	29.85689
1046.655	-37.57766
1046.819	25.64151
1046.983	-16.50703
1047.146	6.67348
1047.31	-39.68458
1047.473	34.07236
1047.636	-3.86348
1047.8	-5.9708
1047.963	-27.04265
1048.127	19.31862
1048.29	15.10348
