Data from mixed_try1_USB4F045381__14__00162.txt Node

Date: Thu Apr 03 20:08:42 EDT 2025
User: mmckonesweet
Spectrometer: USB4F04538
Trigger mode: 4
Integration Time (sec): 2.700000E-3
Scans to average: 1
Electric dark correction enabled: true
Nonlinearity correction enabled: true
Boxcar width: 0
XAxis mode: Wavelengths
Number of Pixels in Spectrum: 3648
>>>>>Begin Spectral Data<<<<<
345.52	12.64469
345.736	12.64469
345.952	12.64469
346.168	-63.21022
346.384	-92.70056
346.6	-23.17966
346.816	-12.64382
347.032	2.10739
347.248	46.36803
347.464	16.85977
347.68	-14.75104
347.896	-10.53658
348.112	16.85977
348.328	-63.21022
348.544	65.34002
348.76	12.64469
348.975	-35.82187
349.191	-12.64382
349.407	-18.9654
349.623	21.07496
349.839	-8.42931
350.055	6.32224
350.27	29.5056
350.486	-27.39383
350.702	33.72107
350.918	-52.67674
351.133	-58.9969
351.349	-6.32202
351.565	16.85977
351.781	-35.82187
351.996	29.5056
352.212	-16.85823
352.428	-90.59428
352.644	31.61332
352.859	75.88082
353.075	-52.67674
353.291	8.4297
353.506	-42.14263
353.722	16.85977
353.938	31.61332
354.153	-12.64382
354.369	-69.53
354.584	-37.92881
354.8	-21.07254
355.016	6.32224
355.231	-42.14263
355.447	37.93663
355.662	21.07496
355.878	-75.84956
356.093	46.36803
356.309	-14.75104
356.524	27.39791
356.74	8.4297
356.955	84.31387
357.171	25.29023
357.386	-2.10736
357.602	-29.50088
357.817	-18.9654
358.033	-71.63655
358.248	6.32224
358.464	65.34002
358.679	-4.2147
358.895	21.07496
359.11	-29.50088
359.325	-63.21022
359.541	-21.07254
359.756	-18.9654
359.972	-77.95602
360.187	33.72107
360.402	-92.70056
360.618	-46.35635
360.833	-10.53658
361.048	40.04444
361.264	18.96735
361.479	-10.53658
361.694	-16.85823
361.909	-12.64382
362.125	33.72107
362.34	59.01582
362.555	-25.28676
362.77	6.32224
362.986	-69.53
363.201	-29.50088
363.416	52.69182
363.631	12.64469
363.847	-4.2147
364.062	35.82884
364.277	54.79979
364.492	31.61332
364.707	-130.6092
364.922	-8.42931
365.138	-21.07254
365.353	96.96411
365.568	-4.2147
365.783	-21.07254
365.998	-10.53658
366.213	4.2148
366.428	-37.92881
366.643	-46.35635
366.858	-4.2147
367.073	25.29023
367.288	-12.64382
367.503	12.64469
367.718	71.66443
367.933	4.2148
368.148	18.96735
368.363	21.07496
368.578	-31.6079
368.793	-27.39383
369.008	-37.92881
369.223	-46.35635
369.438	25.29023
369.653	96.96411
369.868	-65.31684
370.083	23.18258
370.298	-12.64382
370.513	48.47593
370.728	-18.9654
370.943	-48.46317
371.157	-25.28676
371.372	-14.75104
371.587	-25.28676
371.802	-4.2147
372.017	-10.53658
372.232	-29.50088
372.446	40.04444
372.661	-23.17966
372.876	-63.21022
373.091	46.36803
373.306	48.47593
373.52	8.4297
373.735	-50.56997
373.95	8.4297
374.165	-35.82187
374.379	-2.10736
374.594	-2.10736
374.809	4.2148
375.023	63.23193
375.238	46.36803
375.453	82.20557
375.667	118.04961
375.882	-2.10736
376.097	111.72373
376.311	23.18258
376.526	99.07256
376.741	42.15228
376.955	4.2148
377.17	23.18258
377.384	0
377.599	-16.85823
377.813	31.61332
378.028	-12.64382
378.242	63.23193
378.457	4.2148
378.672	-2.10736
378.886	4.2148
379.101	82.20557
379.315	-18.9654
379.53	-33.71489
379.744	8.4297
379.958	31.61332
380.173	88.53052
380.387	-21.07254
380.602	29.5056
380.816	-52.67674
381.031	35.82884
381.245	-12.64382
381.459	12.64469
381.674	21.07496
381.888	-40.03573
382.103	16.85977
382.317	-35.82187
382.531	21.07496
382.746	46.36803
382.96	-37.92881
383.174	59.01582
383.388	21.07496
383.603	4.2148
383.817	-50.56997
384.031	10.53718
384.246	16.85977
384.46	-4.2147
384.674	-56.89021
384.888	12.64469
385.103	54.79979
385.317	-65.31684
385.531	35.82884
385.745	37.93663
385.959	23.18258
386.174	-8.42931
386.388	33.72107
386.602	65.34002
386.816	-54.78349
387.03	-44.2495
387.244	29.5056
387.458	-10.53658
387.672	-54.78349
387.887	80.0973
388.101	21.07496
388.315	-63.21022
388.529	37.93663
388.743	-37.92881
388.957	-84.27527
389.171	29.5056
389.385	29.5056
389.599	86.42218
389.813	33.72107
390.027	-44.2495
390.241	-48.46317
390.455	12.64469
390.669	12.64469
390.883	2.10739
391.097	-21.07254
391.311	-12.64382
391.525	37.93663
391.738	-21.07254
391.952	-4.2147
392.166	-16.85823
392.38	-37.92881
392.594	-8.42931
392.808	54.79979
393.022	37.93663
393.236	-46.35635
393.449	29.5056
393.663	12.64469
393.877	33.72107
394.091	29.5056
394.305	-6.32202
394.518	69.55627
394.732	-54.78349
394.946	6.32224
395.16	-46.35635
395.373	-37.92881
395.587	8.4297
395.801	-46.35635
396.015	37.93663
396.228	-75.84956
396.442	0
396.656	40.04444
396.869	-69.53
397.083	25.29023
397.297	42.15228
397.51	10.53718
397.724	2.10739
397.938	10.53718
398.151	-44.2495
398.365	-21.07254
398.578	37.93663
398.792	31.61332
399.005	-42.14263
399.219	0
399.433	-37.92881
399.646	37.93663
399.86	21.07496
400.073	12.64469
400.287	-4.2147
400.5	-6.32202
400.714	156.00896
400.927	42.15228
401.141	-54.78349
401.354	-25.28676
401.567	50.58386
401.781	21.07496
401.994	46.36803
402.208	12.64469
402.421	-69.53
402.635	33.72107
402.848	4.2148
403.061	-67.42343
403.275	-27.39383
403.488	-67.42343
403.701	-35.82187
403.915	-10.53658
404.128	42.15228
404.341	63.23193
404.555	-25.28676
404.768	-21.07254
404.981	54.79979
405.195	16.85977
405.408	12.64469
405.621	-65.31684
405.834	6.32224
406.048	71.66443
406.261	-69.53
406.474	4.2148
406.687	-16.85823
406.9	29.5056
407.114	-27.39383
407.327	-21.07254
407.54	6.32224
407.753	8.4297
407.966	-35.82187
408.179	14.75222
408.392	37.93663
408.605	-6.32202
408.819	29.5056
409.032	-31.6079
409.245	25.29023
409.458	-37.92881
409.671	-29.50088
409.884	6.32224
410.097	6.32224
410.31	42.15228
410.523	-71.63655
410.736	50.58386
410.949	21.07496
411.162	-4.2147
411.375	-44.2495
411.588	14.75222
411.801	-21.07254
412.014	-48.46317
412.227	-29.50088
412.44	-10.53658
412.653	-4.2147
412.865	12.64469
413.078	-25.28676
413.291	-27.39383
413.504	4.2148
413.717	23.18258
413.93	-37.92881
414.143	31.61332
414.356	-35.82187
414.568	33.72107
414.781	-29.50088
414.994	-8.42931
415.207	-61.10358
415.42	23.18258
415.632	-46.35635
415.845	-35.82187
416.058	12.64469
416.271	-35.82187
416.483	-4.2147
416.696	-37.92881
416.909	-21.07254
417.121	6.32224
417.334	23.18258
417.547	29.5056
417.759	46.36803
417.972	-12.64382
418.185	21.07496
418.397	27.39791
418.61	-44.2495
418.823	59.01582
419.035	35.82884
419.248	-6.32202
419.46	33.72107
419.673	16.85977
419.885	37.93663
420.098	-21.07254
420.311	21.07496
420.523	-33.71489
420.736	75.88082
420.948	6.32224
421.161	23.18258
421.373	27.39791
421.586	50.58386
421.798	12.64469
422.01	0
422.223	-10.53658
422.435	-12.64382
422.648	-12.64382
422.86	-2.10736
423.073	16.85977
423.285	12.64469
423.497	6.32224
423.71	16.85977
423.922	50.58386
424.134	14.75222
424.347	-29.50088
424.559	-2.10736
424.771	-16.85823
424.984	0
425.196	31.61332
425.408	90.63889
425.621	90.63889
425.833	-46.35635
426.045	-37.92881
426.257	10.53718
426.47	-14.75104
426.682	33.72107
426.894	37.93663
427.106	12.64469
427.318	71.66443
427.531	-10.53658
427.743	-12.64382
427.955	-37.92881
428.167	-37.92881
428.379	37.93663
428.591	37.93663
428.804	4.2148
429.016	33.72107
429.228	48.47593
429.44	42.15228
429.652	25.29023
429.864	-2.10736
430.076	-21.07254
430.288	8.4297
430.5	25.29023
430.712	-29.50088
430.924	54.79979
431.136	-10.53658
431.348	-37.92881
431.56	4.2148
431.772	-44.2495
431.984	-27.39383
432.196	-4.2147
432.408	-48.46317
432.62	-4.2147
432.832	-12.64382
433.044	73.77262
433.256	4.2148
433.468	84.31387
433.679	-25.28676
433.891	18.96735
434.103	-46.35635
434.315	37.93663
434.527	-54.78349
434.739	31.61332
434.95	44.26014
435.162	-8.42931
435.374	23.18258
435.586	29.5056
435.798	21.07496
436.009	23.18258
436.221	-21.07254
436.433	-50.56997
436.645	50.58386
436.856	82.20557
437.068	-16.85823
437.28	25.29023
437.491	-8.42931
437.703	-21.07254
437.915	46.36803
438.126	-61.10358
438.338	37.93663
438.55	33.72107
438.761	2.10739
438.973	-54.78349
439.184	-27.39383
439.396	12.64469
439.608	12.64469
439.819	23.18258
440.031	-44.2495
440.242	4.2148
440.454	18.96735
440.665	31.61332
440.877	16.85977
441.088	6.32224
441.3	54.79979
441.511	-37.92881
441.723	-46.35635
441.934	29.5056
442.146	-29.50088
442.357	-4.2147
442.569	29.5056
442.78	-84.27527
442.991	-29.50088
443.203	-2.10736
443.414	16.85977
443.626	52.69182
443.837	-12.64382
444.048	21.07496
444.26	-25.28676
444.471	33.72107
444.682	56.90779
444.894	65.34002
445.105	27.39791
445.316	-14.75104
445.528	-42.14263
445.739	69.55627
445.95	21.07496
446.161	-50.56997
446.373	2.10739
446.584	54.79979
446.795	-10.53658
447.006	48.47593
447.217	-16.85823
447.429	-16.85823
447.64	71.66443
447.851	29.5056
448.062	-18.9654
448.273	33.72107
448.484	-23.17966
448.695	-67.42343
448.907	37.93663
449.118	46.36803
449.329	-16.85823
449.54	-90.59428
449.751	4.2148
449.962	4.2148
450.173	14.75222
450.384	-58.9969
450.595	23.18258
450.806	-23.17966
451.017	84.31387
451.228	56.90779
451.439	44.26014
451.65	46.36803
451.861	-46.35635
452.072	-48.46317
452.283	25.29023
452.494	4.2148
452.705	59.01582
452.915	23.18258
453.126	25.29023
453.337	69.55627
453.548	101.18103
453.759	-48.46317
453.97	-2.10736
454.181	40.04444
454.391	-8.42931
454.602	2.10739
454.813	56.90779
455.024	37.93663
455.235	-21.07254
455.445	82.20557
455.656	-12.64382
455.867	-23.17966
456.078	-2.10736
456.288	-21.07254
456.499	92.74727
456.71	-12.64382
456.921	-2.10736
457.131	4.2148
457.342	80.0973
457.553	63.23193
457.763	80.0973
457.974	-21.07254
458.184	-27.39383
458.395	44.26014
458.606	-25.28676
458.816	-86.38163
459.027	65.34002
459.237	33.72107
459.448	-8.42931
459.659	42.15228
459.869	0
460.08	2.10739
460.29	27.39791
460.501	6.32224
460.711	46.36803
460.922	-50.56997
461.132	63.23193
461.343	6.32224
461.553	-52.67674
461.764	31.61332
461.974	109.61514
462.184	-37.92881
462.395	-27.39383
462.605	-18.9654
462.816	-44.2495
463.026	-29.50088
463.236	46.36803
463.447	-42.14263
463.657	14.75222
463.867	40.04444
464.078	-37.92881
464.288	6.32224
464.498	54.79979
464.709	56.90779
464.919	-2.10736
465.129	73.77262
465.339	-71.63655
465.55	8.4297
465.76	141.24617
465.97	75.88082
466.18	37.93663
466.391	71.66443
466.601	31.61332
466.811	12.64469
467.021	10.53718
467.231	-2.10736
467.441	12.64469
467.651	-12.64382
467.862	52.69182
468.072	63.23193
468.282	-16.85823
468.492	-21.07254
468.702	99.07256
468.912	-63.21022
469.122	46.36803
469.332	0
469.542	40.04444
469.752	16.85977
469.962	21.07496
470.172	16.85977
470.382	48.47593
470.592	37.93663
470.802	-18.9654
471.012	-10.53658
471.222	14.75222
471.432	56.90779
471.642	6.32224
471.852	-42.14263
472.062	29.5056
472.272	23.18258
472.482	8.4297
472.691	52.69182
472.901	6.32224
473.111	21.07496
473.321	16.85977
473.531	4.2148
473.741	80.0973
473.95	23.18258
474.16	42.15228
474.37	16.85977
474.58	-2.10736
474.79	-10.53658
474.999	48.47593
475.209	23.18258
475.419	31.61332
475.628	29.5056
475.838	105.39804
476.048	88.53052
476.258	25.29023
476.467	0
476.677	-18.9654
476.886	-61.10358
477.096	80.0973
477.306	-27.39383
477.515	25.29023
477.725	-12.64382
477.935	21.07496
478.144	-35.82187
478.354	46.36803
478.563	-16.85823
478.773	33.72107
478.982	50.58386
479.192	-61.10358
479.401	23.18258
479.611	-16.85823
479.82	73.77262
480.03	88.53052
480.239	16.85977
480.449	71.66443
480.658	21.07496
480.868	29.5056
481.077	-10.53658
481.287	94.85568
481.496	54.79979
481.705	4.2148
481.915	35.82884
482.124	63.23193
482.333	18.96735
482.543	56.90779
482.752	88.53052
482.961	8.4297
483.171	-25.28676
483.38	-12.64382
483.589	73.77262
483.799	37.93663
484.008	-8.42931
484.217	149.68192
484.426	-14.75104
484.636	12.64469
484.845	18.96735
485.054	21.07496
485.263	31.61332
485.472	42.15228
485.682	130.70195
485.891	14.75222
486.1	29.5056
486.309	29.5056
486.518	56.90779
486.727	73.77262
486.936	109.61514
487.146	71.66443
487.355	27.39791
487.564	90.63889
487.773	80.0973
487.982	46.36803
488.191	54.79979
488.4	115.94096
488.609	59.01582
488.818	71.66443
489.027	109.61514
489.236	82.20557
489.445	71.66443
489.654	31.61332
489.863	37.93663
490.072	6.32224
490.281	80.0973
490.49	46.36803
490.698	96.96411
490.907	54.79979
491.116	35.82884
491.325	61.12386
491.534	44.26014
491.743	71.66443
491.952	147.57295
492.16	86.42218
492.369	71.66443
492.578	77.98905
492.787	71.66443
492.996	101.18103
493.204	96.96411
493.413	134.91958
493.622	88.53052
493.831	65.34002
494.039	90.63889
494.248	21.07496
494.457	63.23193
494.665	25.29023
494.874	48.47593
495.083	94.85568
495.291	63.23193
495.5	118.04961
495.709	82.20557
495.917	107.50658
496.126	59.01582
496.335	88.53052
496.543	147.57295
496.752	29.5056
496.96	115.94096
497.169	65.34002
497.377	67.44814
497.586	105.39804
497.794	88.53052
498.003	21.07496
498.211	69.55627
498.42	73.77262
498.628	96.96411
498.837	109.61514
499.045	88.53052
499.254	84.31387
499.462	96.96411
499.671	88.53052
499.879	90.63889
500.087	107.50658
500.296	92.74727
500.504	130.70195
500.713	122.26697
500.921	210.85109
501.129	122.26697
501.338	139.13728
501.546	179.20971
501.754	113.83233
501.962	122.26697
502.171	145.464
502.379	170.77278
502.587	115.94096
502.795	132.81075
503.004	166.55444
503.212	170.77278
503.42	118.04961
503.628	122.26697
503.837	84.31387
504.045	113.83233
504.253	191.86571
504.461	200.30345
504.669	88.53052
504.877	172.88198
505.085	130.70195
505.294	115.94096
505.502	139.13728
505.71	168.6636
505.918	147.57295
506.126	128.59318
506.334	132.81075
506.542	111.72373
506.75	206.63197
506.958	164.4453
507.166	143.35507
507.374	181.31899
507.582	189.75633
507.79	181.31899
507.998	166.55444
508.206	172.88198
508.414	174.9912
508.622	236.16742
508.83	128.59318
509.037	210.85109
509.245	179.20971
509.453	130.70195
509.661	223.5089
509.869	206.63197
510.077	101.18103
510.285	130.70195
510.492	200.30345
510.7	231.94784
510.908	185.53762
511.116	189.75633
511.324	198.19399
511.531	234.05762
511.739	164.4453
511.947	217.1799
512.155	236.16742
512.362	215.07028
512.57	105.39804
512.778	248.82665
512.985	204.52245
513.193	246.71673
513.401	286.80843
513.608	299.47036
513.816	263.59661
514.024	141.24617
514.231	297.36
514.439	204.52245
514.646	303.69116
514.854	246.71673
515.061	265.70668
515.269	164.4453
515.477	257.26651
515.684	227.72833
515.892	240.38709
516.099	276.25732
516.307	312.13296
516.514	345.90302
516.722	242.49695
516.929	282.58793
517.136	219.28955
517.344	172.88198
517.551	307.91202
517.759	314.24345
517.966	303.69116
518.173	299.47036
518.381	297.36
518.588	324.7962
518.796	288.91871
519.003	231.94784
519.21	329.01742
519.418	350.12459
519.625	299.47036
519.832	341.68151
520.039	295.24965
520.247	364.90064
520.454	383.89964
520.661	333.23872
520.868	379.67753
521.076	337.46008
521.283	291.029
521.49	305.80158
521.697	348.0138
521.904	375.45547
522.112	402.9
522.319	318.4645
522.526	318.4645
522.733	440.90465
522.94	331.12806
523.147	352.2354
523.354	434.57018
523.561	462.02054
523.768	360.67883
523.975	462.02054
524.183	388.12183
524.39	434.57018
524.597	352.2354
524.804	434.57018
525.011	400.78878
525.218	519.04098
525.425	432.45872
525.632	544.38677
525.838	371.23349
526.045	531.71362
526.252	411.34503
526.459	464.13222
526.666	455.68561
526.873	552.83581
527.08	478.91436
527.287	445.1277
527.494	620.43582
527.701	493.69724
527.907	445.1277
528.114	529.60148
528.321	438.79314
528.528	523.26513
528.735	523.26513
528.941	457.79724
529.148	529.60148
529.355	569.73455
529.562	535.93795
529.768	548.61126
529.975	527.48935
530.182	582.40916
530.388	485.24979
530.595	573.95937
530.802	538.05013
531.008	540.16233
531.215	455.68561
531.422	620.43582
531.628	561.28507
531.835	533.82578
532.042	580.2967
532.248	721.85944
532.455	533.82578
532.661	658.46652
532.868	525.37723
533.074	650.01491
533.281	525.37723
533.487	692.27481
533.694	616.21043
533.9	671.14428
534.107	683.82246
534.313	827.5354
534.52	645.78918
534.726	819.08044
534.933	645.78918
535.139	603.53457
535.345	669.03129
535.552	654.24069
535.758	755.67302
535.965	814.85301
536.171	645.78918
536.377	757.78646
536.584	800.0573
536.79	819.08044
536.996	766.24031
537.203	747.21937
537.409	840.21813
537.615	783.14849
537.821	802.17095
538.028	939.57658
538.234	757.78646
538.44	912.09269
538.646	800.0573
538.853	810.62562
539.059	738.76589
539.265	859.24281
539.471	787.37564
539.677	937.46239
539.883	878.26818
540.09	861.3567
540.296	738.76589
540.502	1019.92089
540.708	738.76589
540.914	1049.52372
541.12	916.3209
541.326	1000.89111
541.532	958.60461
541.738	1022.03534
541.944	1045.29468
542.15	1011.46315
542.356	941.69077
542.562	1070.66929
542.768	933.23403
542.974	1019.92089
543.18	899.40826
543.386	1015.692
543.592	964.94741
543.798	1153.14177
544.004	958.60461
544.21	1250.4249
544.415	988.20488
544.621	1225.04602
544.827	1068.55471
545.033	1057.98188
545.239	1093.93002
545.445	1258.88462
545.651	1121.42075
545.856	1153.14177
546.062	1091.81538
546.268	1195.43789
546.474	1138.33851
546.679	1199.66758
546.885	1254.65476
547.091	1182.7489
547.297	1110.84729
547.502	1271.57427
547.708	1180.63408
547.914	1186.97855
548.119	1178.51926
548.325	1326.5637
548.531	1203.89729
548.736	1375.20915
548.942	1163.71566
549.147	1229.27581
549.353	1195.43789
549.559	1280.03409
549.764	1356.17389
549.97	1377.32418
550.175	1299.06881
550.381	1356.17389
550.586	1318.1037
550.792	1398.47458
550.997	1214.47162
551.203	1440.77555
551.408	1271.57427
551.614	1449.23576
551.819	1364.63399
552.025	1474.61638
552.23	1440.77555
552.435	1493.65183
552.641	1373.09412
552.846	1453.46586
553.052	1447.12071
553.257	1519.03235
553.462	1347.71381
553.668	1550.75782
553.873	1406.93476
554.078	1614.20782
554.283	1487.30668
554.489	1622.6677
554.694	1569.79297
554.899	1599.40296
555.105	1341.36876
555.31	1609.97787
555.515	1569.79297
555.72	1679.77088
555.925	1415.39495
556.131	1817.23206
556.336	1521.14738
556.541	1736.87199
556.746	1523.26242
556.951	1758.01993
557.156	1620.55273
557.361	1753.79037
557.567	1635.35745
557.772	1766.479
557.977	1523.26242
558.182	1643.81723
558.387	1779.16748
558.592	1762.24947
558.797	1660.73669
559.002	1916.61574
559.207	1755.90515
559.412	1861.63889
559.617	1762.24947
559.822	1870.0971
560.027	1719.95339
560.232	1821.46137
560.437	1838.37843
560.642	1840.49304
560.847	1719.95339
561.051	1897.5857
561.256	1846.83685
561.461	1965.24597
561.666	1882.78425
561.871	1935.64533
562.076	1963.13168
562.281	1800.31464
562.485	1787.6264
562.69	1884.89876
562.895	1874.32617
563.1	2039.24223
563.305	1766.479
563.509	2113.23005
563.714	1753.79037
563.919	2062.4965
564.123	1925.07339
564.328	2089.9777
564.533	2113.23005
564.737	2020.21539
564.942	2007.53052
565.147	2117.45765
565.351	2035.01409
565.556	2102.66091
565.761	1893.35674
565.965	2024.44362
566.17	1992.73122
566.374	2111.11624
566.579	1876.4407
566.784	2244.27063
566.988	2041.35629
567.193	2288.64779
567.397	1975.81735
567.602	2130.14027
567.806	1897.5857
568.011	2113.23005
568.215	2121.68522
568.42	2202.003
568.624	2163.9592
568.828	2261.17669
569.033	2009.64468
569.237	2347.81088
569.442	2269.62951
569.646	2136.48148
569.85	2218.91047
570.055	2339.35948
570.259	2121.68522
570.463	2400.62851
570.668	2244.27063
570.872	2364.71321
571.076	2246.38392
571.281	2328.795
571.485	2297.10012
571.689	2542.14685
571.893	2210.4568
572.098	2288.64779
572.302	2269.62951
572.506	2537.92315
572.71	2271.74269
572.914	2510.46799
573.119	2330.90792
573.323	2508.35597
573.527	2324.56914
573.731	2559.04117
573.935	2559.04117
574.139	2620.2767
574.343	2337.2466
574.547	2723.7199
574.751	2438.65318
574.955	2573.82309
575.159	2550.5941
575.364	2523.13984
575.568	2561.15291
575.772	2654.05742
575.976	2400.62851
576.18	2544.25868
576.383	2588.60442
576.587	2700.50063
576.791	2565.37635
576.995	2658.27978
577.199	2654.05742
577.403	2575.93474
577.607	2759.60109
577.811	2776.48502
578.015	2618.1653
578.219	2516.80396
578.422	2675.16874
578.626	2871.44072
578.83	2569.59974
579.034	2890.42844
579.238	2706.83332
579.442	2768.04316
579.645	2559.04117
579.849	2873.55053
580.053	2793.36808
580.257	2780.70586
580.46	2801.80928
580.664	3084.45635
580.868	2784.92666
581.071	2991.67633
581.275	2822.91132
581.479	2964.2584
581.682	2879.87985
581.886	2941.05664
582.09	2894.64778
582.293	2903.08628
582.497	2875.66032
582.7	3021.20048
582.904	2852.45185
583.107	3092.8894
583.311	2907.30544
583.515	3288.88485
583.718	2953.71237
583.922	3038.07007
584.125	2964.2584
584.329	3206.71054
584.532	3021.20048
584.735	3189.85114
584.939	2945.27527
585.142	3202.49579
585.346	2839.79196
585.549	3175.0983
585.753	3090.78116
585.956	3240.42616
586.159	2953.71237
586.363	3368.92723
586.566	3231.99765
586.769	3413.15039
586.973	3109.75475
587.176	3200.38839
587.379	3141.37453
587.582	3512.09754
587.786	3172.99069
587.989	3358.39677
588.192	3229.89049
588.395	3587.85961
588.599	3303.63137
588.802	3427.88971
589.005	3130.83501
589.208	3703.56037
589.411	3309.95105
589.615	3554.19053
589.818	3408.939
590.021	3539.45882
590.224	3206.71054
590.427	3480.52299
590.63	3333.12188
590.833	3461.5763
591.036	3488.94327
591.239	3650.97622
591.442	3484.73317
591.645	3644.66532
591.848	3442.62816
592.051	3556.29499
592.254	3375.2453
592.457	3716.17879
592.66	3524.72621
592.863	3680.42482
593.066	3505.78296
593.269	3796.07921
593.472	3368.92723
593.675	3800.28372
593.878	3642.56165
594.081	3682.52815
594.284	3581.54702
594.486	3669.90789
594.689	3838.12071
594.892	3722.48773
595.095	3587.85961
595.298	3878.0528
595.5	3737.20794
595.703	3917.97767
595.906	3705.66349
596.109	3894.86415
596.311	3568.92134
596.514	3907.47182
596.717	3762.44036
596.92	3821.30506
597.122	3699.35408
597.325	3951.59297
597.528	3707.76659
597.73	3951.59297
597.933	3682.52815
598.136	3951.59297
598.338	3850.73162
598.541	3964.19737
598.743	3865.44344
598.946	3892.7628
599.148	3806.59033
599.351	4155.27336
599.554	3957.89526
599.756	3938.98784
599.959	4006.20674
600.161	3922.17986
600.363	3802.38594
600.566	4144.77915
600.768	4146.87803
600.971	4327.30269
601.173	4010.40723
601.376	4216.12936
601.578	3922.17986
601.78	4106.99566
601.983	4037.70839
602.185	4190.94973
602.388	3947.39134
602.59	4184.65434
602.792	4167.86571
602.995	4253.89308
603.197	4023.0082
603.399	4209.83474
603.601	4157.37214
603.804	4161.56963
604.006	4148.97689
604.208	4274.86994
604.41	4075.50425
604.613	4300.03934
604.815	3989.40397
605.017	4362.94925
605.219	4180.45731
605.421	4253.89308
605.623	4132.1854
605.826	4438.41537
606.028	4272.77235
606.23	4388.10776
606.432	4214.03118
606.634	4404.87836
606.836	4142.68024
607.038	4526.42326
607.24	4312.62287
607.442	4346.17518
607.644	4111.19416
607.846	4450.9903
608.048	4144.77915
608.25	4494.99633
608.452	4461.46881
608.654	4494.99633
608.856	4266.47945
609.058	4633.23746
609.26	4207.73649
609.462	4436.31947
609.664	4350.36883
609.866	4507.5677
610.067	4358.75587
610.269	4677.20289
610.471	4379.72194
610.673	4673.01613
610.875	4513.85309
611.077	4652.081
611.278	4442.6071
611.48	4501.28212
611.682	4243.40385
611.884	4704.41461
612.085	4427.93565
612.287	4578.7904
612.489	4547.37178
612.69	4547.37178
612.892	4442.6071
613.094	4587.16785
613.295	4501.28212
613.497	4727.43694
613.699	4555.75057
613.9	4886.42533
614.102	4767.19635
614.304	4821.59068
614.505	4543.18226
614.707	4779.75025
614.908	4450.9903
615.11	4773.4734
615.311	4639.51884
615.513	4752.5491
615.714	4476.13779
615.916	4698.13532
616.117	4438.41537
616.319	4790.21121
616.52	4614.39211
616.722	4844.59904
616.923	4570.41259
617.124	4886.42533
617.326	4576.69598
617.527	4844.59904
617.729	4490.8057
617.93	4788.11906
618.131	4576.69598
618.333	4744.17874
618.534	4769.28872
618.735	4913.60752
618.937	4555.75057
619.138	4809.0395
619.339	4610.20401
619.54	4959.59931
619.742	4815.31519
619.943	4735.80802
620.144	4710.6937
620.345	4919.87978
620.546	4756.73414
620.748	4957.50901
620.949	4681.38956
621.15	4878.06081
621.351	4811.13142
621.552	4903.15329
621.753	4721.1584
621.954	4804.8556
622.155	4696.04218
622.356	4869.69591
622.558	4635.33128
622.759	4953.32836
622.96	4543.18226
623.161	4944.96676
623.362	4802.76361
623.563	4859.23928
623.764	4834.14103
623.965	4984.68105
624.166	4878.06081
624.366	5187.30285
624.567	4698.13532
624.768	5032.7451
624.969	4719.0655
625.17	4896.88048
625.371	4867.60463
625.572	5005.57996
625.773	4861.33065
625.973	5155.98386
626.174	4905.24418
626.375	5078.70797
626.576	5239.48952
626.777	5147.63124
626.977	4760.91909
627.178	5224.87873
627.379	4919.87978
627.58	4911.51672
627.78	4930.33309
627.981	5178.95163
628.182	5080.79693
628.382	5162.24808
628.583	5005.57996
628.784	5066.17376
628.984	5045.28154
629.185	5272.88133
629.386	5007.66973
629.586	5191.47832
629.787	5036.92401
629.987	5329.21643
630.188	4986.77104
630.388	5208.17927
630.589	5016.02855
630.79	5247.83804
630.99	4965.87005
631.191	5222.79137
631.391	5124.65963
631.591	5352.16288
631.792	5229.05336
631.992	5379.27774
632.193	5170.60004
632.393	5245.75094
632.594	5155.98386
632.794	5181.03947
632.994	5097.50774
633.195	5345.90504
633.395	5078.70797
633.595	5362.59214
633.796	5262.44704
633.996	5347.99101
634.196	5181.03947
634.397	5364.67792
634.597	5312.52633
634.797	5429.32553
634.997	5174.77588
635.198	5491.86622
635.398	5036.92401
635.598	5456.42909
635.798	5099.59648
635.998	5420.98517
636.199	5283.31505
636.399	5512.70842
636.599	5118.39416
636.799	5362.59214
636.999	5291.6616
637.199	5304.18072
637.399	5166.42411
637.599	5370.93513
637.799	5181.03947
637.999	5448.08996
638.199	5518.96062
638.399	5402.21799
638.599	5322.95782
638.799	5827.13895
638.999	5600.2199
639.199	5566.8871
639.399	5414.72965
639.599	5571.05403
639.799	5354.24878
639.999	5541.88353
640.199	5287.48837
640.399	5737.65391
640.599	5195.6537
640.799	5612.71815
640.998	5496.03485
641.198	5721.00072
641.398	5498.11913
641.598	5514.79251
641.798	5687.6898
641.997	5564.8036
642.197	5443.92025
642.397	5658.53779
642.597	5300.00777
642.796	5562.72007
642.996	5516.87657
643.196	5902.02309
643.395	5687.6898
643.595	5762.63087
643.795	5714.75538
643.994	5750.14282
644.194	5812.57459
644.394	5716.83719
644.593	5537.71594
644.793	5833.38046
644.992	5512.70842
645.192	5874.98512
645.392	5704.34602
645.591	5931.13645
645.791	5710.59171
645.99	5939.4537
646.19	5662.70265
646.389	6095.33237
646.589	5773.03693
646.788	5889.54452
646.987	5756.38695
647.187	6047.54366
647.386	5679.36113
647.586	5691.854
647.785	5689.77191
647.984	6114.02891
648.184	5795.9282
648.383	6047.54366
648.582	5829.21948
648.782	5933.21579
648.981	5872.90511
649.18	5914.50081
649.38	5854.18397
649.579	6132.72355
649.778	5893.70414
649.977	5881.22501
650.177	5866.66495
650.376	6163.87705
650.575	6037.15316
650.774	5987.27058
650.973	5754.3056
651.173	6087.02218
651.372	5639.79477
651.571	6030.91858
651.77	5812.57459
651.969	6195.02527
652.168	5748.06139
652.367	6234.4721
652.566	5854.18397
652.765	6213.71167
652.964	6020.52714
653.163	6174.26038
653.362	6078.71162
653.561	6095.33237
653.76	6147.26251
653.959	6068.32289
654.158	5912.42125
654.357	6116.10619
654.556	5741.81698
654.755	6153.49314
654.954	5987.27058
655.153	6114.02891
655.352	6213.71167
655.551	6302.96492
655.749	6209.5593
655.948	6267.68393
656.147	6153.49314
656.346	6311.26535
656.545	6122.33788
656.743	6178.41354
656.942	6410.84136
657.141	6255.2302
657.34	6111.95161
657.538	6346.538
657.737	6111.95161
657.936	6547.67081
658.135	6253.15449
658.333	6311.26535
658.532	6298.81457
658.731	6481.34189
658.929	6271.83498
659.128	6363.13456
659.326	6269.75947
659.525	6468.90257
659.724	6263.53278
659.922	6369.35789
660.121	6174.26038
660.319	6313.3404
660.518	6003.89961
660.716	6296.73936
660.915	6311.26535
661.113	6448.16851
661.312	6109.87429
661.51	6470.97585
661.709	6412.91528
661.907	6369.35789
662.105	6205.40684
662.304	6358.98556
662.502	6101.56476
662.701	6446.09498
662.899	6427.43214
663.097	6356.91103
663.296	6159.72356
663.494	6566.32155
663.692	6371.43228
663.891	6547.67081
664.089	6130.64646
664.287	6408.7674
664.485	6195.02527
664.684	6661.61833
664.882	6371.43228
665.08	6541.45348
665.278	6462.6826
665.476	6514.50932
665.675	6296.73936
665.873	6729.95341
666.071	6410.84136
666.269	6311.26535
666.467	6302.96492
666.665	6468.90257
666.863	6269.75947
667.061	6425.35837
667.259	6288.43827
667.457	6404.61943
667.655	6157.64677
667.853	6531.09081
668.051	6244.85144
668.249	6584.97041
668.447	6338.23916
668.645	6431.5796
668.843	6334.0896
669.041	6564.24934
669.239	6199.17797
669.437	6570.4659
669.635	6485.48814
669.833	6329.93995
670.031	6385.95239
670.229	6613.97604
670.426	6435.72697
670.624	6605.68918
670.822	6377.65533
671.02	6642.97715
671.218	6543.52595
671.415	6522.80025
671.613	6273.91048
671.811	6570.4659
672.009	6570.4659
672.206	6713.38963
672.404	6620.19094
672.602	6684.39947
672.799	6371.43228
672.997	6587.04239
673.195	6506.21802
673.392	6388.0266
673.59	6620.19094
673.788	6537.30848
673.985	6305.04007
674.183	6587.04239
674.38	6294.66412
674.578	6663.68946
674.775	6473.0491
674.973	6584.97041
675.17	6429.50588
675.368	6645.04848
675.565	6518.65483
675.763	6570.4659
675.96	6531.09081
676.158	6589.11435
676.355	6460.60923
676.553	6647.11979
676.75	6444.02142
676.947	6624.3341
677.145	6566.32155
677.342	6761.00656
677.539	6344.46333
677.737	6703.03652
677.934	6603.61741
678.131	6555.96026
678.329	6462.6826
678.526	6709.24845
678.723	6609.83266
678.92	6789.98485
679.118	6493.78037
679.315	6684.39947
679.512	6533.16339
679.709	6703.03652
679.906	6481.34189
680.104	6535.23595
680.301	6435.72697
680.498	6373.50665
680.695	6315.41543
680.892	6634.69158
681.089	6493.78037
681.286	6638.83441
681.483	6302.96492
681.68	6717.53071
681.877	6294.66412
682.075	6624.3341
682.272	6489.6343
682.469	6676.11574
682.665	6427.43214
682.862	6526.94557
683.059	6176.33697
683.256	6543.52595
683.453	6275.98595
683.65	6518.65483
683.847	6529.0182
684.044	6473.0491
684.241	6475.12233
684.438	6849.99709
684.635	6444.02142
684.831	6562.1771
685.028	6410.84136
685.225	6535.23595
685.422	6215.78782
685.619	6421.21077
685.815	6379.72963
686.012	6692.68283
686.209	6219.94004
686.405	6516.58208
686.602	6172.18376
686.799	6379.72963
686.996	6468.90257
687.192	6483.41503
687.389	6296.73936
687.586	6537.30848
687.782	6437.80062
687.979	6543.52595
688.175	6329.93995
688.372	6292.58886
688.568	6394.24909
688.765	6385.95239
688.962	6406.69343
689.158	6593.2582
689.355	6502.07223
689.551	6466.82927
689.748	6275.98595
689.944	6647.11979
690.14	6329.93995
690.337	6377.65533
690.533	6255.2302
690.73	6481.34189
690.926	6236.54802
691.123	6398.39729
691.319	6153.49314
691.515	6454.38898
691.712	6388.0266
691.908	6358.98556
692.104	6226.16821
692.301	6448.16851
692.497	6246.92724
692.693	6553.88793
692.889	6188.79605
693.086	6392.17495
693.282	6332.01479
693.478	6574.61016
693.674	6454.38898
693.87	6696.82437
694.067	6466.82927
694.263	6659.54718
694.459	6280.13682
694.655	6605.68918
694.851	6319.56541
695.047	6261.45717
695.243	6329.93995
695.439	6470.97585
695.635	6462.6826
695.831	6444.02142
696.027	6267.68393
696.224	6390.10079
696.42	6371.43228
696.615	6458.53583
696.811	6568.39374
697.007	6487.56123
697.203	6576.68226
697.399	6593.2582
697.595	6280.13682
697.791	6446.09498
697.987	6275.98595
698.183	6493.78037
698.379	6232.39616
698.575	6684.39947
698.77	6265.60836
698.966	6435.72697
699.162	6259.38153
699.358	6584.97041
699.554	6253.15449
699.749	6473.0491
699.945	6485.48814
700.141	6435.72697
700.337	6317.49043
700.532	6249.00301
700.728	6246.92724
700.924	6510.36371
701.119	6228.24422
701.315	6454.38898
701.511	6099.48732
701.706	6336.16439
701.902	6105.71957
702.097	6365.20903
702.293	6136.87766
702.489	6118.18344
702.684	6195.02527
702.88	6282.21221
703.075	6062.08937
703.271	6259.38153
703.466	6230.3202
703.662	6286.36294
703.857	6032.9968
704.053	6396.3232
704.248	6143.10864
704.443	6429.50588
704.639	6149.33941
704.834	6560.10485
705.03	6186.7196
705.225	6417.06307
705.42	6186.7196
705.616	6412.91528
705.811	6147.26251
706.006	6290.51358
706.202	6242.77562
706.397	6251.07876
706.592	6388.0266
706.787	6404.61943
706.983	6269.75947
707.178	6665.76056
707.373	6402.54541
707.568	6468.90257
707.763	6278.06139
707.959	6412.91528
708.154	6319.56541
708.349	6576.68226
708.544	6464.75594
708.739	6361.06007
708.934	6280.13682
709.129	6508.29088
709.324	6340.31391
709.519	6410.84136
709.714	6028.84034
709.909	6499.9993
710.104	5931.13645
710.299	6136.87766
710.494	6240.69978
710.689	6506.21802
710.884	6481.34189
711.079	6273.91048
711.274	6253.15449
711.469	6555.96026
711.664	6163.87705
711.859	6302.96492
712.054	6103.64218
712.249	6199.17797
712.443	6124.41506
712.638	6427.43214
712.833	5879.14507
713.028	6292.58886
713.223	6246.92724
713.417	6385.95239
713.612	6120.26067
713.807	6286.36294
714.002	6037.15316
714.196	6249.00301
714.391	6215.78782
714.586	6275.98595
714.78	6118.18344
714.975	6240.69978
715.17	6045.46561
715.364	6454.38898
715.559	6244.85144
715.754	6118.18344
715.948	6114.02891
716.143	6095.33237
716.337	6012.21357
716.532	6203.33057
716.726	6282.21221
716.921	6460.60923
717.115	6089.09977
717.31	6197.10163
717.504	6089.09977
717.699	6209.5593
717.893	6114.02891
718.088	6176.33697
718.282	6101.56476
718.476	6074.5562
718.671	5775.11808
718.865	6201.25428
719.059	5864.58484
719.254	6170.10712
719.448	6101.56476
719.642	6039.23131
719.837	5820.89722
720.031	6095.33237
720.225	5825.0584
720.419	6035.07499
720.614	5904.10277
720.808	6190.87248
721.002	5866.66495
721.196	6165.95376
721.39	6018.44878
721.585	6300.88976
721.779	5987.27058
721.973	6041.30943
722.167	5825.0584
722.361	6101.56476
722.555	5956.08707
722.749	6205.40684
722.943	5864.58484
723.137	6161.80032
723.331	5735.57235
723.525	6136.87766
723.719	5889.54452
723.913	5997.6639
724.107	5904.10277
724.301	6249.00301
724.495	5839.62176
724.689	6124.41506
724.883	5879.14507
725.077	6145.18559
725.271	5964.40319
725.465	6130.64646
725.659	5914.50081
725.853	6126.49222
726.046	5874.98512
726.24	5960.24518
726.434	5683.52551
726.628	5856.26419
726.822	5779.28029
727.015	6064.16723
727.209	5833.38046
727.403	6182.56662
727.596	5999.7425
727.79	5945.69139
727.984	5696.0181
728.177	6172.18376
728.371	6026.76208
728.565	6082.86695
728.758	6032.9968
728.952	6010.13511
729.146	6018.44878
729.339	6313.3404
729.533	5937.37442
729.726	6093.25486
729.92	5983.11308
730.113	6066.24507
730.307	5785.52343
730.5	5987.27058
730.694	5837.54135
730.887	5810.49387
731.081	5808.41313
731.274	6141.03167
731.468	5756.38695
731.661	5939.4537
731.854	5723.08245
732.048	5947.77057
732.241	5858.34439
732.435	5981.0343
732.628	6122.33788
732.821	6138.95467
733.014	5972.71894
733.208	6051.69969
733.401	5937.37442
733.594	5981.0343
733.788	5908.26206
733.981	6045.46561
734.174	6203.33057
734.367	6118.18344
734.56	6049.62169
734.754	5906.18243
734.947	5983.11308
735.14	6157.64677
735.333	6294.66412
735.526	5831.29998
735.719	5964.40319
735.912	6035.07499
736.105	6128.56935
736.298	5860.42457
736.491	5904.10277
736.684	6020.52714
736.877	6070.40068
737.07	5974.79781
737.263	5766.79337
737.456	6170.10712
737.649	5887.46468
737.842	6022.60548
738.035	5864.58484
738.228	5854.18397
738.421	6014.292
738.614	6197.10163
738.807	6022.60548
739	6014.292
739.192	5929.05707
739.385	6118.18344
739.578	5737.65391
739.771	6037.15316
739.964	5904.10277
740.156	6078.71162
740.349	5916.58035
740.542	6043.38753
740.735	5768.87458
740.927	6020.52714
741.12	5839.62176
741.313	5764.71213
741.505	5845.86285
741.698	5970.64003
741.891	5762.63087
742.083	6082.86695
742.276	6003.89961
742.468	5997.6639
742.661	5779.28029
742.854	5783.44241
743.046	5671.03208
743.239	5854.18397
743.431	5922.81882
743.624	5949.84973
743.816	5804.25158
744.009	5929.05707
744.201	5754.3056
744.393	5831.29998
744.586	5612.71815
744.778	5889.54452
744.971	5845.86285
745.163	5956.08707
745.355	5912.42125
745.548	5864.58484
745.74	5814.65528
745.932	5962.3242
746.125	5837.54135
746.317	6078.71162
746.509	5981.0343
746.702	6016.3704
746.894	5827.13895
747.086	5629.38116
747.278	5820.89722
747.471	5879.14507
747.663	5581.47094
747.855	5671.03208
748.047	5656.45533
748.239	5704.34602
748.431	5604.38608
748.623	5787.60443
748.815	5648.12524
749.008	5854.18397
749.2	5924.89826
749.392	5945.69139
749.584	5745.97994
749.776	5833.38046
749.968	5731.40914
750.16	5770.95577
750.352	5745.97994
750.544	5845.86285
750.736	5914.50081
750.928	5850.02346
751.12	5581.47094
751.311	5783.44241
751.503	5698.10011
751.695	5681.44333
751.887	5839.62176
752.079	5854.18397
752.271	5641.87743
752.463	5887.46468
752.654	5745.97994
752.846	5787.60443
753.038	5598.13678
753.23	5885.38481
753.421	5583.55425
753.613	5735.57235
753.805	5664.78504
753.997	5829.21948
754.188	5696.0181
754.38	5635.6294
754.572	5781.36136
754.763	5727.24584
754.955	5566.8871
755.146	5454.34435
755.338	5523.12863
755.53	5300.00777
755.721	5408.47393
755.913	5506.45601
756.104	5272.88133
756.296	5529.38048
756.487	5514.79251
756.679	5770.95577
756.87	5404.30333
757.062	5579.38761
757.253	5675.19665
757.445	5700.1821
757.636	5610.63517
757.827	5860.42457
758.019	5539.79975
758.21	5479.35978
758.401	5602.303
758.593	5464.76785
758.784	5487.6975
758.975	5412.64444
759.167	5456.42909
759.358	5314.61268
759.549	5423.07029
759.74	5431.41056
759.932	5199.82898
760.123	5414.72965
760.314	5320.87157
760.505	5464.76785
760.696	5293.74818
760.888	5229.05336
761.079	5283.31505
761.27	5556.46936
761.461	5308.35357
761.652	5439.75045
761.843	5141.36654
762.034	5496.03485
762.225	5239.48952
762.416	5356.33465
762.607	5356.33465
762.798	5254.09918
762.989	5395.96184
763.18	5262.44704
763.371	5178.95163
763.562	5153.89574
763.753	5105.86258
763.944	5423.07029
764.135	5162.24808
764.326	5373.02082
764.517	5020.20783
764.708	5222.79137
764.899	5120.48267
765.089	5322.95782
765.28	4961.68958
765.471	5395.96184
765.662	4961.68958
765.853	5141.36654
766.043	5112.12847
766.234	5041.10282
766.425	4942.87631
766.615	5047.37087
766.806	4995.13079
766.997	5047.37087
767.187	5133.01327
767.378	5206.09173
767.569	5114.21706
767.759	5272.88133
767.95	4982.59103
768.141	5145.54303
768.331	5089.15252
768.522	4936.6048
768.712	5114.21706
768.903	5153.89574
769.093	4915.6983
769.284	4967.96026
769.474	4863.422
769.665	5009.75947
769.855	5089.15252
770.046	4986.77104
770.236	4970.05044
770.426	4725.34412
770.617	5059.90633
770.807	4909.4259
770.998	4852.96503
771.188	4725.34412
771.378	4595.54495
771.569	4886.42533
771.759	4585.07352
771.949	4574.60154
772.139	4896.88048
772.33	4666.73583
772.52	4520.13828
772.71	4746.27136
772.9	4568.31808
773.09	4821.59068
773.281	4668.82929
773.471	4400.68584
773.661	4861.33065
773.851	4932.42369
774.041	4639.51884
774.231	4639.51884
774.421	4700.22844
774.611	4526.42326
774.802	4532.70805
774.992	4687.66939
775.182	4528.51821
775.372	4465.66006
775.562	4444.70293
775.752	4779.75025
775.942	4645.80002
776.131	4777.65799
776.321	4459.37315
776.511	4691.85583
776.701	4622.76805
776.891	4806.94756
777.081	4518.04323
777.271	4706.50767
777.461	4499.18688
777.651	4624.86197
777.84	4400.68584
778.03	4543.18226
778.22	4419.55149
778.41	4643.70632
778.599	4211.93297
778.789	4543.18226
778.979	4501.28212
779.169	4497.09162
779.358	4509.66285
779.548	4543.18226
779.738	4220.32567
779.927	4635.33128
780.117	4297.942
780.307	4430.03164
780.496	4331.49673
780.686	4505.47253
780.875	4136.3834
781.065	4601.82754
781.254	4300.03934
781.444	4430.03164
781.633	4247.59961
781.823	4386.01134
782.012	4417.45539
782.202	4390.20416
782.391	4020.90809
782.581	4241.30594
782.77	4127.98732
782.96	4323.10856
783.149	4165.76704
783.338	4182.55583
783.528	4297.942
783.717	4279.06505
783.906	4270.67474
784.096	4295.84465
784.285	4123.78916
784.474	4243.40385
784.663	4335.69068
784.853	4287.45502
785.042	4157.37214
785.231	4065.00607
785.42	4090.20082
785.61	4172.063
785.799	4148.97689
785.988	4220.32567
786.177	3964.19737
786.366	4190.94973
786.555	4090.20082
786.744	4237.11006
786.933	4268.57711
787.122	4090.20082
787.312	4157.37214
787.501	4010.40723
787.69	3829.71305
787.879	4090.20082
788.068	3976.80104
788.257	3959.99598
788.445	3747.72178
788.634	3936.88691
788.823	3966.29803
789.012	3997.80552
789.201	3871.74821
789.39	3890.66143
789.579	3625.73161
789.768	4065.00607
789.957	3749.82449
790.145	4102.79707
790.334	3821.30506
790.523	4006.20674
790.712	3766.64549
790.9	3804.48814
791.089	3730.89939
791.278	3896.96548
791.467	3871.74821
791.655	4065.00607
791.844	3850.73162
792.033	3957.89526
792.221	3762.44036
792.41	3928.483
792.599	3512.09754
792.787	4075.50425
792.976	3936.88691
793.164	3836.01883
793.353	3726.6936
793.541	3779.26041
793.73	3613.10829
793.918	3989.40397
794.107	3629.93923
794.295	3770.85054
794.484	3791.87463
794.672	3781.36283
794.861	3543.66797
795.049	3814.99887
795.238	3642.56165
795.426	3892.7628
795.614	3741.41353
795.803	3922.17986
795.991	3804.48814
796.179	3875.95129
796.368	3543.66797
796.556	4111.19416
796.744	3814.99887
796.932	3804.48814
797.121	3465.78681
797.309	3659.39049
797.497	3720.38477
797.685	3745.61905
797.874	3678.32147
798.062	3777.15797
798.25	3613.10829
798.438	3703.56037
798.626	3509.99269
798.814	3619.42003
799.002	3589.96377
799.19	3627.83543
799.378	3335.22822
799.566	3509.99269
799.755	3425.78415
799.943	3657.28695
800.131	3522.62147
800.318	3650.97622
800.506	3459.47103
800.694	3549.98156
800.882	3371.03327
801.07	3562.60825
801.258	3598.38022
801.446	3665.70099
801.634	3484.73317
801.822	3611.00433
802.01	3451.04974
802.197	3493.1533
802.385	3425.78415
802.573	3562.60825
802.761	3333.12188
802.949	3560.50385
803.136	3307.8445
803.324	3526.83092
803.512	3497.36326
803.699	3705.66349
803.887	3442.62816
804.075	3653.07982
804.262	3619.42003
804.45	3619.42003
804.638	3472.10242
804.825	3659.39049
805.013	3486.83823
805.201	3791.87463
805.388	3408.939
805.576	3722.48773
805.763	3520.51672
805.951	3478.41788
806.138	3535.24959
806.326	3537.35422
806.513	3307.8445
806.701	3518.41195
806.888	3650.97622
807.075	3808.69249
807.263	3463.68156
807.45	3770.85054
807.638	3560.50385
807.825	3596.27613
808.012	3512.09754
808.2	3636.25053
808.387	3476.31274
808.574	3783.46523
808.761	3436.31179
808.949	3741.41353
809.136	3724.59068
809.323	3711.97273
809.51	3613.10829
809.698	3629.93923
809.885	3442.62816
810.072	3657.28695
810.259	3566.81699
810.446	3554.19053
810.633	3531.04029
810.82	3867.54505
811.008	3661.49401
811.195	3896.96548
811.382	3556.29499
811.569	3783.46523
811.756	3501.57314
811.943	3625.73161
812.13	3472.10242
812.317	3716.17879
812.504	3484.73317
812.691	3798.18148
812.878	3526.83092
813.064	3730.89939
813.251	3455.26042
813.438	3926.38198
813.625	3495.25829
813.812	3724.59068
813.999	3368.92723
814.186	3564.71263
814.372	3554.19053
814.559	3754.02986
814.746	3307.8445
814.933	3400.516
815.12	3360.5029
815.306	3571.02567
815.493	3552.08606
815.68	3512.09754
815.866	3518.41195
816.053	3577.33853
816.24	3442.62816
816.426	3711.97273
816.613	3613.10829
816.799	3577.33853
816.986	3596.27613
817.173	3871.74821
817.359	3467.89203
817.546	3762.44036
817.732	3375.2453
817.919	3789.77231
818.105	3592.06791
818.292	3505.78296
818.478	3518.41195
818.665	3672.01131
818.851	3309.95105
819.037	3703.56037
819.224	3349.97208
819.41	3785.56761
819.597	3571.02567
819.783	3545.77252
819.969	3459.47103
820.156	3703.56037
820.342	3505.78296
820.528	3453.15509
820.714	3486.83823
820.901	3672.01131
821.087	3501.57314
821.273	3655.18339
821.459	3568.92134
821.646	3611.00433
821.832	3400.516
822.018	3535.24959
822.204	3172.99069
822.39	3453.15509
822.576	3210.92522
822.762	3535.24959
822.948	3366.82118
823.134	3429.99526
823.32	3244.64031
823.507	3505.78296
823.693	3318.37705
823.879	3459.47103
824.065	3293.09823
824.25	3371.03327
824.436	3303.63137
824.622	3389.98685
824.808	3427.88971
824.994	3547.87705
825.18	3293.09823
825.366	3345.75964
825.552	3206.71054
825.738	3368.92723
825.923	3301.52477
826.109	3476.31274
826.295	3320.4835
826.481	3549.98156
826.667	3505.78296
826.852	3392.09272
827.038	3202.49579
827.224	3526.83092
827.409	3238.31906
827.595	3484.73317
827.781	3166.66775
827.966	3250.96142
828.152	3088.67291
828.338	3227.7833
828.523	3042.28732
828.709	3250.96142
828.894	3059.15568
829.08	3092.8894
829.266	3073.91468
829.451	3272.03067
829.637	3078.13139
829.822	3316.27057
830.008	2945.27527
830.193	3042.28732
830.378	2960.04003
830.564	3248.8544
830.749	2930.50979
830.935	3221.46165
831.12	2953.71237
831.305	3274.1375
831.491	3016.98293
831.676	2962.14922
831.861	2945.27527
832.047	3177.2059
832.232	2949.49385
832.417	3105.53851
832.602	2803.91955
832.788	3033.85277
832.973	2987.45835
833.158	3019.09171
833.343	2938.9473
833.528	3185.63612
833.714	2841.90197
833.899	3078.13139
834.084	2928.40038
834.269	3092.8894
834.454	2742.7163
834.639	3231.99765
834.824	2928.40038
835.009	2905.19587
835.194	2806.0298
835.379	3014.87413
835.564	2911.52454
835.749	3189.85114
835.934	2957.93082
836.119	3172.99069
836.304	2905.19587
836.489	2998.00319
836.674	2869.3309
836.859	3082.34805
837.044	2841.90197
837.228	2943.16596
837.413	2732.16288
837.598	3151.91365
837.783	2778.59545
837.968	2945.27527
838.152	2742.7163
838.337	2810.25026
838.522	2844.01198
838.707	2953.71237
838.891	2839.79196
839.076	2679.39085
839.261	2677.2798
839.445	2742.7163
839.63	2694.16783
839.815	2846.12196
839.999	2829.24167
840.184	2871.44072
840.368	2784.92666
840.553	2825.02145
840.737	2744.82695
840.922	2675.16874
841.106	2569.59974
841.291	2734.27359
841.475	2649.83501
841.66	2776.48502
841.844	2518.91593
842.029	2683.61291
842.213	2616.05389
842.397	2430.20355
842.582	2584.38124
842.766	2605.49664
842.951	2409.07873
843.135	2649.83501
843.319	2316.11731
843.504	2491.45944
843.688	2311.89134
843.872	2559.04117
844.056	2518.91593
844.241	2628.72218
844.425	2430.20355
844.609	2569.59974
844.793	2409.07873
844.977	2390.06549
845.161	2227.364
845.346	2514.69198
845.53	2430.20355
845.714	2620.2767
845.898	2354.14933
846.082	2385.84021
846.266	2320.34325
846.45	2476.67438
846.634	2347.81088
846.818	2527.3637
847.002	2252.72373
847.186	2573.82309
847.37	2379.50222
847.554	2580.15801
847.738	2354.14933
847.922	2599.16215
848.106	2125.91276
848.29	2362.60046
848.473	2208.34336
848.657	2328.795
848.841	2212.57023
849.025	2288.64779
849.209	1969.47454
849.392	2244.27063
849.576	2001.188
849.76	2311.89134
849.944	2168.18642
850.127	2303.43927
850.311	2134.36775
850.495	2398.51592
850.678	2083.63599
850.862	2417.52879
851.046	1990.61701
851.229	2252.72373
851.413	2254.83699
851.596	2244.27063
851.78	2043.47034
851.964	2275.96902
852.147	2168.18642
852.331	2028.67183
852.514	1990.61701
852.698	2119.57144
852.881	1882.78425
853.065	2385.84021
853.248	2060.38251
853.431	2187.20851
853.615	2011.75884
853.798	2096.31934
853.982	2011.75884
854.165	1973.70308
854.348	1982.1601
854.532	2077.29422
854.715	1927.18779
854.898	1918.73016
855.081	1906.04355
855.265	2083.63599
855.448	1889.12776
855.631	1865.86801
855.814	1789.74111
855.997	2015.98712
856.181	1901.81463
856.364	1908.158
856.547	1787.6264
856.73	1948.33146
856.913	1865.86801
857.096	2119.57144
857.279	1755.90515
857.462	1863.75345
857.645	1734.75718
857.828	1961.01738
858.011	1774.938
858.194	1975.81735
858.377	1620.55273
858.56	1846.83685
858.743	1741.10161
858.926	1730.52754
859.109	1764.36423
859.292	1889.12776
859.475	1605.74791
859.658	1825.69066
859.841	1563.44793
860.023	1673.42618
860.206	1582.483
860.389	1825.69066
860.572	1664.96653
860.755	1857.40976
860.937	1624.78266
861.12	1861.63889
861.303	1626.89762
861.486	1673.42618
861.668	1559.2179
861.851	1796.08524
862.034	1590.943
862.216	1571.90798
862.399	1373.09412
862.581	1425.97019
862.764	1375.20915
862.947	1709.37915
863.129	1588.828
863.312	1641.70229
863.494	1468.27123
863.677	1516.91731
863.859	1474.61638
864.042	1554.98786
864.224	1525.37746
864.406	1525.37746
864.589	1349.82882
864.771	1466.15618
864.954	1529.60753
865.136	1390.01441
865.318	1373.09412
865.501	1411.16485
865.683	1337.13873
865.865	1559.2179
866.048	1273.68922
866.23	1404.81971
866.412	1290.60891
866.594	1445.00565
866.777	1280.03409
866.959	1563.44793
867.141	1197.55274
867.323	1381.55426
867.505	1246.19506
867.687	1337.13873
867.869	1366.74902
868.052	1468.27123
868.234	1212.35674
868.416	1413.2799
868.598	1339.25374
868.78	1364.63399
868.962	1313.87371
869.144	1356.17389
869.326	1328.6787
869.508	1432.31534
869.69	1313.87371
869.872	1366.74902
870.054	1328.6787
870.236	1309.64373
870.417	1222.93113
870.599	1385.78433
870.781	1127.76487
870.963	1483.07658
871.145	1288.49394
871.327	1254.65476
871.508	1189.09338
871.69	1335.02372
871.872	1170.06004
872.054	1330.79371
872.235	1239.85032
872.417	1339.25374
872.599	1271.57427
872.78	1349.82882
872.962	1081.24227
873.144	1303.29877
873.325	1170.06004
873.507	1292.72388
873.689	1085.4715
873.87	1214.47162
874.052	1104.50328
874.233	1294.83886
874.415	1326.5637
874.596	1546.52777
874.778	1140.45325
874.959	1258.88462
875.141	1110.84729
875.322	1239.85032
875.503	1216.58649
875.685	1263.11449
875.866	1280.03409
876.048	1254.65476
876.229	1104.50328
876.41	1258.88462
876.592	1093.93002
876.773	1231.3907
876.954	1254.65476
877.136	1263.11449
877.317	1043.18016
877.498	1191.20821
877.679	1131.99431
877.86	1307.52874
878.042	1096.04466
878.223	1233.5056
878.404	1032.60768
878.585	1233.5056
878.766	1195.43789
878.947	1315.9887
879.128	1174.28964
879.309	1178.51926
879.49	1119.30605
879.672	1322.33369
879.853	1157.37131
880.034	1136.22377
880.215	1189.09338
880.396	1364.63399
880.576	1235.6205
880.757	1254.65476
880.938	1165.83045
881.119	1457.69597
881.3	1241.96523
881.481	1273.68922
881.662	1157.37131
881.843	1318.1037
882.023	1229.27581
882.204	1309.64373
882.385	1189.09338
882.566	1227.16091
882.747	1119.30605
882.927	1373.09412
883.108	1144.68274
883.289	1275.80418
883.469	1265.22943
883.65	1356.17389
883.831	1083.35688
884.011	1296.95383
884.192	1241.96523
884.373	1398.47458
884.553	1339.25374
884.734	1381.55426
884.914	1271.57427
885.095	1360.40394
885.275	1157.37131
885.456	1415.39495
885.636	1256.76969
885.817	1457.69597
885.997	1267.34438
886.178	1478.84648
886.358	1248.30998
886.538	1186.97855
886.719	1282.14905
886.899	1415.39495
887.08	1286.37898
887.26	1366.74902
887.44	1131.99431
887.621	1442.8906
887.801	1178.51926
887.981	1373.09412
888.161	1284.26401
888.342	1335.02372
888.522	1406.93476
888.702	1356.17389
888.882	1237.73541
889.062	1375.20915
889.242	1237.73541
889.423	1360.40394
889.603	1131.99431
889.783	1277.91913
889.963	1159.48609
890.143	1419.62504
890.323	1258.88462
890.503	1256.76969
890.683	1170.06004
890.863	1254.65476
891.043	1330.79371
891.223	1432.31534
891.403	1237.73541
891.583	1457.69597
891.763	1254.65476
891.943	1339.25374
892.122	1148.91225
892.302	1309.64373
892.482	1136.22377
892.662	1197.55274
892.842	1153.14177
893.022	1229.27581
893.201	1220.81625
893.381	1419.62504
893.561	1199.66758
893.741	1320.2187
893.92	1178.51926
894.1	1267.34438
894.28	1112.96198
894.459	1341.36876
894.639	1208.12701
894.819	1220.81625
894.998	1140.45325
895.178	1112.96198
895.357	1106.61795
895.537	1184.86372
895.716	1102.38862
895.896	1326.5637
896.075	1070.66929
896.255	1091.81538
896.434	1077.01306
896.614	1290.60891
896.793	1108.73262
896.973	1110.84729
897.152	1066.44013
897.331	1153.14177
897.511	1117.19135
897.69	1110.84729
897.87	1072.78387
898.049	952.26187
898.228	1049.52372
898.407	981.86185
898.587	1089.70075
898.766	1206.01215
898.945	954.37611
899.124	1155.25654
899.304	1127.76487
899.483	1275.80418
899.662	895.18018
899.841	1068.55471
900.02	924.77741
900.199	1144.68274
900.378	983.97619
900.557	1074.89846
900.737	899.40826
900.916	907.86452
901.095	766.24031
901.274	945.91919
901.453	857.12892
901.632	918.43502
901.811	831.76294
901.989	882.49613
902.168	840.21813
902.347	933.23403
902.526	740.87925
902.705	859.24281
902.884	874.04026
903.063	971.29028
903.242	848.67345
903.42	825.42165
903.599	747.21937
903.778	895.18018
903.957	842.33194
904.135	823.3079
904.314	679.59635
904.493	742.99261
904.672	664.80534
904.85	675.37029
905.029	766.24031
905.207	867.69844
905.386	696.50105
905.565	747.21937
905.743	548.61126
905.922	688.04861
906.1	531.71362
906.279	709.18005
906.457	586.63414
906.636	641.5635
906.814	567.62216
906.993	673.25728
907.171	552.83581
907.35	580.2967
907.528	614.09776
907.707	654.24069
907.885	571.84695
908.063	611.98509
908.242	544.38677
908.42	569.73455
908.598	455.68561
908.777	546.49901
908.955	493.69724
909.133	580.2967
909.311	557.06041
909.49	569.73455
909.668	360.67883
909.846	609.87244
910.024	417.67897
910.202	542.27454
910.38	544.38677
910.559	535.93795
910.737	502.14492
910.915	618.32312
911.093	478.91436
911.271	707.06685
911.449	402.9
911.627	521.15305
911.805	493.69724
911.983	592.97171
912.161	533.82578
912.339	521.15305
912.517	582.40916
912.695	597.19681
912.872	559.17274
913.05	698.61419
913.228	487.36163
913.406	662.69239
913.584	557.06041
913.762	599.30939
913.939	624.66125
914.117	510.59283
914.295	445.1277
914.473	571.84695
914.65	607.75981
914.828	578.18424
915.006	529.60148
915.184	485.24979
915.361	533.82578
915.539	544.38677
915.716	447.23925
915.894	512.70485
916.072	493.69724
916.249	540.16233
916.427	523.26513
916.604	476.80258
916.782	411.34503
916.959	664.80534
917.137	481.02615
917.314	605.64718
917.492	489.47348
917.669	527.48935
917.847	369.12252
918.024	523.26513
918.201	485.24979
918.379	603.53457
918.556	326.9068
918.733	438.79314
918.911	392.34408
919.088	388.12183
919.265	434.57018
919.442	462.02054
919.62	434.57018
919.797	447.23925
919.974	400.78878
920.151	299.47036
920.328	400.78878
920.506	485.24979
920.683	409.23374
920.86	489.47348
921.037	383.89964
921.214	430.34728
921.391	324.7962
921.568	409.23374
921.745	447.23925
921.922	457.79724
922.099	371.23349
922.276	396.5664
922.453	297.36
922.63	405.01123
922.807	417.67897
922.984	409.23374
923.161	274.14716
923.338	447.23925
923.514	293.13931
923.691	345.90302
923.868	354.34623
924.045	318.4645
924.222	375.45547
924.399	352.2354
924.575	348.0138
924.752	396.5664
924.929	356.45708
925.105	443.01617
925.282	375.45547
925.459	316.35397
925.635	350.12459
925.812	371.23349
925.989	267.81677
926.165	350.12459
926.342	293.13931
926.518	322.68561
926.695	293.13931
926.871	326.9068
927.048	238.27725
927.224	371.23349
927.401	227.72833
927.577	185.53762
927.754	238.27725
927.93	282.58793
928.107	293.13931
928.283	257.26651
928.459	274.14716
928.636	244.60683
928.812	215.07028
928.988	310.02248
929.165	250.93658
929.341	265.70668
929.517	244.60683
929.693	223.5089
929.87	198.19399
930.046	189.75633
930.222	299.47036
930.398	198.19399
930.574	257.26651
930.751	248.82665
930.927	177.10045
931.103	307.91202
931.279	187.64696
931.455	244.60683
931.631	185.53762
931.807	236.16742
931.983	206.63197
932.159	225.6186
932.335	240.38709
932.511	248.82665
932.687	215.07028
932.863	244.60683
933.039	208.74152
933.215	215.07028
933.391	137.02842
933.566	56.90779
933.742	181.31899
933.918	145.464
934.094	145.464
934.27	172.88198
934.445	126.48442
934.621	191.86571
934.797	198.19399
934.973	139.13728
935.148	103.28953
935.324	208.74152
935.5	90.63889
935.675	96.96411
935.851	147.57295
936.027	75.88082
936.202	105.39804
936.378	160.22709
936.553	153.89993
936.729	80.0973
936.904	31.61332
937.08	84.31387
937.255	29.5056
937.431	101.18103
937.606	96.96411
937.782	143.35507
937.957	29.5056
938.133	113.83233
938.308	130.70195
938.483	71.66443
938.659	71.66443
938.834	120.15828
939.009	46.36803
939.185	109.61514
939.36	40.04444
939.535	21.07496
939.71	71.66443
939.886	122.26697
940.061	113.83233
940.236	96.96411
940.411	40.04444
940.586	0
940.761	96.96411
940.937	12.64469
941.112	59.01582
941.287	14.75222
941.462	52.69182
941.637	14.75222
941.812	65.34002
941.987	96.96411
942.162	92.74727
942.337	29.5056
942.512	-12.64382
942.687	29.5056
942.862	90.63889
943.037	16.85977
943.212	31.61332
943.386	54.79979
943.561	46.36803
943.736	46.36803
943.911	-6.32202
944.086	-35.82187
944.26	-71.63655
944.435	42.15228
944.61	-10.53658
944.785	54.79979
944.959	54.79979
945.134	90.63889
945.309	52.69182
945.483	12.64469
945.658	23.18258
945.833	61.12386
946.007	63.23193
946.182	21.07496
946.357	56.90779
946.531	88.53052
946.706	40.04444
946.88	21.07496
947.055	25.29023
947.229	-12.64382
947.404	29.5056
947.578	25.29023
947.752	63.23193
947.927	56.90779
948.101	75.88082
948.276	21.07496
948.45	16.85977
948.624	37.93663
948.799	31.61332
948.973	65.34002
949.147	63.23193
949.321	37.93663
949.496	-2.10736
949.67	73.77262
949.844	37.93663
950.018	75.88082
950.193	65.34002
950.367	94.85568
950.541	31.61332
950.715	6.32224
950.889	46.36803
951.063	21.07496
951.237	130.70195
951.411	48.47593
951.585	37.93663
951.759	54.79979
951.933	42.15228
952.107	27.39791
952.281	50.58386
952.455	23.18258
952.629	88.53052
952.803	48.47593
952.977	105.39804
953.151	113.83233
953.325	10.53718
953.499	48.47593
953.672	122.26697
953.846	109.61514
954.02	80.0973
954.194	0
954.368	35.82884
954.541	52.69182
954.715	71.66443
954.889	67.44814
955.062	109.61514
955.236	63.23193
955.41	31.61332
955.583	21.07496
955.757	54.79979
955.93	63.23193
956.104	130.70195
956.278	-23.17966
956.451	-63.21022
956.625	33.72107
956.798	40.04444
956.972	-52.67674
957.145	46.36803
957.319	48.47593
957.492	40.04444
957.665	73.77262
957.839	130.70195
958.012	18.96735
958.185	21.07496
958.359	82.20557
958.532	54.79979
958.705	42.15228
958.879	23.18258
959.052	4.2148
959.225	88.53052
959.398	80.0973
959.572	-23.17966
959.745	56.90779
959.918	-25.28676
960.091	50.58386
960.264	40.04444
960.438	80.0973
960.611	21.07496
960.784	54.79979
960.957	23.18258
961.13	75.88082
961.303	6.32224
961.476	63.23193
961.649	82.20557
961.822	12.64469
961.995	42.15228
962.168	-12.64382
962.341	50.58386
962.514	12.64469
962.686	141.24617
962.859	37.93663
963.032	12.64469
963.205	-4.2147
963.378	-21.07254
963.551	42.15228
963.723	37.93663
963.896	21.07496
964.069	75.88082
964.242	-8.42931
964.414	37.93663
964.587	-21.07254
964.76	-33.71489
964.932	37.93663
965.105	63.23193
965.278	-12.64382
965.45	50.58386
965.623	59.01582
965.795	139.13728
965.968	10.53718
966.14	69.55627
966.313	96.96411
966.485	42.15228
966.658	71.66443
966.83	31.61332
967.003	37.93663
967.175	63.23193
967.348	63.23193
967.52	35.82884
967.692	44.26014
967.865	46.36803
968.037	88.53052
968.209	50.58386
968.382	0
968.554	37.93663
968.726	-4.2147
968.898	-10.53658
969.071	88.53052
969.243	23.18258
969.415	-12.64382
969.587	25.29023
969.759	12.64469
969.932	-27.39383
970.104	88.53052
970.276	42.15228
970.448	88.53052
970.62	-21.07254
970.792	130.70195
970.964	29.5056
971.136	8.4297
971.308	12.64469
971.48	27.39791
971.652	-12.64382
971.824	67.44814
971.996	18.96735
972.168	63.23193
972.339	35.82884
972.511	29.5056
972.683	48.47593
972.855	25.29023
973.027	-4.2147
973.199	71.66443
973.37	6.32224
973.542	63.23193
973.714	48.47593
973.886	37.93663
974.057	40.04444
974.229	33.72107
974.401	25.29023
974.572	-18.9654
974.744	21.07496
974.915	4.2148
975.087	37.93663
975.259	29.5056
975.43	8.4297
975.602	141.24617
975.773	31.61332
975.945	113.83233
976.116	88.53052
976.288	-4.2147
976.459	48.47593
976.63	103.28953
976.802	-21.07254
976.973	73.77262
977.145	-46.35635
977.316	6.32224
977.487	29.5056
977.659	37.93663
977.83	25.29023
978.001	-6.32202
978.172	61.12386
978.344	59.01582
978.515	46.36803
978.686	6.32224
978.857	52.69182
979.028	16.85977
979.2	16.85977
979.371	29.5056
979.542	-2.10736
979.713	65.34002
979.884	-4.2147
980.055	46.36803
980.226	103.28953
980.397	-18.9654
980.568	-4.2147
980.739	37.93663
980.91	46.36803
981.081	-52.67674
981.252	0
981.423	63.23193
981.594	14.75222
981.765	4.2148
981.936	52.69182
982.106	25.29023
982.277	56.90779
982.448	-29.50088
982.619	56.90779
982.79	0
982.96	54.79979
983.131	2.10739
983.302	12.64469
983.472	88.53052
983.643	63.23193
983.814	27.39791
983.984	-21.07254
984.155	54.79979
984.326	61.12386
984.496	-25.28676
984.667	31.61332
984.837	14.75222
985.008	-8.42931
985.178	-21.07254
985.349	80.0973
985.519	-42.14263
985.69	-10.53658
985.86	82.20557
986.031	48.47593
986.201	-12.64382
986.371	31.61332
986.542	-29.50088
986.712	42.15228
986.882	46.36803
987.053	0
987.223	4.2148
987.393	88.53052
987.563	52.69182
987.734	63.23193
987.904	35.82884
988.074	33.72107
988.244	56.90779
988.414	27.39791
988.585	0
988.755	59.01582
988.925	23.18258
989.095	-10.53658
989.265	-4.2147
989.435	-25.28676
989.605	42.15228
989.775	33.72107
989.945	8.4297
990.115	6.32224
990.285	23.18258
990.455	2.10739
990.625	-10.53658
990.795	6.32224
990.965	65.34002
991.134	33.72107
991.304	71.66443
991.474	88.53052
991.644	54.79979
991.814	29.5056
991.984	0
992.153	-29.50088
992.323	-12.64382
992.493	67.44814
992.662	50.58386
992.832	48.47593
993.002	50.58386
993.171	-2.10736
993.341	2.10739
993.511	73.77262
993.68	-10.53658
993.85	4.2148
994.019	69.55627
994.189	-29.50088
994.358	27.39791
994.528	-29.50088
994.697	-2.10736
994.867	-4.2147
995.036	21.07496
995.206	-16.85823
995.375	88.53052
995.544	56.90779
995.714	-4.2147
995.883	48.47593
996.052	21.07496
996.222	21.07496
996.391	0
996.56	14.75222
996.73	23.18258
996.899	56.90779
997.068	42.15228
997.237	29.5056
997.406	-29.50088
997.576	113.83233
997.745	71.66443
997.914	23.18258
998.083	63.23193
998.252	-31.6079
998.421	-12.64382
998.59	67.44814
998.759	-6.32202
998.928	54.79979
999.097	-6.32202
999.266	-33.71489
999.435	-4.2147
999.604	-2.10736
999.773	56.90779
999.942	14.75222
1000.111	0
1000.28	33.72107
1000.448	-16.85823
1000.617	-10.53658
1000.786	-8.42931
1000.955	46.36803
1001.124	54.79979
1001.292	-12.64382
1001.461	92.74727
1001.63	-18.9654
1001.798	16.85977
1001.967	56.90779
1002.136	59.01582
1002.304	12.64469
1002.473	27.39791
1002.642	29.5056
1002.81	54.79979
1002.979	23.18258
1003.147	37.93663
1003.316	-4.2147
1003.484	-4.2147
1003.653	21.07496
1003.821	-18.9654
1003.99	4.2148
1004.158	23.18258
1004.327	-63.21022
1004.495	21.07496
1004.663	-18.9654
1004.832	54.79979
1005	31.61332
1005.168	44.26014
1005.337	-58.9969
1005.505	31.61332
1005.673	59.01582
1005.842	-10.53658
1006.01	14.75222
1006.178	10.53718
1006.346	-4.2147
1006.514	14.75222
1006.683	-14.75104
1006.851	-42.14263
1007.019	-46.35635
1007.187	8.4297
1007.355	4.2148
1007.523	4.2148
1007.691	35.82884
1007.859	-4.2147
1008.027	14.75222
1008.195	-12.64382
1008.363	-42.14263
1008.531	16.85977
1008.699	-50.56997
1008.867	-37.92881
1009.035	27.39791
1009.203	14.75222
1009.37	-35.82187
1009.538	46.36803
1009.706	54.79979
1009.874	10.53718
1010.042	86.42218
1010.209	46.36803
1010.377	14.75222
1010.545	31.61332
1010.713	50.58386
1010.88	-21.07254
1011.048	44.26014
1011.216	31.61332
1011.383	8.4297
1011.551	8.4297
1011.718	54.79979
1011.886	23.18258
1012.054	14.75222
1012.221	-23.17966
1012.389	40.04444
1012.556	37.93663
1012.724	-8.42931
1012.891	-35.82187
1013.058	50.58386
1013.226	-33.71489
1013.393	33.72107
1013.561	-4.2147
1013.728	-21.07254
1013.895	-23.17966
1014.063	54.79979
1014.23	59.01582
1014.397	-63.21022
1014.565	56.90779
1014.732	37.93663
1014.899	63.23193
1015.066	71.66443
1015.233	-27.39383
1015.401	54.79979
1015.568	63.23193
1015.735	16.85977
1015.902	48.47593
1016.069	23.18258
1016.236	-8.42931
1016.403	16.85977
1016.57	71.66443
1016.737	0
1016.904	-29.50088
1017.071	-42.14263
1017.238	48.47593
1017.405	-6.32202
1017.572	-33.71489
1017.739	0
1017.906	-96.91306
1018.073	6.32224
1018.24	8.4297
1018.407	-33.71489
1018.573	-10.53658
1018.74	25.29023
1018.907	6.32224
1019.074	-12.64382
1019.241	-29.50088
1019.407	14.75222
1019.574	80.0973
1019.741	-44.2495
1019.907	25.29023
1020.074	16.85977
1020.241	16.85977
1020.407	-56.89021
1020.574	33.72107
1020.74	8.4297
1020.907	-27.39383
1021.073	-29.50088
1021.24	35.82884
1021.406	33.72107
1021.573	-40.03573
1021.739	4.2148
1021.906	4.2148
1022.072	54.79979
1022.239	21.07496
1022.405	4.2148
1022.571	-90.59428
1022.738	12.64469
1022.904	37.93663
1023.07	59.01582
1023.237	-12.64382
1023.403	-12.64382
1023.569	-25.28676
1023.735	61.12386
1023.902	52.69182
1024.068	-23.17966
1024.234	16.85977
1024.4	4.2148
1024.566	29.5056
1024.732	65.34002
1024.898	-27.39383
1025.065	-52.67674
1025.231	-10.53658
1025.397	-71.63655
1025.563	29.5056
1025.729	48.47593
1025.895	21.07496
1026.061	-67.42343
1026.227	31.61332
1026.392	-10.53658
1026.558	42.15228
1026.724	92.74727
1026.89	-75.84956
1027.056	-10.53658
1027.222	35.82884
1027.388	-18.9654
1027.553	-12.64382
1027.719	0
1027.885	2.10739
1028.051	-25.28676
1028.216	-6.32202
1028.382	-4.2147
1028.548	-46.35635
1028.713	-2.10736
1028.879	63.23193
1029.045	54.79979
1029.21	25.29023
1029.376	46.36803
1029.541	-12.64382
1029.707	-61.10358
1029.873	-27.39383
1030.038	59.01582
1030.204	-8.42931
1030.369	48.47593
1030.534	-86.38163
1030.7	-25.28676
1030.865	14.75222
1031.031	12.64469
1031.196	8.4297
1031.361	-18.9654
1031.527	4.2148
1031.692	63.23193
1031.857	-35.82187
1032.023	-12.64382
1032.188	37.93663
1032.353	21.07496
1032.518	-4.2147
1032.684	10.53718
1032.849	-103.2316
1033.014	37.93663
1033.179	6.32224
1033.344	42.15228
1033.509	80.0973
1033.674	-21.07254
1033.839	63.23193
1034.004	-27.39383
1034.17	23.18258
1034.335	-35.82187
1034.5	-12.64382
1034.664	-27.39383
1034.829	21.07496
1034.994	-25.28676
1035.159	31.61332
1035.324	-37.92881
1035.489	-16.85823
1035.654	25.29023
1035.819	21.07496
1035.984	21.07496
1036.148	-2.10736
1036.313	46.36803
1036.478	-4.2147
1036.643	-63.21022
1036.807	21.07496
1036.972	-25.28676
1037.137	4.2148
1037.301	44.26014
1037.466	-2.10736
1037.631	14.75222
1037.795	105.39804
1037.96	-4.2147
1038.124	50.58386
1038.289	16.85977
1038.454	6.32224
1038.618	46.36803
1038.783	4.2148
1038.947	29.5056
1039.111	40.04444
1039.276	10.53718
1039.44	-21.07254
1039.605	80.0973
1039.769	0
1039.933	-69.53
1040.098	14.75222
1040.262	-46.35635
1040.426	-52.67674
1040.591	52.69182
1040.755	52.69182
1040.919	59.01582
1041.083	-4.2147
1041.248	31.61332
1041.412	37.93663
1041.576	23.18258
1041.74	23.18258
1041.904	-63.21022
1042.068	-29.50088
1042.232	-16.85823
1042.397	-27.39383
1042.561	4.2148
1042.725	-2.10736
1042.889	-29.50088
1043.053	0
1043.217	-16.85823
1043.381	4.2148
1043.544	40.04444
1043.708	-54.78349
1043.872	14.75222
1044.036	-29.50088
1044.2	21.07496
1044.364	-63.21022
1044.528	40.04444
1044.691	21.07496
1044.855	48.47593
1045.019	8.4297
1045.183	42.15228
1045.346	-12.64382
1045.51	82.20557
1045.674	-10.53658
1045.837	-50.56997
1046.001	59.01582
1046.165	-42.14263
1046.328	-23.17966
1046.492	-27.39383
1046.655	-16.85823
1046.819	14.75222
1046.983	-12.64382
1047.146	35.82884
1047.31	-4.2147
1047.473	-2.10736
1047.636	31.61332
1047.8	4.2148
1047.963	-16.85823
1048.127	54.79979
1048.29	48.47593
