Data from mixed_try1_USB4F045381__23__00127.txt Node

Date: Thu Apr 03 20:01:15 EDT 2025
User: mmckonesweet
Spectrometer: USB4F04538
Trigger mode: 4
Integration Time (sec): 2.700000E-3
Scans to average: 1
Electric dark correction enabled: true
Nonlinearity correction enabled: true
Boxcar width: 0
XAxis mode: Wavelengths
Number of Pixels in Spectrum: 3648
>>>>>Begin Spectral Data<<<<<
345.52	-7.02445
345.736	-7.02445
345.952	-7.02445
346.168	1.40492
346.384	-2.80981
346.6	51.98916
346.816	58.31314
347.032	-57.59244
347.248	11.94218
347.464	-49.16544
347.68	-17.56062
347.896	20.37242
348.112	-23.88203
348.328	-0.70246
348.544	3.51233
348.76	-25.98912
348.975	28.80304
349.191	18.26482
349.407	-7.02445
349.623	35.12624
349.839	-7.02445
350.055	-21.77492
350.27	24.58768
350.486	58.31314
350.702	-59.69913
350.918	49.88122
351.133	-4.91714
351.349	106.80373
351.565	-4.91714
351.781	30.91075
351.996	-0.70246
352.212	-47.05863
352.428	-0.70246
352.644	-97.61513
352.859	49.88122
353.075	18.26482
353.291	49.88122
353.506	-34.41722
353.722	56.20513
353.938	-38.63112
354.153	68.85356
354.369	33.01848
354.584	11.94218
354.8	-63.91243
355.016	5.61975
355.231	45.6654
355.447	-7.02445
355.662	7.72721
355.878	24.58768
356.093	-4.91714
356.309	-17.56062
356.524	-21.77492
356.74	24.58768
356.955	49.88122
357.171	-23.88203
357.386	-34.41722
357.602	20.37242
357.817	-82.87101
358.033	-0.70246
358.248	33.01848
358.464	3.51233
358.679	11.94218
358.895	-15.45344
359.11	-51.27223
359.325	45.6654
359.541	-72.33872
359.756	-9.13173
359.972	9.83468
360.187	-7.02445
360.402	51.98916
360.618	30.91075
360.833	7.72721
361.048	100.4782
361.264	1.40492
361.479	24.58768
361.694	1.40492
361.909	-19.66778
362.125	92.04447
362.34	-40.73804
362.555	-51.27223
362.77	37.23403
362.986	37.23403
363.201	-17.56062
363.416	-15.45344
363.631	-21.77492
363.847	28.80304
364.062	-11.23899
364.277	-21.77492
364.492	-4.91714
364.707	35.12624
364.922	-9.13173
365.138	-25.98912
365.353	16.15725
365.568	37.23403
365.783	1.40492
365.998	16.15725
366.213	66.74543
366.428	-21.77492
366.643	-51.27223
366.858	-32.31023
367.073	30.91075
367.288	-4.91714
367.503	-7.02445
367.718	24.58768
367.933	-19.66778
368.148	62.52924
368.363	33.01848
368.578	-2.80981
368.793	7.72721
369.008	41.44967
369.223	11.94218
369.438	-9.13173
369.653	35.12624
369.868	26.69535
370.083	-49.16544
370.298	-47.05863
370.513	9.83468
370.728	-25.98912
370.943	-51.27223
371.157	41.44967
371.372	30.91075
371.587	41.44967
371.802	79.39455
372.017	-63.91243
372.232	24.58768
372.446	49.88122
372.661	33.01848
372.876	-15.45344
373.091	-0.70246
373.306	-15.45344
373.52	58.31314
373.735	73.06989
373.95	7.72721
374.165	-25.98912
374.379	41.44967
374.594	9.83468
374.809	77.2863
375.023	16.15725
375.238	-25.98912
375.453	70.96171
375.667	-0.70246
375.882	49.88122
376.097	54.09713
376.311	-21.77492
376.526	20.37242
376.741	-21.77492
376.955	49.88122
377.17	-23.88203
377.384	92.04447
377.599	1.40492
377.813	5.61975
378.028	58.31314
378.242	-17.56062
378.457	41.44967
378.672	35.12624
378.886	28.80304
379.101	18.26482
379.315	9.83468
379.53	68.85356
379.744	-7.02445
379.958	-32.31023
380.173	-9.13173
380.387	7.72721
380.602	43.55752
380.816	33.01848
381.031	-38.63112
381.245	33.01848
381.459	-0.70246
381.674	-55.48573
381.888	79.39455
382.103	-28.09618
382.317	26.69535
382.531	41.44967
382.746	33.01848
382.96	11.94218
383.174	11.94218
383.388	-17.56062
383.603	16.15725
383.817	58.31314
384.031	18.26482
384.246	28.80304
384.46	-21.77492
384.674	33.01848
384.888	16.15725
385.103	33.01848
385.317	60.42118
385.531	-15.45344
385.745	-32.31023
385.959	-11.23899
386.174	1.40492
386.388	-32.31023
386.602	-2.80981
386.816	43.55752
387.03	11.94218
387.244	16.15725
387.458	-23.88203
387.672	18.26482
387.887	11.94218
388.101	18.26482
388.315	-59.69913
388.529	51.98916
388.743	20.37242
388.957	-17.56062
389.171	-17.56062
389.385	18.26482
389.599	58.31314
389.813	-9.13173
390.027	24.58768
390.241	-47.05863
390.455	18.26482
390.669	26.69535
390.883	28.80304
391.097	51.98916
391.311	24.58768
391.525	41.44967
391.738	-28.09618
391.952	18.26482
392.166	37.23403
392.38	49.88122
392.594	64.63732
392.808	-17.56062
393.022	77.2863
393.236	-7.02445
393.449	-17.56062
393.663	62.52924
393.877	-4.91714
394.091	-4.91714
394.305	47.77329
394.518	18.26482
394.732	43.55752
394.946	-30.20322
395.16	16.15725
395.373	-28.09618
395.587	-2.80981
395.801	43.55752
396.015	18.26482
396.228	16.15725
396.442	24.58768
396.656	49.88122
396.869	26.69535
397.083	43.55752
397.297	-7.02445
397.51	-19.66778
397.724	-4.91714
397.938	28.80304
398.151	64.63732
398.365	45.6654
398.578	24.58768
398.792	-2.80981
399.005	-51.27223
399.219	18.26482
399.433	7.72721
399.646	35.12624
399.86	24.58768
400.073	7.72721
400.287	-11.23899
400.5	33.01848
400.714	-4.91714
400.927	-25.98912
401.141	-34.41722
401.354	-0.70246
401.567	7.72721
401.781	-9.13173
401.994	28.80304
402.208	41.44967
402.421	-32.31023
402.635	18.26482
402.848	3.51233
403.061	7.72721
403.275	20.37242
403.488	5.61975
403.701	1.40492
403.915	3.51233
404.128	24.58768
404.341	43.55752
404.555	-23.88203
404.768	-23.88203
404.981	7.72721
405.195	41.44967
405.408	41.44967
405.621	11.94218
405.834	14.04971
406.048	26.69535
406.261	75.17808
406.474	-23.88203
406.687	45.6654
406.9	-2.80981
407.114	75.17808
407.327	-17.56062
407.54	75.17808
407.753	56.20513
407.966	-11.23899
408.179	26.69535
408.392	3.51233
408.605	28.80304
408.819	35.12624
409.032	24.58768
409.245	45.6654
409.458	-38.63112
409.671	87.82774
409.884	-25.98912
410.097	3.51233
410.31	-0.70246
410.523	-40.73804
410.736	7.72721
410.949	-34.41722
411.162	75.17808
411.375	35.12624
411.588	104.6952
411.801	16.15725
412.014	96.26129
412.227	79.39455
412.44	47.77329
412.653	35.12624
412.865	68.85356
413.078	-4.91714
413.291	-21.77492
413.504	24.58768
413.717	9.83468
413.93	28.80304
414.143	24.58768
414.356	-9.13173
414.568	20.37242
414.781	54.09713
414.994	43.55752
415.207	16.15725
415.42	-0.70246
415.632	-21.77492
415.845	-40.73804
416.058	-34.41722
416.271	18.26482
416.483	24.58768
416.696	-21.77492
416.909	28.80304
417.121	1.40492
417.334	-7.02445
417.547	33.01848
417.759	33.01848
417.972	22.48004
418.185	-11.23899
418.397	92.04447
418.61	24.58768
418.823	-80.7646
419.035	-15.45344
419.248	56.20513
419.46	24.58768
419.673	68.85356
419.885	11.94218
420.098	-4.91714
420.311	28.80304
420.523	33.01848
420.736	-15.45344
420.948	77.2863
421.161	35.12624
421.373	58.31314
421.586	22.48004
421.798	77.2863
422.01	-15.45344
422.223	70.96171
422.435	-2.80981
422.648	-59.69913
422.86	92.04447
423.073	77.2863
423.285	26.69535
423.497	-28.09618
423.71	96.26129
423.922	-34.41722
424.134	28.80304
424.347	-34.41722
424.559	-7.02445
424.771	60.42118
424.984	-55.48573
425.196	-32.31023
425.408	-21.77492
425.621	18.26482
425.833	-42.84492
426.045	-9.13173
426.257	113.12946
426.47	16.15725
426.682	-21.77492
426.894	11.94218
427.106	87.82774
427.318	33.01848
427.531	16.15725
427.743	-15.45344
427.955	-19.66778
428.167	94.15287
428.379	16.15725
428.591	-7.02445
428.804	-15.45344
429.016	51.98916
429.228	49.88122
429.44	-38.63112
429.652	-9.13173
429.864	51.98916
430.076	68.85356
430.288	92.04447
430.5	24.58768
430.712	45.6654
430.924	49.88122
431.136	-40.73804
431.348	51.98916
431.56	-4.91714
431.772	-34.41722
431.984	-13.34623
432.196	43.55752
432.408	35.12624
432.62	26.69535
432.832	37.23403
433.044	115.23808
433.256	66.74543
433.468	26.69535
433.679	58.31314
433.891	77.2863
434.103	79.39455
434.315	37.23403
434.527	94.15287
434.739	-17.56062
434.95	-9.13173
435.162	-17.56062
435.374	33.01848
435.586	-15.45344
435.798	5.61975
436.009	62.52924
436.221	26.69535
436.433	113.12946
436.645	104.6952
436.856	-51.27223
437.068	7.72721
437.28	7.72721
437.491	9.83468
437.703	28.80304
437.915	56.20513
438.126	108.91229
438.338	54.09713
438.55	3.51233
438.761	-34.41722
438.973	-68.12563
439.184	51.98916
439.396	49.88122
439.608	16.15725
439.819	-51.27223
440.031	35.12624
440.242	-0.70246
440.454	79.39455
440.665	20.37242
440.877	9.83468
441.088	20.37242
441.3	140.5432
441.511	35.12624
441.723	-0.70246
441.934	33.01848
442.146	26.69535
442.357	66.74543
442.569	49.88122
442.78	49.88122
442.991	49.88122
443.203	18.26482
443.414	75.17808
443.626	-49.16544
443.837	9.83468
444.048	-25.98912
444.26	83.6111
444.471	39.34183
444.682	26.69535
444.894	-17.56062
445.105	35.12624
445.316	43.55752
445.528	-17.56062
445.739	51.98916
445.95	66.74543
446.161	66.74543
446.373	75.17808
446.584	75.17808
446.795	-23.88203
447.006	35.12624
447.217	5.61975
447.429	62.52924
447.64	45.6654
447.851	28.80304
448.062	24.58768
448.273	16.15725
448.484	30.91075
448.695	30.91075
448.907	9.83468
449.118	-34.41722
449.329	-17.56062
449.54	-21.77492
449.751	35.12624
449.962	121.56407
450.173	79.39455
450.384	83.6111
450.595	22.48004
450.806	24.58768
451.017	-17.56062
451.228	-38.63112
451.439	37.23403
451.65	-15.45344
451.861	54.09713
452.072	49.88122
452.283	20.37242
452.494	24.58768
452.705	77.2863
452.915	58.31314
453.126	9.83468
453.337	-17.56062
453.548	115.23808
453.759	49.88122
453.97	41.44967
454.181	7.72721
454.391	73.06989
454.602	11.94218
454.813	18.26482
455.024	94.15287
455.235	58.31314
455.445	92.04447
455.656	33.01848
455.867	41.44967
456.078	45.6654
456.288	35.12624
456.499	3.51233
456.71	33.01848
456.921	16.15725
457.131	-63.91243
457.342	7.72721
457.553	81.50281
457.763	106.80373
457.974	66.74543
458.184	134.21663
458.395	-4.91714
458.606	70.96171
458.816	20.37242
459.027	89.9361
459.237	24.58768
459.448	14.04971
459.659	16.15725
459.869	60.42118
460.08	20.37242
460.29	-9.13173
460.501	62.52924
460.711	7.72721
460.922	28.80304
461.132	94.15287
461.343	134.21663
461.553	108.91229
461.764	24.58768
461.974	20.37242
462.184	92.04447
462.395	9.83468
462.605	75.17808
462.816	-7.02445
463.026	51.98916
463.236	111.02086
463.447	20.37242
463.657	-13.34623
463.867	70.96171
464.078	-17.56062
464.288	33.01848
464.498	136.32547
464.709	111.02086
464.919	70.96171
465.129	45.6654
465.339	140.5432
465.55	35.12624
465.76	49.88122
465.97	28.80304
466.18	75.17808
466.391	66.74543
466.601	117.34672
466.811	123.67278
467.021	113.12946
467.231	70.96171
467.441	100.4782
467.651	96.26129
467.862	125.7815
468.072	75.17808
468.282	62.52924
468.492	70.96171
468.702	83.6111
468.912	108.91229
469.122	142.6521
469.332	94.15287
469.542	51.98916
469.752	66.74543
469.962	108.91229
470.172	113.12946
470.382	45.6654
470.592	58.31314
470.802	117.34672
471.012	142.6521
471.222	123.67278
471.432	134.21663
471.642	210.14789
471.852	108.91229
472.062	83.6111
472.272	136.32547
472.482	142.6521
472.691	108.91229
472.901	108.91229
473.111	113.12946
473.321	142.6521
473.531	195.3814
473.741	134.21663
473.95	163.74226
474.16	142.6521
474.37	100.4782
474.58	62.52924
474.79	174.28813
474.999	172.17891
475.209	172.17891
475.419	218.58633
475.628	241.79366
475.838	121.56407
476.048	197.49084
476.258	203.81928
476.467	246.01343
476.677	163.74226
476.886	229.13482
477.096	246.01343
477.306	313.53995
477.515	296.65654
477.725	273.44377
477.935	256.56318
478.144	262.89326
478.354	288.21528
478.563	237.57397
478.773	324.09267
478.982	290.32557
479.192	262.89326
479.401	286.10501
479.611	349.42099
479.82	328.31388
480.03	408.52999
480.239	385.30703
480.449	408.52999
480.658	357.86432
480.868	438.08931
481.077	414.86386
481.287	400.08505
481.496	383.19595
481.705	454.98174
481.915	467.65171
482.124	484.54585
482.333	524.6732
482.543	395.86267
482.752	465.54001
482.961	499.329
483.171	552.13172
483.38	499.329
483.589	503.55289
483.799	488.76953
484.008	543.68269
484.217	562.6933
484.426	583.81748
484.636	604.94298
484.845	710.58885
485.054	617.61889
485.263	632.40802
485.472	693.68355
485.682	704.24928
485.891	611.28088
486.1	773.98982
486.309	862.76597
486.518	837.39972
486.727	803.58005
486.936	837.39972
487.146	854.31041
487.355	854.31041
487.564	780.33042
487.773	1017.10163
487.982	778.21687
488.191	1038.24632
488.4	894.4755
488.609	983.27141
488.818	974.81412
489.027	1021.33052
489.236	1017.10163
489.445	1063.6207
489.654	1135.51886
489.863	1201.07748
490.072	1110.1424
490.281	1234.91554
490.49	1112.25708
490.698	1266.6394
490.907	1158.78116
491.116	1363.92898
491.325	1232.80063
491.534	1454.8759
491.743	1317.3987
491.952	1463.33611
492.16	1387.19436
492.369	1619.84774
492.578	1505.63708
492.787	1452.76085
492.996	1554.28285
493.204	1554.28285
493.413	1480.25652
493.622	1727.70778
493.831	1471.79631
494.039	1691.75525
494.248	1562.74293
494.457	1679.06591
494.665	1590.238
494.874	1638.88236
495.083	1672.72121
495.291	1888.42293
495.5	1816.52717
495.709	1791.15092
495.917	1704.44448
496.126	1869.39225
496.335	1786.92149
496.543	2011.05412
496.752	1833.44432
496.96	1894.76639
497.169	1875.73586
497.377	2112.52545
497.586	1863.0486
497.794	2112.52545
498.003	1979.3411
498.211	2108.29781
498.42	2104.07014
498.628	2216.0926
498.837	2245.67949
499.045	2342.88092
499.254	2243.5662
499.462	2230.88626
499.671	2349.21943
499.879	2399.92431
500.087	2241.4529
500.296	2478.0825
500.504	2167.48189
500.713	2423.16206
500.921	2317.52596
501.129	2469.63369
501.338	2399.92431
501.546	2598.45831
501.754	2399.92431
501.962	2568.89585
502.171	2600.56982
502.379	2695.57513
502.587	2471.74591
502.795	2670.24288
503.004	2446.39853
503.212	2763.11864
503.42	2775.78154
503.628	2881.28635
503.837	2832.75847
504.045	2811.65707
504.253	2668.13177
504.461	2923.47836
504.669	2636.46369
504.877	2931.91606
505.085	2666.02066
505.294	3109.05205
505.502	2788.44394
505.71	3012.06237
505.918	2902.38308
506.126	3184.93361
506.334	2999.40913
506.542	3155.42661
506.75	3071.1035
506.958	3062.6698
507.166	3052.12732
507.374	3083.75358
507.582	3180.71852
507.79	3195.47105
507.998	3016.27999
508.206	3222.86647
508.414	3193.3636
508.622	3294.50267
508.83	3176.50337
509.037	3505.08133
509.245	3111.16015
509.453	3572.42854
509.661	3100.61948
509.869	3492.45163
510.077	3345.05756
510.285	3334.52611
510.492	3380.86123
510.7	3614.51091
510.908	3471.40069
511.116	3555.59351
511.324	3462.97981
511.531	3570.32423
511.739	3431.39895
511.947	3833.21628
512.155	3439.82091
512.362	3572.42854
512.57	3576.63711
512.778	3616.61483
512.985	3721.78675
513.193	3582.94983
513.401	3589.26238
513.608	3799.58297
513.816	3597.67886
514.024	3587.15822
514.231	3736.50699
514.439	3683.93035
514.646	3717.58079
514.854	3925.68163
515.061	3707.06556
515.269	4286.75587
515.477	3868.94611
515.684	4060.10674
515.892	3801.6852
516.099	4011.80737
516.307	3854.23452
516.514	4129.38669
516.722	3875.25078
516.929	4123.08945
517.136	3946.69106
517.344	4255.29161
517.551	4288.85332
517.759	4278.36587
517.966	4194.44708
518.173	4219.62629
518.381	4200.74217
518.588	4347.57307
518.796	4303.53484
519.003	4458.67459
519.21	4416.75669
519.418	4389.50537
519.625	4337.08864
519.832	4433.5249
520.039	4349.66989
520.247	4555.05235
520.454	4330.79773
520.661	4607.41189
520.868	4523.62996
521.076	4668.13147
521.283	4571.80892
521.49	4609.50598
521.697	4490.10725
521.904	4877.36374
522.112	4705.80998
522.319	4820.89341
522.526	4818.8016
522.733	5025.78005
522.94	4705.80998
523.147	4718.36787
523.354	4994.43416
523.561	5149.02337
523.768	4866.90753
523.975	4908.72895
524.183	4714.182
524.39	5065.47739
524.597	5032.04861
524.804	5144.84695
525.011	5000.70376
525.218	5286.79282
525.425	5217.9208
525.632	5111.43227
525.838	5215.83337
526.045	5182.43135
526.252	5161.55206
526.459	5326.43485
526.666	5326.43485
526.873	5453.64942
527.08	5284.70616
527.287	5399.4375
527.494	5249.22942
527.701	5495.34009
527.907	5138.58215
528.114	5501.59287
528.321	5368.15417
528.528	5582.85982
528.735	5401.52287
528.941	5520.34996
529.148	5624.52127
529.355	5587.02639
529.562	5584.94312
529.768	5634.93516
529.975	5503.67709
530.182	5672.42028
530.388	5422.37526
530.595	5776.50549
530.802	5870.13173
531.008	6003.20677
531.215	5826.44543
531.422	5882.61162
531.628	5776.50549
531.835	5809.8003
532.042	5788.99175
532.248	6090.48481
532.455	5969.94706
532.661	6144.49327
532.868	5826.44543
533.074	6086.32965
533.281	6125.79983
533.487	6250.38685
533.694	6042.69483
533.9	6451.62435
534.107	6144.49327
534.313	6333.398
534.52	6148.64711
534.726	6391.48356
534.933	6100.87229
535.139	6289.82181
535.345	6273.21865
535.552	6497.23535
535.758	6256.61398
535.965	6432.96206
536.171	6505.52706
536.377	6507.59993
536.584	6306.42348
536.79	6627.78665
536.996	6687.85091
537.203	6493.08936
537.409	6491.01633
537.615	6787.22521
537.821	6488.94328
538.028	6859.65244
538.234	6654.7144
538.44	6754.1063
538.646	6640.21533
538.853	6855.51449
539.059	6555.26949
539.265	7113.96254
539.471	6892.75276
539.677	6963.07166
539.883	6969.27502
540.09	7016.82734
540.296	6952.73229
540.502	7016.82734
540.708	6869.99691
540.914	6880.34082
541.12	6979.61349
541.326	7167.67572
541.532	6971.34276
541.738	7520.5723
541.944	7165.6101
542.15	7144.95275
542.356	7345.23579
542.562	7219.30884
542.768	7153.21596
542.974	7438.08052
543.18	7341.10833
543.386	7621.57789
543.592	7204.85296
543.798	7650.42722
544.004	7413.32623
544.21	7398.88479
544.415	7365.87176
544.621	7567.98948
544.827	7167.67572
545.033	7837.84714
545.239	7728.71164
545.445	7800.78883
545.651	7547.37471
545.856	7858.43218
546.062	7563.8667
546.268	7823.43637
546.474	7452.51907
546.679	7598.90763
546.885	7549.43629
547.091	7794.61179
547.297	7563.8667
547.502	7782.25714
547.708	7621.57789
547.914	7862.54893
548.119	7699.87356
548.325	7918.11709
548.531	7640.12437
548.736	7922.23265
548.942	7963.38375
549.147	7996.29874
549.353	7955.15419
549.559	8392.93114
549.764	8082.67581
549.97	8058.00029
550.175	8062.11308
550.381	8109.40435
550.586	8027.1518
550.792	8362.1311
550.997	8045.66144
551.203	8339.54163
551.408	8103.23653
551.614	8265.59594
551.819	8099.12455
552.025	8296.40973
552.23	8109.40435
552.435	8329.27291
552.641	8378.55833
552.846	8526.348
553.052	8518.14006
553.257	8616.61541
553.462	8706.84665
553.668	8780.64565
553.873	8542.76297
554.078	8801.14117
554.283	8273.81339
554.489	8842.12678
554.694	8676.09003
554.899	9016.23576
555.105	8690.44364
555.31	9040.80558
555.515	8528.39993
555.72	9120.64022
555.925	8665.8369
556.131	8899.49453
556.336	8501.72327
556.541	8911.78579
556.746	8905.64024
556.951	8962.9925
557.156	8817.53628
557.361	9042.85295
557.567	8987.56779
557.772	9038.75819
557.977	8762.19812
558.182	8985.51994
558.387	8962.9925
558.592	9063.32571
558.797	8813.43761
559.002	9231.13743
559.207	8870.81241
559.412	9255.68566
559.617	9083.79673
559.822	9192.26443
560.027	8821.63488
560.232	9396.7915
560.437	8881.05643
560.642	9200.44873
560.847	9196.35661
561.051	9404.96915
561.256	9175.89502
561.461	9503.08069
561.666	9560.29537
561.871	9339.54064
562.076	9304.77489
562.281	9558.2522
562.485	9153.38531
562.69	9423.3679
562.895	9274.09525
563.1	9521.47248
563.305	9460.16146
563.509	9617.49767
563.714	9341.58554
563.919	9644.05171
564.123	9202.49476
564.328	9501.03707
564.533	9515.34202
564.737	9629.7537
564.942	9525.55937
565.147	9748.20004
565.351	9449.94155
565.556	9917.61225
565.761	9566.42478
565.965	9715.53035
566.17	9799.23866
566.374	9639.96664
566.579	9803.32134
566.784	9933.93575
566.988	9911.4907
567.193	10025.73812
567.397	10013.49949
567.602	9929.85496
567.806	9766.57503
568.011	10086.92358
568.215	10029.81755
568.42	10333.57806
568.624	10064.49039
568.828	10260.21412
569.033	9811.48653
569.237	10235.75559
569.442	10031.85724
569.646	10133.82384
569.85	10121.5897
570.055	10374.32834
570.259	10109.35506
570.463	10201.10265
570.668	10172.56196
570.872	10262.25224
571.076	10091.00216
571.281	10309.12534
571.485	10064.49039
571.689	10121.5897
571.893	10417.11048
572.098	10404.8876
572.302	10060.41145
572.506	10441.55484
572.71	10319.3142
572.914	10376.36572
573.119	10496.54785
573.323	10182.75538
573.527	10549.4953
573.731	10694.03959
573.935	10588.18228
574.139	10755.09616
574.343	10374.32834
574.547	10687.93333
574.751	10571.89357
574.955	10718.46351
575.159	10604.47018
575.364	10942.27029
575.568	10341.72854
575.772	10598.36231
575.976	10455.81319
576.18	10856.8334
576.383	10875.14301
576.587	10938.20232
576.791	10783.58555
576.995	10978.87997
577.199	10881.246
577.403	10895.48592
577.607	11133.41471
577.811	10956.50782
578.015	10808.00319
578.219	10891.41743
578.422	11119.18387
578.626	11084.62107
578.83	11090.72061
579.034	11218.78886
579.238	11098.85319
579.442	11505.27064
579.645	11072.42168
579.849	11143.57928
580.053	11267.56581
580.257	11048.02174
580.46	11139.51349
580.664	11285.85564
580.868	11304.14465
581.071	11397.60909
581.275	11222.85383
581.479	11326.49677
581.682	11060.22191
581.886	11363.07034
582.09	11247.2428
582.293	11600.72177
582.497	11529.64311
582.7	11710.36402
582.904	11594.62976
583.107	11342.75209
583.311	11287.8878
583.515	11523.55012
583.718	11060.22191
583.922	11363.07034
584.125	11432.145
584.329	11661.63737
584.532	11669.75884
584.735	11799.68305
584.939	11415.89316
585.142	11880.86777
585.346	11554.01422
585.549	11722.54488
585.753	11937.68914
585.956	11862.60238
586.159	11895.07371
586.363	11832.15856
586.566	11789.534
586.769	11832.15856
586.973	11740.81558
587.176	11913.33791
587.379	12095.94404
587.582	11854.48421
587.786	11951.89348
587.989	12144.62835
588.192	11793.59365
588.395	12201.42126
588.599	12075.65761
588.802	12140.57149
589.005	11868.69092
589.208	12215.61859
589.411	12085.80092
589.615	12475.16594
589.818	12045.22652
590.021	12272.40434
590.224	12114.20117
590.427	12244.01217
590.63	12381.90406
590.833	12475.16594
591.036	12205.47768
591.239	12483.275
591.442	12164.9122
591.645	12542.06266
591.848	12825.79288
592.051	12578.54887
592.254	12477.19321
592.457	12440.70123
592.66	12568.41402
592.863	12809.58279
593.066	12481.24775
593.269	12758.92394
593.472	12738.6594
593.675	12803.50391
593.878	12365.68315
594.081	12888.60369
594.284	12574.49495
594.486	12923.04614
594.689	12681.91563
594.892	12647.46179
595.095	12641.38152
595.298	12935.20194
595.5	12819.71414
595.703	13147.89908
595.906	12941.27976
596.109	12884.55154
596.311	13151.94994
596.514	12955.46118
596.717	12765.00319
596.92	13089.15952
597.122	12827.81912
597.325	12914.94217
597.528	12762.97678
597.73	13362.57017
597.933	13091.18509
598.136	13265.36665
598.338	13178.28007
598.541	13083.08279
598.743	13390.91941
598.946	13228.9128
599.148	13129.66998
599.351	13261.31629
599.554	13279.54277
599.756	13348.39525
599.959	13496.20988
600.161	13528.6049
600.363	13326.11998
600.566	13358.52022
600.768	13382.81971
600.971	13591.36762
601.173	13305.86929
601.376	13567.07277
601.578	13524.55557
601.78	13532.65421
601.983	13358.52022
602.185	13550.87593
602.388	13370.67004
602.59	13427.3673
602.792	13445.59076
602.995	13573.14653
603.197	13299.794
603.399	13702.71273
603.601	13360.5452
603.804	13546.82668
604.006	13579.22026
604.208	13439.51631
604.41	13445.59076
604.613	13644.00474
604.815	13281.56791
605.017	13724.98056
605.219	13425.34245
605.421	13733.07787
605.623	13755.34519
605.826	14010.3825
606.028	13581.24483
606.23	13678.4201
606.432	13546.82668
606.634	13674.37128
606.836	13526.58024
607.038	13718.90755
607.24	13947.6392
607.442	13937.51908
607.644	13623.75996
607.846	13828.21751
608.048	13765.46658
608.25	14295.73586
608.452	14065.02799
608.654	14261.33369
608.856	13988.11903
609.058	13751.29661
609.26	14044.78912
609.462	13812.02399
609.664	13886.9175
609.866	14097.40969
610.067	13818.09658
610.269	13901.08611
610.471	13953.71123
610.673	14372.63299
610.875	14125.74321
611.077	14174.31398
611.278	13933.47101
611.48	13994.19091
611.682	13729.02922
611.884	14277.52301
612.085	14077.17119
612.287	14265.38103
612.489	14115.62415
612.69	14398.93936
612.892	13933.47101
613.094	14439.41018
613.295	14020.50217
613.497	14287.64128
613.699	14101.45736
613.9	14390.84512
614.102	14125.74321
614.304	14269.42836
614.505	14139.90982
614.707	14451.55132
614.908	14235.02579
615.11	14307.87767
615.311	14204.67011
615.513	14109.55268
615.714	14139.90982
615.916	14376.68014
616.117	14032.64569
616.319	14409.05712
616.52	14358.46791
616.722	14492.02138
616.923	14190.50397
617.124	14510.23274
617.326	14216.81243
617.527	14137.88602
617.729	14228.95468
617.93	14400.96291
618.131	14220.85986
618.333	14342.27915
618.534	14253.23898
618.735	14492.02138
618.937	14372.63299
619.138	14289.66492
619.339	14305.85404
619.54	14702.4578
619.742	14352.39714
619.943	14322.04305
620.144	14378.70372
620.345	14265.38103
620.546	14443.45723
620.748	14708.52791
620.949	14360.4915
621.15	14914.90768
621.351	14415.12776
621.552	14746.97178
621.753	14281.57032
621.954	14819.812
622.155	14311.92493
622.356	14528.44398
622.558	14716.62139
622.759	14415.12776
622.96	14324.06667
623.161	14579.03025
623.362	14378.70372
623.563	14714.59802
623.764	14765.18193
623.965	14751.01848
624.166	14957.39688
624.366	14546.65513
624.567	14467.73941
624.768	14659.96678
624.969	14407.03357
625.17	14366.56225
625.371	14374.65657
625.572	14674.1305
625.773	14477.85692
625.973	14753.04184
626.174	14659.96678
626.375	14655.91999
626.576	14520.35011
626.777	14791.48536
626.977	14309.90131
627.178	14862.30172
627.379	14538.5613
627.58	14783.39201
627.78	14918.95428
627.981	15151.63152
628.182	14985.72291
628.382	14858.25509
628.583	14931.09407
628.784	14860.2784
628.984	14809.69536
629.185	15036.30494
629.386	14799.5787
629.586	14823.85865
629.787	14809.69536
629.987	14791.48536
630.188	14821.83533
630.388	14981.67634
630.589	14504.1623
630.79	14844.09187
630.99	14409.05712
631.191	14763.15858
631.391	14765.18193
631.591	15080.81701
631.792	14799.5787
631.992	14813.74202
632.193	15005.95574
632.393	15111.1661
632.594	14997.86261
632.794	15341.81937
632.994	15032.25839
633.195	15242.67873
633.395	15317.53997
633.595	14892.65136
633.796	14935.14066
633.996	15279.09768
634.196	15147.58498
634.397	14977.62976
634.597	14935.14066
634.797	15034.28167
634.997	15244.702
635.198	15151.63152
635.398	14787.43869
635.598	15556.2901
635.798	15048.44461
635.998	15012.02559
636.199	14657.94338
636.399	15390.37831
636.599	15080.81701
636.799	15151.63152
636.999	14785.41535
637.199	14991.79276
637.399	15196.14348
637.599	14993.81605
637.799	14900.74457
637.999	15410.61127
638.199	15275.05113
638.399	15329.67967
638.599	15297.30718
638.799	15394.4249
638.999	15202.21329
639.199	15317.53997
639.399	15277.0744
639.599	15218.39946
639.799	15208.2831
639.999	15347.88923
640.199	15042.37478
640.399	15236.60891
640.599	14732.80829
640.799	15511.7768
640.998	15564.38346
641.198	15341.81937
641.398	15402.51808
641.598	15726.25339
641.798	15768.74521
641.997	15786.95614
642.197	15701.97254
642.397	15685.78538
642.597	15639.24763
642.796	15950.85863
642.996	15519.8701
643.196	15426.79767
643.395	15491.54358
643.595	15627.10742
643.795	15841.58943
643.994	15428.82097
644.194	15621.03733
644.394	15669.59829
644.593	15671.62167
644.793	15584.61692
644.992	15849.68333
645.192	15841.58943
645.392	15884.08258
645.591	16110.72255
645.791	15782.90926
645.99	15839.56596
646.19	15422.75106
646.389	15637.22426
646.589	15449.05401
646.788	15651.38787
646.987	15677.69183
647.187	16094.53338
647.386	15815.28441
647.586	16211.90721
647.785	15730.30021
647.984	15914.43516
648.184	16270.59625
648.383	16224.04965
648.582	16001.44751
648.782	16019.65972
648.981	16052.03727
649.18	15904.3176
649.38	16096.55702
649.579	16203.81229
649.778	16090.4861
649.977	16187.62252
650.177	16203.81229
650.376	16351.54914
650.575	15586.64027
650.774	16041.91925
650.973	15865.87117
651.173	16037.87205
651.372	16050.01366
651.571	15772.79208
651.77	15825.4017
651.969	15993.35323
652.168	15960.97634
652.367	15849.68333
652.566	15892.17658
652.765	16090.4861
652.964	16199.76483
653.163	15940.74096
653.362	16203.81229
653.561	16122.8645
653.76	16021.68331
653.959	16025.73048
654.158	16141.07752
654.357	15940.74096
654.556	15807.1906
654.755	16394.05062
654.954	15890.15308
655.153	16207.85975
655.352	16165.36176
655.551	16681.46548
655.749	16738.14414
655.948	16317.1438
656.147	15930.62332
656.346	16341.42987
656.545	16143.1012
656.743	16349.52529
656.942	16084.4152
657.141	16266.54868
657.34	16252.38225
657.538	16256.4298
657.737	16155.2433
657.936	16689.56232
658.135	16317.1438
658.333	16260.47735
658.532	16268.57247
658.731	16418.33757
658.929	15948.8351
659.128	16062.15533
659.326	16215.95468
659.525	16343.45372
659.724	16602.52323
659.922	16286.7866
660.121	16217.97842
660.319	16298.92943
660.518	16128.93549
660.716	16070.24981
660.915	16329.2868
661.113	16414.28972
661.312	16414.28972
661.51	16634.90938
661.709	16311.07233
661.907	16543.82479
662.105	16302.97705
662.304	16584.30627
662.502	16460.84041
662.701	16622.7645
662.899	16147.14856
663.097	16005.49466
663.296	16438.57691
663.494	16667.2961
663.692	16454.76852
663.891	16549.89696
664.089	16355.59687
664.287	16424.40935
664.485	16422.38542
664.684	16622.7645
664.882	16651.10267
665.08	16527.63244
665.278	16772.55709
665.476	16452.74456
665.675	16074.29705
665.873	16564.06542
666.071	16250.35849
666.269	16543.82479
666.467	16264.5249
666.665	16426.43328
666.863	16220.00216
667.061	16359.6446
667.259	16535.72859
667.457	16853.53155
667.655	16387.97893
667.853	16387.97893
668.051	16464.88835
668.249	16410.24189
668.447	16302.97705
668.645	16479.05619
668.843	16367.74008
669.041	16533.70455
669.239	16549.89696
669.437	16649.0785
669.635	16412.2658
669.833	16452.74456
670.031	16359.6446
670.229	16671.34448
670.426	16859.60479
670.624	16772.55709
670.822	16430.48115
671.02	16630.86108
671.218	16462.86438
671.415	16551.92102
671.613	16207.85975
671.811	16355.59687
672.009	16438.57691
672.206	16578.234
672.404	16396.07452
672.602	16527.63244
672.799	16309.04851
672.997	16562.04135
673.195	16746.24124
673.392	16730.04707
673.59	16632.88522
673.788	16732.07134
673.985	16114.76986
674.183	16477.03221
674.38	16479.05619
674.578	16604.54735
674.775	16721.95005
674.973	16551.92102
675.17	16365.71621
675.368	16426.43328
675.565	16311.07233
675.763	16327.26296
675.96	16491.20014
676.158	16723.9743
676.355	16195.71739
676.553	16622.7645
676.75	16349.52529
676.947	16683.48969
677.145	16258.45357
677.342	16643.006
677.539	16276.66762
677.737	16440.60085
677.934	16096.55702
678.131	16179.52767
678.329	16114.76986
678.526	16507.39219
678.723	16495.24814
678.92	16715.8773
679.118	16254.40602
679.315	16479.05619
679.512	16088.46247
679.709	16266.54868
679.906	16062.15533
680.104	16296.90562
680.301	16003.47109
680.498	16149.17224
680.695	15888.12958
680.892	16264.5249
681.089	16329.2868
681.286	16396.07452
681.483	15999.42394
681.68	16553.94508
681.877	16307.02469
682.075	16448.69665
682.272	16197.74111
682.469	16335.35833
682.665	16126.91182
682.862	16021.68331
683.059	15865.87117
683.256	16080.36794
683.453	15821.35478
683.65	15772.79208
683.847	15661.50476
684.044	16037.87205
684.241	16074.29705
684.438	16159.29068
684.635	15815.28441
684.831	16145.12488
685.028	16266.54868
685.225	16171.43285
685.422	15960.97634
685.619	15969.07053
685.815	16228.09714
686.012	16226.0734
686.209	15969.07053
686.405	16329.2868
686.602	15799.0968
686.799	16076.32068
686.996	16092.50974
687.192	15944.78803
687.389	15469.28711
687.586	15989.3061
687.782	15677.69183
687.979	16078.34431
688.175	16005.49466
688.372	15987.28254
688.568	16043.94285
688.765	16013.58897
688.962	15965.02343
689.158	16224.04965
689.355	15766.72178
689.551	15981.21186
689.748	15523.91676
689.944	15758.62807
690.14	15766.72178
690.337	15906.34111
690.533	15614.96724
690.73	15938.71743
690.926	16041.91925
691.123	15687.80878
691.319	15841.58943
691.515	15708.04274
691.712	15465.24049
691.908	15671.62167
692.104	15544.15007
692.301	15803.14369
692.497	15633.17752
692.693	15865.87117
692.889	15786.95614
693.086	15799.0968
693.282	15722.20657
693.478	15738.39386
693.674	15562.36012
693.87	16058.1081
694.067	15882.05909
694.263	15880.03559
694.459	15313.49341
694.655	15449.05401
694.851	15756.60465
695.047	15714.11295
695.243	15311.47013
695.439	15687.80878
695.635	15544.15007
695.831	15623.06069
696.027	15374.19197
696.224	15428.82097
696.42	15349.91251
696.615	15546.17341
696.811	15801.12025
697.007	15829.44863
697.203	15376.21526
697.399	15307.42357
697.595	15351.9358
697.791	15028.21183
697.987	15355.98237
698.183	15440.96079
698.379	15246.72528
698.575	15655.43462
698.77	15422.75106
698.966	15487.49694
699.162	15271.00457
699.358	15863.84768
699.554	15554.26676
699.749	15307.42357
699.945	15481.42699
700.141	15279.09768
700.337	15430.84427
700.532	15633.17752
700.728	15463.21718
700.924	15491.54358
701.119	15414.65786
701.315	15540.10341
701.511	15457.14725
701.706	15691.85556
701.902	15078.79374
702.097	15351.9358
702.293	15016.07215
702.489	15014.04887
702.684	14959.42017
702.88	15038.32822
703.075	15012.02559
703.271	15121.28246
703.466	15216.37619
703.662	15436.91418
703.857	15289.21406
704.053	15258.86492
704.248	15380.26185
704.443	15572.47683
704.639	15266.95802
704.834	15440.96079
705.03	15293.26062
705.225	15402.51808
705.42	15101.04974
705.616	15224.46928
705.811	15097.0032
706.006	15181.98058
706.202	15042.37478
706.397	14898.72127
706.592	14983.69962
706.787	15184.00385
706.983	15240.65546
707.178	15653.41125
707.373	15542.12674
707.568	15378.23855
707.763	15204.23656
707.959	15564.38346
708.154	15240.65546
708.349	15471.31042
708.544	15042.37478
708.739	15461.19386
708.934	15066.65409
709.129	15117.23592
709.324	15264.93475
709.519	15380.26185
709.714	14949.30371
709.909	15236.60891
710.104	14664.01356
710.299	15196.14348
710.494	15173.8875
710.689	15159.7246
710.884	15149.60825
711.079	15155.67806
711.274	14787.43869
711.469	14908.83778
711.664	14933.11736
711.859	15184.00385
712.054	14983.69962
712.249	14880.51152
712.443	14599.26454
712.638	14649.8498
712.833	14611.40507
713.028	15018.09543
713.223	14991.79276
713.417	15125.329
713.612	14892.65136
713.807	15123.30573
714.002	14779.34533
714.196	15046.42133
714.391	14714.59802
714.586	14890.62805
714.78	14706.50454
714.975	14947.28042
715.17	14716.62139
715.364	14925.02418
715.559	14908.83778
715.754	14587.12398
715.948	14947.28042
716.143	14823.85865
716.337	14783.39201
716.532	14997.86261
716.726	14498.09185
716.921	14815.76535
717.115	14570.93649
717.31	14668.06034
717.504	14775.29865
717.699	14842.06855
717.893	14520.35011
718.088	14666.03695
718.282	14761.13523
718.476	14443.45723
718.671	14566.88961
718.865	14520.35011
719.059	14530.46745
719.254	14593.19427
719.448	14382.75086
719.642	14540.58476
719.837	14233.00209
720.031	14601.28797
720.225	14228.95468
720.419	14431.31607
720.614	14360.4915
720.808	14382.75086
721.002	14392.86868
721.196	14546.65513
721.39	14176.33774
721.585	14409.05712
721.779	14516.30316
721.973	14447.50428
722.167	14301.80677
722.361	14204.67011
722.555	14093.36201
722.749	14048.83691
722.943	14190.50397
723.137	13973.9512
723.331	14160.14764
723.525	14330.13751
723.719	14174.31398
723.913	14348.34995
724.107	14105.50503
724.301	14342.27915
724.495	13967.87924
724.689	14083.24277
724.883	13878.82109
725.077	14026.57394
725.271	13864.65226
725.465	14273.47569
725.659	13848.45915
725.853	13886.9175
726.046	14071.0996
726.24	13805.95138
726.434	13729.02922
726.628	14202.64638
726.822	14374.65657
727.015	13977.99916
727.209	13864.65226
727.403	14309.90131
727.596	14107.52886
727.79	14265.38103
727.984	14139.90982
728.177	13872.74875
728.371	13947.6392
728.565	14145.98118
728.758	13880.84519
728.952	14174.31398
729.146	13854.53159
729.339	13840.36253
729.533	14109.55268
729.726	14150.02875
729.92	13988.11903
730.113	14052.88469
730.307	13921.32675
730.5	13941.56713
730.694	14006.33462
730.887	14095.38585
731.081	14168.2427
731.274	14121.69559
731.468	14214.78872
731.661	14233.00209
731.854	14137.88602
732.048	13994.19091
732.241	13807.97558
732.435	14054.90858
732.628	13971.92722
732.821	13816.07239
733.014	13901.08611
733.208	13678.4201
733.401	13984.07109
733.594	14119.67178
733.788	13755.34519
733.981	14067.05186
734.174	14141.93361
734.367	13826.19333
734.56	13951.68722
734.754	14040.74132
734.947	14170.26647
735.14	13977.99916
735.333	14018.47824
735.526	14180.38525
735.719	13860.604
735.912	13862.62813
736.105	13892.98977
736.298	14265.38103
736.491	14044.78912
736.684	14129.79083
736.877	13919.3027
737.07	13994.19091
737.263	13534.67886
737.456	13727.00489
737.649	13953.71123
737.842	13868.70051
738.035	13856.55573
738.228	13524.55557
738.421	13702.71273
738.614	13741.17512
738.807	13619.71097
739	13767.49084
739.192	13538.72815
739.385	13781.66064
739.578	13812.02399
739.771	13945.61518
739.964	13569.09736
740.156	13809.99979
740.349	13656.15145
740.542	13842.38669
740.735	13700.68836
740.927	13777.61214
741.12	13704.73709
741.313	13799.87873
741.505	13556.94977
741.698	13884.8934
741.891	13362.57017
742.083	13411.16839
742.276	13714.85887
742.468	13741.17512
742.661	13376.74489
742.854	13315.99469
743.046	13176.2547
743.239	13558.97438
743.431	13599.46579
743.624	13589.34306
743.816	13595.41671
744.009	13650.07811
744.201	13484.06151
744.393	13261.31629
744.586	13411.16839
744.778	13480.01202
744.971	13625.78446
745.163	13704.73709
745.355	13706.76145
745.548	13417.24301
745.74	13378.76984
745.932	13494.18516
746.125	13601.49032
746.317	13413.19327
746.509	13228.9128
746.702	13660.20032
746.894	13585.29395
747.086	13089.15952
747.278	13394.96924
747.471	13500.25931
747.663	13382.81971
747.855	13368.64508
748.047	13068.90358
748.239	13743.19942
748.431	13378.76984
748.623	13706.76145
748.815	13394.96924
749.008	13289.66844
749.2	13488.11098
749.392	13567.07277
749.584	13611.61294
749.776	13544.80205
749.968	13228.9128
750.16	13490.13571
750.352	13285.61818
750.544	13239.03901
750.736	13172.20395
750.928	13176.2547
751.12	13162.077
751.311	13334.22014
751.503	13461.78914
751.695	13257.26591
751.887	13153.97536
752.079	13222.83702
752.271	12829.84535
752.463	12918.99417
752.654	12991.92652
752.846	12910.89016
753.038	12827.81912
753.23	13216.7612
753.421	13168.15319
753.613	13052.69847
753.805	13083.08279
753.997	12904.8121
754.188	12817.68788
754.38	12904.8121
754.572	13046.62148
754.763	13338.27019
754.955	12949.38346
755.146	13103.3384
755.338	12655.56873
755.53	12969.64234
755.721	12874.42106
755.913	12985.84908
756.104	12588.68357
756.296	13135.74639
756.487	12722.44736
756.679	13085.10837
756.87	12685.96891
757.062	12833.8978
757.253	12941.27976
757.445	12657.59545
757.636	12665.70227
757.827	12594.76431
758.019	12292.6836
758.21	12527.87303
758.401	12546.11679
758.593	12647.46179
758.784	12254.15239
758.975	12290.65571
759.167	12479.22048
759.358	12621.11357
759.549	12497.46562
759.74	12491.38397
759.932	12531.92724
760.123	12714.3412
760.314	12270.37637
760.505	12432.59161
760.696	12280.51613
760.888	12535.98143
761.079	12454.89281
761.27	12416.37205
761.461	12284.57198
761.652	12337.29551
761.843	12341.35097
762.034	12645.43504
762.225	12394.06945
762.416	12556.25198
762.607	12383.93164
762.798	12418.39952
762.989	12126.37225
763.18	12495.43841
763.371	11976.24285
763.562	12004.649
763.753	12146.65677
763.944	12100.00123
764.135	11805.77237
764.326	11939.71835
764.517	12020.88039
764.708	11949.86431
764.899	11978.27192
765.089	11990.44612
765.28	12035.08244
765.471	11811.86162
765.662	11521.5191
765.853	11659.60698
766.043	11596.66044
766.234	11669.75884
766.425	11537.76696
766.615	11850.42508
766.806	11846.36591
766.997	12063.48538
767.187	11704.27347
767.378	11826.06956
767.569	11773.29508
767.759	11667.72849
767.95	11409.79856
768.141	11637.27211
768.331	11489.02157
768.522	11738.78554
768.712	11547.92157
768.903	11730.66528
769.093	11594.62976
769.284	11578.38399
769.474	11765.17542
769.665	11419.95618
769.855	11369.16562
770.046	11434.17644
770.236	11245.21045
770.426	11109.01866
770.617	11367.13387
770.807	11251.30749
770.998	11338.68832
771.188	11365.10211
771.378	11314.30486
771.569	11314.30486
771.759	11155.77641
771.949	11281.79131
772.139	11523.55012
772.33	11263.50129
772.52	11190.33287
772.71	11411.8301
772.9	11019.55315
773.09	11052.08851
773.281	11350.87951
773.471	11043.95493
773.661	11090.72061
773.851	11009.38527
774.041	10858.86785
774.231	10978.87997
774.421	10993.11609
774.611	11060.22191
774.802	10897.52015
774.992	10946.33821
775.182	10785.62042
775.372	10624.82895
775.562	10626.86476
775.752	10903.62276
775.942	10700.14573
776.131	10850.72999
776.321	10683.86244
776.511	10911.75943
776.701	10632.97212
776.891	10838.52286
777.081	10647.22218
777.271	10783.58555
777.461	10726.60444
777.651	10856.8334
777.84	10590.21831
778.03	10557.6403
778.22	10563.74892
778.41	10578.00193
778.599	10339.69094
778.789	10626.86476
778.979	10722.534
779.169	10573.9297
779.358	10194.98702
779.548	10443.59178
779.738	10472.10767
779.927	10459.88688
780.117	10443.59178
780.307	10280.59473
780.496	10610.57794
780.686	10415.07337
780.875	10235.75559
781.065	10325.42736
781.254	10441.55484
781.444	10478.21789
781.633	10392.66425
781.823	10358.02886
782.012	10235.75559
782.202	10272.44265
782.391	10268.36652
782.581	10082.84495
782.77	10260.21412
782.96	9999.22043
783.149	10001.26034
783.338	10510.80377
783.528	10088.96288
783.717	10533.20468
783.906	10139.94072
784.096	10025.73812
784.285	10148.09636
784.474	10174.60067
784.663	10168.4845
784.853	9946.17776
785.042	9962.49963
785.231	10256.13783
785.42	9878.84018
785.61	10019.61887
785.799	9829.85731
785.988	9986.98068
786.177	9684.89896
786.366	9662.43373
786.555	9568.46788
786.744	9644.05171
786.933	9488.77506
787.122	9686.94116
787.312	9419.2794
787.501	9476.51248
787.69	9482.64384
787.879	9860.47261
788.068	9682.85674
788.257	9672.64543
788.445	9558.2522
788.634	9697.15193
788.823	9288.41288
789.012	9384.52454
789.201	9306.82007
789.39	9729.82382
789.579	9290.45819
789.768	9852.30886
789.957	9494.90614
790.145	9666.51846
790.334	9378.39084
790.523	9511.25498
790.712	9337.49573
790.9	9642.00918
791.089	9445.85347
791.278	9496.9498
791.467	9404.96915
791.655	9658.34895
791.844	9411.10221
792.033	9474.46865
792.221	8936.36639
792.41	9284.32221
792.599	8840.07767
792.787	9537.81966
792.976	9263.86787
793.164	9267.95887
793.353	9227.04582
793.541	9255.68566
793.73	9067.42005
793.918	9075.60853
794.107	8856.47003
794.295	9155.43173
794.484	9036.71079
794.672	9112.45326
794.861	9143.15294
795.049	9202.49476
795.238	8930.22148
795.426	9077.65561
795.614	9116.54677
795.803	8876.95887
795.991	8897.44592
796.179	9110.40648
796.368	8850.32303
796.556	9018.28334
796.744	8518.14006
796.932	8987.56779
797.121	8725.29863
797.309	8973.23251
797.497	8821.63488
797.685	9073.56144
797.874	8768.34746
798.062	8889.25132
798.25	8741.69914
798.438	8903.59168
798.626	8550.97
798.814	8676.09003
799.002	8940.46291
799.19	8764.24792
799.378	8534.55563
799.566	8454.5182
799.755	8555.0734
799.943	8760.14831
800.131	8708.89694
800.318	8854.42105
800.506	8312.84195
800.694	8698.64529
800.882	8306.68001
801.07	8684.2922
801.258	8708.89694
801.446	8868.76355
801.634	8585.84652
801.822	8803.19062
802.01	8694.5445
802.197	9005.99759
802.385	8526.348
802.573	8559.17673
802.761	8394.98432
802.949	8600.20586
803.136	8399.09063
803.324	8403.19686
803.512	8376.505
803.699	8520.19207
803.887	8620.71761
804.075	8805.24006
804.262	8665.8369
804.45	8805.24006
804.638	8518.14006
804.825	8774.49664
805.013	8152.57405
805.201	8731.44896
805.388	8647.3801
805.576	8674.03944
805.763	8550.97
805.951	8829.83186
806.138	8579.69224
806.326	8657.63407
806.513	8511.9839
806.701	8501.72327
806.888	8208.06502
807.075	8741.69914
807.263	8624.81974
807.45	8780.64565
807.638	8419.62099
807.825	8518.14006
808.012	8649.43093
808.2	8919.97961
808.387	8870.81241
808.574	8665.8369
808.761	8772.44693
808.949	8637.12567
809.136	8608.41079
809.323	8840.07767
809.51	8592.00064
809.698	8698.64529
809.885	8614.56428
810.072	8915.88273
810.259	8756.04862
810.446	8995.75899
810.633	8702.74601
810.82	8690.44364
811.008	8991.66342
811.195	8690.44364
811.382	8366.23803
811.569	8628.92179
811.756	8501.72327
811.943	8534.55563
812.13	8682.24169
812.317	8616.61541
812.504	8756.04862
812.691	8776.54633
812.878	8645.32925
813.064	8960.94444
813.251	8649.43093
813.438	8719.14813
813.625	8618.66652
813.812	8807.28947
813.999	8456.57081
814.186	8444.25489
814.372	8450.41294
814.559	8708.89694
814.746	8440.14944
814.933	8903.59168
815.12	8706.84665
815.306	8694.5445
815.493	8520.19207
815.68	8821.63488
815.866	8577.64077
816.053	8879.00766
816.24	8674.03944
816.426	8766.2977
816.613	8977.32839
816.799	8799.0917
816.986	8706.84665
817.173	8858.519
817.359	8530.45185
817.546	8534.55563
817.732	8450.41294
817.919	8563.27998
818.105	8150.51855
818.292	8479.14819
818.478	8616.61541
818.665	8799.0917
818.851	8733.49903
819.037	8639.17659
819.224	8499.67108
819.41	8594.05197
819.597	8282.03051
819.783	8333.38046
819.969	8292.30148
820.156	8403.19686
820.342	8347.75626
820.528	8594.05197
820.714	8468.88603
820.901	8446.30759
821.087	8290.24733
821.273	8372.39827
821.459	8257.37819
821.646	8210.11996
821.832	8329.27291
822.018	8696.59491
822.204	8249.16012
822.39	8378.55833
822.576	8370.34487
822.762	8536.6075
822.948	8197.79001
823.134	8456.57081
823.32	8074.45096
823.507	8386.77148
823.693	8148.46303
823.879	8419.62099
824.065	8273.81339
824.25	8148.46303
824.436	8103.23653
824.622	8238.88708
824.808	8224.50401
824.994	8454.5182
825.18	8164.90663
825.366	8351.86345
825.552	8353.91702
825.738	8240.94173
825.923	8043.6049
826.109	8173.12795
826.295	8090.90034
826.481	8255.3237
826.667	8129.96245
826.852	8092.95642
827.038	8228.61356
827.224	8316.94981
827.409	8150.51855
827.595	8329.27291
827.781	7897.53805
827.966	8134.07383
828.152	7765.78311
828.338	8206.01006
828.523	7506.13873
828.709	7718.4128
828.894	7530.88135
829.08	8008.64051
829.266	7858.43218
829.451	7771.96103
829.637	7646.30614
829.822	7846.0814
830.008	7345.23579
830.193	7582.41855
830.378	7398.88479
830.564	7555.62088
830.749	7489.64193
830.935	7524.69599
831.12	7407.13717
831.305	7431.89224
831.491	7600.96867
831.676	7621.57789
831.861	7489.64193
832.047	7664.85033
832.232	7334.91698
832.417	7502.01466
832.602	7372.06213
832.788	7605.09068
832.973	7477.26842
833.158	7396.82164
833.343	7130.49128
833.528	7322.53369
833.714	7398.88479
833.899	7431.89224
834.084	7188.33063
834.269	7423.6409
834.454	7275.0571
834.639	7314.27773
834.824	7320.46973
835.009	7293.63628
835.194	7155.2817
835.379	7483.45527
835.564	7349.36316
835.749	7747.24822
835.934	7161.47881
836.119	7293.63628
836.304	7229.63381
836.489	7221.37388
836.674	7225.50389
836.859	7147.01858
837.044	7101.56505
837.228	7264.73456
837.413	7037.49855
837.598	7361.74474
837.783	6961.00383
837.968	7167.67572
838.152	6989.9514
838.337	7054.0339
838.522	7027.16322
838.707	6979.61349
838.891	6797.57366
839.076	7054.0339
839.261	6549.05241
839.445	6783.08566
839.63	6727.19288
839.815	6807.92155
839.999	6501.38125
840.184	6975.47817
840.368	6762.38658
840.553	6917.57418
840.737	6652.64318
840.922	6598.78318
841.106	6451.62435
841.291	6754.1063
841.475	6662.99908
841.66	6737.54466
841.844	6455.77127
842.029	6700.27559
842.213	6410.15004
842.397	6559.41409
842.582	6215.09577
842.766	6569.77518
842.951	6399.78001
843.135	6538.69016
843.319	6426.74088
843.504	6437.1094
843.688	6474.43126
843.872	6772.73641
844.056	6383.18675
844.241	6698.20487
844.425	6379.0382
844.609	6486.8702
844.793	6455.77127
844.977	6443.33023
845.161	6559.41409
845.346	6493.08936
845.53	6119.56826
845.714	6325.09857
845.898	6140.33934
846.082	6383.18675
846.266	6210.94343
846.45	6167.33823
846.634	6219.24801
846.818	6181.87444
847.002	6107.10449
847.186	6125.79983
847.37	6123.72267
847.554	6364.51754
847.738	6395.63183
847.922	6308.49858
848.106	6403.92809
848.29	6341.69706
848.473	6397.70593
848.657	6094.63987
848.841	5994.89241
849.025	6134.10826
849.209	5996.97103
849.392	6065.55246
849.576	5836.84788
849.76	5799.39632
849.944	5774.42436
850.127	5990.73509
850.311	5784.82976
850.495	6231.70418
850.678	6061.39674
850.862	6283.5958
851.046	6071.78587
851.229	5836.84788
851.413	5878.45175
851.596	5836.84788
851.78	5726.55195
851.964	5722.38854
852.147	5707.81587
852.331	5682.83146
852.514	5478.66495
852.698	5587.02639
852.881	5516.18189
853.065	5582.85982
853.248	5689.07788
853.431	5818.12305
853.615	5478.66495
853.798	5942.91911
853.982	5632.85243
854.165	5778.58659
854.348	5495.34009
854.532	5599.52553
854.715	5493.25578
854.898	5705.73397
855.081	5493.25578
855.265	5676.58482
855.448	5061.29911
855.631	5703.65204
855.814	5468.24223
855.997	5718.22504
856.181	5307.6581
856.364	5530.76975
856.547	5520.34996
856.73	5395.2667
856.913	5199.13311
857.096	5276.3593
857.279	5270.09891
857.462	5123.96348
857.645	5167.81609
857.828	5386.92481
858.011	5290.96606
858.194	5301.39876
858.377	5002.79357
858.56	5328.52104
858.743	5071.74462
858.926	5002.79357
859.109	4866.90753
859.292	5265.9252
859.475	4998.61391
859.658	5032.04861
859.841	4994.43416
860.023	5207.48343
860.206	4726.73934
860.389	4977.71423
860.572	4630.44567
860.755	4837.6271
860.937	4852.26787
861.12	4871.09009
861.303	4827.16872
861.486	4986.07438
861.668	4450.29171
861.851	4808.34219
862.034	4680.69178
862.216	4753.94412
862.399	4454.4832
862.581	4705.80998
862.764	4492.20259
862.947	4889.91045
863.129	4691.1581
863.312	4691.1581
863.494	4693.25129
863.677	4793.69807
863.859	4647.19581
864.042	4726.73934
864.224	4527.8199
864.406	4580.18667
864.589	4540.38919
864.771	4651.38312
864.954	4534.10464
865.136	4707.90302
865.318	4515.24981
865.501	4651.38312
865.683	4532.00975
865.865	4709.99604
866.048	4127.28763
866.23	4391.60175
866.412	4123.08945
866.594	4349.66989
866.777	4429.33298
866.959	4567.61991
867.141	4347.57307
867.323	4316.11816
867.505	4269.97553
867.687	4343.37936
867.869	4330.79773
868.052	4596.9411
868.234	4215.42997
868.416	4368.5403
868.598	4309.8266
868.78	4293.04815
868.962	4148.27728
869.144	4337.08864
869.326	4087.40155
869.508	4290.95074
869.69	4299.34023
869.872	4406.27585
870.054	4148.27728
870.236	4261.58485
870.417	4110.49441
870.599	4267.87789
870.781	3990.80425
870.963	4154.57376
871.145	3957.19501
871.327	4265.78023
871.508	3925.68163
871.69	4165.06748
871.872	3992.90466
872.054	4009.70715
872.235	3765.94464
872.417	3847.92926
872.599	3778.5596
872.78	3927.78266
872.962	3961.39645
873.144	4148.27728
873.325	3820.60438
873.507	4311.92381
873.689	4043.3082
873.87	4278.36587
874.052	3835.31819
874.233	4152.47495
874.415	3858.43793
874.596	4303.53484
874.778	3967.69846
874.959	4148.27728
875.141	3910.97383
875.322	4146.17841
875.503	3749.12359
875.685	3984.50292
875.866	3871.04769
876.048	4013.90757
876.229	3664.99983
876.41	3950.8927
876.592	3702.85933
876.773	4053.80744
876.954	3818.50233
877.136	4097.89862
877.317	3824.80843
877.498	4032.80844
877.679	3852.13279
877.86	4068.50552
878.042	3833.21628
878.223	3988.70383
878.404	3898.36635
878.585	4165.06748
878.766	3875.25078
878.947	4114.69284
879.128	3757.53427
879.309	4018.10791
879.49	4068.50552
879.672	4257.38937
879.853	3948.79189
880.034	3999.20575
880.215	4011.80737
880.396	3986.60338
880.576	3992.90466
880.757	4043.3082
880.938	3736.50699
881.119	3896.26504
881.3	3778.5596
881.481	4089.50101
881.662	3782.76443
881.843	4165.06748
882.023	3908.87263
882.204	4043.3082
882.385	3852.13279
882.566	3986.60338
882.747	3829.01239
882.927	3860.53961
883.108	3782.76443
883.289	4018.10791
883.469	3824.80843
883.65	4016.00775
883.831	3995.00504
884.011	4219.62629
884.192	4001.30607
884.373	4064.30617
884.553	3871.04769
884.734	4043.3082
884.914	3850.03103
885.095	4118.89119
885.275	3702.85933
885.456	4120.99033
885.636	3934.08564
885.817	4154.57376
885.997	4053.80744
886.178	4257.38937
886.358	3887.85958
886.538	4196.54546
886.719	4112.59364
886.899	4110.49441
887.08	3887.85958
887.26	3938.28753
887.44	3749.12359
887.621	4104.19661
887.801	3765.94464
887.981	4005.50665
888.161	3931.98467
888.342	4081.10306
888.522	4097.89862
888.702	4154.57376
888.882	4001.30607
889.062	4013.90757
889.242	4009.70715
889.423	4051.70764
889.603	3814.29817
889.783	4272.07315
889.963	3759.63689
890.143	4236.41074
890.323	3791.17386
890.503	4228.01869
890.683	3925.68163
890.863	4064.30617
891.043	3929.88368
891.223	4171.36345
891.403	3892.06235
891.583	4192.34867
891.763	3963.49714
891.943	4221.72442
892.122	3858.43793
892.302	4070.60516
892.482	3940.38844
892.662	4051.70764
892.842	3751.22629
893.022	3976.10085
893.201	3786.96918
893.381	3812.19605
893.561	3671.31017
893.741	3942.48933
893.92	3559.80238
894.1	3841.62382
894.28	3719.68378
894.459	3818.50233
894.639	3768.04718
894.819	3826.91042
894.998	3749.12359
895.178	3761.73949
895.357	3631.34176
895.537	3704.96245
895.716	3801.6852
895.896	3728.09554
896.075	3395.60245
896.255	3736.50699
896.434	3471.40069
896.614	3692.34342
896.793	3408.23709
896.973	3715.47778
897.152	3404.02562
897.331	3648.1714
897.511	3553.48904
897.69	3667.1033
897.87	3414.55418
898.049	3633.44553
898.228	3484.03148
898.407	3414.55418
898.587	3313.46191
898.766	3454.55864
898.945	3201.79332
899.124	3246.04502
899.304	3336.63243
899.483	3656.58577
899.662	3353.4824
899.841	3450.34795
900.02	3174.39576
900.199	3252.36609
900.378	3283.96916
900.557	3302.92917
900.737	3157.53436
900.916	3269.22153
901.095	2965.66451
901.274	3077.42861
901.453	2969.8828
901.632	3243.93796
901.811	2950.90003
901.989	3172.28814
902.168	2957.22775
902.347	3113.26824
902.526	2796.88527
902.705	2959.33696
902.884	2931.91606
903.063	3119.5924
903.242	2708.24057
903.42	3007.84469
903.599	2672.35397
903.778	2845.41864
903.957	2543.55474
904.135	2720.90553
904.314	2672.35397
904.493	2872.84726
904.672	2537.21919
904.85	2590.01213
905.029	2621.6843
905.207	2617.4615
905.386	2416.82462
905.565	2619.5729
905.743	2393.58653
905.922	2590.01213
906.1	2315.41298
906.279	2771.56063
906.457	2425.27452
906.636	2754.67645
906.814	2323.86483
906.993	2353.44506
907.171	2357.67065
907.35	2247.79278
907.528	2260.47228
907.707	2260.47228
907.885	2011.05412
908.063	2207.63888
908.242	1892.65191
908.42	2040.6516
908.598	2066.0198
908.777	2180.16337
908.955	1983.56959
909.133	2294.2827
909.311	1920.13977
909.49	2275.26463
909.668	2044.8797
909.846	2137.89062
910.024	1795.38034
910.202	2070.24773
910.38	1985.68382
910.559	2112.52545
910.737	1890.53742
910.915	2268.92511
911.093	2030.08122
911.271	2287.94343
911.449	1852.47575
911.627	2097.72859
911.805	2015.28241
911.983	2175.93624
912.161	2135.7769
912.339	2340.76806
912.517	2156.91376
912.695	2385.136
912.872	2011.05412
913.05	2218.206
913.228	2108.29781
913.406	2332.31652
913.584	2070.24773
913.762	2298.50883
913.939	2133.66317
914.117	2093.50084
914.295	2032.19531
914.473	2089.27307
914.65	2232.99961
914.828	2283.7172
915.006	2120.98063
915.184	2188.61753
915.361	1968.76978
915.539	2182.27692
915.716	1922.25418
915.894	2099.84245
916.072	1943.39799
916.249	2082.93136
916.427	2066.0198
916.604	2120.98063
916.782	2038.53754
916.959	2091.38696
917.137	1937.05491
917.314	2148.45911
917.492	1875.73586
917.669	1964.54121
917.847	1824.98578
918.024	1934.94053
918.201	1770.00359
918.379	1918.02535
918.556	1609.27288
918.733	1782.69204
918.911	1621.96271
919.088	1706.55934
919.265	1473.91137
919.442	1852.47575
919.62	1488.71671
919.797	1755.20022
919.974	1605.04292
920.151	1909.56762
920.328	1767.88883
920.506	1767.88883
920.683	1818.64183
920.86	1712.90391
921.037	1533.13258
921.214	1913.7965
921.391	1579.663
921.568	1710.78906
921.745	1554.28285
921.922	1839.78817
922.099	1640.99731
922.276	1770.00359
922.453	1399.88461
922.63	1581.778
922.807	1505.63708
922.984	1497.1769
923.161	1495.06186
923.338	1539.47768
923.514	1427.38022
923.691	1533.13258
923.868	1338.54874
924.045	1533.13258
924.222	1294.13387
924.399	1465.45116
924.575	1194.73294
924.752	1404.1147
924.929	1266.6394
925.105	1497.1769
925.282	1355.46888
925.459	1410.45983
925.635	1319.5137
925.812	1410.45983
925.989	1256.06471
926.165	1344.89378
926.342	1249.71993
926.518	1317.3987
926.695	1158.78116
926.871	1372.38911
927.048	1046.70436
927.224	1184.15878
927.401	966.35693
927.577	1148.20733
927.754	1080.5374
927.93	1234.91554
928.107	1034.01733
928.283	1143.97782
928.459	1097.45443
928.636	1139.74833
928.812	1091.1105
928.988	1084.76663
929.165	894.4755
929.341	1038.24632
929.517	987.5001
929.693	1093.22514
929.87	850.08269
930.046	940.98604
930.222	869.10773
930.398	991.72881
930.574	862.76597
930.751	1038.24632
930.927	818.37586
931.103	945.21445
931.279	788.78469
931.455	934.64348
931.631	818.37586
931.807	932.52931
931.983	757.08198
932.159	911.388
932.335	886.01945
932.511	843.74116
932.687	763.42234
932.863	733.83477
933.039	750.74171
933.215	666.21399
933.391	642.97205
933.566	759.19542
933.742	560.58096
933.918	676.77897
934.094	628.18249
934.27	607.0556
934.445	573.25523
934.621	674.66595
934.797	550.01944
934.973	590.155
935.148	522.5611
935.324	509.88883
935.5	421.19789
935.675	412.75256
935.851	281.88452
936.027	412.75256
936.202	454.98174
936.378	467.65171
936.553	381.08489
936.729	313.53995
936.904	336.75651
937.08	328.31388
937.255	252.34322
937.431	376.86282
937.606	296.65654
937.782	364.197
937.957	193.27198
938.133	286.10501
938.308	235.46415
938.483	277.66411
938.659	201.70978
938.834	191.16258
939.009	199.6003
939.185	283.99475
939.36	243.90353
939.535	167.96055
939.71	227.02509
939.886	218.58633
940.061	193.27198
940.236	142.6521
940.411	119.45538
940.586	146.86997
940.761	125.7815
940.937	111.02086
941.112	125.7815
941.287	144.76102
941.462	161.63315
941.637	151.08791
941.812	161.63315
941.987	117.34672
942.162	140.5432
942.337	117.34672
942.512	170.06972
942.687	151.08791
942.862	87.82774
943.037	96.26129
943.212	125.7815
943.386	94.15287
943.561	92.04447
943.736	113.12946
943.911	85.71941
944.086	77.2863
944.26	127.89025
944.435	248.12334
944.61	134.21663
944.785	119.45538
944.959	92.04447
945.134	129.99903
945.309	102.58669
945.483	142.6521
945.658	176.39736
945.833	117.34672
946.007	134.21663
946.182	119.45538
946.357	123.67278
946.531	49.88122
946.706	125.7815
946.88	138.43433
947.055	77.2863
947.229	64.63732
947.404	121.56407
947.578	92.04447
947.752	136.32547
947.927	129.99903
948.101	172.17891
948.276	92.04447
948.45	85.71941
948.624	144.76102
948.799	180.61589
948.973	123.67278
949.147	87.82774
949.321	43.55752
949.496	100.4782
949.67	83.6111
949.844	170.06972
950.018	184.83451
950.193	85.71941
950.367	98.36974
950.541	134.21663
950.715	92.04447
950.889	94.15287
951.063	111.02086
951.237	161.63315
951.411	132.10782
951.585	111.02086
951.759	167.96055
951.933	108.91229
952.107	117.34672
952.281	100.4782
952.455	96.26129
952.629	108.91229
952.803	142.6521
952.977	153.19692
953.151	83.6111
953.325	180.61589
953.499	70.96171
953.672	85.71941
953.846	92.04447
954.02	193.27198
954.194	104.6952
954.368	138.43433
954.541	113.12946
954.715	9.83468
954.889	121.56407
955.062	123.67278
955.236	153.19692
955.41	161.63315
955.583	108.91229
955.757	163.74226
955.93	62.52924
956.104	113.12946
956.278	92.04447
956.451	132.10782
956.625	94.15287
956.798	189.0532
956.972	104.6952
957.145	159.52406
957.319	142.6521
957.492	127.89025
957.665	115.23808
957.839	136.32547
958.012	125.7815
958.185	134.21663
958.359	117.34672
958.532	108.91229
958.705	167.96055
958.879	117.34672
959.052	111.02086
959.225	167.96055
959.398	134.21663
959.572	167.96055
959.745	81.50281
959.918	115.23808
960.091	125.7815
960.264	125.7815
960.438	66.74543
960.611	92.04447
960.784	125.7815
960.957	68.85356
961.13	125.7815
961.303	129.99903
961.476	191.16258
961.649	94.15287
961.822	75.17808
961.995	92.04447
962.168	64.63732
962.341	157.41499
962.514	134.21663
962.686	104.6952
962.859	125.7815
963.032	144.76102
963.205	100.4782
963.378	111.02086
963.551	96.26129
963.723	49.88122
963.896	182.72519
964.069	111.02086
964.242	119.45538
964.414	220.69599
964.587	151.08791
964.76	104.6952
964.932	1.40492
965.105	151.08791
965.278	79.39455
965.45	113.12946
965.623	20.37242
965.795	108.91229
965.968	127.89025
966.14	180.61589
966.313	96.26129
966.485	108.91229
966.658	123.67278
966.83	106.80373
967.003	87.82774
967.175	43.55752
967.348	132.10782
967.52	108.91229
967.692	132.10782
967.865	157.41499
968.037	142.6521
968.209	155.30595
968.382	43.55752
968.554	66.74543
968.726	87.82774
968.898	108.91229
969.071	117.34672
969.243	100.4782
969.415	134.21663
969.587	-17.56062
969.759	111.02086
969.932	92.04447
970.104	41.44967
970.276	39.34183
970.448	83.6111
970.62	153.19692
970.792	66.74543
970.964	33.01848
971.136	70.96171
971.308	66.74543
971.48	58.31314
971.652	85.71941
971.824	81.50281
971.996	87.82774
972.168	58.31314
972.339	-17.56062
972.511	151.08791
972.683	68.85356
972.855	33.01848
973.027	102.58669
973.199	37.23403
973.37	51.98916
973.542	64.63732
973.714	83.6111
973.886	-11.23899
974.057	96.26129
974.229	-2.80981
974.401	64.63732
974.572	54.09713
974.744	79.39455
974.915	197.49084
975.087	58.31314
975.259	66.74543
975.43	35.12624
975.602	129.99903
975.773	102.58669
975.945	26.69535
976.116	138.43433
976.288	104.6952
976.459	129.99903
976.63	20.37242
976.802	68.85356
976.973	157.41499
977.145	108.91229
977.316	33.01848
977.487	153.19692
977.659	28.80304
977.83	75.17808
978.001	70.96171
978.172	77.2863
978.344	49.88122
978.515	85.71941
978.686	89.9361
978.857	60.42118
979.028	70.96171
979.2	26.69535
979.371	45.6654
979.542	100.4782
979.713	92.04447
979.884	41.44967
980.055	-4.91714
980.226	100.4782
980.397	51.98916
980.568	121.56407
980.739	54.09713
980.91	159.52406
981.081	85.71941
981.252	115.23808
981.423	77.2863
981.594	-21.77492
981.765	35.12624
981.936	81.50281
982.106	83.6111
982.277	83.6111
982.448	66.74543
982.619	100.4782
982.79	22.48004
982.96	41.44967
983.131	108.91229
983.302	62.52924
983.472	51.98916
983.643	22.48004
983.814	41.44967
983.984	28.80304
984.155	58.31314
984.326	134.21663
984.496	75.17808
984.667	77.2863
984.837	54.09713
985.008	62.52924
985.178	33.01848
985.349	66.74543
985.519	94.15287
985.69	79.39455
985.86	-7.02445
986.031	-13.34623
986.201	41.44967
986.371	24.58768
986.542	33.01848
986.712	68.85356
986.882	49.88122
987.053	28.80304
987.223	85.71941
987.393	75.17808
987.563	5.61975
987.734	26.69535
987.904	-0.70246
988.074	87.82774
988.244	51.98916
988.414	47.77329
988.585	68.85356
988.755	45.6654
988.925	24.58768
989.095	35.12624
989.265	113.12946
989.435	56.20513
989.605	37.23403
989.775	51.98916
989.945	9.83468
990.115	100.4782
990.285	136.32547
990.455	33.01848
990.625	26.69535
990.795	-23.88203
990.965	-21.77492
991.134	119.45538
991.304	33.01848
991.474	77.2863
991.644	85.71941
991.814	79.39455
991.984	64.63732
992.153	75.17808
992.323	-4.91714
992.493	28.80304
992.662	-0.70246
992.832	77.2863
993.002	113.12946
993.171	11.94218
993.341	92.04447
993.511	-15.45344
993.68	16.15725
993.85	85.71941
994.019	58.31314
994.189	41.44967
994.358	-19.66778
994.528	83.6111
994.697	64.63732
994.867	-15.45344
995.036	-0.70246
995.206	115.23808
995.375	16.15725
995.544	-13.34623
995.714	-0.70246
995.883	43.55752
996.052	28.80304
996.222	28.80304
996.391	85.71941
996.56	81.50281
996.73	-0.70246
996.899	-11.23899
997.068	-0.70246
997.237	41.44967
997.406	33.01848
997.576	70.96171
997.745	26.69535
997.914	28.80304
998.083	-0.70246
998.252	26.69535
998.421	9.83468
998.59	58.31314
998.759	7.72721
998.928	35.12624
999.097	28.80304
999.266	37.23403
999.435	-9.13173
999.604	7.72721
999.773	18.26482
999.942	62.52924
1000.111	41.44967
1000.28	3.51233
1000.448	100.4782
1000.617	54.09713
1000.786	11.94218
1000.955	-23.88203
1001.124	92.04447
1001.292	87.82774
1001.461	-23.88203
1001.63	102.58669
1001.798	-55.48573
1001.967	66.74543
1002.136	33.01848
1002.304	75.17808
1002.473	-15.45344
1002.642	9.83468
1002.81	51.98916
1002.979	7.72721
1003.147	73.06989
1003.316	20.37242
1003.484	51.98916
1003.653	-49.16544
1003.821	51.98916
1003.99	24.58768
1004.158	-21.77492
1004.327	14.04971
1004.495	24.58768
1004.663	16.15725
1004.832	11.94218
1005	-17.56062
1005.168	60.42118
1005.337	60.42118
1005.505	-51.27223
1005.673	43.55752
1005.842	20.37242
1006.01	-38.63112
1006.178	1.40492
1006.346	11.94218
1006.514	-25.98912
1006.683	66.74543
1006.851	-0.70246
1007.019	33.01848
1007.187	41.44967
1007.355	39.34183
1007.523	62.52924
1007.691	24.58768
1007.859	7.72721
1008.027	-17.56062
1008.195	-36.52418
1008.363	-4.91714
1008.531	-15.45344
1008.699	37.23403
1008.867	20.37242
1009.035	87.82774
1009.203	-15.45344
1009.37	16.15725
1009.538	47.77329
1009.706	54.09713
1009.874	-28.09618
1010.042	11.94218
1010.209	33.01848
1010.377	49.88122
1010.545	24.58768
1010.713	24.58768
1010.88	20.37242
1011.048	37.23403
1011.216	26.69535
1011.383	3.51233
1011.551	-0.70246
1011.718	92.04447
1011.886	-9.13173
1012.054	85.71941
1012.221	51.98916
1012.389	60.42118
1012.556	-53.37899
1012.724	-0.70246
1012.891	-23.88203
1013.058	16.15725
1013.226	56.20513
1013.393	68.85356
1013.561	45.6654
1013.728	41.44967
1013.895	37.23403
1014.063	45.6654
1014.23	-19.66778
1014.397	22.48004
1014.565	7.72721
1014.732	-23.88203
1014.899	28.80304
1015.066	1.40492
1015.233	5.61975
1015.401	24.58768
1015.568	-15.45344
1015.735	138.43433
1015.902	11.94218
1016.069	-38.63112
1016.236	35.12624
1016.403	-4.91714
1016.57	11.94218
1016.737	33.01848
1016.904	79.39455
1017.071	-61.80579
1017.238	41.44967
1017.405	3.51233
1017.572	45.6654
1017.739	70.96171
1017.906	1.40492
1018.073	49.88122
1018.24	7.72721
1018.407	16.15725
1018.573	35.12624
1018.74	66.74543
1018.907	49.88122
1019.074	70.96171
1019.241	41.44967
1019.407	-0.70246
1019.574	-4.91714
1019.741	-68.12563
1019.907	-11.23899
1020.074	24.58768
1020.241	75.17808
1020.407	-74.44523
1020.574	3.51233
1020.74	-30.20322
1020.907	-74.44523
1021.073	68.85356
1021.24	1.40492
1021.406	9.83468
1021.573	5.61975
1021.739	-82.87101
1021.906	-9.13173
1022.072	-4.91714
1022.239	56.20513
1022.405	75.17808
1022.571	49.88122
1022.738	54.09713
1022.904	37.23403
1023.07	41.44967
1023.237	24.58768
1023.403	47.77329
1023.569	-17.56062
1023.735	33.01848
1023.902	-61.80579
1024.068	-4.91714
1024.234	-32.31023
1024.4	49.88122
1024.566	45.6654
1024.732	-0.70246
1024.898	-17.56062
1025.065	37.23403
1025.231	-25.98912
1025.397	83.6111
1025.563	58.31314
1025.729	-21.77492
1025.895	-17.56062
1026.061	-42.84492
1026.227	-9.13173
1026.392	81.50281
1026.558	47.77329
1026.724	-2.80981
1026.89	24.58768
1027.056	-23.88203
1027.222	58.31314
1027.388	3.51233
1027.553	1.40492
1027.719	-55.48573
1027.885	62.52924
1028.051	41.44967
1028.216	-9.13173
1028.382	-47.05863
1028.548	-68.12563
1028.713	45.6654
1028.879	-21.77492
1029.045	-19.66778
1029.21	7.72721
1029.376	62.52924
1029.541	85.71941
1029.707	26.69535
1029.873	7.72721
1030.038	33.01848
1030.204	-9.13173
1030.369	26.69535
1030.534	28.80304
1030.7	18.26482
1030.865	-0.70246
1031.031	62.52924
1031.196	7.72721
1031.361	41.44967
1031.527	-13.34623
1031.692	-9.13173
1031.857	-17.56062
1032.023	-11.23899
1032.188	-87.08375
1032.353	-17.56062
1032.518	-0.70246
1032.684	37.23403
1032.849	-49.16544
1033.014	24.58768
1033.179	9.83468
1033.344	20.37242
1033.509	28.80304
1033.674	3.51233
1033.839	1.40492
1034.004	-25.98912
1034.17	-21.77492
1034.335	16.15725
1034.5	102.58669
1034.664	24.58768
1034.829	16.15725
1034.994	75.17808
1035.159	33.01848
1035.324	-4.91714
1035.489	30.91075
1035.654	-0.70246
1035.819	-4.91714
1035.984	26.69535
1036.148	66.74543
1036.313	16.15725
1036.478	-23.88203
1036.643	39.34183
1036.807	66.74543
1036.972	75.17808
1037.137	16.15725
1037.301	49.88122
1037.466	11.94218
1037.631	100.4782
1037.795	-2.80981
1037.96	16.15725
1038.124	-21.77492
1038.289	7.72721
1038.454	-63.91243
1038.618	-30.20322
1038.783	-38.63112
1038.947	1.40492
1039.111	16.15725
1039.276	-25.98912
1039.44	49.88122
1039.605	-0.70246
1039.769	51.98916
1039.933	-21.77492
1040.098	-66.01904
1040.262	33.01848
1040.426	-49.16544
1040.591	-13.34623
1040.755	16.15725
1040.919	28.80304
1041.083	33.01848
1041.248	9.83468
1041.412	64.63732
1041.576	-0.70246
1041.74	-15.45344
1041.904	-55.48573
1042.068	9.83468
1042.232	3.51233
1042.397	16.15725
1042.561	41.44967
1042.725	-21.77492
1042.889	16.15725
1043.053	11.94218
1043.217	-40.73804
1043.381	28.80304
1043.544	30.91075
1043.708	45.6654
1043.872	7.72721
1044.036	16.15725
1044.2	51.98916
1044.364	45.6654
1044.528	-17.56062
1044.691	1.40492
1044.855	-0.70246
1045.019	-15.45344
1045.183	92.04447
1045.346	-23.88203
1045.51	54.09713
1045.674	-17.56062
1045.837	9.83468
1046.001	-9.13173
1046.165	-13.34623
1046.328	33.01848
1046.492	68.85356
1046.655	-59.69913
1046.819	20.37242
1046.983	24.58768
1047.146	70.96171
1047.31	35.12624
1047.473	16.15725
1047.636	45.6654
1047.8	-30.20322
1047.963	47.77329
1048.127	1.40492
1048.29	20.37242
