Data from mixed_try1_USB4F045381__13__00117.txt Node

Date: Thu Apr 03 20:00:04 EDT 2025
User: mmckonesweet
Spectrometer: USB4F04538
Trigger mode: 4
Integration Time (sec): 2.700000E-3
Scans to average: 1
Electric dark correction enabled: true
Nonlinearity correction enabled: true
Boxcar width: 0
XAxis mode: Wavelengths
Number of Pixels in Spectrum: 3648
>>>>>Begin Spectral Data<<<<<
345.52	50.05688
345.736	50.05688
345.952	50.05688
346.168	-13.17063
346.384	-30.02763
346.6	24.76332
346.816	-72.16318
347.032	7.90283
347.248	28.97868
347.464	52.16483
347.68	-13.17063
347.896	-25.81353
348.112	20.54805
348.328	-36.3486
348.544	-21.59933
348.76	-19.49219
348.975	54.2728
349.191	-17.38502
349.407	35.30189
349.623	-34.24164
349.839	39.51749
350.055	28.97868
350.27	79.57023
350.486	-13.17063
350.702	39.51749
350.918	-15.27784
351.133	-8.95613
351.349	-21.59933
351.565	-57.41689
351.781	-25.81353
351.996	-38.45555
352.212	24.76332
352.428	-36.3486
352.644	22.65567
352.859	-34.24164
353.075	104.87091
353.291	-44.77622
353.506	16.33288
353.722	-17.38502
353.938	20.54805
354.153	58.48881
354.369	-17.38502
354.584	37.40968
354.8	50.05688
355.016	-44.77622
355.231	-25.81353
355.447	-2.6342
355.662	-44.77622
355.878	79.57023
356.093	12.11781
356.309	-13.17063
356.524	-40.56246
356.74	33.19413
356.955	31.08639
357.171	-46.88306
357.386	73.24557
357.602	-4.74153
357.817	-46.88306
358.033	31.08639
358.248	24.76332
358.464	-4.74153
358.679	-4.74153
358.895	12.11781
359.11	-13.17063
359.325	-2.6342
359.541	-59.52357
359.756	-4.74153
359.972	-21.59933
360.187	-6.84884
360.402	12.11781
360.618	10.01031
360.833	-38.45555
361.048	-27.92059
361.264	56.38079
361.479	-36.3486
361.694	-25.81353
361.909	-13.17063
362.125	102.7624
362.34	-0.52684
362.555	35.30189
362.77	-13.17063
362.986	18.44046
363.201	22.65567
363.416	-13.17063
363.631	-78.48264
363.847	-6.84884
364.062	24.76332
364.277	-13.17063
364.492	-38.45555
364.707	43.73317
364.922	20.54805
365.138	33.19413
365.353	-4.74153
365.568	28.97868
365.783	39.51749
365.998	-36.3486
366.213	58.48881
366.428	-44.77622
366.643	-17.38502
366.858	-93.22713
367.073	41.62532
367.288	71.13739
367.503	-21.59933
367.718	-36.3486
367.933	12.11781
368.148	3.68794
368.363	66.92111
368.578	-93.22713
368.793	-21.59933
369.008	3.68794
369.223	-13.17063
369.438	3.68794
369.653	-30.02763
369.868	3.68794
370.083	28.97868
370.298	-15.27784
370.513	-6.84884
370.728	-2.6342
370.943	-89.01455
371.157	-0.52684
371.372	-13.17063
371.587	26.87099
371.802	-103.75813
372.017	20.54805
372.232	-23.70644
372.446	-15.27784
372.661	-38.45555
372.876	-67.95008
373.091	-25.81353
373.306	60.59685
373.52	-27.92059
373.735	-59.52357
373.95	-11.06339
374.165	-11.06339
374.379	-51.09666
374.594	-34.24164
374.809	-65.84349
375.023	-38.45555
375.238	64.813
375.453	-42.66935
375.667	71.13739
375.882	-30.02763
376.097	-30.02763
376.311	20.54805
376.526	-21.59933
376.741	-0.52684
376.955	24.76332
377.17	35.30189
377.384	64.813
377.599	-42.66935
377.813	-107.97035
378.028	28.97868
378.242	-4.74153
378.457	45.84105
378.672	104.87091
378.886	-0.52684
379.101	-30.02763
379.315	-80.58907
379.53	24.76332
379.744	14.22533
379.958	-0.52684
380.173	-61.63024
380.387	-44.77622
380.602	66.92111
380.816	-32.13465
381.031	-30.02763
381.245	24.76332
381.459	-21.59933
381.674	-8.95613
381.888	-27.92059
382.103	20.54805
382.317	-61.63024
382.531	31.08639
382.746	-11.06339
382.96	56.38079
383.174	58.48881
383.388	-25.81353
383.603	41.62532
383.817	-38.45555
384.031	16.33288
384.246	47.94895
384.46	-8.95613
384.674	10.01031
384.888	22.65567
385.103	-6.84884
385.317	3.68794
385.531	64.813
385.745	-61.63024
385.959	-27.92059
386.174	73.24557
386.388	33.19413
386.602	-15.27784
386.816	28.97868
387.03	10.01031
387.244	-30.02763
387.458	-36.3486
387.672	3.68794
387.887	47.94895
388.101	-4.74153
388.315	3.68794
388.529	-44.77622
388.743	-30.02763
388.957	-51.09666
389.171	-4.74153
389.385	7.90283
389.599	33.19413
389.813	-46.88306
390.027	24.76332
390.241	14.22533
390.455	-27.92059
390.669	12.11781
390.883	24.76332
391.097	-42.66935
391.311	-2.6342
391.525	-25.81353
391.738	-70.05664
391.952	39.51749
392.166	12.11781
392.38	20.54805
392.594	20.54805
392.808	12.11781
393.022	-4.74153
393.236	-32.13465
393.449	5.79537
393.663	-78.48264
393.877	106.97945
394.091	-8.95613
394.305	7.90283
394.518	-13.17063
394.732	14.22533
394.946	-17.38502
395.16	83.78679
395.373	28.97868
395.587	-63.73688
395.801	-46.88306
396.015	-4.74153
396.228	-4.74153
396.442	-38.45555
396.656	-0.52684
396.869	-0.52684
397.083	-38.45555
397.297	47.94895
397.51	22.65567
397.724	-2.6342
397.938	20.54805
398.151	56.38079
398.365	58.48881
398.578	62.70491
398.792	31.08639
399.005	-42.66935
399.219	39.51749
399.433	50.05688
399.646	-97.43961
399.86	-61.63024
400.073	37.40968
400.287	-59.52357
400.5	28.97868
400.714	-59.52357
400.927	-19.49219
401.141	-72.16318
401.354	-40.56246
401.567	-25.81353
401.781	12.11781
401.994	-21.59933
402.208	-21.59933
402.421	20.54805
402.635	39.51749
402.848	-91.12085
403.061	62.70491
403.275	-11.06339
403.488	12.11781
403.701	28.97868
403.915	31.08639
404.128	-80.58907
404.341	-11.06339
404.555	39.51749
404.768	73.24557
404.981	12.11781
405.195	24.76332
405.408	56.38079
405.621	-61.63024
405.834	-11.06339
406.048	20.54805
406.261	-53.20343
406.474	-21.59933
406.687	28.97868
406.9	50.05688
407.114	-42.66935
407.327	31.08639
407.54	-17.38502
407.753	-30.02763
407.966	16.33288
408.179	-13.17063
408.392	-17.38502
408.605	35.30189
408.819	-27.92059
409.032	83.78679
409.245	69.02924
409.458	37.40968
409.671	-80.58907
409.884	52.16483
410.097	-30.02763
410.31	-44.77622
410.523	37.40968
410.736	43.73317
410.949	-11.06339
411.162	-51.09666
411.375	16.33288
411.588	-48.98987
411.801	3.68794
412.014	-42.66935
412.227	-15.27784
412.44	-36.3486
412.653	37.40968
412.865	3.68794
413.078	-19.49219
413.291	-8.95613
413.504	-13.17063
413.717	3.68794
413.93	-40.56246
414.143	28.97868
414.356	3.68794
414.568	-40.56246
414.781	-30.02763
414.994	20.54805
415.207	-55.31017
415.42	12.11781
415.632	-4.74153
415.845	28.97868
416.058	-4.74153
416.271	5.79537
416.483	-4.74153
416.696	-2.6342
416.909	18.44046
417.121	56.38079
417.334	3.68794
417.547	1.58054
417.759	-8.95613
417.972	-0.52684
418.185	-8.95613
418.397	31.08639
418.61	3.68794
418.823	-13.17063
419.035	45.84105
419.248	16.33288
419.46	12.11781
419.673	20.54805
419.885	71.13739
420.098	73.24557
420.311	1.58054
420.523	-17.38502
420.736	-44.77622
420.948	28.97868
421.161	-44.77622
421.373	26.87099
421.586	31.08639
421.798	-46.88306
422.01	-2.6342
422.223	7.90283
422.435	24.76332
422.648	24.76332
422.86	-13.17063
423.073	64.813
423.285	20.54805
423.497	-44.77622
423.71	45.84105
423.922	28.97868
424.134	-8.95613
424.347	22.65567
424.559	45.84105
424.771	37.40968
424.984	12.11781
425.196	-48.98987
425.408	-21.59933
425.621	-19.49219
425.833	50.05688
426.045	-4.74153
426.257	26.87099
426.47	3.68794
426.682	-36.3486
426.894	24.76332
427.106	62.70491
427.318	47.94895
427.531	-76.37618
427.743	3.68794
427.955	69.02924
428.167	-19.49219
428.379	28.97868
428.591	98.54544
428.804	-8.95613
429.016	20.54805
429.228	-57.41689
429.44	-11.06339
429.652	-13.17063
429.864	45.84105
430.076	-2.6342
430.288	-13.17063
430.5	-51.09666
430.712	-4.74153
430.924	7.90283
431.136	22.65567
431.348	12.11781
431.56	-53.20343
431.772	-32.13465
431.984	-2.6342
432.196	-25.81353
432.408	14.22533
432.62	60.59685
432.832	-48.98987
433.044	-30.02763
433.256	-2.6342
433.468	56.38079
433.679	-4.74153
433.891	-38.45555
434.103	24.76332
434.315	79.57023
434.527	22.65567
434.739	45.84105
434.95	-72.16318
435.162	10.01031
435.374	31.08639
435.586	7.90283
435.798	-2.6342
436.009	16.33288
436.221	52.16483
436.433	106.97945
436.645	79.57023
436.856	-80.58907
437.068	3.68794
437.28	50.05688
437.491	12.11781
437.703	5.79537
437.915	-19.49219
438.126	18.44046
438.338	-11.06339
438.55	-11.06339
438.761	22.65567
438.973	16.33288
439.184	3.68794
439.396	28.97868
439.608	-4.74153
439.819	50.05688
440.031	-40.56246
440.242	45.84105
440.454	-38.45555
440.665	-23.70644
440.877	12.11781
441.088	3.68794
441.3	-4.74153
441.511	-13.17063
441.723	5.79537
441.934	5.79537
442.146	-46.88306
442.357	-57.41689
442.569	28.97868
442.78	31.08639
442.991	7.90283
443.203	-36.3486
443.414	39.51749
443.626	-19.49219
443.837	-8.95613
444.048	54.2728
444.26	50.05688
444.471	-30.02763
444.682	54.2728
444.894	-42.66935
445.105	-4.74153
445.316	75.35377
445.528	-8.95613
445.739	5.79537
445.95	-36.3486
446.161	-8.95613
446.373	28.97868
446.584	33.19413
446.795	3.68794
447.006	14.22533
447.217	3.68794
447.429	-11.06339
447.64	3.68794
447.851	-19.49219
448.062	-38.45555
448.273	-21.59933
448.484	33.19413
448.695	-86.90822
448.907	-11.06339
449.118	1.58054
449.329	-0.52684
449.54	28.97868
449.751	-4.74153
449.962	16.33288
450.173	39.51749
450.384	-36.3486
450.595	-4.74153
450.806	-15.27784
451.017	96.437
451.228	-11.06339
451.439	3.68794
451.65	37.40968
451.861	31.08639
452.072	-55.31017
452.283	33.19413
452.494	28.97868
452.705	10.01031
452.915	5.79537
453.126	-19.49219
453.337	-53.20343
453.548	79.57023
453.759	22.65567
453.97	-11.06339
454.181	5.79537
454.391	3.68794
454.602	58.48881
454.813	-13.17063
455.024	50.05688
455.235	22.65567
455.445	14.22533
455.656	-72.16318
455.867	-27.92059
456.078	31.08639
456.288	-4.74153
456.499	50.05688
456.71	24.76332
456.921	39.51749
457.131	-34.24164
457.342	-19.49219
457.553	28.97868
457.763	-95.33338
457.974	-25.81353
458.184	47.94895
458.395	24.76332
458.606	-2.6342
458.816	-0.52684
459.027	16.33288
459.237	-89.01455
459.448	45.84105
459.659	56.38079
459.869	-11.06339
460.08	22.65567
460.29	-34.24164
460.501	14.22533
460.711	39.51749
460.922	-8.95613
461.132	-13.17063
461.343	39.51749
461.553	81.6785
461.764	-17.38502
461.974	-27.92059
462.184	-13.17063
462.395	-11.06339
462.605	-51.09666
462.816	-51.09666
463.026	5.79537
463.236	62.70491
463.447	-38.45555
463.657	58.48881
463.867	69.02924
464.078	3.68794
464.288	1.58054
464.498	26.87099
464.709	-82.69548
464.919	47.94895
465.129	-21.59933
465.339	-4.74153
465.55	62.70491
465.76	-6.84884
465.97	-11.06339
466.18	-19.49219
466.391	62.70491
466.601	39.51749
466.811	54.2728
467.021	39.51749
467.231	20.54805
467.441	3.68794
467.651	-15.27784
467.862	-63.73688
468.072	-17.38502
468.282	71.13739
468.492	3.68794
468.702	-19.49219
468.912	7.90283
469.122	12.11781
469.332	-36.3486
469.542	41.62532
469.752	5.79537
469.962	39.51749
470.172	-32.13465
470.382	88.00344
470.592	12.11781
470.802	56.38079
471.012	16.33288
471.222	-2.6342
471.432	-4.74153
471.642	58.48881
471.852	12.11781
472.062	20.54805
472.272	-63.73688
472.482	54.2728
472.691	28.97868
472.901	-48.98987
473.111	66.92111
473.321	12.11781
473.531	3.68794
473.741	24.76332
473.95	62.70491
474.16	69.02924
474.37	-0.52684
474.58	5.79537
474.79	45.84105
474.999	12.11781
475.209	37.40968
475.419	37.40968
475.628	47.94895
475.838	-4.74153
476.048	5.79537
476.258	45.84105
476.467	-8.95613
476.677	-36.3486
476.886	-42.66935
477.096	79.57023
477.306	-36.3486
477.515	20.54805
477.725	35.30189
477.935	26.87099
478.144	-27.92059
478.354	-2.6342
478.563	22.65567
478.773	-11.06339
478.982	-4.74153
479.192	26.87099
479.401	14.22533
479.611	20.54805
479.82	-4.74153
480.03	-17.38502
480.239	39.51749
480.449	22.65567
480.658	-2.6342
480.868	12.11781
481.077	7.90283
481.287	104.87091
481.496	28.97868
481.705	14.22533
481.915	-57.41689
482.124	-25.81353
482.333	5.79537
482.543	20.54805
482.752	35.30189
482.961	33.19413
483.171	28.97868
483.38	75.35377
483.589	-21.59933
483.799	50.05688
484.008	54.2728
484.217	56.38079
484.426	47.94895
484.636	-36.3486
484.845	28.97868
485.054	16.33288
485.263	52.16483
485.472	75.35377
485.682	88.00344
485.891	-34.24164
486.1	50.05688
486.309	115.4138
486.518	45.84105
486.727	50.05688
486.936	-42.66935
487.146	79.57023
487.355	14.22533
487.564	109.088
487.773	-25.81353
487.982	-13.17063
488.191	-17.38502
488.4	71.13739
488.609	56.38079
488.818	96.437
489.027	-13.17063
489.236	31.08639
489.445	50.05688
489.654	12.11781
489.863	-36.3486
490.072	5.79537
490.281	3.68794
490.49	3.68794
490.698	64.813
490.907	35.30189
491.116	117.52244
491.325	45.84105
491.534	-30.02763
491.743	39.51749
491.952	-19.49219
492.16	96.437
492.369	-38.45555
492.578	39.51749
492.787	12.11781
492.996	12.11781
493.204	62.70491
493.413	45.84105
493.622	37.40968
493.831	79.57023
494.039	31.08639
494.248	31.08639
494.457	115.4138
494.665	-34.24164
494.874	24.76332
495.083	12.11781
495.291	39.51749
495.5	54.2728
495.709	28.97868
495.917	37.40968
496.126	5.79537
496.335	62.70491
496.543	35.30189
496.752	-17.38502
496.96	47.94895
497.169	-13.17063
497.377	33.19413
497.586	22.65567
497.794	-0.52684
498.003	41.62532
498.211	28.97868
498.42	50.05688
498.628	83.78679
498.837	37.40968
499.045	90.11179
499.254	138.61006
499.462	43.73317
499.671	125.95723
499.879	41.62532
500.087	71.13739
500.296	12.11781
500.504	73.24557
500.713	22.65567
500.921	62.70491
501.129	62.70491
501.338	102.7624
501.546	79.57023
501.754	73.24557
501.962	41.62532
502.171	88.00344
502.379	22.65567
502.587	106.97945
502.795	62.70491
503.004	121.73979
503.212	33.19413
503.42	168.13631
503.628	71.13739
503.837	79.57023
504.045	106.97945
504.253	62.70491
504.461	64.813
504.669	62.70491
504.877	39.51749
505.085	100.65391
505.294	73.24557
505.502	71.13739
505.71	115.4138
505.918	64.813
506.126	73.24557
506.334	12.11781
506.542	-2.6342
506.75	121.73979
506.958	45.84105
507.166	147.04571
507.374	98.54544
507.582	98.54544
507.79	54.2728
507.998	155.4817
508.206	79.57023
508.414	163.91802
508.622	96.437
508.83	115.4138
509.037	33.19413
509.245	90.11179
509.453	28.97868
509.661	128.06598
509.869	151.26366
510.077	88.00344
510.285	56.38079
510.492	69.02924
510.7	106.97945
510.908	71.13739
511.116	176.57313
511.324	106.97945
511.531	159.69982
511.739	62.70491
511.947	115.4138
512.155	163.91802
512.362	102.7624
512.57	102.7624
512.778	81.6785
512.985	45.84105
513.193	151.26366
513.401	100.65391
513.608	115.4138
513.816	117.52244
514.024	172.35468
514.231	106.97945
514.439	109.088
514.646	54.2728
514.854	18.44046
515.061	125.95723
515.269	147.04571
515.477	138.61006
515.684	144.93677
515.892	155.4817
516.099	121.73979
516.307	113.30518
516.514	121.73979
516.722	147.04571
516.929	189.22898
517.136	172.35468
517.344	125.95723
517.551	125.95723
517.759	106.97945
517.966	182.90097
518.173	113.30518
518.381	104.87091
518.588	88.00344
518.796	92.22017
519.003	56.38079
519.21	102.7624
519.418	189.22898
519.625	163.91802
519.832	206.10459
520.039	159.69982
520.247	159.69982
520.454	168.13631
520.661	210.32369
520.868	138.61006
521.076	235.63997
521.283	151.26366
521.49	142.82785
521.697	237.74979
521.904	185.01029
522.112	151.26366
522.319	225.09118
522.526	176.57313
522.733	180.79167
522.94	225.09118
523.147	189.22898
523.354	265.17916
523.561	231.42039
523.768	168.13631
523.975	216.6525
524.183	180.79167
524.39	176.57313
524.597	214.54287
524.804	212.43327
525.011	210.32369
525.218	195.55718
525.425	235.63997
525.632	216.6525
525.838	189.22898
526.045	225.09118
526.252	172.35468
526.459	218.76214
526.666	157.59075
526.873	227.2009
527.08	210.32369
527.287	360.15111
527.494	256.73901
527.701	328.48976
527.907	201.88557
528.114	298.94277
528.321	250.4091
528.528	301.05315
528.735	282.06037
528.941	271.50948
529.148	216.6525
529.355	286.28086
529.562	163.91802
529.768	216.6525
529.975	301.05315
530.182	256.73901
530.388	263.0691
530.595	250.4091
530.802	282.06037
531.008	273.61962
531.215	277.83996
531.422	389.70517
531.628	307.38441
531.835	341.15383
532.042	227.2009
532.248	303.16355
532.455	239.85962
532.661	379.14977
532.868	250.4091
533.074	372.81673
533.281	315.82634
533.487	244.07936
533.694	349.59689
533.9	402.37219
534.107	303.16355
534.313	404.48342
534.52	341.15383
534.726	412.9285
534.933	396.03861
535.139	320.04741
535.345	366.48384
535.552	349.59689
535.758	400.26098
535.965	385.48296
536.171	385.48296
536.377	417.15113
536.584	436.15378
536.79	507.95283
536.996	421.37383
537.203	370.70575
537.409	328.48976
537.615	400.26098
537.821	383.37188
538.028	444.59982
538.234	400.26098
538.44	419.26247
538.646	436.15378
538.853	417.15113
539.059	332.71105
539.265	389.70517
539.471	353.81853
539.677	455.15771
539.883	488.94552
540.09	522.73711
540.296	438.26527
540.502	459.38097
540.708	499.50499
540.914	531.18558
541.12	402.37219
541.326	605.11903
541.532	501.61693
541.738	476.27464
541.944	478.38641
542.15	567.09406
542.356	486.83367
542.562	543.85871
542.768	501.61693
542.974	484.72183
543.18	484.72183
543.386	653.71246
543.592	569.20645
543.798	558.64466
544.004	571.31885
544.21	573.43126
544.415	552.30774
544.621	586.10602
544.827	596.66867
545.033	653.71246
545.239	493.16926
545.445	655.82537
545.651	577.65613
545.856	689.63343
546.062	611.45693
546.268	657.93829
546.474	562.86933
546.679	679.06809
546.885	552.30774
547.091	603.00642
547.297	598.78124
547.502	647.37382
547.708	554.42003
547.914	649.48669
548.119	624.13307
548.325	670.61603
548.531	702.31221
548.736	734.01088
548.942	655.82537
549.147	664.2771
549.353	723.44439
549.559	763.59846
549.764	750.91783
549.97	731.89756
550.175	687.52034
550.381	816.43829
550.586	666.39007
550.792	894.65167
550.997	772.05243
551.203	818.55201
551.408	586.10602
551.614	679.06809
551.819	795.30164
552.025	763.59846
552.23	772.05243
552.435	884.08162
552.641	839.68967
552.846	801.64253
553.052	909.45008
553.257	892.53765
553.462	858.71433
553.668	854.48657
553.873	791.07442
554.078	913.67827
554.283	767.82543
554.489	945.39064
554.694	943.27643
554.899	898.87975
555.105	841.80349
555.31	966.53312
555.515	877.73969
555.72	1120.89207
555.925	989.79065
556.131	1032.07905
556.336	943.27643
556.541	1027.8501
556.746	945.39064
556.951	1036.30803
557.156	917.90649
557.361	1068.02606
557.567	983.44761
557.772	1074.36982
557.977	903.10786
558.182	1057.45324
558.387	1070.14064
558.592	1163.18696
558.797	1084.94284
559.002	1241.4365
559.207	1042.65153
559.412	1087.05747
559.617	1101.85995
559.822	1101.85995
560.027	1053.22416
560.232	1239.32159
560.437	1051.10962
560.642	1142.0393
560.847	1097.63065
561.051	1254.12602
561.256	1034.19354
561.461	1144.15405
561.666	1131.46563
561.871	1285.85024
562.076	1186.44984
562.281	1304.88501
562.485	1089.17209
562.69	1161.07218
562.895	1087.05747
563.1	1245.66633
563.305	1078.59901
563.509	1207.59829
563.714	1197.02402
563.919	1197.02402
564.123	1271.04553
564.328	1209.71316
564.533	1283.73527
564.737	1391.60069
564.942	1268.93059
565.147	1385.25557
565.351	1161.07218
565.556	1311.22997
565.761	1321.80494
565.965	1298.54007
566.17	1381.0255
566.374	1368.33529
566.579	1188.56467
566.784	1300.65505
566.988	1224.5173
567.193	1389.48565
567.397	1340.84
567.602	1516.38855
567.806	1400.06086
568.011	1488.89297
568.215	1368.33529
568.42	1444.47689
568.624	1345.07003
568.828	1461.39731
569.033	1345.07003
569.237	1400.06086
569.442	1287.9652
569.646	1317.57495
569.85	1491.00802
570.055	1522.73366
570.259	1385.25557
570.463	1535.42387
570.668	1395.83077
570.872	1662.32288
571.076	1412.75114
571.281	1452.9371
571.485	1524.8487
571.689	1641.17355
571.893	1436.01668
572.098	1556.57412
572.302	1431.78658
572.506	1577.72425
572.71	1567.1492
572.914	1653.86318
573.119	1567.1492
573.323	1677.12726
573.527	1429.67153
573.731	1820.93271
573.935	1655.97811
574.139	1655.97811
574.343	1554.4591
574.547	1620.02399
574.751	1626.36888
574.955	1941.45983
575.159	1672.89745
575.364	1801.90066
575.568	1552.34408
575.772	1753.26167
575.976	1600.9892
576.18	1702.50586
576.383	1713.08015
576.587	1814.58873
576.791	1710.9653
576.995	1791.32715
577.199	1829.39128
577.403	1820.93271
577.607	1721.53952
577.811	1958.3745
578.015	1808.24471
578.219	1924.54479
578.422	1833.62054
578.626	1994.31687
578.83	1679.24216
579.034	1964.7174
579.238	1784.98299
579.442	2011.2303
579.645	1867.45392
579.849	2017.57273
580.053	1871.683
580.257	1990.08845
580.46	1852.65197
580.664	1987.97423
580.868	1935.11673
581.071	2023.91509
581.275	1867.45392
581.479	1949.91721
581.682	1956.26019
581.886	2026.0292
582.09	2083.10751
582.293	2224.72229
582.497	2087.33533
582.7	2260.64839
582.904	1818.81805
583.107	2176.11237
583.311	2040.82777
583.515	2125.38432
583.718	2021.80098
583.922	2241.62901
584.125	2051.39797
584.329	2152.86259
584.532	2195.13418
584.735	2171.88521
584.939	2030.2574
585.142	2216.26871
585.346	2055.626
585.549	2355.73393
585.753	2019.68685
585.956	2277.55388
586.159	2085.22143
586.363	2370.52324
586.566	2254.30867
586.769	2383.19939
586.973	2125.38432
587.176	2389.53733
587.379	2378.97405
587.582	2340.94413
587.786	2286.00641
587.989	2353.62113
588.192	2066.19596
588.395	2469.8097
588.599	2370.52324
588.802	2531.05954
589.005	2395.87518
589.208	2438.12509
589.411	2283.89329
589.615	2397.98778
589.818	2362.07226
590.021	2539.50704
590.224	2271.21439
590.427	2404.3255
590.63	2395.87518
590.833	2649.3072
591.036	2374.74866
591.239	2712.63818
591.442	2433.90029
591.645	2505.71593
591.848	2374.74866
592.051	2632.41701
592.254	2488.81929
592.457	2754.85233
592.66	2497.2677
592.863	2590.1881
593.066	2541.61889
593.269	2826.60404
593.472	2490.93141
593.675	2759.07345
593.878	2727.41373
594.081	2820.27364
594.284	2497.2677
594.486	2843.48448
594.689	2666.19658
594.892	2851.92436
595.095	2837.15442
595.298	2881.46216
595.5	2607.08025
595.703	3054.41155
595.906	2704.19471
596.109	2820.27364
596.311	2723.19221
596.514	2870.91327
596.717	2778.06784
596.92	3035.43427
597.122	2759.07345
597.325	3073.38758
597.528	2780.17826
597.73	3092.36234
597.933	2716.85983
598.136	3172.46378
598.338	2788.6198
598.541	3022.78205
598.743	2828.71414
598.946	2982.71306
599.148	2839.26445
599.351	2974.27678
599.554	2841.37447
599.756	2980.60401
599.959	3056.52006
600.161	3012.23811
600.363	2986.9311
600.566	3187.21676
600.768	3130.30802
600.971	3309.42441
601.173	2984.82209
601.376	3088.14584
601.578	2978.49495
601.78	3096.57878
601.983	3062.8455
602.185	3227.2565
602.388	3138.73969
602.59	3142.95543
602.792	3100.79516
602.995	3303.10472
603.197	3012.23811
603.399	3244.11355
603.601	3149.27891
603.804	3248.32764
604.006	2946.85725
604.208	3214.61302
604.41	3161.92545
604.613	3263.07644
604.815	3130.30802
605.017	3315.74395
605.219	3117.66003
605.421	3168.2485
605.623	3235.68516
605.826	3458.94471
606.028	3138.73969
606.23	3404.2011
606.432	3229.36369
606.634	3625.20565
606.836	3140.84756
607.038	3410.51828
607.24	3433.67992
607.442	3503.15183
607.644	3265.18335
607.846	3494.73204
608.048	3303.10472
608.25	3410.51828
608.452	3334.70163
608.654	3437.8909
608.856	3193.53922
609.058	3343.12682
609.26	3307.31787
609.462	3376.8248
609.664	3469.47093
609.866	3555.76888
610.067	3250.43466
610.269	3536.82806
610.471	3157.71
610.673	3545.24639
610.875	3635.72459
611.077	3522.09529
611.278	3435.78542
611.48	3730.37367
611.682	3298.89151
611.884	3530.51413
612.085	3454.73409
612.287	3555.76888
612.489	3269.3971
612.69	3618.89406
612.892	3307.31787
613.094	3620.99794
613.295	3479.99671
613.497	3679.89898
613.699	3444.20723
613.9	3587.33357
614.102	3570.49959
614.304	3833.39144
614.505	3627.30948
614.707	3749.29882
614.908	3488.41701
615.11	3717.75604
615.311	3467.36572
615.513	3841.79897
615.714	3509.46648
615.916	3620.99794
616.117	3591.54188
616.319	3906.94652
616.52	3522.09529
616.722	3854.40967
616.923	3458.94471
617.124	3719.85903
617.326	3543.14183
617.527	3780.83723
617.729	3698.82829
617.93	3747.1961
618.131	3545.24639
618.333	3682.00231
618.534	3745.09337
618.735	4022.48317
618.937	3753.50419
619.138	3780.83723
619.339	3616.79016
619.54	3867.01965
619.742	3766.11985
619.943	3997.28043
620.144	3479.99671
620.345	3867.01965
620.546	3675.69226
620.748	3896.44015
620.949	3635.72459
621.15	3675.69226
621.351	3814.47334
621.552	3824.98359
621.753	3585.22938
621.954	3812.37123
622.155	3728.27078
622.356	3860.71475
622.558	3684.10563
622.759	3986.77842
622.96	3660.96813
623.161	4039.28335
623.362	3877.52742
623.563	4005.68167
623.764	3690.41545
623.965	3936.36167
624.166	3806.06478
624.366	4081.27802
624.567	3803.9626
624.768	3974.17533
624.969	3753.50419
625.17	3982.57747
625.371	3938.46261
625.572	3965.77287
625.773	3892.23746
625.973	3915.35125
626.174	3772.42741
626.375	4192.52354
626.576	3869.12125
626.777	4035.08343
626.977	3885.93328
627.178	4133.75966
627.379	3967.87351
627.58	4087.57651
627.78	3803.9626
627.981	4114.86778
628.182	4035.08343
628.382	4345.65097
628.583	4121.16526
628.784	4098.07357
628.984	4163.14367
629.185	4257.56419
629.386	4039.28335
629.586	4379.19782
629.787	3978.37644
629.987	4125.36348
630.188	4165.24237
630.388	4270.15033
630.589	4014.08259
630.79	4280.6382
630.99	3938.46261
631.191	4133.75966
631.391	4064.48115
631.591	4257.56419
631.792	4026.68334
631.992	4469.32733
632.193	4133.75966
632.393	4320.48719
632.594	4024.58326
632.794	4387.58366
632.994	4173.63695
633.195	4379.19782
633.395	4232.38959
633.595	4232.38959
633.796	4009.88217
633.996	4144.25442
634.196	4240.78146
634.397	4358.23169
634.597	4341.45722
634.797	4498.66306
634.997	3997.28043
635.198	4423.2196
635.398	4349.84463
635.598	4370.81162
635.798	4047.68295
635.998	4391.77645
636.199	4140.05658
636.399	4433.69956
636.599	4234.48759
636.799	4534.27922
636.999	4236.58557
637.199	4301.61232
637.399	4389.68007
637.599	4534.27922
637.799	4251.27083
637.999	4662.02547
638.199	4274.34554
638.399	4588.73859
638.599	4289.02811
638.799	4578.2668
638.999	4488.18651
639.199	4651.55759
639.399	4467.23175
639.599	4622.24456
639.799	4375.00476
639.999	4634.80783
640.199	4324.68137
640.399	4578.2668
640.599	4102.27224
640.799	4703.89135
640.998	4337.26339
641.198	4567.79445
641.398	4442.08314
641.598	4779.22718
641.798	4477.70941
641.997	4745.74821
642.197	4450.46636
642.397	4609.68049
642.597	4395.96915
642.796	4760.39598
642.996	4377.1013
643.196	4685.05282
643.395	4641.08916
643.595	4793.87241
643.795	4410.64293
643.994	4494.47251
644.194	4408.54674
644.394	4712.26344
644.593	4881.72033
644.793	4973.70819
644.992	4835.70977
645.192	4810.60845
645.392	4544.75334
645.591	4862.89917
645.791	4712.26344
645.99	4915.1756
646.19	4695.51889
646.389	4898.4487
646.589	4971.61806
646.788	4938.1727
646.987	4597.11562
647.187	5153.37371
647.386	4915.1756
647.586	4952.80577
647.785	4710.17045
647.984	5023.86462
648.184	4718.54228
648.383	5015.50614
648.582	4885.90256
648.782	5051.02713
648.981	4827.34303
649.18	4925.62917
649.38	4894.26675
649.579	5028.04372
649.778	4896.35773
649.977	5086.54144
650.177	4841.98459
650.376	4871.26436
650.575	4818.97592
650.774	4818.97592
650.973	4917.26636
651.173	5076.09675
651.372	4720.63518
651.571	5005.05752
651.77	5096.98555
651.969	5115.78348
652.168	4856.62503
652.367	4956.98644
652.566	5124.13751
652.765	5055.20563
652.964	4802.24061
653.163	5011.32676
653.362	5119.96054
653.561	5284.88005
653.76	4896.35773
653.959	5103.25173
654.158	4936.08217
654.357	5247.31627
654.556	4896.35773
654.755	5228.53153
654.954	5046.84854
655.153	5305.74555
655.352	5117.87202
655.551	5255.66443
655.749	5099.0743
655.948	5249.40334
656.147	5011.32676
656.346	5170.07805
656.545	5220.18215
656.743	5161.72607
656.942	5000.87791
657.141	5255.66443
657.34	4996.69821
657.538	5253.57742
657.737	5028.04372
657.936	5420.46388
658.135	4977.8884
658.333	5276.5332
658.532	5247.31627
658.731	5278.61995
658.929	5203.48228
659.128	5295.31309
659.326	5105.34042
659.525	5303.65911
659.724	5255.66443
659.922	5353.7273
660.121	5082.36363
660.319	5362.07069
660.518	5128.31439
660.716	5241.0549
660.915	5080.27469
661.113	5391.26959
661.312	4961.16701
661.51	5351.6414
661.709	5178.42967
661.907	5299.48615
662.105	5199.30708
662.304	5320.35
662.502	5245.22917
662.701	5314.09109
662.899	5069.82966
663.097	5389.18411
663.296	5370.4137
663.494	5410.03788
663.692	5324.52249
663.891	5510.10327
664.089	5437.14427
664.287	5435.05931
664.485	5322.43626
664.684	5799.56972
664.882	5299.48615
665.08	5828.69935
665.278	5420.46388
665.476	5787.08418
665.675	5393.35505
665.873	5322.43626
666.071	5305.74555
666.269	5453.82316
666.467	5155.46183
666.665	5453.82316
666.863	5261.9253
667.061	5712.1531
667.259	5364.15648
667.457	5564.28272
667.655	5297.39963
667.853	5470.50053
668.051	5389.18411
668.249	5362.07069
668.447	5449.65358
668.645	5387.0986
668.843	5362.07069
669.041	5362.07069
669.239	5255.66443
669.437	5445.4839
669.635	5341.21152
669.833	5445.4839
670.031	5420.46388
670.229	5483.00758
670.426	5558.03205
670.624	5528.8595
670.822	5249.40334
671.02	5464.24669
671.218	5570.53317
671.415	5522.60763
671.613	5318.26372
671.811	5422.54902
672.009	5309.91837
672.206	5495.51378
672.404	5426.71921
672.602	5614.28037
672.799	5303.65911
672.997	5630.94324
673.195	5508.01913
673.392	5770.43547
673.59	5466.33133
673.788	5353.7273
673.985	5305.74555
674.183	5662.18205
674.38	5503.85077
674.578	5645.52201
674.775	5422.54902
674.973	5678.84057
675.17	5505.93496
675.368	5633.02599
675.565	5462.16203
675.763	5359.98488
675.96	5257.75141
676.158	5666.34682
676.355	5297.39963
676.553	5495.51378
676.75	5364.15648
676.947	5724.64374
677.145	5318.26372
677.342	5728.80709
677.539	5299.48615
677.737	5807.89294
677.934	5205.56985
678.131	5545.5301
678.329	5553.86483
678.526	5837.02125
678.723	5776.67892
678.92	5728.80709
679.118	5643.4394
679.315	5710.07124
679.512	5545.5301
679.709	5691.33348
679.906	5334.95331
680.104	5562.19919
680.301	5470.50053
680.498	5460.07735
680.695	5424.63412
680.892	5508.01913
681.089	5372.4994
681.286	5720.48028
681.483	5274.44643
681.68	5653.85222
681.877	5268.18597
682.075	5605.94837
682.272	5572.6166
682.469	5689.25139
682.665	5405.86731
682.862	5528.8595
683.059	5487.17641
683.256	5416.29355
683.453	5378.75634
683.65	5553.86483
683.847	5420.46388
684.044	5451.73838
684.241	5337.0394
684.438	5728.80709
684.635	5291.13995
684.831	5703.82553
685.028	5505.93496
685.225	5455.90791
685.422	5495.51378
685.619	5591.36647
685.815	5449.65358
686.012	5583.03343
686.209	4961.16701
686.405	5624.69484
686.602	5462.16203
686.799	5691.33348
686.996	5370.4137
687.192	5505.93496
687.389	5370.4137
687.586	5605.94837
687.782	5405.86731
687.979	5647.6046
688.175	5339.12547
688.372	5674.67608
688.568	5472.5851
688.765	5480.92313
688.962	5437.14427
689.158	5645.52201
689.355	5385.01307
689.551	5670.5115
689.748	5503.85077
689.944	5520.52363
690.14	5211.8324
690.337	5447.56875
690.533	5566.36622
690.73	5499.68232
690.926	5539.2788
691.123	5213.91988
691.319	5241.0549
691.515	5583.03343
691.712	5382.92752
691.908	5589.28324
692.104	5395.44048
692.301	5547.61381
692.497	5382.92752
692.693	5689.25139
692.889	5439.22921
693.086	5678.84057
693.282	5414.20835
693.478	5514.27149
693.674	5447.56875
693.87	5653.85222
694.067	5432.97432
694.263	5439.22921
694.459	5387.0986
694.655	5524.69161
694.851	5270.27281
695.047	5528.8595
695.243	5357.89904
695.439	5353.7273
695.635	5226.44422
695.831	5587.19999
696.027	5337.0394
696.224	5514.27149
696.42	5503.85077
696.615	5495.51378
696.811	5514.27149
697.007	5570.53317
697.203	5353.7273
697.399	5428.80427
697.595	5424.63412
697.791	5393.35505
697.987	5222.26953
698.183	5728.80709
698.379	5203.48228
698.575	5555.94845
698.77	5330.78105
698.966	5220.18215
699.162	5382.92752
699.358	5382.92752
699.554	5130.4028
699.749	5545.5301
699.945	5201.39469
700.141	5707.98936
700.337	5441.31413
700.532	5353.7273
700.728	5122.04904
700.924	5439.22921
701.119	5322.43626
701.315	5612.19741
701.511	5176.3418
701.706	5378.75634
701.902	5186.78091
702.097	5412.12313
702.293	5305.74555
702.489	5472.5851
702.684	5405.86731
702.88	5416.29355
703.075	5339.12547
703.271	5339.12547
703.466	5339.12547
703.662	5341.21152
703.857	5395.44048
704.053	5478.83866
704.248	5555.94845
704.443	5462.16203
704.639	5280.70667
704.834	5395.44048
705.03	5199.30708
705.225	5447.56875
705.42	5243.14204
705.616	5580.95011
705.811	5357.89904
706.006	5520.52363
706.202	5345.38354
706.397	5389.18411
706.592	5163.8141
706.787	5362.07069
706.983	5284.88005
707.178	5530.9434
707.373	5326.6087
707.568	5357.89904
707.763	5147.10919
707.959	5524.69161
708.154	5572.6166
708.349	5514.27149
708.544	5530.9434
708.739	5545.5301
708.934	5115.78348
709.129	5470.50053
709.324	5255.66443
709.519	5564.28272
709.714	5069.82966
709.909	5718.39852
710.104	5374.58507
710.299	5203.48228
710.494	5399.61129
710.689	5480.92313
710.884	5349.55547
711.079	5574.70001
711.274	5213.91988
711.469	5578.86677
711.664	5170.07805
711.859	5397.5259
712.054	4956.98644
712.249	5399.61129
712.443	5193.0441
712.638	5395.44048
712.833	5142.93273
713.028	5539.2788
713.223	5199.30708
713.417	5558.03205
713.612	5159.63801
713.807	5447.56875
714.002	5353.7273
714.196	5470.50053
714.391	5264.01222
714.586	5293.22653
714.78	5161.72607
714.975	5614.28037
715.17	5055.20563
715.364	5468.41594
715.559	5347.46952
715.754	5370.4137
715.948	5099.0743
716.143	5332.86719
716.337	5111.60632
716.532	5397.5259
716.726	5174.25391
716.921	5328.69489
717.115	5337.0394
717.31	5387.0986
717.504	5249.40334
717.699	5541.36259
717.893	5149.19739
718.088	5495.51378
718.282	5272.35963
718.476	5274.44643
718.671	4990.42848
718.865	5284.88005
719.059	5053.11639
719.254	5301.57264
719.448	4950.7154
719.642	5314.09109
719.837	4913.08482
720.031	5289.05334
720.225	4875.44682
720.419	5403.78199
720.614	4959.07674
720.808	5276.5332
721.002	5053.11639
721.196	5109.51771
721.39	5096.98555
721.585	5362.07069
721.779	5055.20563
721.973	5241.0549
722.167	4996.69821
722.361	5155.46183
722.555	4867.08181
722.749	5163.8141
722.943	4967.43771
723.137	5195.13178
723.331	5036.40165
723.525	5153.37371
723.719	5149.19739
723.913	5153.37371
724.107	4781.31943
724.301	5199.30708
724.495	5046.84854
724.689	5209.74491
724.883	5161.72607
725.077	5259.83837
725.271	4963.25727
725.465	5174.25391
725.659	4710.17045
725.853	5122.04904
726.046	4944.44415
726.24	5030.13324
726.434	4867.08181
726.628	5282.79337
726.822	4986.24855
727.015	5028.04372
727.209	4818.97592
727.403	5324.52249
727.596	5002.96772
727.79	5065.65148
727.984	5174.25391
728.177	5345.38354
728.371	5011.32676
728.565	5111.60632
728.758	5149.19739
728.952	5270.27281
729.146	5019.68543
729.339	5264.01222
729.533	5086.54144
729.726	5084.45254
729.92	5119.96054
730.113	5128.31439
730.307	5107.42907
730.5	5224.35689
730.694	5199.30708
730.887	5178.42967
731.081	4946.53459
731.274	5220.18215
731.468	4936.08217
731.661	5193.0441
731.854	5002.96772
732.048	5147.10919
732.241	5205.56985
732.435	5268.18597
732.628	5117.87202
732.821	5289.05334
733.014	5241.0549
733.208	5023.86462
733.401	5157.54993
733.594	5119.96054
733.788	4896.35773
733.981	5090.71915
734.174	5107.42907
734.367	5218.09475
734.56	4988.33852
734.754	5082.36363
734.947	5153.37371
735.14	5193.0441
735.333	5065.65148
735.526	5211.8324
735.719	5222.26953
735.912	5270.27281
736.105	4990.42848
736.298	5203.48228
736.491	5078.18573
736.684	5216.00733
736.877	4977.8884
737.07	5180.51752
737.263	5209.74491
737.456	5241.0549
737.649	5228.53153
737.842	5107.42907
738.035	5178.42967
738.228	5201.39469
738.421	5172.16599
738.614	5180.51752
738.807	5247.31627
739	5142.93273
739.192	5038.49107
739.385	5178.42967
739.578	5243.14204
739.771	4910.99402
739.964	5015.50614
740.156	5228.53153
740.349	5078.18573
740.542	5069.82966
740.735	5115.78348
740.927	5174.25391
741.12	5103.25173
741.313	5048.93785
741.505	4998.78807
741.698	5136.66787
741.891	5032.22273
742.083	5032.22273
742.276	5036.40165
742.468	4992.51841
742.661	4977.8884
742.854	5128.31439
743.046	5040.58047
743.239	5218.09475
743.431	5088.6303
743.624	5013.41646
743.816	4942.35369
744.009	4900.53964
744.201	4881.72033
744.393	5142.93273
744.586	4844.07615
744.778	5140.84447
744.971	4793.87241
745.163	4944.44415
745.355	4936.08217
745.548	4887.99364
745.74	5011.32676
745.932	5096.98555
746.125	5115.78348
746.317	4954.89611
746.509	4685.05282
746.702	5074.00774
746.894	4844.07615
747.086	4982.06852
747.278	4827.34303
747.471	5122.04904
747.663	5211.8324
747.855	5092.80797
748.047	4913.08482
748.239	5153.37371
748.431	4929.81044
748.623	4969.52789
748.815	4977.8884
749.008	5013.41646
749.2	4984.15855
749.392	5046.84854
749.584	4812.70035
749.776	5094.89677
749.968	4747.84082
750.16	4835.70977
750.352	4682.95953
750.544	5030.13324
750.736	4929.81044
750.928	5099.0743
751.12	5086.54144
751.311	5023.86462
751.503	4963.25727
751.695	5157.54993
751.887	4793.87241
752.079	5051.02713
752.271	4931.90104
752.463	4944.44415
752.654	4854.53361
752.846	4827.34303
753.038	4777.13492
753.23	5009.23704
753.421	5153.37371
753.613	4745.74821
753.805	4887.99364
753.997	4904.72146
754.188	5005.05752
754.38	4818.97592
754.572	4770.85798
754.763	4860.80781
754.955	4626.43241
755.146	4979.97847
755.338	4628.52629
755.53	4802.24061
755.721	4754.1185
755.913	4705.98441
756.104	4624.33849
756.296	4915.1756
756.487	4649.46395
756.679	4977.8884
756.87	4687.14608
757.062	4647.37029
757.253	4703.89135
757.445	4645.2766
757.636	4818.97592
757.827	4793.87241
758.019	4705.98441
758.21	4687.14608
758.401	4693.42572
758.593	4925.62917
758.784	4567.79445
758.975	4611.77456
759.167	4356.13495
759.358	4595.02139
759.549	4525.89952
759.74	4557.32155
759.932	4525.89952
760.123	4586.64427
760.314	4647.37029
760.505	4620.15061
760.696	4685.05282
760.888	4806.42457
761.079	4425.31564
761.27	4458.84923
761.461	4590.83288
761.652	4812.70035
761.843	4523.80454
762.034	4710.17045
762.225	4643.18289
762.416	4597.11562
762.607	4519.61452
762.798	4720.63518
762.989	4609.68049
763.18	4603.39815
763.371	4345.65097
763.562	4519.61452
763.753	4569.88897
763.944	4645.2766
764.135	4351.94142
764.326	4655.74481
764.517	4494.47251
764.708	4561.51078
764.899	4354.0382
765.089	4368.71502
765.28	4282.73571
765.471	4377.1013
765.662	4427.41165
765.853	4366.6184
766.043	4513.32931
766.234	4521.70954
766.425	4444.17898
766.615	4339.36031
766.806	4333.06947
766.997	4387.58366
767.187	4513.32931
767.378	4563.60536
767.569	4148.45218
767.759	4595.02139
767.95	4310.00137
768.141	4553.13224
768.331	4274.34554
768.522	4312.09858
768.712	4184.12971
768.903	4377.1013
769.093	4270.15033
769.284	4274.34554
769.474	4154.74866
769.665	4211.40841
769.855	4240.78146
770.046	4182.03121
770.236	4156.84744
770.426	4051.88262
770.617	4081.27802
770.807	4137.95763
770.998	4289.02811
771.188	4240.78146
771.378	4123.26438
771.569	4333.06947
771.759	3976.2759
771.949	3993.07969
772.139	4081.27802
772.33	4064.48115
772.52	4022.48317
772.71	4207.21192
772.9	4011.98239
773.09	4043.48319
773.281	4140.05658
773.471	4005.68167
773.661	3835.49335
773.851	3978.37644
774.041	3982.57747
774.231	4070.78013
774.421	3917.45239
774.611	3940.56352
774.802	3997.28043
774.992	4043.48319
775.182	3988.87886
775.372	4102.27224
775.562	3938.46261
775.752	4032.98344
775.942	3753.50419
776.131	3915.35125
776.321	3669.38203
776.511	3782.93963
776.701	3738.78504
776.891	4041.38328
777.081	3841.79897
777.271	4028.78339
777.461	3904.84529
777.651	3999.38077
777.84	3873.32437
778.03	3997.28043
778.22	3867.01965
778.41	4005.68167
778.599	3812.37123
778.789	4003.58139
778.979	3747.1961
779.169	3871.22282
779.358	3671.48546
779.548	3988.87886
779.738	3692.51869
779.927	3829.18756
780.117	3833.39144
780.307	3764.01729
780.496	3745.09337
780.686	3732.47655
780.875	3492.62705
781.065	3932.15975
781.254	3595.75011
781.444	3871.22282
781.633	3627.30948
781.823	3644.13941
782.012	3631.51707
782.202	3789.24673
782.391	3612.5823
782.581	3745.09337
782.77	3568.39525
782.96	3719.85903
783.149	3559.97774
783.338	3703.03459
783.528	3692.51869
783.717	3665.17512
783.906	3631.51707
784.096	3614.68624
784.285	3461.04999
784.474	3635.72459
784.663	3332.59529
784.853	3585.22938
785.042	3341.02055
785.231	3782.93963
785.42	3418.94094
785.61	3629.41329
785.799	3593.646
785.988	3667.27858
786.177	3486.31196
786.366	3433.67992
786.555	3437.8909
786.744	3433.67992
786.933	3444.20723
787.122	3479.99671
787.312	3404.2011
787.501	3517.88576
787.69	3275.71761
787.879	3486.31196
788.068	3341.02055
788.257	3465.2605
788.445	3206.1837
788.634	3551.55994
788.823	3399.98955
789.012	3315.74395
789.201	3142.95543
789.39	3433.67992
789.579	3193.53922
789.768	3482.10181
789.957	3166.14083
790.145	3334.70163
790.334	3216.72031
790.523	3322.06333
790.712	3206.1837
790.9	3332.59529
791.089	3286.25146
791.278	3461.04999
791.467	3218.82758
791.655	3189.32426
791.844	3273.61079
792.033	3319.95689
792.221	3081.82097
792.41	3307.31787
792.599	2881.46216
792.787	3336.80796
792.976	3231.47086
793.164	3433.67992
793.353	3081.82097
793.541	3313.63745
793.73	3227.2565
793.918	3244.11355
794.107	3056.52006
794.295	3368.40072
794.484	3134.52389
794.672	3383.14267
794.861	3195.64668
795.049	3149.27891
795.238	3014.34692
795.426	3088.14584
795.614	3018.56452
795.803	3164.03315
795.991	3092.36234
796.179	3079.71265
796.368	2991.14909
796.556	3223.04207
796.744	2976.38587
796.932	3149.27891
797.121	2953.18506
797.309	3220.93484
797.497	3161.92545
797.685	3157.71
797.874	2948.96653
798.062	2961.62193
798.25	2955.2943
798.438	3113.44391
798.626	2910.99716
798.814	3130.30802
799.002	3041.76017
799.19	3107.11961
799.378	2993.25806
799.566	3134.52389
799.755	2972.16768
799.943	3197.75411
800.131	2929.98244
800.318	3024.89079
800.506	2906.77805
800.694	3067.06238
800.882	3012.23811
801.07	3071.2792
801.258	2955.2943
801.446	3077.60431
801.634	2860.36402
801.822	3056.52006
802.01	2847.70445
802.197	3134.52389
802.385	2809.72271
802.573	3050.19449
802.761	2970.05856
802.949	3081.82097
803.136	2965.84027
803.324	3079.71265
803.512	3037.54291
803.699	2904.66847
803.887	3041.76017
804.075	3056.52006
804.262	2873.02308
804.45	3054.41155
804.638	2868.80345
804.825	3252.54167
805.013	3026.99951
805.201	3197.75411
805.388	3020.67329
805.576	3054.41155
805.763	3174.5714
805.951	3037.54291
806.138	2851.92436
806.326	3265.18335
806.513	2906.77805
806.701	3164.03315
806.888	3054.41155
807.075	3096.57878
807.263	3054.41155
807.45	3012.23811
807.638	3126.09209
807.825	3227.2565
808.012	2974.27678
808.2	3130.30802
808.387	2942.63863
808.574	3113.44391
808.761	3094.47057
808.949	3199.86153
809.136	3079.71265
809.323	3191.43175
809.51	2940.5293
809.698	3016.45573
809.885	2942.63863
810.072	2989.0401
810.259	2712.63818
810.446	3113.44391
810.633	2980.60401
810.82	3199.86153
811.008	3172.46378
811.195	3155.60225
811.382	2896.23002
811.569	3183.00171
811.756	2944.74795
811.943	3235.68516
812.13	2948.96653
812.317	3168.2485
812.504	3242.00648
812.691	3073.38758
812.878	2944.74795
813.064	3189.32426
813.251	3126.09209
813.438	3332.59529
813.625	2946.85725
813.812	3134.52389
813.999	3012.23811
814.186	3142.95543
814.372	3037.54291
814.559	3062.8455
814.746	3026.99951
814.933	3142.95543
815.12	3012.23811
815.306	3374.7188
815.493	2913.10669
815.68	3208.29105
815.866	3022.78205
816.053	3244.11355
816.24	2915.21621
816.426	3117.66003
816.613	2910.99716
816.799	3197.75411
816.986	2944.74795
817.173	3048.08593
817.359	3142.95543
817.546	3121.87609
817.732	2946.85725
817.919	3037.54291
818.105	3012.23811
818.292	3083.92927
818.478	2995.36701
818.665	3273.61079
818.851	2929.98244
819.037	3003.80268
819.224	2835.04437
819.41	3079.71265
819.597	2809.72271
819.783	3092.36234
819.969	2948.96653
820.156	2995.36701
820.342	3012.23811
820.528	3145.06327
820.714	2953.18506
820.901	3105.01148
821.087	2868.80345
821.273	3161.92545
821.459	3012.23811
821.646	3216.72031
821.832	2864.58376
822.018	3058.62856
822.204	2868.80345
822.39	3031.21692
822.576	2714.74901
822.762	3037.54291
822.948	2727.41373
823.134	2904.66847
823.32	2887.79133
823.507	3096.57878
823.693	2870.91327
823.879	3054.41155
824.065	2735.85661
824.25	2923.65415
824.436	2811.83292
824.622	2913.10669
824.808	2873.02308
824.994	2974.27678
825.18	2754.85233
825.366	3048.08593
825.552	2704.19471
825.738	2919.43521
825.923	2742.18864
826.109	2951.0758
826.295	2550.06615
826.481	2868.80345
826.667	2666.19658
826.852	2927.87302
827.038	2615.52603
827.224	2725.30298
827.409	2594.41121
827.595	2725.30298
827.781	2522.61185
827.966	2803.39198
828.152	2623.97162
828.338	2666.19658
828.523	2518.38794
828.709	2657.75199
828.894	2581.74173
829.08	2708.41647
829.266	2623.97162
829.451	2866.69361
829.637	2575.40683
829.822	2894.12037
830.008	2564.84842
830.193	2670.4188
830.378	2581.74173
830.564	2885.68162
830.749	2699.97291
830.935	2727.41373
831.12	2493.04352
831.305	2851.92436
831.491	2526.83572
831.676	2699.97291
831.861	2353.62113
832.047	2647.19597
832.232	2564.84842
832.417	2590.1881
832.602	2455.02385
832.788	2676.75204
832.973	2581.74173
833.158	2598.63427
833.343	2484.59501
833.528	2628.19434
833.714	2632.41701
833.899	2697.86198
834.084	2433.90029
834.269	2647.19597
834.454	2531.05954
834.639	2455.02385
834.824	2455.02385
835.009	2535.28331
835.194	2256.42192
835.379	2647.19597
835.564	2321.92796
835.749	2598.63427
835.934	2378.97405
836.119	2446.57456
836.304	2296.57186
836.489	2465.58523
836.674	2302.91101
836.859	2480.37069
837.044	2266.98802
837.228	2516.27597
837.413	2275.44073
837.598	2419.11315
837.783	2186.68013
837.968	2463.47298
838.152	2214.1553
838.337	2459.24844
838.522	2258.53516
838.707	2372.63596
838.891	2125.38432
839.076	2378.97405
839.261	2102.13245
839.445	2180.3395
839.63	2212.04188
839.815	2207.815
839.999	2078.87967
840.184	2256.42192
840.368	2108.47396
840.553	2163.4308
840.737	2125.38432
840.922	2247.96888
841.106	1941.45983
841.291	2332.4926
841.475	2051.39797
841.66	2370.52324
841.844	1913.9727
842.029	2243.74231
842.213	2095.79087
842.397	2066.19596
842.582	2051.39797
842.766	2290.23262
842.951	2002.77364
843.135	2288.11952
843.319	2045.05587
843.504	2042.94183
843.688	1952.03154
843.872	2216.26871
844.056	2142.29418
844.241	2222.60891
844.425	1981.63154
844.609	2146.52157
844.793	2000.65946
844.977	2214.1553
845.161	1901.28602
845.346	1998.54527
845.53	1916.08713
845.714	2190.90717
845.898	1897.05708
846.082	2015.45859
846.266	1795.55657
846.45	2178.22594
846.634	1911.85827
846.818	2023.91509
847.002	1871.683
847.186	1964.7174
847.37	1778.6388
847.554	2009.11614
847.738	1882.25563
847.922	1797.67127
848.106	1962.60311
848.29	2133.83932
848.473	1854.76655
848.657	1867.45392
848.841	1778.6388
849.025	1916.08713
849.209	1952.03154
849.392	1928.77358
849.576	1956.26019
849.76	1952.03154
849.944	1698.27612
850.127	1964.7174
850.311	1715.19499
850.495	1789.21243
850.678	1645.40344
850.862	1753.26167
851.046	1761.72078
851.229	1964.7174
851.413	1685.58684
851.596	1744.80251
851.78	1744.80251
851.964	1787.09772
852.147	1575.60924
852.331	1732.11366
852.514	1727.88401
852.698	1770.17982
852.881	1651.74825
853.065	1825.162
853.248	1749.0321
853.431	1820.93271
853.615	1579.83925
853.798	1774.40932
853.982	1533.30884
854.165	1596.75922
854.348	1550.22906
854.532	1628.48384
854.715	1598.87421
854.898	1778.6388
855.081	1636.94366
855.265	1833.62054
855.448	1651.74825
855.631	1681.35705
855.814	1594.64423
855.997	1871.683
856.181	1607.33415
856.364	1782.86827
856.547	1729.99884
856.73	1600.9892
856.913	1469.85752
857.096	1552.34408
857.279	1474.08762
857.462	1668.66763
857.645	1315.45996
857.828	1626.36888
858.011	1615.79405
858.194	1584.06925
858.377	1338.72499
858.56	1613.67908
858.743	1287.9652
858.926	1520.61862
859.109	1429.67153
859.292	1450.82205
859.475	1279.50535
859.658	1425.44143
859.841	1402.1759
860.023	1328.14995
860.206	1326.03495
860.389	1372.56536
860.572	1290.08017
860.755	1421.21133
860.937	1355.64513
861.12	1334.49497
861.303	1224.5173
861.486	1531.1938
861.668	1313.34496
861.851	1387.37061
862.034	1146.2688
862.216	1237.20668
862.399	1177.99056
862.581	1256.24095
862.764	1173.76094
862.947	1315.45996
863.129	1222.40241
863.312	1311.22997
863.494	1199.13887
863.677	1340.84
863.859	1084.94284
864.042	1309.11498
864.224	1177.99056
864.406	1330.26495
864.589	1072.25523
864.771	1144.15405
864.954	1137.80982
865.136	1188.56467
865.318	1101.85995
865.501	1245.66633
865.683	1114.54799
865.865	1152.61308
866.048	1046.88057
866.23	1144.15405
866.412	994.01938
866.594	1112.43331
866.777	1158.9574
866.959	1070.14064
867.141	926.36301
867.323	1165.30175
867.505	1036.30803
867.687	1108.20395
867.869	1137.80982
868.052	1228.74708
868.234	1112.43331
868.416	1220.28753
868.598	1029.96458
868.78	1152.61308
868.962	1074.36982
869.144	1173.76094
869.326	974.99031
869.508	1019.39227
869.69	1021.50672
869.872	1129.35091
870.054	1025.73564
870.236	1087.05747
870.417	1127.23619
870.599	1091.28672
870.781	966.53312
870.963	1103.97461
871.145	915.79237
871.327	945.39064
871.508	979.21894
871.69	1154.72785
871.872	924.24887
872.054	1133.58036
872.235	888.30962
872.417	981.33327
872.599	1000.36252
872.78	1120.89207
872.962	941.16222
873.144	1042.65153
873.325	958.07604
873.507	1000.36252
873.689	968.64741
873.87	1076.48441
874.052	994.01938
874.233	1084.94284
874.415	926.36301
874.596	1165.30175
874.778	983.44761
874.959	1101.85995
875.141	1044.76605
875.322	1146.2688
875.503	958.07604
875.685	1220.28753
875.866	894.65167
876.048	1021.50672
876.229	877.73969
876.41	1038.42252
876.592	934.81966
876.773	1099.7453
876.954	915.79237
877.136	981.33327
877.317	869.28389
877.498	1036.30803
877.679	884.08162
877.86	920.02061
878.042	839.68967
878.223	1046.88057
878.404	871.39783
878.585	981.33327
878.766	807.98352
878.947	1123.00677
879.128	894.65167
879.309	1048.99509
879.49	1036.30803
879.672	1123.00677
879.853	884.08162
880.034	1110.31863
880.215	934.81966
880.396	877.73969
880.576	928.47716
880.757	1025.73564
880.938	991.90501
881.119	1169.53134
881.3	1008.82012
881.481	1129.35091
881.662	966.53312
881.843	1078.59901
882.023	1000.36252
882.204	1112.43331
882.385	907.336
882.566	1013.04897
882.747	1017.27783
882.927	1129.35091
883.108	1133.58036
883.289	1103.97461
883.469	1070.14064
883.65	1057.45324
883.831	1019.39227
884.011	1040.53703
884.192	915.79237
884.373	1228.74708
884.553	917.90649
884.734	1046.88057
884.914	1127.23619
885.095	1036.30803
885.275	1055.3387
885.456	1190.6795
885.636	1057.45324
885.817	1127.23619
885.997	1015.1634
886.178	1120.89207
886.358	1108.20395
886.538	1173.76094
886.719	1021.50672
886.899	1180.10537
887.08	1013.04897
887.26	1207.59829
887.44	1127.23619
887.621	1300.65505
887.801	1080.71362
887.981	1152.61308
888.161	1000.36252
888.342	1097.63065
888.522	1017.27783
888.702	989.79065
888.882	1017.27783
889.062	1144.15405
889.242	1025.73564
889.423	991.90501
889.603	987.67629
889.783	1245.66633
889.963	983.44761
890.143	1247.78125
890.323	1010.93454
890.503	1095.516
890.683	1046.88057
890.863	1137.80982
891.043	989.79065
891.223	1152.61308
891.403	1101.85995
891.583	1144.15405
891.763	1004.59131
891.943	1249.89617
892.122	1059.5678
892.302	1046.88057
892.482	955.96179
892.662	1120.89207
892.842	1008.82012
893.022	968.64741
893.201	974.99031
893.381	966.53312
893.561	974.99031
893.741	1053.22416
893.92	949.61908
894.1	1025.73564
894.28	1000.36252
894.459	1019.39227
894.639	949.61908
894.819	960.1903
894.998	966.53312
895.178	1038.42252
895.357	1072.25523
895.537	1053.22416
895.716	873.51177
895.896	1110.31863
896.075	881.96763
896.255	972.876
896.434	860.82823
896.614	1017.27783
896.793	924.24887
896.973	1010.93454
897.152	869.28389
897.331	953.84754
897.511	858.71433
897.69	962.30457
897.87	911.56417
898.049	949.61908
898.228	822.77947
898.407	926.36301
898.587	801.64253
898.766	945.39064
898.945	780.50655
899.124	869.28389
899.304	850.25884
899.483	974.99031
899.662	740.35091
899.841	867.16996
900.02	736.12421
900.199	780.50655
900.378	596.66867
900.557	810.0972
900.737	698.0859
900.916	839.68967
901.095	765.71194
901.274	784.73367
901.453	748.80442
901.632	778.393
901.811	611.45693
901.989	772.05243
902.168	666.39007
902.347	691.74653
902.526	645.26097
902.705	672.72903
902.884	638.92247
903.063	759.37154
903.242	594.55612
903.42	628.35855
903.599	571.31885
903.778	681.18114
903.957	653.71246
904.135	611.45693
904.314	628.35855
904.493	645.26097
904.672	562.86933
904.85	577.65613
905.029	501.61693
905.207	592.44357
905.386	619.90764
905.565	624.13307
905.743	480.4982
905.922	463.6043
906.1	495.28116
906.279	583.99353
906.457	486.83367
906.636	518.51296
906.814	427.708
906.993	465.71598
907.171	434.04231
907.35	543.85871
907.528	383.37188
907.707	463.6043
907.885	562.86933
908.063	560.75699
908.242	493.16926
908.42	434.04231
908.598	427.708
908.777	491.05738
908.955	400.26098
909.133	467.82768
909.311	438.26527
909.49	560.75699
909.668	366.48384
909.846	442.48828
910.024	326.37915
910.202	406.59467
910.38	292.61173
910.559	467.82768
910.737	358.04023
910.915	493.16926
911.093	450.9345
911.271	484.72183
911.449	444.59982
911.627	482.61001
911.805	476.27464
911.983	573.43126
912.161	548.0832
912.339	421.37383
912.517	427.708
912.695	417.15113
912.872	459.38097
913.05	391.8163
913.228	339.04311
913.406	419.26247
913.584	385.48296
913.762	476.27464
913.939	425.5966
914.117	526.96132
914.295	417.15113
914.473	520.62503
914.65	360.15111
914.828	450.9345
915.006	425.5966
915.184	467.82768
915.361	396.03861
915.539	400.26098
915.716	374.92772
915.894	440.37677
916.072	315.82634
916.249	358.04023
916.427	374.92772
916.604	385.48296
916.782	345.37533
916.959	427.708
917.137	400.26098
917.314	476.27464
917.492	317.93686
917.669	421.37383
917.847	347.4861
918.024	355.92937
918.201	383.37188
918.379	459.38097
918.556	301.05315
918.733	366.48384
918.911	326.37915
919.088	349.59689
919.265	402.37219
919.442	351.7077
919.62	324.26855
919.797	366.48384
919.974	345.37533
920.151	322.15797
920.328	393.92744
920.506	339.04311
920.683	374.92772
920.86	408.70593
921.037	328.48976
921.214	374.92772
921.391	282.06037
921.568	256.73901
921.745	320.04741
921.922	311.60534
922.099	258.84902
922.276	332.71105
922.453	286.28086
922.63	410.8172
922.807	311.60534
922.984	320.04741
923.161	334.82172
923.338	298.94277
923.514	252.51905
923.691	307.38441
923.868	290.50142
924.045	294.72206
924.222	222.98148
924.399	326.37915
924.575	301.05315
924.752	326.37915
924.929	263.0691
925.105	383.37188
925.282	265.17916
925.459	269.39935
925.635	309.49486
925.812	284.17061
925.989	235.63997
926.165	298.94277
926.342	237.74979
926.518	260.95905
926.695	360.15111
926.871	355.92937
927.048	199.77609
927.224	282.06037
927.401	189.22898
927.577	231.42039
927.754	248.29916
927.93	229.31064
928.107	246.18925
928.283	172.35468
928.459	222.98148
928.636	241.96948
928.812	151.26366
928.988	208.21413
929.165	241.96948
929.341	187.11962
929.517	227.2009
929.693	250.4091
929.87	88.00344
930.046	136.50121
930.222	222.98148
930.398	174.4639
930.574	138.61006
930.751	136.50121
930.927	191.33836
931.103	206.10459
931.279	176.57313
931.455	195.55718
931.631	136.50121
931.807	174.4639
931.983	138.61006
932.159	187.11962
932.335	130.17476
932.511	147.04571
932.687	235.63997
932.863	185.01029
933.039	104.87091
933.215	134.39237
933.391	73.24557
933.566	149.15468
933.742	130.17476
933.918	138.61006
934.094	214.54287
934.27	174.4639
934.445	113.30518
934.621	163.91802
934.797	104.87091
934.973	79.57023
935.148	88.00344
935.324	123.8485
935.5	58.48881
935.675	123.8485
935.851	81.6785
936.027	50.05688
936.202	130.17476
936.378	45.84105
936.553	54.2728
936.729	88.00344
936.904	45.84105
937.08	85.8951
937.255	52.16483
937.431	83.78679
937.606	7.90283
937.782	121.73979
937.957	56.38079
938.133	3.68794
938.308	79.57023
938.483	24.76332
938.659	31.08639
938.834	60.59685
939.009	37.40968
939.185	-15.27784
939.36	81.6785
939.535	5.79537
939.71	33.19413
939.886	43.73317
940.061	24.76332
940.236	56.38079
940.411	43.73317
940.586	81.6785
940.761	41.62532
940.937	73.24557
941.112	88.00344
941.287	88.00344
941.462	37.40968
941.637	113.30518
941.812	66.92111
941.987	47.94895
942.162	100.65391
942.337	7.90283
942.512	73.24557
942.687	54.2728
942.862	37.40968
943.037	37.40968
943.212	45.84105
943.386	58.48881
943.561	66.92111
943.736	69.02924
943.911	31.08639
944.086	12.11781
944.26	47.94895
944.435	20.54805
944.61	10.01031
944.785	3.68794
944.959	58.48881
945.134	35.30189
945.309	-36.3486
945.483	-34.24164
945.658	28.97868
945.833	73.24557
946.007	75.35377
946.182	33.19413
946.357	31.08639
946.531	-27.92059
946.706	41.62532
946.88	31.08639
947.055	113.30518
947.229	73.24557
947.404	12.11781
947.578	45.84105
947.752	104.87091
947.927	16.33288
948.101	41.62532
948.276	81.6785
948.45	-19.49219
948.624	64.813
948.799	28.97868
948.973	31.08639
949.147	35.30189
949.321	45.84105
949.496	37.40968
949.67	-42.66935
949.844	45.84105
950.018	58.48881
950.193	7.90283
950.367	54.2728
950.541	66.92111
950.715	-27.92059
950.889	14.22533
951.063	62.70491
951.237	37.40968
951.411	3.68794
951.585	96.437
951.759	41.62532
951.933	88.00344
952.107	20.54805
952.281	24.76332
952.455	33.19413
952.629	7.90283
952.803	79.57023
952.977	113.30518
953.151	41.62532
953.325	64.813
953.499	54.2728
953.672	39.51749
953.846	28.97868
954.02	73.24557
954.194	56.38079
954.368	7.90283
954.541	47.94895
954.715	123.8485
954.889	90.11179
955.062	56.38079
955.236	117.52244
955.41	96.437
955.583	52.16483
955.757	-15.27784
955.93	94.32857
956.104	75.35377
956.278	117.52244
956.451	62.70491
956.625	5.79537
956.798	121.73979
956.972	-0.52684
957.145	64.813
957.319	47.94895
957.492	-53.20343
957.665	12.11781
957.839	132.28355
958.012	-17.38502
958.185	88.00344
958.359	47.94895
958.532	98.54544
958.705	12.11781
958.879	-11.06339
959.052	64.813
959.225	73.24557
959.398	28.97868
959.572	130.17476
959.745	37.40968
959.918	-15.27784
960.091	26.87099
960.264	66.92111
960.438	3.68794
960.611	-2.6342
960.784	16.33288
960.957	18.44046
961.13	39.51749
961.303	96.437
961.476	81.6785
961.649	20.54805
961.822	50.05688
961.995	-27.92059
962.168	-27.92059
962.341	16.33288
962.514	22.65567
962.686	109.088
962.859	1.58054
963.032	-4.74153
963.205	45.84105
963.378	62.70491
963.551	37.40968
963.723	56.38079
963.896	-0.52684
964.069	64.813
964.242	45.84105
964.414	3.68794
964.587	83.78679
964.76	-21.59933
964.932	45.84105
965.105	62.70491
965.278	71.13739
965.45	85.8951
965.623	16.33288
965.795	31.08639
965.968	28.97868
966.14	96.437
966.313	47.94895
966.485	-8.95613
966.658	58.48881
966.83	14.22533
967.003	-11.06339
967.175	39.51749
967.348	20.54805
967.52	-25.81353
967.692	47.94895
967.865	5.79537
968.037	28.97868
968.209	50.05688
968.382	62.70491
968.554	37.40968
968.726	64.813
968.898	62.70491
969.071	90.11179
969.243	83.78679
969.415	-4.74153
969.587	100.65391
969.759	56.38079
969.932	113.30518
970.104	41.62532
970.276	-13.17063
970.448	-2.6342
970.62	-0.52684
970.792	3.68794
970.964	83.78679
971.136	22.65567
971.308	-38.45555
971.48	47.94895
971.652	41.62532
971.824	14.22533
971.996	60.59685
972.168	45.84105
972.339	-13.17063
972.511	-38.45555
972.683	24.76332
972.855	14.22533
973.027	77.46199
973.199	12.11781
973.37	20.54805
973.542	41.62532
973.714	35.30189
973.886	109.088
974.057	77.46199
974.229	37.40968
974.401	54.2728
974.572	18.44046
974.744	58.48881
974.915	28.97868
975.087	79.57023
975.259	37.40968
975.43	3.68794
975.602	26.87099
975.773	47.94895
975.945	20.54805
976.116	3.68794
976.288	28.97868
976.459	24.76332
976.63	47.94895
976.802	-6.84884
976.973	39.51749
977.145	-19.49219
977.316	45.84105
977.487	10.01031
977.659	20.54805
977.83	56.38079
978.001	79.57023
978.172	12.11781
978.344	47.94895
978.515	56.38079
978.686	54.2728
978.857	24.76332
979.028	47.94895
979.2	121.73979
979.371	71.13739
979.542	12.11781
979.713	-19.49219
979.884	1.58054
980.055	58.48881
980.226	41.62532
980.397	-8.95613
980.568	5.79537
980.739	52.16483
980.91	-19.49219
981.081	3.68794
981.252	54.2728
981.423	22.65567
981.594	39.51749
981.765	-21.59933
981.936	-0.52684
982.106	37.40968
982.277	37.40968
982.448	94.32857
982.619	-27.92059
982.79	54.2728
982.96	43.73317
983.131	39.51749
983.302	45.84105
983.472	-19.49219
983.643	37.40968
983.814	10.01031
983.984	-4.74153
984.155	54.2728
984.326	24.76332
984.496	35.30189
984.667	45.84105
984.837	5.79537
985.008	7.90283
985.178	16.33288
985.349	-8.95613
985.519	47.94895
985.69	16.33288
985.86	12.11781
986.031	45.84105
986.201	-0.52684
986.371	54.2728
986.542	-34.24164
986.712	12.11781
986.882	26.87099
987.053	-2.6342
987.223	37.40968
987.393	45.84105
987.563	47.94895
987.734	28.97868
987.904	39.51749
988.074	-55.31017
988.244	-38.45555
988.414	20.54805
988.585	-59.52357
988.755	7.90283
988.925	-15.27784
989.095	-0.52684
989.265	71.13739
989.435	98.54544
989.605	-17.38502
989.775	-19.49219
989.945	-8.95613
990.115	58.48881
990.285	20.54805
990.455	58.48881
990.625	20.54805
990.795	-2.6342
990.965	-36.3486
991.134	22.65567
991.304	7.90283
991.474	50.05688
991.644	-76.37618
991.814	79.57023
991.984	-48.98987
992.153	12.11781
992.323	39.51749
992.493	50.05688
992.662	-21.59933
992.832	-21.59933
993.002	43.73317
993.171	-21.59933
993.341	5.79537
993.511	22.65567
993.68	24.76332
993.85	16.33288
994.019	79.57023
994.189	3.68794
994.358	-55.31017
994.528	12.11781
994.697	-13.17063
994.867	62.70491
995.036	22.65567
995.206	12.11781
995.375	14.22533
995.544	58.48881
995.714	-13.17063
995.883	37.40968
996.052	3.68794
996.222	10.01031
996.391	3.68794
996.56	-11.06339
996.73	33.19413
996.899	3.68794
997.068	-13.17063
997.237	-2.6342
997.406	-17.38502
997.576	62.70491
997.745	-57.41689
997.914	-19.49219
998.083	113.30518
998.252	3.68794
998.421	18.44046
998.59	77.46199
998.759	3.68794
998.928	69.02924
999.097	71.13739
999.266	28.97868
999.435	54.2728
999.604	-46.88306
999.773	-11.06339
999.942	-42.66935
1000.111	12.11781
1000.28	64.813
1000.448	10.01031
1000.617	47.94895
1000.786	-15.27784
1000.955	-44.77622
1001.124	47.94895
1001.292	79.57023
1001.461	41.62532
1001.63	62.70491
1001.798	41.62532
1001.967	-38.45555
1002.136	24.76332
1002.304	-6.84884
1002.473	37.40968
1002.642	-46.88306
1002.81	-30.02763
1002.979	-15.27784
1003.147	28.97868
1003.316	22.65567
1003.484	12.11781
1003.653	62.70491
1003.821	37.40968
1003.99	37.40968
1004.158	45.84105
1004.327	-13.17063
1004.495	-13.17063
1004.663	-42.66935
1004.832	-23.70644
1005	-21.59933
1005.168	-13.17063
1005.337	-0.52684
1005.505	-2.6342
1005.673	39.51749
1005.842	-46.88306
1006.01	54.2728
1006.178	-0.52684
1006.346	24.76332
1006.514	45.84105
1006.683	73.24557
1006.851	-11.06339
1007.019	5.79537
1007.187	-34.24164
1007.355	-6.84884
1007.523	31.08639
1007.691	5.79537
1007.859	56.38079
1008.027	-46.88306
1008.195	22.65567
1008.363	-8.95613
1008.531	-4.74153
1008.699	-6.84884
1008.867	66.92111
1009.035	12.11781
1009.203	81.6785
1009.37	20.54805
1009.538	-27.92059
1009.706	22.65567
1009.874	-65.84349
1010.042	7.90283
1010.209	37.40968
1010.377	12.11781
1010.545	28.97868
1010.713	-15.27784
1010.88	-63.73688
1011.048	47.94895
1011.216	14.22533
1011.383	52.16483
1011.551	-11.06339
1011.718	-30.02763
1011.886	62.70491
1012.054	-4.74153
1012.221	5.79537
1012.389	-19.49219
1012.556	31.08639
1012.724	3.68794
1012.891	50.05688
1013.058	20.54805
1013.226	39.51749
1013.393	-4.74153
1013.561	-4.74153
1013.728	-15.27784
1013.895	-76.37618
1014.063	24.76332
1014.23	-0.52684
1014.397	-0.52684
1014.565	12.11781
1014.732	50.05688
1014.899	-21.59933
1015.066	-27.92059
1015.233	-51.09666
1015.401	37.40968
1015.568	-34.24164
1015.735	-76.37618
1015.902	45.84105
1016.069	37.40968
1016.236	28.97868
1016.403	-19.49219
1016.57	-2.6342
1016.737	-0.52684
1016.904	12.11781
1017.071	-27.92059
1017.238	-13.17063
1017.405	-15.27784
1017.572	56.38079
1017.739	-27.92059
1017.906	20.54805
1018.073	31.08639
1018.24	-30.02763
1018.407	37.40968
1018.573	14.22533
1018.74	-46.88306
1018.907	-0.52684
1019.074	96.437
1019.241	-8.95613
1019.407	5.79537
1019.574	-0.52684
1019.741	14.22533
1019.907	-0.52684
1020.074	-44.77622
1020.241	3.68794
1020.407	35.30189
1020.574	-21.59933
1020.74	-4.74153
1020.907	41.62532
1021.073	20.54805
1021.24	-38.45555
1021.406	-8.95613
1021.573	3.68794
1021.739	-42.66935
1021.906	-46.88306
1022.072	3.68794
1022.239	-80.58907
1022.405	-30.02763
1022.571	69.02924
1022.738	14.22533
1022.904	12.11781
1023.07	22.65567
1023.237	54.2728
1023.403	-0.52684
1023.569	-19.49219
1023.735	-21.59933
1023.902	1.58054
1024.068	10.01031
1024.234	12.11781
1024.4	-63.73688
1024.566	16.33288
1024.732	3.68794
1024.898	33.19413
1025.065	79.57023
1025.231	14.22533
1025.397	33.19413
1025.563	-44.77622
1025.729	20.54805
1025.895	-42.66935
1026.061	-19.49219
1026.227	18.44046
1026.392	-19.49219
1026.558	-4.74153
1026.724	10.01031
1026.89	1.58054
1027.056	31.08639
1027.222	33.19413
1027.388	39.51749
1027.553	-25.81353
1027.719	-32.13465
1027.885	-4.74153
1028.051	12.11781
1028.216	-4.74153
1028.382	-34.24164
1028.548	71.13739
1028.713	-72.16318
1028.879	-0.52684
1029.045	20.54805
1029.21	-38.45555
1029.376	-6.84884
1029.541	28.97868
1029.707	20.54805
1029.873	-4.74153
1030.038	28.97868
1030.204	26.87099
1030.369	-11.06339
1030.534	47.94895
1030.7	43.73317
1030.865	-38.45555
1031.031	22.65567
1031.196	50.05688
1031.361	20.54805
1031.527	16.33288
1031.692	-72.16318
1031.857	-67.95008
1032.023	-21.59933
1032.188	-8.95613
1032.353	20.54805
1032.518	47.94895
1032.684	33.19413
1032.849	-23.70644
1033.014	-15.27784
1033.179	3.68794
1033.344	96.437
1033.509	-0.52684
1033.674	94.32857
1033.839	-46.88306
1034.004	52.16483
1034.17	-4.74153
1034.335	-36.3486
1034.5	-6.84884
1034.664	-0.52684
1034.829	96.437
1034.994	12.11781
1035.159	35.30189
1035.324	81.6785
1035.489	-4.74153
1035.654	45.84105
1035.819	-0.52684
1035.984	-21.59933
1036.148	-72.16318
1036.313	43.73317
1036.478	52.16483
1036.643	-6.84884
1036.807	31.08639
1036.972	-55.31017
1037.137	20.54805
1037.301	-25.81353
1037.466	28.97868
1037.631	64.813
1037.795	37.40968
1037.96	33.19413
1038.124	-19.49219
1038.289	-11.06339
1038.454	-21.59933
1038.618	7.90283
1038.783	-17.38502
1038.947	47.94895
1039.111	24.76332
1039.276	-55.31017
1039.44	-0.52684
1039.605	71.13739
1039.769	-25.81353
1039.933	12.11781
1040.098	73.24557
1040.262	-11.06339
1040.426	-4.74153
1040.591	62.70491
1040.755	-19.49219
1040.919	-8.95613
1041.083	12.11781
1041.248	12.11781
1041.412	-30.02763
1041.576	-11.06339
1041.74	3.68794
1041.904	-21.59933
1042.068	45.84105
1042.232	-30.02763
1042.397	3.68794
1042.561	45.84105
1042.725	12.11781
1042.889	-11.06339
1043.053	-27.92059
1043.217	-21.59933
1043.381	-17.38502
1043.544	28.97868
1043.708	-63.73688
1043.872	28.97868
1044.036	1.58054
1044.2	58.48881
1044.364	-4.74153
1044.528	-6.84884
1044.691	54.2728
1044.855	10.01031
1045.019	54.2728
1045.183	47.94895
1045.346	-19.49219
1045.51	3.68794
1045.674	45.84105
1045.837	81.6785
1046.001	-11.06339
1046.165	37.40968
1046.328	16.33288
1046.492	54.2728
1046.655	1.58054
1046.819	22.65567
1046.983	45.84105
1047.146	-34.24164
1047.31	5.79537
1047.473	37.40968
1047.636	12.11781
1047.8	64.813
1047.963	22.65567
1048.127	12.11781
1048.29	-17.38502
