Data from mixed_try1_USB4F045381__12__00116.txt Node

Date: Thu Apr 03 20:00:04 EDT 2025
User: mmckonesweet
Spectrometer: USB4F04538
Trigger mode: 4
Integration Time (sec): 2.700000E-3
Scans to average: 1
Electric dark correction enabled: true
Nonlinearity correction enabled: true
Boxcar width: 0
XAxis mode: Wavelengths
Number of Pixels in Spectrum: 3648
>>>>>Begin Spectral Data<<<<<
345.52	-28.44736
345.736	-28.44736
345.952	-28.44736
346.168	-11.5902
346.384	15.80599
346.6	-7.37567
346.816	55.85379
347.032	15.80599
347.248	51.63784
347.464	-45.30293
347.68	17.91356
347.896	-17.91182
348.112	-72.68981
348.328	17.91356
348.544	-3.16104
348.76	-3.16104
348.975	-9.48295
349.191	26.34407
349.407	13.69845
349.623	60.06984
349.839	22.12877
350.055	13.69845
350.27	22.12877
350.486	24.2364
350.702	85.36802
350.918	38.99053
351.133	32.66719
351.349	30.55946
351.565	38.99053
351.781	9.48343
351.996	24.2364
352.212	26.34407
352.428	38.99053
352.644	26.34407
352.859	13.69845
353.075	-66.37014
353.291	-45.30293
353.506	49.5299
353.722	-28.44736
353.938	-3.16104
354.153	-53.73012
354.369	30.55946
354.584	-15.80464
354.8	24.2364
355.016	-28.44736
355.231	-34.76838
355.447	72.71852
355.662	-28.44736
355.878	1.05369
356.093	66.39408
356.309	24.2364
356.524	-62.1569
356.74	-26.3403
356.955	-13.69743
357.171	28.45175
357.386	81.15143
357.602	9.48343
357.817	57.9618
358.033	34.77495
358.248	-34.76838
358.464	41.09836
358.679	-24.23321
358.895	-20.01897
359.11	38.99053
359.325	64.28597
359.541	30.55946
359.756	43.20621
359.972	32.66719
360.187	9.48343
360.402	11.59093
360.618	-68.47672
360.833	5.26851
361.048	68.5022
361.264	7.37596
361.479	-3.16104
361.694	13.69845
361.909	-53.73012
362.125	-30.55439
362.34	32.66719
362.555	41.09836
362.77	-15.80464
362.986	38.99053
363.201	-3.16104
363.416	51.63784
363.631	30.55946
363.847	15.80599
364.062	13.69845
364.277	1.05369
364.492	-13.69743
364.707	-20.01897
364.922	22.12877
365.138	47.42198
365.353	-11.5902
365.568	-26.3403
365.783	-22.12611
365.998	22.12877
366.213	-11.5902
366.428	-62.1569
366.643	-24.23321
366.858	28.45175
367.073	49.5299
367.288	11.59093
367.503	-1.05368
367.718	38.99053
367.933	-28.44736
368.148	-85.32845
368.363	-20.01897
368.578	-87.4348
368.793	57.9618
369.008	41.09836
369.223	30.55946
369.438	13.69845
369.653	-70.58328
369.868	1.05369
370.083	49.5299
370.298	30.55946
370.513	-41.08919
370.728	-11.5902
370.943	7.37596
371.157	7.37596
371.372	-20.01897
371.587	57.9618
371.802	13.69845
372.017	-3.16104
372.232	24.2364
372.446	13.69845
372.661	22.12877
372.876	-20.01897
373.091	-36.87534
373.306	-28.44736
373.52	-41.08919
373.735	22.12877
373.95	22.12877
374.165	3.16109
374.379	-28.44736
374.594	-74.79631
374.809	-11.5902
375.023	32.66719
375.238	70.61035
375.453	41.09836
375.667	-11.5902
375.882	17.91356
376.097	85.36802
376.311	-57.94356
376.526	55.85379
376.741	47.42198
376.955	-1.05368
377.17	-1.05368
377.384	-17.91182
377.599	98.01833
377.813	-15.80464
378.028	-45.30293
378.242	17.91356
378.457	-7.37567
378.672	-3.16104
378.886	1.05369
379.101	34.77495
379.315	15.80599
379.53	66.39408
379.744	30.55946
379.958	34.77495
380.173	-11.5902
380.387	47.42198
380.602	-28.44736
380.816	7.37596
381.031	15.80599
381.245	43.20621
381.459	45.31408
381.674	-49.51657
381.888	28.45175
382.103	5.26851
382.317	-74.79631
382.531	26.34407
382.746	-62.1569
382.96	-11.5902
383.174	13.69845
383.388	5.26851
383.603	3.16109
383.817	-66.37014
384.031	22.12877
384.246	53.7458
384.46	-3.16104
384.674	-43.19607
384.888	17.91356
385.103	-34.76838
385.317	-57.94356
385.531	49.5299
385.745	-53.73012
385.959	17.91356
386.174	51.63784
386.388	-51.62336
386.602	108.56086
386.816	49.5299
387.03	9.48343
387.244	13.69845
387.458	-32.6614
387.672	81.15143
387.887	-62.1569
388.101	-28.44736
388.315	-53.73012
388.529	-34.76838
388.743	26.34407
388.957	5.26851
389.171	-91.64742
389.385	-62.1569
389.599	55.85379
389.813	-15.80464
390.027	-20.01897
390.241	-9.48295
390.455	-45.30293
390.669	38.99053
390.883	17.91356
391.097	-1.05368
391.311	-45.30293
391.525	-45.30293
391.738	-15.80464
391.952	11.59093
392.166	-9.48295
392.38	-11.5902
392.594	20.02115
392.808	30.55946
393.022	74.82672
393.236	-11.5902
393.449	47.42198
393.663	15.80599
393.877	-26.3403
394.091	-15.80464
394.305	-53.73012
394.518	-93.7537
394.732	43.20621
394.946	5.26851
395.16	-53.73012
395.373	7.37596
395.587	-26.3403
395.801	-28.44736
396.015	32.66719
396.228	22.12877
396.442	9.48343
396.656	-15.80464
396.869	-11.5902
397.083	-28.44736
397.297	-34.76838
397.51	1.05369
397.724	-57.94356
397.938	13.69845
398.151	15.80599
398.365	-1.05368
398.578	-34.76838
398.792	72.71852
399.005	-11.5902
399.219	22.12877
399.433	-1.05368
399.646	26.34407
399.86	30.55946
400.073	-41.08919
400.287	49.5299
400.5	-26.3403
400.714	30.55946
400.927	-32.6614
401.141	45.31408
401.354	-7.37567
401.567	-32.6614
401.781	-7.37567
401.994	-32.6614
402.208	30.55946
402.421	13.69845
402.635	17.91356
402.848	41.09836
403.061	15.80599
403.275	-17.91182
403.488	-15.80464
403.701	-28.44736
403.915	13.69845
404.128	-1.05368
404.341	17.91356
404.555	-13.69743
404.768	-57.94356
404.981	13.69845
405.195	5.26851
405.408	-7.37567
405.621	-7.37567
405.834	-7.37567
406.048	55.85379
406.261	-3.16104
406.474	15.80599
406.687	13.69845
406.9	17.91356
407.114	26.34407
407.327	17.91356
407.54	-34.76838
407.753	1.05369
407.966	64.28597
408.179	53.7458
408.392	-11.5902
408.605	-22.12611
408.819	47.42198
409.032	13.69845
409.245	20.02115
409.458	24.2364
409.671	-45.30293
409.884	-13.69743
410.097	51.63784
410.31	-45.30293
410.523	-43.19607
410.736	-53.73012
410.949	76.93493
411.162	36.88273
411.375	5.26851
411.588	45.31408
411.801	72.71852
412.014	13.69845
412.227	5.26851
412.44	34.77495
412.653	-7.37567
412.865	-13.69743
413.078	30.55946
413.291	17.91356
413.504	22.12877
413.717	32.66719
413.93	22.12877
414.143	-38.98228
414.356	15.80599
414.568	-15.80464
414.781	9.48343
414.994	30.55946
415.207	-9.48295
415.42	49.5299
415.632	5.26851
415.845	-28.44736
416.058	45.31408
416.271	5.26851
416.483	-1.05368
416.696	-13.69743
416.909	-62.1569
417.121	7.37596
417.334	13.69845
417.547	26.34407
417.759	-17.91182
417.972	-26.3403
418.185	5.26851
418.397	53.7458
418.61	-60.05024
418.823	1.05369
419.035	24.2364
419.248	11.59093
419.46	-51.62336
419.673	-32.6614
419.885	47.42198
420.098	34.77495
420.311	5.26851
420.523	26.34407
420.736	5.26851
420.948	-32.6614
421.161	66.39408
421.373	7.37596
421.586	-28.44736
421.798	-20.01897
422.01	-20.01897
422.223	41.09836
422.435	-32.6614
422.648	43.20621
422.86	-55.83685
423.073	7.37596
423.285	5.26851
423.497	-17.91182
423.71	17.91356
423.922	1.05369
424.134	7.37596
424.347	26.34407
424.559	-28.44736
424.771	34.77495
424.984	30.55946
425.196	-45.30293
425.408	30.55946
425.621	-22.12611
425.833	-32.6614
426.045	89.5847
426.257	81.15143
426.47	5.26851
426.682	-55.83685
426.894	55.85379
427.106	1.05369
427.318	-17.91182
427.531	17.91356
427.743	-15.80464
427.955	-5.26836
428.167	26.34407
428.379	-17.91182
428.591	5.26851
428.804	1.05369
429.016	-7.37567
429.228	22.12877
429.44	-28.44736
429.652	89.5847
429.864	-32.6614
430.076	60.06984
430.288	30.55946
430.5	-26.3403
430.712	-36.87534
430.924	34.77495
431.136	13.69845
431.348	55.85379
431.56	13.69845
431.772	24.2364
431.984	17.91356
432.196	5.26851
432.408	-9.48295
432.62	-34.76838
432.832	36.88273
433.044	-9.48295
433.256	100.12679
433.468	30.55946
433.679	-17.91182
433.891	-41.08919
434.103	76.93493
434.315	24.2364
434.527	-11.5902
434.739	-38.98228
434.95	-20.01897
435.162	-11.5902
435.374	15.80599
435.586	72.71852
435.798	-7.37567
436.009	-17.91182
436.221	-26.3403
436.433	22.12877
436.645	-17.91182
436.856	32.66719
437.068	-70.58328
437.28	26.34407
437.491	9.48343
437.703	-1.05368
437.915	32.66719
438.126	-32.6614
438.338	-57.94356
438.55	9.48343
438.761	36.88273
438.973	-5.26836
439.184	-22.12611
439.396	-45.30293
439.608	-11.5902
439.819	-15.80464
440.031	-34.76838
440.242	-32.6614
440.454	-11.5902
440.665	-20.01897
440.877	43.20621
441.088	60.06984
441.3	-62.1569
441.511	-3.16104
441.723	5.26851
441.934	-15.80464
442.146	-9.48295
442.357	43.20621
442.569	-5.26836
442.78	26.34407
442.991	-24.23321
443.203	-24.23321
443.414	17.91356
443.626	13.69845
443.837	26.34407
444.048	-28.44736
444.26	85.36802
444.471	-43.19607
444.682	13.69845
444.894	53.7458
445.105	55.85379
445.316	24.2364
445.528	47.42198
445.739	-57.94356
445.95	-9.48295
446.161	38.99053
446.373	-1.05368
446.584	17.91356
446.795	-15.80464
447.006	-26.3403
447.217	55.85379
447.429	49.5299
447.64	5.26851
447.851	-20.01897
448.062	47.42198
448.273	7.37596
448.484	5.26851
448.695	26.34407
448.907	72.71852
449.118	9.48343
449.329	13.69845
449.54	64.28597
449.751	34.77495
449.962	-1.05368
450.173	-20.01897
450.384	66.39408
450.595	1.05369
450.806	57.9618
451.017	22.12877
451.228	22.12877
451.439	-49.51657
451.65	-22.12611
451.861	47.42198
452.072	32.66719
452.283	28.45175
452.494	17.91356
452.705	89.5847
452.915	-9.48295
453.126	-17.91182
453.337	1.05369
453.548	68.5022
453.759	5.26851
453.97	26.34407
454.181	-5.26836
454.391	-26.3403
454.602	-15.80464
454.813	76.93493
455.024	-11.5902
455.235	13.69845
455.445	98.01833
455.656	-51.62336
455.867	34.77495
456.078	17.91356
456.288	13.69845
456.499	30.55946
456.71	-47.40976
456.921	57.9618
457.131	-47.40976
457.342	-60.05024
457.553	-20.01897
457.763	41.09836
457.974	-11.5902
458.184	13.69845
458.395	22.12877
458.606	-36.87534
458.816	-3.16104
459.027	22.12877
459.237	-5.26836
459.448	13.69845
459.659	-32.6614
459.869	43.20621
460.08	-3.16104
460.29	-7.37567
460.501	-20.01897
460.711	22.12877
460.922	5.26851
461.132	-15.80464
461.343	7.37596
461.553	64.28597
461.764	106.45231
461.974	26.34407
462.184	-11.5902
462.395	-26.3403
462.605	135.97399
462.816	5.26851
463.026	-41.08919
463.236	24.2364
463.447	81.15143
463.657	11.59093
463.867	47.42198
464.078	43.20621
464.288	5.26851
464.498	76.93493
464.709	-28.44736
464.919	-11.5902
465.129	7.37596
465.339	26.34407
465.55	-9.48295
465.76	-45.30293
465.97	-30.55439
466.18	49.5299
466.391	55.85379
466.601	-11.5902
466.811	22.12877
467.021	-83.22208
467.231	17.91356
467.441	-51.62336
467.651	55.85379
467.862	5.26851
468.072	-20.01897
468.282	-3.16104
468.492	85.36802
468.702	-7.37567
468.912	3.16109
469.122	-28.44736
469.332	7.37596
469.542	-17.91182
469.752	-9.48295
469.962	-1.05368
470.172	43.20621
470.382	66.39408
470.592	45.31408
470.802	9.48343
471.012	-1.05368
471.222	34.77495
471.432	-43.19607
471.642	43.20621
471.852	43.20621
472.062	26.34407
472.272	-3.16104
472.482	22.12877
472.691	49.5299
472.901	30.55946
473.111	30.55946
473.321	47.42198
473.531	64.28597
473.741	45.31408
473.95	-5.26836
474.16	51.63784
474.37	13.69845
474.58	-15.80464
474.79	49.5299
474.999	-43.19607
475.209	22.12877
475.419	60.06984
475.628	30.55946
475.838	66.39408
476.048	22.12877
476.258	-28.44736
476.467	22.12877
476.677	38.99053
476.886	102.23527
477.096	20.02115
477.306	85.36802
477.515	47.42198
477.725	7.37596
477.935	-3.16104
478.144	26.34407
478.354	-24.23321
478.563	55.85379
478.773	87.47635
478.982	32.66719
479.192	13.69845
479.401	-3.16104
479.611	7.37596
479.82	13.69845
480.03	1.05369
480.239	-26.3403
480.449	127.53879
480.658	13.69845
480.868	-47.40976
481.077	24.2364
481.287	15.80599
481.496	53.7458
481.705	-49.51657
481.915	72.71852
482.124	26.34407
482.333	-17.91182
482.543	64.28597
482.752	45.31408
482.961	22.12877
483.171	-11.5902
483.38	30.55946
483.589	51.63784
483.799	17.91356
484.008	76.93493
484.217	49.5299
484.426	-45.30293
484.636	38.99053
484.845	38.99053
485.054	72.71852
485.263	22.12877
485.472	55.85379
485.682	-1.05368
485.891	51.63784
486.1	49.5299
486.309	34.77495
486.518	89.5847
486.727	-7.37567
486.936	-41.08919
487.146	72.71852
487.355	-85.32845
487.564	9.48343
487.773	55.85379
487.982	72.71852
488.191	72.71852
488.4	34.77495
488.609	15.80599
488.818	-22.12611
489.027	3.16109
489.236	-32.6614
489.445	55.85379
489.654	13.69845
489.863	41.09836
490.072	5.26851
490.281	-15.80464
490.49	43.20621
490.698	89.5847
490.907	38.99053
491.116	-24.23321
491.325	89.5847
491.534	49.5299
491.743	49.5299
491.952	-7.37567
492.16	66.39408
492.369	98.01833
492.578	26.34407
492.787	45.31408
492.996	83.25972
493.204	30.55946
493.413	108.56086
493.622	68.5022
493.831	140.19172
494.039	-9.48295
494.248	5.26851
494.457	64.28597
494.665	66.39408
494.874	32.66719
495.083	-1.05368
495.291	24.2364
495.5	144.40954
495.709	43.20621
495.917	55.85379
496.126	13.69845
496.335	30.55946
496.543	5.26851
496.752	53.7458
496.96	-26.3403
497.169	47.42198
497.377	24.2364
497.586	3.16109
497.794	22.12877
498.003	55.85379
498.211	106.45231
498.42	49.5299
498.628	34.77495
498.837	89.5847
499.045	114.88664
499.254	41.09836
499.462	9.48343
499.671	47.42198
499.879	93.80147
500.087	28.45175
500.296	28.45175
500.504	22.12877
500.713	93.80147
500.921	11.59093
501.129	72.71852
501.338	167.60902
501.546	68.5022
501.754	165.49987
501.962	102.23527
502.171	98.01833
502.379	38.99053
502.587	57.9618
502.795	72.71852
503.004	165.49987
503.212	83.25972
503.42	68.5022
503.628	45.31408
503.837	38.99053
504.045	100.12679
504.253	81.15143
504.461	110.66943
504.669	125.43005
504.877	83.25972
505.085	98.01833
505.294	30.55946
505.502	125.43005
505.71	135.97399
505.918	142.30062
506.126	55.85379
506.334	138.08285
506.542	106.45231
506.75	72.71852
506.958	83.25972
507.166	74.82672
507.374	85.36802
507.582	68.5022
507.79	123.32132
507.998	57.9618
508.206	135.97399
508.414	150.73642
508.622	38.99053
508.83	154.95444
509.037	3.16109
509.245	76.93493
509.453	121.21262
509.661	186.59229
509.869	57.9618
510.077	87.47635
510.285	161.28164
510.492	123.32132
510.7	140.19172
510.908	110.66943
511.116	81.15143
511.324	68.5022
511.531	119.10394
511.739	114.88664
511.947	68.5022
512.155	106.45231
512.362	87.47635
512.57	81.15143
512.778	218.23472
512.985	123.32132
513.193	142.30062
513.401	112.77803
513.608	100.12679
513.816	79.04317
514.024	66.39408
514.231	167.60902
514.439	60.06984
514.646	133.86516
514.854	190.81102
515.061	184.48295
515.269	74.82672
515.477	114.88664
515.684	102.23527
515.892	91.69308
516.099	159.17255
516.307	-3.16104
516.514	157.06349
516.722	148.62743
516.929	188.70164
517.136	176.04582
517.344	154.95444
517.551	159.17255
517.759	148.62743
517.966	195.02983
518.173	110.66943
518.381	184.48295
518.588	146.51847
518.796	216.12509
519.003	135.97399
519.21	83.25972
519.418	182.37364
519.625	161.28164
519.832	188.70164
520.039	159.17255
520.247	165.49987
520.454	201.3582
520.661	195.02983
520.868	152.84542
521.076	241.44201
521.283	140.19172
521.49	199.24872
521.697	251.99156
521.904	224.56375
522.112	182.37364
522.319	254.10153
522.526	144.40954
522.733	220.34438
522.94	258.32152
523.147	230.89295
523.354	302.63595
523.561	220.34438
523.768	241.44201
523.975	283.64305
524.183	201.3582
524.39	165.49987
524.597	159.17255
524.804	230.89295
525.011	159.17255
525.218	224.56375
525.425	249.88161
525.632	275.20224
525.838	304.74637
526.045	279.42261
526.252	201.3582
526.459	245.66178
526.666	233.00273
526.873	300.52556
527.08	207.68674
527.287	283.64305
527.494	207.68674
527.701	243.55189
527.907	287.86356
528.114	209.7963
528.321	285.7533
528.528	228.7832
528.735	330.07274
528.941	275.20224
529.148	325.8515
529.355	408.17811
529.562	199.24872
529.768	283.64305
529.975	184.48295
530.182	296.30482
530.388	342.73688
530.595	222.45405
530.802	283.64305
531.008	275.20224
531.215	241.44201
531.422	323.7409
531.628	302.63595
531.835	296.30482
532.042	327.96211
532.248	368.06705
532.455	361.73427
532.661	346.9584
532.868	355.40166
533.074	393.39965
533.281	283.64305
533.487	338.51543
533.694	327.96211
533.9	249.88161
534.107	317.40923
534.313	363.84518
534.52	302.63595
534.726	349.06919
534.933	439.84889
535.139	414.51198
535.345	412.40067
535.552	374.39997
535.758	422.95736
535.965	395.51081
536.171	376.51098
536.377	389.17739
536.584	399.73318
536.79	338.51543
536.996	410.28938
537.203	370.17801
537.409	454.6298
537.615	410.28938
537.821	412.40067
538.028	446.18347
538.234	406.06685
538.44	401.84439
538.646	441.9604
538.853	435.62591
539.059	539.10623
539.265	482.08206
539.471	467.29976
539.677	486.30571
539.883	503.20089
540.09	475.74669
540.296	473.63494
540.502	589.80291
540.708	414.51198
540.914	511.64884
541.12	355.40166
541.326	511.64884
541.532	471.52319
541.738	572.90316
541.944	524.32118
542.15	553.89196
542.356	471.52319
542.562	558.11657
542.768	579.24047
542.974	606.70349
543.18	606.70349
543.386	617.26677
543.592	589.80291
543.798	621.49217
544.004	606.70349
544.21	697.55762
544.415	600.36568
544.621	583.4654
544.827	575.01558
545.033	640.50708
545.239	532.7697
545.445	589.80291
545.651	577.12802
545.856	676.4268
546.062	594.02798
546.268	581.35293
546.474	629.94312
546.679	596.14053
546.885	708.12345
547.091	577.12802
547.297	589.80291
547.502	748.27607
547.708	564.4536
547.914	706.01026
548.119	741.93593
548.325	608.81612
548.531	722.91607
548.736	725.02935
548.942	741.93593
549.147	697.55762
549.353	598.2531
549.559	822.25103
549.764	663.74887
549.97	820.1373
550.175	682.76593
550.381	849.73038
550.586	733.48255
550.792	815.90986
550.997	777.86462
551.203	773.63756
551.408	815.90986
551.614	866.64148
551.819	689.10516
552.025	851.84424
552.23	727.14263
552.435	936.4053
552.641	832.81983
552.846	896.2372
553.052	811.68246
553.257	953.31898
553.462	801.11412
553.668	997.71953
553.873	843.38886
554.078	970.23313
554.283	877.21119
554.489	974.46173
554.694	818.02358
554.899	917.37796
555.105	896.2372
555.31	989.26206
555.515	961.776
555.72	1001.94831
555.925	784.20528
556.131	1018.86366
556.336	1040.0084
556.541	959.66174
556.746	961.776
556.951	1109.78996
557.156	1050.58099
557.361	1149.96963
557.567	968.11884
557.772	980.80469
557.977	1082.29957
558.182	934.29112
558.387	1048.46646
558.592	1145.74011
558.797	1198.61016
559.002	1133.05168
559.207	997.71953
559.412	1069.612
559.617	1029.43596
559.822	1145.74011
560.027	959.66174
560.232	1215.52905
560.437	1071.72658
560.642	1175.34704
560.847	1029.43596
561.051	1103.44595
561.256	1156.31393
561.461	1190.15079
561.666	1101.33129
561.871	1175.34704
562.076	1213.41418
562.281	1374.15163
562.485	1188.03596
562.69	997.71953
562.895	1166.88784
563.1	1331.85121
563.305	1137.28114
563.509	1340.31125
563.714	1251.48236
563.919	1251.48236
564.123	1287.43646
564.328	1338.19624
564.533	1323.39119
564.737	1340.31125
564.942	1143.62536
565.147	1416.45247
565.351	1331.85121
565.556	1276.86165
565.761	1103.44595
565.965	1403.76219
566.17	1204.95472
566.374	1298.01132
566.579	1300.1263
566.784	1380.49674
566.988	1281.09157
567.193	1410.10733
567.397	1268.40185
567.602	1492.5943
567.806	1268.40185
568.011	1475.67391
568.215	1482.01906
568.42	1621.61021
568.624	1403.76219
568.828	1560.27541
569.033	1306.47125
569.237	1501.05449
569.442	1399.5321
569.646	1450.29329
569.85	1492.5943
570.055	1585.6555
570.259	1465.09865
570.463	1418.56752
570.668	1376.26667
570.872	1422.79762
571.076	1570.85047
571.281	1627.9551
571.485	1560.27541
571.689	1704.09201
571.893	1551.81533
572.098	1661.79415
572.302	1410.10733
572.506	1638.52987
572.71	1494.70935
572.914	1731.58495
573.119	1537.01014
573.323	1691.40277
573.527	1526.43498
573.731	1807.71604
573.935	1729.47013
574.139	1780.22485
574.343	1592.00049
574.547	1784.45431
574.751	1627.9551
574.955	1795.02789
575.159	1682.94322
575.364	1689.28789
575.568	1619.49525
575.772	1670.25381
575.976	1585.6555
576.18	1746.38861
576.383	1710.43658
576.587	1841.55035
576.791	1693.51765
576.995	1839.43574
577.199	1826.74798
577.403	1799.25729
577.607	1632.18502
577.811	1959.96023
578.015	1864.81073
578.219	1818.28939
578.422	1805.60136
578.626	1974.76022
578.83	1852.12332
579.034	2033.95705
579.238	2006.47344
579.442	1974.76022
579.645	1860.58161
579.849	2097.37627
580.053	1957.84592
580.257	2004.35927
580.46	1803.48668
580.664	2076.23725
580.868	1911.32966
581.071	2078.35119
581.275	1947.27429
581.479	1924.01619
581.682	1881.727
581.886	2093.14853
582.09	1921.90178
582.293	2095.26241
582.497	2129.0834
582.7	2093.14853
582.904	1902.87186
583.107	2061.4395
583.311	2067.78144
583.515	2080.46512
583.718	2154.44784
583.922	2093.14853
584.125	2162.90239
584.329	2097.37627
584.532	2323.51267
584.735	2160.78876
584.939	2084.69295
585.142	2145.99315
585.346	2103.71784
585.549	2308.72183
585.753	2312.94783
585.956	2369.99506
586.159	2154.44784
586.363	2298.15665
586.566	2177.69755
586.769	2420.69751
586.973	2097.37627
587.176	2338.30304
587.379	2152.33418
587.582	2296.04359
587.786	2312.94783
587.989	2418.58503
588.192	2203.05973
588.395	2317.1738
588.599	2291.81743
588.802	2541.09093
589.005	2338.30304
589.208	2473.50608
589.411	2173.4704
589.615	2467.16941
589.818	2317.1738
590.021	2507.29996
590.224	2331.96437
590.427	2435.48459
590.63	2416.47254
590.833	2566.4322
591.036	2481.95482
591.239	2811.30537
591.442	2583.32544
591.645	2492.51549
591.848	2678.33533
592.051	2608.66385
592.254	2410.135
592.457	2728.99679
592.66	2492.51549
592.863	2849.28692
593.066	2503.07588
593.269	2608.66385
593.472	2557.9853
593.675	2760.65636
593.878	2650.89061
594.081	2709.99962
594.284	2764.87741
594.486	2739.55031
594.689	2745.88226
594.892	2840.84697
595.095	2777.54023
595.298	2929.45509
595.5	2650.89061
595.703	2929.45509
595.906	2665.6688
596.109	2731.10752
596.311	2705.77788
596.514	2659.33537
596.717	2897.81224
596.92	3104.48444
597.122	2756.43526
597.325	3049.66735
597.528	2819.74611
597.73	2899.92187
597.933	2726.88604
598.136	2937.89262
598.338	2703.66699
598.541	2984.29483
598.743	2701.55609
598.946	2956.87622
599.148	2796.53355
599.351	2996.94872
599.554	2885.15419
599.756	2937.89262
599.959	3131.88898
600.161	3079.18556
600.363	3051.77589
600.566	3188.79739
600.768	3081.29389
600.971	3193.01236
601.173	3011.7109
601.376	3165.61391
601.578	3098.15993
601.78	3072.86049
601.983	3011.7109
602.185	3285.72477
602.388	3085.51049
602.59	3275.19091
602.792	3275.19091
602.995	3376.2983
603.197	3024.3636
603.399	3026.47233
603.601	3093.94352
603.804	3201.44209
604.006	2988.51285
604.208	3199.33468
604.41	3233.05123
604.613	3523.67384
604.815	3216.19349
605.017	3485.7857
605.219	3098.15993
605.421	3112.91689
605.623	3176.1521
605.826	3412.09755
606.028	3125.56509
606.23	3298.36485
606.432	3428.94249
606.634	3473.15501
606.836	3127.67307
607.038	3498.41574
607.24	3311.00431
607.442	3504.73051
607.644	3376.2983
607.846	3620.47197
608.048	3102.37629
608.25	3359.44984
608.452	3115.02497
608.654	3656.23517
608.856	3287.8315
609.058	3388.93391
609.26	3167.72158
609.462	3298.36485
609.664	3380.51024
609.866	3393.14564
610.067	3283.61803
610.269	3647.82079
610.471	3329.96234
610.673	3662.54576
610.875	3591.01584
611.077	3593.11997
611.278	3391.03978
611.48	3521.5691
611.682	3588.91169
611.884	3418.41454
612.085	3384.72211
612.287	3517.35956
612.489	3435.25905
612.69	3515.25477
612.892	3473.15501
613.094	3780.31162
613.295	3304.68466
613.497	3546.82479
613.699	3412.09755
613.9	3771.90179
614.102	3647.82079
614.304	3719.33328
614.505	3489.99578
614.707	3702.50881
614.908	3485.7857
615.11	3885.40792
615.311	3489.99578
615.513	3666.75272
615.714	3683.5798
615.916	3641.50981
616.117	3275.19091
616.319	3774.00428
616.52	3359.44984
616.722	3679.37315
616.923	3647.82079
617.124	3624.67969
617.326	3607.84837
617.527	3641.50981
617.729	3607.84837
617.93	3780.31162
618.131	3633.0949
618.333	3891.71212
618.534	3595.22409
618.735	3935.83644
618.937	3576.2864
619.138	3792.92578
619.339	3578.39066
619.54	3818.15199
619.742	3630.99113
619.943	3864.39263
620.144	3603.64035
620.345	4066.05591
620.546	3914.82597
620.748	4036.65841
620.949	3698.3025
621.15	3847.57896
621.351	3811.8457
621.552	3969.44899
621.753	3891.71212
621.954	3977.85131
622.155	3563.66044
622.356	4034.55843
622.558	3738.25934
622.759	3990.45418
622.96	3780.31162
623.161	3956.84489
623.362	3855.98596
623.563	4150.02632
623.764	3931.63451
623.965	4034.55843
624.166	3925.33145
624.366	3965.2477
624.567	3771.90179
624.768	3935.83644
624.969	3759.28646
625.17	4000.95602
625.371	3788.72114
625.572	3790.82347
625.773	3877.00205
625.973	4068.15558
626.174	3797.13035
626.375	3925.33145
626.576	3965.2477
626.777	4181.50657
626.977	3900.11744
627.178	4152.12515
627.379	4082.85266
627.58	4057.65704
627.78	3963.14703
627.981	4122.7396
628.182	3803.43705
628.382	4173.1123
628.583	4183.60509
628.784	4051.35767
628.984	3889.61074
629.185	4108.04529
629.386	4074.45445
629.586	4246.55068
629.787	4087.05164
629.987	4126.93779
630.188	4021.95814
630.388	4393.34872
630.589	4185.70358
630.79	4294.79597
630.99	3973.65019
631.191	4355.61077
631.391	4171.01368
631.591	4252.84418
631.792	3906.42121
631.992	4334.6422
632.193	4120.64048
632.393	4544.22965
632.594	4009.35711
632.794	4437.36742
632.994	4097.54873
633.195	4259.1375
633.395	4196.19574
633.595	4405.92648
633.796	4118.54133
633.996	4236.06108
634.196	4202.49077
634.397	4351.41723
634.597	4370.28748
634.797	4403.83024
634.997	3961.04634
635.198	4577.74319
635.398	4196.19574
635.598	4336.73915
635.798	4137.43289
635.998	4468.80343
636.199	4202.49077
636.399	4481.37646
636.599	4200.39245
636.799	4464.61225
636.999	4376.57717
637.199	4602.87462
637.399	4242.3549
637.599	4630.0967
637.799	4254.94198
637.999	4699.18189
638.199	4254.94198
638.399	4602.87462
638.599	4296.89333
638.799	4657.31499
638.999	4328.3512
639.199	4546.32441
639.399	4401.73398
639.599	4604.96876
639.799	4504.42493
639.999	4711.7402
640.199	4412.21506
640.399	4563.08172
640.599	4152.12515
640.799	4519.09076
640.998	4343.02988
641.198	4812.17737
641.398	4567.27082
641.598	4607.06287
641.798	4510.71042
641.997	4636.37818
642.197	4523.28079
642.397	4703.36808
642.597	4393.34872
642.796	4646.84687
642.996	4519.09076
643.196	4638.47196
643.395	4477.18554
643.595	4803.80961
643.795	4598.68627
643.994	4598.68627
644.194	4632.19055
644.394	4910.47131
644.593	4630.0967
644.793	4764.05774
644.992	4671.96943
645.192	4964.82494
645.392	4705.46114
645.591	4866.55898
645.791	4602.87462
645.99	4713.83317
646.19	4604.96876
646.389	4833.0952
646.589	4701.27499
646.788	4858.19358
646.987	4628.00282
647.187	4966.91516
647.386	4667.78256
647.586	4939.74058
647.785	4651.03418
647.984	4966.91516
648.184	4824.72834
648.383	5021.25263
648.582	4879.10639
648.782	4954.37353
648.981	4738.94709
649.18	4937.65007
649.38	4879.10639
649.579	5029.61086
649.778	4722.20484
649.977	4937.65007
650.177	4828.91182
650.376	4831.00352
650.575	4916.74368
650.774	4979.45596
650.973	4887.47087
651.173	4839.37011
651.372	4736.85438
651.571	5063.04007
651.77	4764.05774
651.969	5104.81825
652.168	5056.77255
652.367	5037.96872
652.566	4854.01075
652.765	5111.08417
652.964	4923.01584
653.163	5100.64085
653.362	4826.82009
653.561	5232.18427
653.76	4929.28779
653.959	5119.43842
654.158	5138.2341
654.357	5063.04007
654.556	5006.62485
654.755	5392.83369
654.954	5265.57739
655.153	4994.08584
655.352	4956.46386
655.551	5125.70385
655.749	5131.96908
655.948	5196.69753
656.147	5054.68332
656.346	5071.39645
656.545	5025.43179
656.743	5240.53311
656.942	4923.01584
657.141	5021.25263
657.34	5217.5729
657.538	5255.14268
657.737	5096.46335
657.936	5388.66273
658.135	5063.04007
658.333	5503.32972
658.532	5134.05745
658.731	5294.79146
658.929	4937.65007
659.128	5309.39677
659.326	5150.76352
659.525	5688.73086
659.724	5115.26134
659.922	5436.62303
660.121	5190.43446
660.319	5228.00971
660.518	5129.8807
660.716	5263.49049
660.915	5065.1292
661.113	5257.22967
661.312	4931.37839
661.51	5490.82405
661.709	5104.81825
661.907	5515.83454
662.105	5090.19694
662.304	5426.19794
662.502	5380.32054
662.701	5346.94802
662.899	5313.56951
663.097	5269.75111
663.296	5263.49049
663.494	5561.6783
663.692	5474.14851
663.891	5315.65584
664.089	5457.47146
664.287	5492.90839
664.485	5488.73969
664.684	5570.0123
664.882	5522.08664
665.08	5559.59474
665.278	5271.83793
665.476	5632.50531
665.675	5346.94802
665.873	5340.69001
666.071	5415.77225
666.269	5505.41392
666.467	5342.77604
666.665	5442.87781
666.863	5021.25263
667.061	5492.90839
667.259	5442.87781
667.457	5453.30196
667.655	5225.92239
667.853	5630.42255
668.051	5399.08994
668.249	5617.9255
668.447	5424.11285
668.645	5463.72553
668.843	5309.39677
669.041	5545.00916
669.239	5296.878
669.437	5607.51065
669.635	5365.7208
669.833	5674.15552
670.031	5374.06365
670.229	5355.29172
670.426	5182.08338
670.624	5405.34598
670.822	5255.14268
671.02	5728.28668
671.218	5432.45307
671.415	5371.97797
671.613	5309.39677
671.811	5576.26256
672.009	5294.79146
672.206	5559.59474
672.404	5682.48443
672.602	5520.00263
672.799	5326.08715
672.997	5624.17413
673.195	5530.42243
673.392	5561.6783
673.59	5392.83369
673.788	5578.34593
673.985	5457.47146
674.183	5611.67666
674.38	5688.73086
674.578	5494.9927
674.775	5380.32054
674.973	5782.40189
675.17	5509.58224
675.368	5559.59474
675.565	5480.40201
675.763	5724.12331
675.96	5321.9147
676.158	5580.42928
676.355	5453.30196
676.553	5588.76243
676.75	5415.77225
676.947	5734.53155
677.145	5480.40201
677.342	5672.07323
677.539	5338.60396
677.737	5672.07323
677.934	5351.11992
678.131	5784.48292
678.329	5605.42761
678.526	5755.34628
678.723	5590.84566
678.92	5971.67949
679.118	5492.90839
679.315	5742.85773
679.512	5570.0123
679.709	5813.61494
679.906	5417.85744
680.104	5815.69562
680.301	5667.90859
680.498	5463.72553
680.695	5305.22394
680.892	5513.75046
681.089	5505.41392
681.286	5642.91874
681.483	5449.13237
681.68	5617.9255
681.877	5522.08664
682.075	5680.40223
682.272	5415.77225
682.469	5563.76184
682.665	5488.73969
682.862	5630.42255
683.059	5476.23303
683.256	5444.96269
683.453	5340.69001
683.65	5659.57902
683.847	5472.06396
684.044	5642.91874
684.241	5205.04796
684.438	5530.42243
684.635	5374.06365
684.831	5501.2455
685.028	5175.81983
685.225	5626.25696
685.422	5424.11285
685.619	5682.48443
685.815	5415.77225
686.012	5463.72553
686.209	5083.93032
686.405	5447.04754
686.602	5355.29172
686.799	5497.07699
686.996	5463.72553
687.192	5642.91874
687.389	5384.49168
687.586	5480.40201
687.782	5365.7208
687.979	5526.25458
688.175	5476.23303
688.372	5605.42761
688.568	5415.77225
688.765	5486.65531
688.962	5605.42761
689.158	5538.75785
689.355	5430.36805
689.551	5638.75344
689.748	5282.2717
689.944	5607.51065
690.14	5240.53311
690.337	5672.07323
690.533	5440.79291
690.73	5517.9186
690.926	5363.63503
691.123	5413.68705
691.319	5355.29172
691.515	5334.43178
691.712	5205.04796
691.908	5645.00136
692.104	5223.83505
692.301	5465.81017
692.497	5344.86204
692.693	5563.76184
692.889	5369.89227
693.086	5520.00263
693.282	5397.00455
693.478	5726.20501
693.674	5617.9255
693.87	5597.09521
694.067	5392.83369
694.263	5697.05911
694.459	5250.96863
694.655	5699.14111
694.851	5374.06365
695.047	5605.42761
695.243	5422.02773
695.439	5355.29172
695.635	5175.81983
695.831	5455.38672
696.027	5513.75046
696.224	5524.17062
696.42	5367.80655
696.615	5542.92541
696.811	5484.5709
697.007	5520.00263
697.203	5503.32972
697.399	5517.9186
697.595	5415.77225
697.791	5447.04754
697.987	5221.74769
698.183	5622.09128
698.379	5288.53168
698.575	5684.56659
698.77	5405.34598
698.966	5530.42243
699.162	5202.96038
699.358	5669.99092
699.554	5232.18427
699.749	5505.41392
699.945	5369.89227
700.141	5632.50531
700.337	5482.48647
700.532	5401.17531
700.728	5182.08338
700.924	5572.09575
701.119	5238.44593
701.315	5442.87781
701.511	5238.44593
701.706	5436.62303
701.902	5278.09826
702.097	5488.73969
702.293	5217.5729
702.489	5438.70798
702.684	5488.73969
702.88	5319.82844
703.075	5242.62026
703.271	5497.07699
703.466	5384.49168
703.662	5432.45307
703.857	5284.35839
704.053	5401.17531
704.248	5442.87781
704.443	5588.76243
704.639	5221.74769
704.834	5424.11285
705.03	5380.32054
705.225	5555.42755
705.42	5338.60396
705.616	5430.36805
705.811	5123.6154
706.006	5663.74385
706.202	5334.43178
706.397	5346.94802
706.592	5307.31037
706.787	5599.17835
706.983	5242.62026
707.178	5586.67918
707.373	5280.18499
707.568	5411.60182
707.763	5330.25952
707.959	5611.67666
708.154	5346.94802
708.349	5494.9927
708.544	5634.58804
708.739	5488.73969
708.934	5263.49049
709.129	5455.38672
709.324	5415.77225
709.519	5522.08664
709.714	5207.1355
709.909	5788.64492
710.104	5188.34673
710.299	5263.49049
710.494	5440.79291
710.689	5717.87808
710.884	5219.66031
711.079	5401.17531
711.274	5342.77604
711.469	5513.75046
711.664	5196.69753
711.859	5238.44593
712.054	5179.99556
712.249	5434.53806
712.443	5463.72553
712.638	5574.17916
712.833	5157.02791
713.028	5286.44505
713.223	5449.13237
713.417	5363.63503
713.612	5273.92473
713.807	5555.42755
714.002	5255.14268
714.196	5551.26027
714.391	5152.85167
714.586	5413.68705
714.78	5369.89227
714.975	5703.30505
715.17	5434.53806
715.364	5530.42243
715.559	5440.79291
715.754	5522.08664
715.948	5196.69753
716.143	5405.34598
716.337	5154.9398
716.532	5576.26256
716.726	5259.31663
716.921	5467.89479
717.115	5257.22967
717.31	5292.70489
717.504	5267.66426
717.699	5440.79291
717.893	5417.85744
718.088	5447.04754
718.282	5315.65584
718.476	5265.57739
718.671	5100.64085
718.865	5330.25952
719.059	4931.37839
719.254	5113.17277
719.448	4851.9193
719.642	5250.96863
719.837	5125.70385
720.031	5150.76352
720.225	4912.56212
720.419	5265.57739
720.614	5248.88157
720.808	5486.65531
721.002	5065.1292
721.196	5351.11992
721.39	5046.32621
721.585	5288.53168
721.779	5088.10809
721.973	5349.03398
722.167	4891.65298
722.361	5267.66426
722.555	5100.64085
722.749	5131.96908
722.943	5014.98372
723.137	5067.21831
723.331	4858.19358
723.525	5255.14268
723.719	5017.07338
723.913	5146.58714
724.107	4703.36808
724.301	5280.18499
724.495	4803.80961
724.689	5309.39677
724.883	5146.58714
725.077	5301.05102
725.271	5292.70489
725.465	5054.68332
725.659	4946.01198
725.853	5157.02791
726.046	4910.47131
726.24	5134.05745
726.434	4981.54601
726.628	5276.01151
726.822	4948.1024
727.015	5040.05813
727.209	4954.37353
727.403	5430.36805
727.596	5012.89404
727.79	5313.56951
727.984	4954.37353
728.177	5390.74822
728.371	5108.99555
728.565	5236.35873
728.758	5000.35545
728.952	5079.75245
729.146	5019.16302
729.339	5188.34673
729.533	5031.70036
729.726	5255.14268
729.92	5046.32621
730.113	5217.5729
730.307	5004.53507
730.5	5200.87279
730.694	5067.21831
730.887	5150.76352
731.081	4964.82494
731.274	5134.05745
731.468	5063.04007
731.661	5092.28577
731.854	5067.21831
732.048	5301.05102
732.241	5269.75111
732.435	5140.3224
732.628	5050.50481
732.821	5221.74769
733.014	5182.08338
733.208	5255.14268
733.401	5286.44505
733.594	5161.20405
733.788	5221.74769
733.981	5040.05813
734.174	5134.05745
734.367	5188.34673
734.56	5265.57739
734.754	5236.35873
734.947	4927.19716
735.14	5077.66349
735.333	5081.8414
735.526	5190.43446
735.719	4996.17574
735.912	5159.11599
736.105	5046.32621
736.298	5008.7146
736.491	5163.29209
736.684	5096.46335
736.877	5159.11599
737.07	5092.28577
737.263	5086.01922
737.456	5321.9147
737.649	5188.34673
737.842	5371.97797
738.035	5215.48547
738.228	5104.81825
738.421	5179.99556
738.614	5123.6154
738.807	5121.52692
739	5255.14268
739.192	5050.50481
739.385	5146.58714
739.578	4904.19874
739.771	5215.48547
739.964	5100.64085
740.156	5184.17119
740.349	4954.37353
740.542	5040.05813
740.735	5075.5745
740.927	5244.70739
741.12	5063.04007
741.313	5171.64401
741.505	5230.097
741.698	4962.73471
741.891	5002.44527
742.083	5065.1292
742.276	4927.19716
742.468	5273.92473
742.661	4883.28868
742.854	5175.81983
743.046	4989.90599
743.239	5129.8807
743.431	5037.96872
743.624	5088.10809
743.816	5140.3224
744.009	4989.90599
744.201	5102.72956
744.393	5065.1292
744.586	4969.00535
744.778	5140.3224
744.971	5077.66349
745.163	5044.23687
745.355	4789.16514
745.548	5042.14751
745.74	5088.10809
745.932	5154.9398
746.125	5090.19694
746.317	4966.91516
746.509	5037.96872
746.702	5165.38011
746.894	4782.88859
747.086	4981.54601
747.278	4950.1928
747.471	4933.46897
747.663	5088.10809
747.855	5223.83505
748.047	4799.62559
748.239	5179.99556
748.431	4946.01198
748.623	5050.50481
748.815	4962.73471
749.008	5165.38011
749.2	5088.10809
749.392	5106.90691
749.584	4835.18686
749.776	5000.35545
749.968	4791.25727
750.16	4866.55898
750.352	4847.73632
750.544	5063.04007
750.736	4925.10651
750.928	5044.23687
751.12	4935.55953
751.311	4991.99593
751.503	4895.83499
751.695	5029.61086
751.887	4738.94709
752.079	4996.17574
752.271	4831.00352
752.463	4845.6448
752.654	4862.37633
752.846	4979.45596
753.038	4843.55326
753.23	4900.01691
753.421	4791.25727
753.613	4862.37633
753.805	5014.98372
753.997	4889.56194
754.188	4996.17574
754.38	4987.81603
754.572	5006.62485
754.763	4925.10651
754.955	4814.26926
755.146	4780.79637
755.338	4789.16514
755.53	4694.9956
755.721	4707.55418
755.913	4741.03976
756.104	4697.08876
756.296	4952.28318
756.487	4738.94709
756.679	4935.55953
756.87	4671.96943
757.062	4856.10218
757.253	4707.55418
757.445	4728.48335
757.636	4814.26926
757.827	4715.92612
758.019	4718.01905
758.21	4709.6472
758.401	4694.9956
758.593	4856.10218
758.784	4590.30931
758.975	4542.13486
759.167	4560.98713
759.358	4669.87601
759.549	4416.40734
759.74	4604.96876
759.932	4563.08172
760.123	4514.90063
760.314	4628.00282
760.505	4703.36808
760.696	4711.7402
760.888	4711.7402
761.079	4581.93199
761.27	4791.25727
761.461	4477.18554
761.652	4621.72107
761.843	4414.31121
762.034	4835.18686
762.225	4454.13391
762.416	4560.98713
762.607	4510.71042
762.798	4531.6606
762.989	4749.41026
763.18	4485.56729
763.371	4512.80554
763.562	4686.62276
763.753	4493.94868
763.944	4686.62276
764.135	4393.34872
764.326	4560.98713
764.517	4443.65502
764.708	4657.31499
764.899	4363.99759
765.089	4558.89252
765.28	4177.30948
765.471	4441.55917
765.662	4166.81638
765.853	4525.37578
766.043	4309.47706
766.234	4460.42098
766.425	4393.34872
766.615	4334.6422
766.806	4261.23523
766.997	4460.42098
767.187	4437.36742
767.378	4611.25104
767.569	4305.28257
767.759	4368.19087
767.95	4418.50344
768.141	4351.41723
768.331	4301.08799
768.522	4384.96312
768.712	4175.2109
768.903	4514.90063
769.093	4259.1375
769.284	4210.88386
769.474	4183.60509
769.665	4324.1571
769.855	4145.82859
770.046	4391.25236
770.236	4158.42152
770.426	4223.47285
770.617	3965.2477
770.807	4263.33293
770.998	4040.8583
771.188	4275.91873
771.378	4045.05811
771.569	4275.91873
771.759	4204.58908
771.949	4078.6536
772.139	4257.03975
772.33	3998.85569
772.52	3952.64336
772.71	4227.66901
772.9	4007.25687
773.09	4082.85266
773.281	4021.95814
773.471	4171.01368
773.661	3906.42121
773.851	4026.15832
774.041	3830.76402
774.231	4124.83871
774.421	4066.05591
774.611	3809.74357
774.802	3979.95184
774.992	4051.35767
775.182	3847.57896
775.372	4024.05824
775.562	3912.72481
775.752	4269.62593
775.942	3992.55459
776.131	3883.30648
776.321	3687.78638
776.511	3830.76402
776.701	3841.27351
776.891	4024.05824
777.081	3954.74414
777.271	4084.95216
777.461	3872.79899
777.651	3767.69676
777.84	3855.98596
778.03	3822.35608
778.22	3855.98596
778.41	3893.81348
778.599	3889.61074
778.789	4019.85802
778.979	3881.20502
779.169	3891.71212
779.358	3666.75272
779.548	3799.2326
779.738	3666.75272
779.927	3782.41403
780.117	3639.40611
780.307	3805.53924
780.496	3706.71504
780.686	3765.59421
780.875	3645.71715
781.065	3864.39263
781.254	3473.15501
781.444	3721.43626
781.633	3746.67042
781.823	3780.31162
782.012	3597.32818
782.202	3658.33872
782.391	3675.16641
782.581	3569.9735
782.77	3652.02802
782.96	3633.0949
783.149	3452.10241
783.338	3795.02808
783.528	3599.43225
783.717	3742.46492
783.906	3506.8354
784.096	3734.05369
784.285	3612.05631
784.474	3468.94463
784.663	3599.43225
784.853	3591.01584
785.042	3523.67384
785.231	3582.59913
785.42	3557.34721
785.61	3637.3024
785.799	3511.04512
785.988	3780.31162
786.177	3622.57584
786.366	3452.10241
786.555	3422.62577
786.744	3536.30191
786.933	3342.60026
787.122	3536.30191
787.312	3437.36453
787.501	3264.65662
787.69	3190.90488
787.879	3553.1383
788.068	3249.90791
788.257	3460.52367
788.445	3393.14564
788.634	3433.15355
788.823	3260.44279
789.012	3376.2983
789.201	3376.2983
789.39	3277.29772
789.579	3273.08409
789.768	3351.02519
789.957	3344.70652
790.145	3298.36485
790.334	3262.54971
790.523	3268.87039
790.712	3357.3437
790.9	3679.37315
791.089	3355.23755
791.278	3376.2983
791.467	3351.02519
791.655	3308.89778
791.844	3342.60026
792.033	3188.79739
792.221	3081.29389
792.41	3342.60026
792.599	3207.76422
792.787	3351.02519
792.976	3233.05123
793.164	3376.2983
793.353	3159.2908
793.541	3230.94407
793.73	3199.33468
793.918	3443.68087
794.107	3011.7109
794.295	3093.94352
794.484	3077.07722
794.672	3207.76422
794.861	2988.51285
795.049	3152.96754
795.238	2994.83978
795.426	3348.91898
795.614	3043.34162
795.803	3275.19091
795.991	3125.56509
796.179	3049.66735
796.368	3072.86049
796.556	3205.65686
796.744	3131.88898
796.932	3199.33468
797.121	3030.68975
797.309	3275.19091
797.497	3093.94352
797.685	3142.42846
797.874	2999.05765
798.062	3142.42846
798.25	2908.36022
798.438	3148.75196
798.626	2933.67388
798.814	3266.76351
799.002	2912.57931
799.19	3199.33468
799.378	2861.94643
799.566	3247.80088
799.755	2963.20381
799.943	3150.85976
800.131	3047.55879
800.318	3258.33585
800.506	3009.60206
800.694	3055.99294
800.882	3030.68975
801.07	3100.26812
801.258	2946.32992
801.446	3102.37629
801.634	2996.94872
801.822	2996.94872
802.01	2961.09463
802.197	3081.29389
802.385	2771.20888
802.573	3224.62249
802.761	3039.12439
802.949	3241.4797
803.136	2931.56449
803.324	2984.29483
803.512	2999.05765
803.699	3190.90488
803.887	2975.8586
804.075	2952.65774
804.262	2739.55031
804.45	3161.39852
804.638	2942.1113
804.825	3325.74957
805.013	2948.43921
805.201	3041.23301
805.388	3030.68975
805.576	2891.48328
805.763	2910.46977
805.951	3001.16656
806.138	3007.49321
806.326	3152.96754
806.513	2914.68883
806.701	3266.76351
806.888	2912.57931
807.075	3193.01236
807.263	3013.81972
807.45	3233.05123
807.638	3001.16656
807.825	2996.94872
808.012	3085.51049
808.2	3129.78103
808.387	2853.50681
808.574	3064.42684
808.761	3047.55879
808.949	3209.87156
809.136	3026.47233
809.323	3140.3206
809.51	2946.32992
809.698	3077.07722
809.885	2937.89262
810.072	3034.9071
810.259	2961.09463
810.446	3020.1461
810.633	2929.45509
810.82	3119.24106
811.008	3249.90791
811.195	3070.7521
811.382	3072.86049
811.569	3176.1521
811.756	2971.6404
811.943	3228.8369
812.13	3022.25486
812.317	3144.53631
812.504	3140.3206
812.691	3230.94407
812.878	3178.25969
813.064	3182.47482
813.251	3106.59258
813.438	3317.32381
813.625	2982.1858
813.812	3125.56509
813.999	2876.71521
814.186	3093.94352
814.372	3005.38434
814.559	3072.86049
814.746	2845.06697
814.933	2872.49563
815.12	3081.29389
815.306	3034.9071
815.493	2967.42214
815.68	3142.42846
815.866	3039.12439
816.053	3235.15838
816.24	3064.42684
816.426	3237.2655
816.613	3072.86049
816.799	3169.82924
816.986	3030.68975
817.173	3163.50622
817.359	2982.1858
817.546	3148.75196
817.732	2956.87622
817.919	3228.8369
818.105	2861.94643
818.292	3287.8315
818.478	2982.1858
818.665	3270.97724
818.851	2925.23623
819.037	3211.97888
819.224	2880.93473
819.41	3039.12439
819.597	2916.79834
819.783	2944.22062
819.969	2832.40679
820.156	2954.76699
820.342	2773.31935
820.528	3115.02497
820.714	2891.48328
820.901	3066.53527
821.087	2982.1858
821.273	3148.75196
821.459	2929.45509
821.646	3039.12439
821.832	2908.36022
822.018	3024.3636
822.204	2817.63594
822.39	2874.60542
822.576	2887.2639
822.762	3106.59258
822.948	2958.98543
823.134	3066.53527
823.32	2695.22331
823.507	3039.12439
823.693	2823.96639
823.879	2984.29483
824.065	2897.81224
824.25	3018.03732
824.436	2773.31935
824.622	3062.31839
824.808	3024.3636
824.994	2899.92187
825.18	2663.55767
825.366	3093.94352
825.552	2815.52577
825.738	3047.55879
825.923	2667.77992
826.109	2731.10752
826.295	2547.4264
826.481	2798.64386
826.667	2600.21791
826.852	2828.18662
827.038	2733.21824
827.224	2904.14107
827.409	2777.54023
827.595	2834.51686
827.781	2629.77785
827.966	2851.39687
828.152	2456.60808
828.338	2927.34567
828.523	2743.77163
828.709	2895.7026
828.894	2574.87891
829.08	2663.55767
829.266	2610.7753
829.451	2988.51285
829.637	2684.66842
829.822	2895.7026
830.008	2661.44653
830.193	2644.55692
830.378	2686.77942
830.564	2838.73694
830.749	2777.54023
830.935	2680.44637
831.12	2634.0005
831.305	2672.00212
831.491	2545.31459
831.676	2802.86442
831.861	2410.135
832.047	2680.44637
832.232	2486.17912
832.417	2524.19581
832.602	2460.83265
832.788	2564.32049
832.973	2363.65683
833.158	2712.11047
833.343	2329.85146
833.528	2634.0005
833.714	2541.09093
833.899	2756.43526
834.084	2570.65558
834.269	2625.55515
834.454	2310.83484
834.639	2439.70938
834.824	2454.49578
835.009	2549.53821
835.194	2372.10778
835.379	2570.65558
835.564	2380.55856
835.749	2610.7753
835.934	2245.32728
836.119	2414.36003
836.304	2467.16941
836.489	2557.9853
836.674	2359.4313
836.859	2564.32049
837.044	2367.88233
837.228	2528.41966
837.413	2414.36003
837.598	2602.32941
837.783	2236.87405
837.968	2304.49579
838.152	2219.96717
838.337	2515.74797
838.522	2357.31852
838.707	2416.47254
838.891	2196.7193
839.076	2253.78036
839.261	2184.03821
839.445	2401.68479
839.63	2129.0834
839.815	2465.05717
839.999	2072.00936
840.184	2300.26971
840.368	2097.37627
840.553	2469.28165
840.737	2219.96717
840.922	2448.15881
841.106	2236.87405
841.291	2211.51352
841.475	1987.44568
841.66	2391.12181
841.844	2107.94551
842.029	2336.19016
842.213	2112.17315
842.397	2260.12008
842.582	1945.15995
842.766	2361.54407
842.951	2126.96964
843.135	2260.12008
843.319	1909.21522
843.504	2211.51352
843.688	2124.85588
843.872	2262.2333
844.056	2312.94783
844.241	2321.39972
844.425	2207.28664
844.609	2156.56149
844.793	1957.84592
844.977	2082.57904
845.161	1896.52846
845.346	2228.42068
845.53	1877.49796
845.714	2270.6861
845.898	1976.87447
846.082	2184.03821
846.266	2025.50067
846.45	2021.27245
846.634	1959.96023
846.818	2118.51455
847.002	1866.92528
847.186	2044.52736
847.37	1957.84592
847.554	1964.18883
847.738	1721.01081
847.922	1968.4174
848.106	2008.5876
848.29	1835.2065
848.473	1824.63334
848.657	1943.0456
848.841	1917.67295
849.025	1947.27429
849.209	1824.63334
849.392	1955.73161
849.576	1788.68375
849.76	1919.78737
849.944	1693.51765
850.127	1826.74798
850.311	1695.63253
850.495	1830.97725
850.678	1602.57544
850.862	1909.21522
851.046	1636.41492
851.229	1841.55035
851.413	1577.1955
851.596	1856.35248
851.78	1661.79415
851.964	1805.60136
852.147	1556.04537
852.331	1577.1955
852.514	1615.26531
852.698	1873.2689
852.881	1534.89511
853.065	1885.95601
853.248	1613.15033
853.431	1847.89414
853.615	1714.66628
853.798	1756.96254
853.982	1501.05449
854.165	1649.10458
854.348	1759.07731
854.532	1678.71343
854.715	1606.8054
854.898	1890.18501
855.081	1682.94322
855.265	1830.97725
855.448	1640.64482
855.631	1704.09201
855.814	1598.34546
855.997	1801.37199
856.181	1467.2137
856.364	1807.71604
856.547	1636.41492
856.73	1560.27541
856.913	1469.32875
857.096	1714.66628
857.279	1539.12517
857.462	1585.6555
857.645	1458.75349
857.828	1634.29997
858.011	1492.5943
858.194	1572.96548
858.377	1262.05702
858.56	1543.35523
858.743	1433.37287
858.926	1568.73546
859.109	1397.41706
859.292	1454.52339
859.475	1317.0462
859.658	1547.58528
859.841	1359.34643
860.023	1361.46145
860.206	1230.33325
860.389	1454.52339
860.572	1420.68257
860.755	1484.13411
860.937	1247.25252
861.12	1384.72681
861.303	1304.35626
861.486	1357.2314
861.668	1317.0462
861.851	1401.64714
862.034	1196.49531
862.216	1365.69151
862.399	1164.77305
862.581	1399.5321
862.764	1221.87369
862.947	1369.92157
863.129	1221.87369
863.312	1306.47125
863.494	1137.28114
863.677	1300.1263
863.859	1255.71222
864.042	1363.57648
864.224	1198.61016
864.406	1166.88784
864.589	1162.65826
864.771	1211.29931
864.954	1124.5928
865.136	1230.33325
865.318	953.31898
865.501	1154.19916
865.683	1090.75806
865.865	1367.80654
866.048	1105.56061
866.23	1099.21663
866.412	997.71953
866.594	1103.44595
866.777	1056.92461
866.959	1251.48236
867.141	1154.19916
867.323	1266.28691
867.505	1052.69552
867.687	1181.69149
867.869	1099.21663
868.052	1230.33325
868.234	1065.38284
868.416	1111.90463
868.598	1137.28114
868.78	1122.4781
868.962	1010.40594
869.144	1031.55043
869.326	1035.77941
869.508	1103.44595
869.69	1010.40594
869.872	1086.52881
870.054	1099.21663
870.236	1120.3634
870.417	944.86208
870.599	1010.40594
870.781	1124.5928
870.963	1027.32149
871.145	1073.84117
871.327	1052.69552
871.508	919.49208
871.69	1116.13401
871.872	985.03336
872.054	1122.4781
872.235	843.38886
872.417	1107.67528
872.599	883.55312
872.78	1010.40594
872.962	985.03336
873.144	1130.93695
873.325	902.57934
873.507	1020.97811
873.689	993.49078
873.87	1230.33325
874.052	985.03336
874.233	1230.33325
874.415	1054.81006
874.596	1046.35194
874.778	932.17695
874.959	1171.11744
875.141	1092.8727
875.322	1124.5928
875.503	972.34743
875.685	1044.23742
875.866	966.00455
876.048	1012.52036
876.229	908.92156
876.41	889.89512
876.592	908.92156
876.773	1052.69552
876.954	860.29975
877.136	1086.52881
877.317	959.66174
877.498	1234.56305
877.679	934.29112
877.86	858.18586
878.042	946.9763
878.223	1069.612
878.404	1006.17711
878.585	1175.34704
878.766	972.34743
878.947	1137.28114
879.128	949.09052
879.309	1027.32149
879.49	1044.23742
879.672	1105.56061
879.853	978.69036
880.034	1040.0084
880.215	963.89027
880.396	959.66174
880.576	1010.40594
880.757	1230.33325
880.938	934.29112
881.119	1103.44595
881.3	963.89027
881.481	1078.07036
881.662	959.66174
881.843	1027.32149
882.023	963.89027
882.204	1171.11744
882.385	985.03336
882.566	982.91902
882.747	1027.32149
882.927	1166.88784
883.108	1107.67528
883.289	1120.3634
883.469	1139.39587
883.65	1086.52881
883.831	966.00455
884.011	1188.03596
884.192	1063.26828
884.373	1094.98734
884.553	913.14974
884.734	1228.21836
884.914	1037.8939
885.095	1037.8939
885.275	1010.40594
885.456	1158.4287
885.636	1118.2487
885.817	1162.65826
885.997	1082.29957
886.178	1162.65826
886.358	985.03336
886.538	1204.95472
886.719	972.34743
886.899	1035.77941
887.08	1044.23742
887.26	1145.74011
887.44	1073.84117
887.621	1162.65826
887.801	1158.4287
887.981	1217.64393
888.161	1130.93695
888.342	1181.69149
888.522	1137.28114
888.702	1037.8939
888.882	1149.96963
889.062	1183.80631
889.242	963.89027
889.423	1046.35194
889.603	999.83392
889.783	1253.59729
889.963	930.06278
890.143	1350.88633
890.323	1114.01932
890.503	1188.03596
890.683	1027.32149
890.863	1137.28114
891.043	1018.86366
891.223	1166.88784
891.403	904.69341
891.583	1139.39587
891.763	989.26206
891.943	1103.44595
892.122	1099.21663
892.302	1122.4781
892.482	1012.52036
892.662	1122.4781
892.842	942.74787
893.022	987.14771
893.201	847.61653
893.381	934.29112
893.561	980.80469
893.741	1035.77941
893.92	980.80469
894.1	1025.20702
894.28	885.66711
894.459	972.34743
894.639	989.26206
894.819	1082.29957
894.998	934.29112
895.178	1052.69552
895.357	892.00914
895.537	1044.23742
895.716	828.59229
895.896	1080.18497
896.075	915.26385
896.255	1025.20702
896.434	942.74787
896.614	1052.69552
896.793	938.51948
896.973	963.89027
897.152	995.60516
897.331	976.57604
897.511	917.37796
897.69	1018.86366
897.87	925.83448
898.049	927.94863
898.228	834.93362
898.407	894.12316
898.587	858.18586
898.766	985.03336
898.945	841.27503
899.124	849.73038
899.304	885.66711
899.483	879.32516
899.662	763.0701
899.841	841.27503
900.02	809.56877
900.199	887.78111
900.378	754.61631
900.557	881.43914
900.737	858.18586
900.916	860.29975
901.095	729.25593
901.274	847.61653
901.453	701.78392
901.632	748.27607
901.811	697.55762
901.989	773.63756
902.168	710.23665
902.347	741.93593
902.526	682.76593
902.705	735.59588
902.884	659.52298
903.063	674.31378
903.242	629.94312
903.42	750.38947
903.599	494.75318
903.778	621.49217
903.957	562.34125
904.135	680.65288
904.314	572.90316
904.493	744.0493
904.672	581.35293
904.85	642.61991
905.029	566.56597
905.207	621.49217
905.386	642.61991
905.565	629.94312
905.743	536.99404
905.922	536.99404
906.1	503.20089
906.279	674.31378
906.457	589.80291
906.636	536.99404
906.814	361.73427
906.993	539.10623
907.171	541.21844
907.35	659.52298
907.528	446.18347
907.707	556.00426
907.885	439.84889
908.063	482.08206
908.242	416.6233
908.42	484.19387
908.598	422.95736
908.777	536.99404
908.955	372.28898
909.133	482.08206
909.311	427.18015
909.49	471.52319
909.668	412.40067
909.846	427.18015
910.024	378.62201
910.202	410.28938
910.38	452.5182
910.559	427.18015
910.737	380.73305
910.915	420.84599
911.093	302.63595
911.271	450.40661
911.449	399.73318
911.627	517.98495
911.805	477.85847
911.983	454.6298
912.161	469.41147
912.339	509.53683
912.517	401.84439
912.695	492.64129
912.872	429.29157
913.05	532.7697
913.228	437.73739
913.406	536.99404
913.584	410.28938
913.762	503.20089
913.939	427.18015
914.117	431.403
914.295	414.51198
914.473	463.07638
914.65	363.84518
914.828	418.73464
915.006	452.5182
915.184	422.95736
915.361	452.5182
915.539	397.62199
915.716	351.18
915.894	435.62591
916.072	444.07193
916.249	460.96471
916.427	429.29157
916.604	511.64884
916.782	429.29157
916.959	444.07193
917.137	321.63033
917.314	427.18015
917.492	435.62591
917.669	342.73688
917.847	327.96211
918.024	380.73305
918.201	355.40166
918.379	446.18347
918.556	327.96211
918.733	444.07193
918.911	283.64305
919.088	342.73688
919.265	359.62338
919.442	389.17739
919.62	336.40473
919.797	414.51198
919.974	283.64305
920.151	372.28898
920.328	368.06705
920.506	397.62199
920.683	336.40473
920.86	275.20224
921.037	342.73688
921.214	361.73427
921.391	336.40473
921.568	374.39997
921.745	262.54158
921.922	338.51543
922.099	346.9584
922.276	429.29157
922.453	351.18
922.63	351.18
922.807	300.52556
922.984	346.9584
923.161	283.64305
923.338	251.99156
923.514	233.00273
923.691	283.64305
923.868	315.29871
924.045	275.20224
924.222	207.68674
924.399	209.7963
924.575	275.20224
924.752	327.96211
924.929	258.32152
925.105	344.84764
925.282	218.23472
925.459	325.8515
925.635	254.10153
925.812	319.51977
925.989	211.90588
926.165	245.66178
926.342	165.49987
926.518	207.68674
926.695	332.18339
926.871	344.84764
927.048	207.68674
927.224	268.87183
927.401	138.08285
927.577	245.66178
927.754	292.08415
927.93	218.23472
928.107	254.10153
928.283	300.52556
928.459	144.40954
928.636	216.12509
928.812	197.13926
928.988	184.48295
929.165	249.88161
929.341	270.98194
929.517	228.7832
929.693	178.15507
929.87	233.00273
930.046	190.81102
930.222	245.66178
930.398	205.57721
930.574	254.10153
930.751	211.90588
930.927	173.93659
931.103	218.23472
931.279	110.66943
931.455	245.66178
931.631	211.90588
931.807	169.71819
931.983	176.04582
932.159	275.20224
932.335	165.49987
932.511	218.23472
932.687	125.43005
932.863	125.43005
933.039	116.99528
933.215	226.67346
933.391	216.12509
933.566	87.47635
933.742	169.71819
933.918	167.60902
934.094	176.04582
934.27	81.15143
934.445	119.10394
934.621	102.23527
934.797	72.71852
934.973	89.5847
935.148	165.49987
935.324	116.99528
935.5	165.49987
935.675	140.19172
935.851	104.34378
936.027	114.88664
936.202	135.97399
936.378	116.99528
936.553	89.5847
936.729	89.5847
936.904	133.86516
937.08	91.69308
937.255	64.28597
937.431	64.28597
937.606	30.55946
937.782	1.05369
937.957	32.66719
938.133	55.85379
938.308	76.93493
938.483	66.39408
938.659	93.80147
938.834	24.2364
939.009	55.85379
939.185	64.28597
939.36	13.69845
939.535	30.55946
939.71	83.25972
939.886	89.5847
940.061	-17.91182
940.236	55.85379
940.411	74.82672
940.586	74.82672
940.761	26.34407
940.937	24.2364
941.112	57.9618
941.287	102.23527
941.462	47.42198
941.637	34.77495
941.812	142.30062
941.987	43.20621
942.162	47.42198
942.337	-53.73012
942.512	87.47635
942.687	83.25972
942.862	64.28597
943.037	89.5847
943.212	60.06984
943.386	43.20621
943.561	30.55946
943.736	-24.23321
943.911	51.63784
944.086	24.2364
944.26	22.12877
944.435	81.15143
944.61	38.99053
944.785	15.80599
944.959	38.99053
945.134	62.17789
945.309	93.80147
945.483	28.45175
945.658	57.9618
945.833	72.71852
946.007	60.06984
946.182	30.55946
946.357	26.34407
946.531	43.20621
946.706	34.77495
946.88	41.09836
947.055	5.26851
947.229	123.32132
947.404	49.5299
947.578	20.02115
947.752	13.69845
947.927	13.69845
948.101	72.71852
948.276	72.71852
948.45	93.80147
948.624	55.85379
948.799	76.93493
948.973	32.66719
949.147	-45.30293
949.321	100.12679
949.496	127.53879
949.67	-7.37567
949.844	83.25972
950.018	89.5847
950.193	64.28597
950.367	89.5847
950.541	76.93493
950.715	108.56086
950.889	57.9618
951.063	28.45175
951.237	104.34378
951.411	17.91356
951.585	60.06984
951.759	22.12877
951.933	38.99053
952.107	-1.05368
952.281	24.2364
952.455	98.01833
952.629	154.95444
952.803	13.69845
952.977	47.42198
953.151	53.7458
953.325	53.7458
953.499	55.85379
953.672	74.82672
953.846	5.26851
954.02	49.5299
954.194	55.85379
954.368	-11.5902
954.541	93.80147
954.715	47.42198
954.889	17.91356
955.062	81.15143
955.236	30.55946
955.41	38.99053
955.583	43.20621
955.757	74.82672
955.93	64.28597
956.104	57.9618
956.278	51.63784
956.451	89.5847
956.625	15.80599
956.798	-11.5902
956.972	7.37596
957.145	85.36802
957.319	3.16109
957.492	45.31408
957.665	85.36802
957.839	74.82672
958.012	110.66943
958.185	30.55946
958.359	24.2364
958.532	66.39408
958.705	15.80599
958.879	41.09836
959.052	13.69845
959.225	95.90989
959.398	81.15143
959.572	74.82672
959.745	57.9618
959.918	30.55946
960.091	30.55946
960.264	51.63784
960.438	30.55946
960.611	64.28597
960.784	55.85379
960.957	-26.3403
961.13	41.09836
961.303	72.71852
961.476	15.80599
961.649	20.02115
961.822	30.55946
961.995	110.66943
962.168	9.48343
962.341	55.85379
962.514	34.77495
962.686	34.77495
962.859	106.45231
963.032	7.37596
963.205	127.53879
963.378	1.05369
963.551	-3.16104
963.723	91.69308
963.896	148.62743
964.069	74.82672
964.242	32.66719
964.414	133.86516
964.587	-24.23321
964.76	41.09836
964.932	127.53879
965.105	98.01833
965.278	81.15143
965.45	89.5847
965.623	9.48343
965.795	55.85379
965.968	98.01833
966.14	135.97399
966.313	68.5022
966.485	-3.16104
966.658	-24.23321
966.83	15.80599
967.003	119.10394
967.175	-3.16104
967.348	114.88664
967.52	17.91356
967.692	49.5299
967.865	81.15143
968.037	-26.3403
968.209	76.93493
968.382	95.90989
968.554	72.71852
968.726	17.91356
968.898	1.05369
969.071	1.05369
969.243	51.63784
969.415	106.45231
969.587	74.82672
969.759	55.85379
969.932	66.39408
970.104	22.12877
970.276	55.85379
970.448	-17.91182
970.62	-11.5902
970.792	-3.16104
970.964	41.09836
971.136	-1.05368
971.308	41.09836
971.48	5.26851
971.652	32.66719
971.824	11.59093
971.996	-17.91182
972.168	68.5022
972.339	24.2364
972.511	-11.5902
972.683	79.04317
972.855	51.63784
973.027	49.5299
973.199	114.88664
973.37	-11.5902
973.542	15.80599
973.714	-22.12611
973.886	43.20621
974.057	66.39408
974.229	95.90989
974.401	32.66719
974.572	36.88273
974.744	93.80147
974.915	-7.37567
975.087	17.91356
975.259	-11.5902
975.43	41.09836
975.602	11.59093
975.773	13.69845
975.945	-38.98228
976.116	26.34407
976.288	47.42198
976.459	38.99053
976.63	76.93493
976.802	100.12679
976.973	-9.48295
977.145	22.12877
977.316	-11.5902
977.487	32.66719
977.659	68.5022
977.83	81.15143
978.001	-5.26836
978.172	-26.3403
978.344	24.2364
978.515	74.82672
978.686	93.80147
978.857	22.12877
979.028	60.06984
979.2	26.34407
979.371	49.5299
979.542	30.55946
979.713	38.99053
979.884	26.34407
980.055	34.77495
980.226	72.71852
980.397	-43.19607
980.568	157.06349
980.739	57.9618
980.91	-3.16104
981.081	20.02115
981.252	7.37596
981.423	-13.69743
981.594	112.77803
981.765	36.88273
981.936	-45.30293
982.106	-11.5902
982.277	106.45231
982.448	-9.48295
982.619	55.85379
982.79	89.5847
982.96	9.48343
983.131	-53.73012
983.302	1.05369
983.472	106.45231
983.643	1.05369
983.814	9.48343
983.984	-15.80464
984.155	87.47635
984.326	30.55946
984.496	49.5299
984.667	55.85379
984.837	15.80599
985.008	79.04317
985.178	102.23527
985.349	34.77495
985.519	26.34407
985.69	5.26851
985.86	64.28597
986.031	53.7458
986.201	57.9618
986.371	41.09836
986.542	98.01833
986.712	-17.91182
986.882	49.5299
987.053	49.5299
987.223	34.77495
987.393	49.5299
987.563	24.2364
987.734	-28.44736
987.904	32.66719
988.074	70.61035
988.244	49.5299
988.414	-36.87534
988.585	66.39408
988.755	51.63784
988.925	-41.08919
989.095	26.34407
989.265	-11.5902
989.435	57.9618
989.605	60.06984
989.775	-32.6614
989.945	32.66719
990.115	13.69845
990.285	28.45175
990.455	45.31408
990.625	-1.05368
990.795	60.06984
990.965	38.99053
991.134	43.20621
991.304	43.20621
991.474	108.56086
991.644	57.9618
991.814	47.42198
991.984	-68.47672
992.153	64.28597
992.323	30.55946
992.493	1.05369
992.662	22.12877
992.832	91.69308
993.002	32.66719
993.171	43.20621
993.341	-17.91182
993.511	100.12679
993.68	47.42198
993.85	-7.37567
994.019	24.2364
994.189	-1.05368
994.358	72.71852
994.528	51.63784
994.697	34.77495
994.867	5.26851
995.036	43.20621
995.206	32.66719
995.375	51.63784
995.544	22.12877
995.714	5.26851
995.883	47.42198
996.052	-7.37567
996.222	-11.5902
996.391	7.37596
996.56	17.91356
996.73	68.5022
996.899	9.48343
997.068	17.91356
997.237	53.7458
997.406	22.12877
997.576	60.06984
997.745	30.55946
997.914	24.2364
998.083	-1.05368
998.252	57.9618
998.421	47.42198
998.59	-3.16104
998.759	7.37596
998.928	74.82672
999.097	28.45175
999.266	26.34407
999.435	-36.87534
999.604	9.48343
999.773	30.55946
999.942	-51.62336
1000.111	26.34407
1000.28	51.63784
1000.448	-32.6614
1000.617	9.48343
1000.786	106.45231
1000.955	47.42198
1001.124	-20.01897
1001.292	-9.48295
1001.461	79.04317
1001.63	49.5299
1001.798	38.99053
1001.967	38.99053
1002.136	30.55946
1002.304	22.12877
1002.473	-36.87534
1002.642	55.85379
1002.81	13.69845
1002.979	-11.5902
1003.147	30.55946
1003.316	-9.48295
1003.484	-20.01897
1003.653	30.55946
1003.821	26.34407
1003.99	57.9618
1004.158	-66.37014
1004.327	-20.01897
1004.495	28.45175
1004.663	47.42198
1004.832	47.42198
1005	-13.69743
1005.168	22.12877
1005.337	-20.01897
1005.505	26.34407
1005.673	-45.30293
1005.842	-68.47672
1006.01	-11.5902
1006.178	15.80599
1006.346	43.20621
1006.514	89.5847
1006.683	51.63784
1006.851	13.69845
1007.019	131.75635
1007.187	9.48343
1007.355	-53.73012
1007.523	-20.01897
1007.691	-45.30293
1007.859	38.99053
1008.027	47.42198
1008.195	89.5847
1008.363	38.99053
1008.531	-11.5902
1008.699	-11.5902
1008.867	-36.87534
1009.035	7.37596
1009.203	5.26851
1009.37	41.09836
1009.538	-5.26836
1009.706	11.59093
1009.874	-28.44736
1010.042	57.9618
1010.209	17.91356
1010.377	47.42198
1010.545	13.69845
1010.713	-3.16104
1010.88	-24.23321
1011.048	76.93493
1011.216	26.34407
1011.383	-28.44736
1011.551	41.09836
1011.718	32.66719
1011.886	5.26851
1012.054	47.42198
1012.221	-26.3403
1012.389	26.34407
1012.556	24.2364
1012.724	22.12877
1012.891	64.28597
1013.058	-76.90279
1013.226	51.63784
1013.393	-9.48295
1013.561	-3.16104
1013.728	15.80599
1013.895	-17.91182
1014.063	13.69845
1014.23	55.85379
1014.397	22.12877
1014.565	51.63784
1014.732	-20.01897
1014.899	9.48343
1015.066	-24.23321
1015.233	-20.01897
1015.401	26.34407
1015.568	-41.08919
1015.735	43.20621
1015.902	-9.48295
1016.069	47.42198
1016.236	22.12877
1016.403	-3.16104
1016.57	41.09836
1016.737	74.82672
1016.904	20.02115
1017.071	17.91356
1017.238	43.20621
1017.405	34.77495
1017.572	9.48343
1017.739	57.9618
1017.906	-5.26836
1018.073	30.55946
1018.24	36.88273
1018.407	51.63784
1018.573	64.28597
1018.74	-26.3403
1018.907	57.9618
1019.074	7.37596
1019.241	30.55946
1019.407	-36.87534
1019.574	41.09836
1019.741	13.69845
1019.907	1.05369
1020.074	9.48343
1020.241	26.34407
1020.407	-28.44736
1020.574	-3.16104
1020.74	-7.37567
1020.907	55.85379
1021.073	5.26851
1021.24	5.26851
1021.406	72.71852
1021.573	72.71852
1021.739	-83.22208
1021.906	70.61035
1022.072	-7.37567
1022.239	13.69845
1022.405	66.39408
1022.571	-15.80464
1022.738	55.85379
1022.904	93.80147
1023.07	-1.05368
1023.237	53.7458
1023.403	-22.12611
1023.569	-62.1569
1023.735	17.91356
1023.902	26.34407
1024.068	5.26851
1024.234	-45.30293
1024.4	89.5847
1024.566	38.99053
1024.732	17.91356
1024.898	32.66719
1025.065	45.31408
1025.231	-3.16104
1025.397	-43.19607
1025.563	-60.05024
1025.729	1.05369
1025.895	-3.16104
1026.061	47.42198
1026.227	-34.76838
1026.392	30.55946
1026.558	-20.01897
1026.724	22.12877
1026.89	17.91356
1027.056	83.25972
1027.222	13.69845
1027.388	47.42198
1027.553	22.12877
1027.719	49.5299
1027.885	43.20621
1028.051	93.80147
1028.216	98.01833
1028.382	66.39408
1028.548	-45.30293
1028.713	45.31408
1028.879	-17.91182
1029.045	15.80599
1029.21	70.61035
1029.376	30.55946
1029.541	28.45175
1029.707	81.15143
1029.873	55.85379
1030.038	55.85379
1030.204	38.99053
1030.369	53.7458
1030.534	38.99053
1030.7	17.91356
1030.865	-3.16104
1031.031	7.37596
1031.196	-51.62336
1031.361	81.15143
1031.527	-17.91182
1031.692	-20.01897
1031.857	89.5847
1032.023	108.56086
1032.188	24.2364
1032.353	5.26851
1032.518	-17.91182
1032.684	93.80147
1032.849	32.66719
1033.014	-1.05368
1033.179	7.37596
1033.344	-45.30293
1033.509	-3.16104
1033.674	-9.48295
1033.839	51.63784
1034.004	51.63784
1034.17	30.55946
1034.335	-47.40976
1034.5	38.99053
1034.664	7.37596
1034.829	-62.1569
1034.994	98.01833
1035.159	26.34407
1035.324	-1.05368
1035.489	24.2364
1035.654	93.80147
1035.819	-41.08919
1035.984	5.26851
1036.148	22.12877
1036.313	55.85379
1036.478	-11.5902
1036.643	-20.01897
1036.807	26.34407
1036.972	5.26851
1037.137	43.20621
1037.301	45.31408
1037.466	34.77495
1037.631	-20.01897
1037.795	57.9618
1037.96	55.85379
1038.124	55.85379
1038.289	64.28597
1038.454	76.93493
1038.618	-17.91182
1038.783	17.91356
1038.947	-15.80464
1039.111	64.28597
1039.276	9.48343
1039.44	83.25972
1039.605	-7.37567
1039.769	-49.51657
1039.933	70.61035
1040.098	-7.37567
1040.262	17.91356
1040.426	-57.94356
1040.591	20.02115
1040.755	55.85379
1040.919	76.93493
1041.083	76.93493
1041.248	-1.05368
1041.412	-24.23321
1041.576	22.12877
1041.74	-24.23321
1041.904	-22.12611
1042.068	13.69845
1042.232	47.42198
1042.397	60.06984
1042.561	30.55946
1042.725	-79.00925
1042.889	-17.91182
1043.053	30.55946
1043.217	26.34407
1043.381	-60.05024
1043.544	32.66719
1043.708	-11.5902
1043.872	28.45175
1044.036	-49.51657
1044.2	-17.91182
1044.364	32.66719
1044.528	-41.08919
1044.691	49.5299
1044.855	-62.1569
1045.019	-24.23321
1045.183	83.25972
1045.346	9.48343
1045.51	-22.12611
1045.674	26.34407
1045.837	57.9618
1046.001	91.69308
1046.165	-11.5902
1046.328	13.69845
1046.492	26.34407
1046.655	45.31408
1046.819	3.16109
1046.983	1.05369
1047.146	1.05369
1047.31	98.01833
1047.473	5.26851
1047.636	30.55946
1047.8	24.2364
1047.963	-26.3403
1048.127	13.69845
1048.29	1.05369
