Data from mixed_try1_USB4F045381__9__00113.txt Node

Date: Thu Apr 03 19:59:34 EDT 2025
User: mmckonesweet
Spectrometer: USB4F04538
Trigger mode: 4
Integration Time (sec): 2.700000E-3
Scans to average: 1
Electric dark correction enabled: true
Nonlinearity correction enabled: true
Boxcar width: 0
XAxis mode: Wavelengths
Number of Pixels in Spectrum: 3648
>>>>>Begin Spectral Data<<<<<
345.52	41.97663
345.736	41.97663
345.952	41.97663
346.168	-88.66349
346.384	33.54542
346.6	-69.70555
346.816	-59.17246
347.032	-42.31821
347.248	111.54801
347.464	-33.89048
347.68	25.11459
347.896	-33.89048
348.112	20.89932
348.328	25.11459
348.544	46.19237
348.76	-14.92664
348.975	25.11459
349.191	-21.24814
349.407	-71.81209
349.623	-2.28298
349.839	-42.31821
350.055	8.25407
350.27	-21.24814
350.486	-21.24814
350.702	-46.53192
350.918	-10.71218
351.133	-25.46235
351.349	-33.89048
351.565	-46.53192
351.781	-17.03383
351.996	-33.89048
352.212	37.76098
352.428	-33.89048
352.644	-67.59898
352.859	16.68414
353.075	50.4082
353.291	-42.31821
353.506	-29.67646
353.722	-17.03383
353.938	-33.89048
354.153	-6.49763
354.369	96.7884
354.584	27.22227
354.8	-8.60492
355.016	-48.63874
355.231	-54.95905
355.447	-40.21131
355.662	-10.71218
355.878	10.36155
356.093	58.84015
356.309	-33.89048
356.524	52.51615
356.74	16.68414
356.955	-59.17246
357.171	54.62413
357.386	-92.87609
357.602	-21.24814
357.817	-8.60492
358.033	20.89932
358.248	-17.03383
358.464	16.68414
358.679	-54.95905
358.895	12.46906
359.11	4.03918
359.325	-0.17561
359.541	-54.95905
359.756	-4.39031
359.972	39.86879
360.187	-59.17246
360.402	-52.8523
360.618	-21.24814
360.833	12.46906
361.048	-65.49239
361.264	-10.71218
361.479	41.97663
361.694	-38.10439
361.909	-8.60492
362.125	-0.17561
362.34	-42.31821
362.555	-14.92664
362.77	50.4082
362.986	67.27246
363.201	-25.46235
363.416	-23.35526
363.631	25.11459
363.847	-63.38577
364.062	-35.99745
364.277	25.11459
364.492	-25.46235
364.707	44.08449
364.922	37.76098
365.138	-44.42508
365.353	-59.17246
365.568	29.32996
365.783	-40.21131
365.998	4.03918
366.213	75.70514
366.428	-4.39031
366.643	-17.03383
366.858	-31.78348
367.073	1.93177
367.288	-4.39031
367.503	67.27246
367.718	4.03918
367.933	-25.46235
368.148	-48.63874
368.363	-0.17561
368.578	-76.0251
368.793	113.65661
369.008	41.97663
369.223	16.68414
369.438	-63.38577
369.653	1.93177
369.868	71.48875
370.083	10.36155
370.298	-2.28298
370.513	-17.03383
370.728	35.65319
370.943	-33.89048
371.157	-31.78348
371.372	-0.17561
371.587	-59.17246
371.802	-25.46235
372.017	33.54542
372.232	12.46906
372.446	-21.24814
372.661	16.68414
372.876	-31.78348
373.091	18.79172
373.306	8.25407
373.52	-10.71218
373.735	35.65319
373.95	-31.78348
374.165	16.68414
374.379	-63.38577
374.594	-17.03383
374.809	-65.49239
375.023	-10.71218
375.238	-50.74553
375.453	-8.60492
375.667	-21.24814
375.882	8.25407
376.097	25.11459
376.311	1.93177
376.526	-33.89048
376.741	-23.35526
376.955	10.36155
377.17	-57.06577
377.384	-6.49763
377.599	25.11459
377.813	-38.10439
378.028	4.03918
378.242	4.03918
378.457	-8.60492
378.672	-46.53192
378.886	-19.141
379.101	50.4082
379.315	37.76098
379.53	-46.53192
379.744	4.03918
379.958	-25.46235
380.173	8.25407
380.387	-19.141
380.602	-17.03383
380.816	58.84015
381.031	25.11459
381.245	39.86879
381.459	-31.78348
381.674	-90.7698
381.888	18.79172
382.103	-0.17561
382.317	-63.38577
382.531	-33.89048
382.746	12.46906
382.96	-6.49763
383.174	-0.17561
383.388	33.54542
383.603	-65.49239
383.817	-10.71218
384.031	-31.78348
384.246	-118.14944
384.46	54.62413
384.674	-6.49763
384.888	29.32996
385.103	56.73213
385.317	-17.03383
385.531	92.57157
385.745	-35.99745
385.959	-8.60492
386.174	-17.03383
386.388	52.51615
386.602	-27.56942
386.816	-25.46235
387.03	-67.59898
387.244	-19.141
387.458	-2.28298
387.672	37.76098
387.887	18.79172
388.101	-12.81942
388.315	-80.238
388.529	16.68414
388.743	-50.74553
388.957	52.51615
389.171	-33.89048
389.385	14.57659
389.599	29.32996
389.813	12.46906
390.027	-17.03383
390.241	-48.63874
390.455	16.68414
390.669	-65.49239
390.883	-40.21131
391.097	-38.10439
391.311	-14.92664
391.525	-44.42508
391.738	-25.46235
391.952	-0.17561
392.166	52.51615
392.38	-92.87609
392.594	16.68414
392.808	-8.60492
393.022	16.68414
393.236	23.00695
393.449	41.97663
393.663	-33.89048
393.877	6.14661
394.091	-59.17246
394.305	-6.49763
394.518	-8.60492
394.732	37.76098
394.946	41.97663
395.16	-29.67646
395.373	33.54542
395.587	-48.63874
395.801	14.57659
396.015	-71.81209
396.228	-2.28298
396.442	29.32996
396.656	-23.35526
396.869	41.97663
397.083	8.25407
397.297	-52.8523
397.51	23.00695
397.724	8.25407
397.938	25.11459
398.151	-14.92664
398.365	-59.17246
398.578	25.11459
398.792	-0.17561
399.005	18.79172
399.219	4.03918
399.433	-126.57304
399.646	-48.63874
399.86	-31.78348
400.073	-8.60492
400.287	4.03918
400.5	71.48875
400.714	92.57157
400.927	14.57659
401.141	46.19237
401.354	-27.56942
401.567	-65.49239
401.781	8.25407
401.994	-4.39031
402.208	-33.89048
402.421	65.16435
402.635	27.22227
402.848	1.93177
403.061	-2.28298
403.275	-0.17561
403.488	-12.81942
403.701	77.81336
403.915	-33.89048
404.128	-33.89048
404.341	1.93177
404.555	-2.28298
404.768	8.25407
404.981	8.25407
405.195	-0.17561
405.408	-21.24814
405.621	35.65319
405.834	29.32996
406.048	-63.38577
406.261	10.36155
406.474	-25.46235
406.687	18.79172
406.9	-23.35526
407.114	-38.10439
407.327	44.08449
407.54	-8.60492
407.753	4.03918
407.966	-2.28298
408.179	-4.39031
408.392	-17.03383
408.605	20.89932
408.819	-76.0251
409.032	-4.39031
409.245	-76.0251
409.458	77.81336
409.671	4.03918
409.884	-0.17561
410.097	50.4082
410.31	39.86879
410.523	-31.78348
410.736	-25.46235
410.949	4.03918
411.162	-46.53192
411.375	-42.31821
411.588	-8.60492
411.801	27.22227
412.014	-4.39031
412.227	-61.27913
412.44	-38.10439
412.653	8.25407
412.865	14.57659
413.078	-33.89048
413.291	-67.59898
413.504	-50.74553
413.717	-0.17561
413.93	-63.38577
414.143	4.03918
414.356	-17.03383
414.568	-0.17561
414.781	-0.17561
414.994	54.62413
415.207	-84.4508
415.42	1.93177
415.632	-14.92664
415.845	4.03918
416.058	12.46906
416.271	8.25407
416.483	-50.74553
416.696	16.68414
416.909	-23.35526
417.121	27.22227
417.334	-21.24814
417.547	44.08449
417.759	-17.03383
417.972	67.27246
418.185	-2.28298
418.397	4.03918
418.61	39.86879
418.823	12.46906
419.035	-14.92664
419.248	69.38059
419.46	29.32996
419.673	41.97663
419.885	-92.87609
420.098	-4.39031
420.311	-97.08857
420.523	25.11459
420.736	-21.24814
420.948	-46.53192
421.161	16.68414
421.373	54.62413
421.586	-29.67646
421.798	41.97663
422.01	-0.17561
422.223	-25.46235
422.435	-21.24814
422.648	-52.8523
422.86	-0.17561
423.073	-73.91861
423.285	27.22227
423.497	29.32996
423.71	-61.27913
423.922	60.94819
424.134	16.68414
424.347	4.03918
424.559	12.46906
424.771	35.65319
424.984	-8.60492
425.196	29.32996
425.408	4.03918
425.621	54.62413
425.833	29.32996
426.045	33.54542
426.257	16.68414
426.47	-59.17246
426.682	50.4082
426.894	-40.21131
427.106	-33.89048
427.318	-17.03383
427.531	-14.92664
427.743	-21.24814
427.955	-44.42508
428.167	71.48875
428.379	14.57659
428.591	14.57659
428.804	41.97663
429.016	-80.238
429.228	-90.7698
429.44	-14.92664
429.652	-25.46235
429.864	16.68414
430.076	77.81336
430.288	-12.81942
430.5	-57.06577
430.712	-57.06577
430.924	-48.63874
431.136	10.36155
431.348	-48.63874
431.56	-12.81942
431.772	-19.141
431.984	16.68414
432.196	31.43768
432.408	-6.49763
432.62	1.93177
432.832	-42.31821
433.044	27.22227
433.256	33.54542
433.468	-42.31821
433.679	1.93177
433.891	39.86879
434.103	-29.67646
434.315	-63.38577
434.527	41.97663
434.739	-8.60492
434.95	41.97663
435.162	4.03918
435.374	1.93177
435.586	44.08449
435.798	-40.21131
436.009	18.79172
436.221	90.46319
436.433	-48.63874
436.645	6.14661
436.856	20.89932
437.068	-92.87609
437.28	31.43768
437.491	35.65319
437.703	-25.46235
437.915	1.93177
438.126	-73.91861
438.338	35.65319
438.55	27.22227
438.761	16.68414
438.973	58.84015
439.184	16.68414
439.396	-17.03383
439.608	-6.49763
439.819	-25.46235
440.031	54.62413
440.242	-59.17246
440.454	-4.39031
440.665	-17.03383
440.877	-10.71218
441.088	-4.39031
441.3	8.25407
441.511	-38.10439
441.723	-23.35526
441.934	-17.03383
442.146	10.36155
442.357	-8.60492
442.569	33.54542
442.78	-25.46235
442.991	-63.38577
443.203	-0.17561
443.414	-8.60492
443.626	-0.17561
443.837	33.54542
444.048	35.65319
444.26	-33.89048
444.471	-50.74553
444.682	-65.49239
444.894	18.79172
445.105	-80.238
445.316	-38.10439
445.528	-54.95905
445.739	-59.17246
445.95	-88.66349
446.161	-31.78348
446.373	-23.35526
446.584	-109.72541
446.795	-54.95905
447.006	25.11459
447.217	33.54542
447.429	-52.8523
447.64	16.68414
447.851	1.93177
448.062	18.79172
448.273	-8.60492
448.484	12.46906
448.695	33.54542
448.907	-14.92664
449.118	-63.38577
449.329	25.11459
449.54	-23.35526
449.751	-0.17561
449.962	27.22227
450.173	-25.46235
450.384	-12.81942
450.595	50.4082
450.806	16.68414
451.017	-35.99745
451.228	27.22227
451.439	27.22227
451.65	-27.56942
451.861	-14.92664
452.072	-48.63874
452.283	-14.92664
452.494	-0.17561
452.705	-10.71218
452.915	-12.81942
453.126	-8.60492
453.337	-50.74553
453.548	63.05626
453.759	-0.17561
453.97	-8.60492
454.181	-48.63874
454.391	-4.39031
454.602	-33.89048
454.813	-63.38577
455.024	-0.17561
455.235	-59.17246
455.445	33.54542
455.656	27.22227
455.867	-92.87609
456.078	27.22227
456.288	-4.39031
456.499	-17.03383
456.71	-0.17561
456.921	71.48875
457.131	101.00532
457.342	20.89932
457.553	77.81336
457.763	54.62413
457.974	-14.92664
458.184	105.22233
458.395	-38.10439
458.606	-4.39031
458.816	27.22227
459.027	-21.24814
459.237	-8.60492
459.448	-19.141
459.659	-63.38577
459.869	8.25407
460.08	-8.60492
460.29	-17.03383
460.501	-12.81942
460.711	-0.17561
460.922	20.89932
461.132	12.46906
461.343	25.11459
461.553	-14.92664
461.764	79.92161
461.974	41.97663
462.184	-12.81942
462.395	16.68414
462.605	8.25407
462.816	-8.60492
463.026	18.79172
463.236	52.51615
463.447	-17.03383
463.657	-21.24814
463.867	8.25407
464.078	-21.24814
464.288	75.70514
464.498	-31.78348
464.709	-19.141
464.919	84.13817
465.129	12.46906
465.339	1.93177
465.55	-8.60492
465.76	-27.56942
465.97	-0.17561
466.18	50.4082
466.391	25.11459
466.601	29.32996
466.811	50.4082
467.021	-21.24814
467.231	-65.49239
467.441	-38.10439
467.651	-27.56942
467.862	-118.14944
468.072	-54.95905
468.282	18.79172
468.492	-17.03383
468.702	29.32996
468.912	-35.99745
469.122	-0.17561
469.332	-12.81942
469.542	-42.31821
469.752	6.14661
469.962	14.57659
470.172	-29.67646
470.382	-57.06577
470.592	-33.89048
470.802	79.92161
471.012	8.25407
471.222	-27.56942
471.432	-2.28298
471.642	-33.89048
471.852	52.51615
472.062	-29.67646
472.272	23.00695
472.482	-29.67646
472.691	-40.21131
472.901	-10.71218
473.111	-54.95905
473.321	8.25407
473.531	-42.31821
473.741	18.79172
473.95	-14.92664
474.16	12.46906
474.37	-17.03383
474.58	-61.27913
474.79	-25.46235
474.999	12.46906
475.209	4.03918
475.419	58.84015
475.628	25.11459
475.838	67.27246
476.048	-59.17246
476.258	25.11459
476.467	-57.06577
476.677	50.4082
476.886	58.84015
477.096	84.13817
477.306	10.36155
477.515	25.11459
477.725	4.03918
477.935	-6.49763
478.144	-67.59898
478.354	-25.46235
478.563	23.00695
478.773	-14.92664
478.982	12.46906
479.192	-0.17561
479.401	-27.56942
479.611	-0.17561
479.82	-50.74553
480.03	16.68414
480.239	6.14661
480.449	-17.03383
480.658	10.36155
480.868	88.35483
481.077	79.92161
481.287	-46.53192
481.496	-10.71218
481.705	69.38059
481.915	8.25407
482.124	-14.92664
482.333	16.68414
482.543	8.25407
482.752	12.46906
482.961	52.51615
483.171	73.59693
483.38	41.97663
483.589	-0.17561
483.799	-54.95905
484.008	31.43768
484.217	8.25407
484.426	41.97663
484.636	-4.39031
484.845	35.65319
485.054	-46.53192
485.263	20.89932
485.472	-6.49763
485.682	4.03918
485.891	92.57157
486.1	50.4082
486.309	-4.39031
486.518	39.86879
486.727	12.46906
486.936	-4.39031
487.146	58.84015
487.355	33.54542
487.564	71.48875
487.773	-76.0251
487.982	39.86879
488.191	-8.60492
488.4	18.79172
488.609	10.36155
488.818	33.54542
489.027	-0.17561
489.236	27.22227
489.445	-6.49763
489.654	-4.39031
489.863	35.65319
490.072	54.62413
490.281	-25.46235
490.49	27.22227
490.698	10.36155
490.907	69.38059
491.116	-44.42508
491.325	-33.89048
491.534	20.89932
491.743	31.43768
491.952	75.70514
492.16	25.11459
492.369	-14.92664
492.578	29.32996
492.787	-8.60492
492.996	12.46906
493.204	84.13817
493.413	-33.89048
493.622	-10.71218
493.831	46.19237
494.039	67.27246
494.248	67.27246
494.457	-12.81942
494.665	41.97663
494.874	79.92161
495.083	50.4082
495.291	58.84015
495.5	58.84015
495.709	58.84015
495.917	-8.60492
496.126	-48.63874
496.335	1.93177
496.543	52.51615
496.752	96.7884
496.96	69.38059
497.169	50.4082
497.377	94.67998
497.586	101.00532
497.794	39.86879
498.003	-25.46235
498.211	-14.92664
498.42	77.81336
498.628	25.11459
498.837	-17.03383
499.045	58.84015
499.254	8.25407
499.462	67.27246
499.671	-6.49763
499.879	33.54542
500.087	4.03918
500.296	20.89932
500.504	1.93177
500.713	27.22227
500.921	103.11382
501.129	8.25407
501.338	84.13817
501.546	20.89932
501.754	14.57659
501.962	18.79172
502.171	69.38059
502.379	23.00695
502.587	50.4082
502.795	10.36155
503.004	79.92161
503.212	50.4082
503.42	33.54542
503.628	10.36155
503.837	18.79172
504.045	41.97663
504.253	54.62413
504.461	-21.24814
504.669	-0.17561
504.877	25.11459
505.085	-10.71218
505.294	143.17933
505.502	41.97663
505.71	46.19237
505.918	10.36155
506.126	84.13817
506.334	41.97663
506.542	1.93177
506.75	37.76098
506.958	113.65661
507.166	18.79172
507.374	23.00695
507.582	71.48875
507.79	67.27246
507.998	25.11459
508.206	29.32996
508.414	41.97663
508.622	-31.78348
508.83	25.11459
509.037	44.08449
509.245	12.46906
509.453	67.27246
509.661	52.51615
509.869	41.97663
510.077	29.32996
510.285	25.11459
510.492	1.93177
510.7	92.57157
510.908	69.38059
511.116	65.16435
511.324	122.09124
511.531	109.43943
511.739	69.38059
511.947	58.84015
512.155	96.7884
512.362	41.97663
512.57	115.76524
512.778	-6.49763
512.985	58.84015
513.193	75.70514
513.401	54.62413
513.608	8.25407
513.816	33.54542
514.024	46.19237
514.231	-21.24814
514.439	92.57157
514.646	113.65661
514.854	31.43768
515.061	103.11382
515.269	141.07043
515.477	75.70514
515.684	37.76098
515.892	20.89932
516.099	58.84015
516.307	117.87389
516.514	77.81336
516.722	92.57157
516.929	37.76098
517.136	39.86879
517.344	155.83321
517.551	-8.60492
517.759	69.38059
517.966	134.74384
518.173	27.22227
518.381	84.13817
518.588	94.67998
518.796	33.54542
519.003	56.73213
519.21	128.41744
519.418	103.11382
519.625	44.08449
519.832	58.84015
520.039	69.38059
520.247	119.98255
520.454	111.54801
520.661	111.54801
520.868	92.57157
521.076	33.54542
521.283	147.39721
521.49	88.35483
521.697	82.02988
521.904	105.22233
522.112	84.13817
522.319	50.4082
522.526	143.17933
522.733	164.26954
522.94	155.83321
523.147	67.27246
523.354	58.84015
523.561	130.52622
523.768	71.48875
523.975	58.84015
524.183	105.22233
524.39	27.22227
524.597	187.47118
524.804	84.13817
525.011	84.13817
525.218	149.50617
525.425	134.74384
525.632	103.11382
525.838	33.54542
526.045	176.92467
526.252	101.00532
526.459	136.85268
526.666	84.13817
526.873	189.58055
527.08	69.38059
527.287	147.39721
527.494	67.27246
527.701	227.55252
527.907	185.36184
528.114	117.87389
528.321	193.79933
528.528	103.11382
528.735	151.61516
528.941	126.30869
529.148	29.32996
529.355	96.7884
529.562	117.87389
529.768	96.7884
529.975	151.61516
530.182	103.11382
530.388	189.58055
530.595	115.76524
530.802	151.61516
531.008	179.03394
531.215	153.72418
531.422	193.79933
531.628	214.89448
531.835	134.74384
532.042	111.54801
532.248	202.23715
532.455	124.19996
532.661	198.0182
532.868	145.28826
533.074	132.63502
533.281	56.73213
533.487	189.58055
533.694	160.05133
533.9	206.45618
534.107	75.70514
534.313	155.83321
534.52	257.09068
534.726	219.11374
534.933	84.13817
535.139	176.92467
535.345	181.14322
535.552	225.4428
535.758	235.99161
535.965	225.4428
536.171	227.55252
536.377	198.0182
536.584	267.64093
536.79	273.97131
536.996	113.65661
537.203	244.431
537.409	153.72418
537.615	311.95708
537.821	252.87071
538.028	219.11374
538.234	179.03394
538.44	271.86117
538.646	202.23715
538.853	286.63257
539.059	244.431
539.265	265.53084
539.471	265.53084
539.677	206.45618
539.883	235.99161
540.09	295.07378
540.296	231.77202
540.502	195.90876
540.708	305.62571
540.914	227.55252
541.12	288.74285
541.326	244.431
541.532	240.21127
541.738	221.22341
541.944	254.98069
542.15	299.2945
542.356	181.14322
542.562	307.73615
542.768	417.50302
542.974	305.62571
543.18	316.17809
543.386	303.51529
543.592	261.31072
543.798	341.50562
544.004	282.41208
544.21	311.95708
544.415	290.85314
544.621	311.95708
544.827	320.39917
545.033	409.05781
545.239	309.84661
545.445	421.72573
545.651	278.19166
545.856	396.39047
546.062	333.06283
546.268	339.39489
546.474	280.30186
546.679	341.50562
546.885	330.95217
547.091	387.9459
547.297	354.17033
547.502	349.94869
547.708	305.62571
547.914	337.28419
548.119	373.16856
548.325	371.05758
548.531	282.41208
548.736	447.06329
548.942	447.06329
549.147	371.05758
549.353	379.50161
549.559	404.83529
549.764	362.61382
549.97	423.8371
550.175	404.83529
550.381	485.0738
550.586	392.16815
550.792	466.06793
550.997	457.62127
551.203	482.96198
551.408	358.39204
551.614	447.06329
551.819	449.17485
552.025	425.9485
552.23	491.40936
552.435	413.28038
552.641	404.83529
552.846	438.61718
553.052	383.72372
553.257	535.76193
553.462	556.88439
553.668	508.30483
553.873	525.20123
554.078	533.64976
554.283	438.61718
554.489	527.31334
554.694	476.6266
554.899	578.0082
555.105	590.68313
555.31	632.93621
555.515	463.95624
555.72	603.35852
555.925	514.64087
556.131	658.29044
556.336	525.20123
556.541	548.43524
556.746	508.30483
556.951	685.75944
557.156	516.75291
557.361	582.23313
557.567	654.06461
557.772	637.1618
557.977	535.76193
558.182	654.06461
558.387	573.78333
558.592	550.54751
558.797	601.24592
559.002	582.23313
559.207	506.19285
559.412	681.53331
559.617	542.09852
559.822	679.42027
560.027	556.88439
560.232	658.29044
560.437	539.98631
560.642	599.13334
560.847	632.93621
561.051	616.03437
561.256	692.09872
561.461	713.23036
561.666	647.72597
561.871	734.3631
562.076	670.9682
562.281	709.00395
562.485	679.42027
562.69	692.09872
562.895	700.55124
563.1	717.45683
563.305	594.90821
563.509	740.70313
563.714	736.47644
563.919	810.44948
564.123	679.42027
564.328	751.27006
564.533	658.29044
564.737	797.76753
564.942	736.47644
565.147	770.29117
565.351	766.06419
565.556	831.58679
565.761	831.58679
565.965	728.02317
566.17	757.61034
566.374	835.81437
566.579	763.95071
566.784	793.54029
566.988	734.3631
567.193	801.99481
567.397	772.40468
567.602	878.09201
567.806	692.09872
568.011	859.06665
568.215	869.63621
568.42	895.00401
568.624	920.37296
568.828	810.44948
569.033	761.83724
569.237	1032.43147
569.442	821.01802
569.646	842.15579
569.85	793.54029
570.055	939.40039
570.259	911.91652
570.463	1019.74468
570.668	988.02869
570.872	983.8
571.076	933.05785
571.281	983.8
571.485	884.43395
571.689	1019.74468
571.893	979.57133
572.098	1026.08805
572.302	852.72501
572.506	1013.40137
572.71	1100.09774
572.914	1127.58865
573.119	1015.5158
573.323	1026.08805
573.527	1032.43147
573.731	1089.52453
573.935	1000.71491
574.139	1047.23299
574.343	964.77122
574.547	1091.63916
574.751	1085.29528
574.955	1127.58865
575.159	1083.18066
575.364	1205.83591
575.568	1013.40137
575.772	1106.44172
575.976	1064.14935
576.18	1125.47393
576.383	1114.90044
576.587	1205.83591
576.791	1100.09774
576.995	1140.27702
577.199	1095.86844
577.403	1288.3177
577.607	1108.5564
577.811	1165.65421
578.015	1106.44172
578.219	1298.89256
578.422	1182.57266
578.626	1258.70837
578.83	1142.39176
579.034	1284.08777
579.238	1216.41025
579.442	1296.77759
579.645	1207.95077
579.849	1258.70837
580.053	1275.62793
580.257	1404.64346
580.46	1345.42254
580.664	1387.72312
580.868	1186.80231
581.071	1296.77759
581.275	1203.72105
581.479	1457.51971
581.682	1140.27702
581.886	1343.30752
582.09	1258.70837
582.293	1347.53755
582.497	1347.53755
582.7	1328.50245
582.904	1548.46654
583.107	1537.8914
583.311	1360.22769
583.515	1529.43128
583.718	1224.86978
583.922	1485.01538
584.125	1465.97992
584.329	1633.06625
584.532	1309.46748
584.735	1567.50171
584.939	1368.6878
585.142	1468.09497
585.346	1362.34271
585.549	1550.58156
585.753	1480.78528
585.956	1700.74347
586.159	1463.86487
586.363	1652.10074
586.566	1472.32508
586.769	1711.31777
586.973	1444.8294
587.176	1635.1812
587.379	1523.08617
587.582	1597.11172
587.786	1548.46654
587.989	1880.49353
588.192	1605.57166
588.395	1673.24993
588.599	1618.26152
588.802	1787.45017
589.005	1656.3306
589.208	1795.90902
589.411	1647.87087
589.615	1677.47974
589.818	1681.70954
590.021	1711.31777
590.224	1592.88174
590.427	1759.95847
590.63	1618.26152
590.833	1806.48248
591.036	1709.20292
591.239	1734.58094
591.442	1656.3306
591.645	1783.22072
591.848	1734.58094
592.051	2108.82627
592.254	1838.20221
592.457	1910.09624
592.66	1690.16909
592.863	1810.71184
593.066	1880.49353
593.269	2058.09234
593.472	1867.80634
593.675	2028.49565
593.878	1831.85835
594.081	2094.02931
594.284	1920.66837
594.486	2151.1012
594.689	1996.78344
594.892	1901.63843
595.095	1778.99126
595.298	1965.06978
595.5	1998.89763
595.703	2239.86792
595.906	1910.09624
596.109	2121.50908
596.311	1975.64116
596.514	2043.29417
596.717	1962.95549
596.92	2148.98753
597.122	1876.26449
597.325	2292.69789
597.528	1903.75289
597.73	2197.59992
597.933	2055.97834
598.136	2187.03238
598.338	1952.38393
598.541	2096.14319
598.743	1952.38393
598.946	2138.41905
599.148	2216.62095
599.351	2265.22702
599.554	2385.66416
599.756	2299.03709
599.959	2121.50908
600.161	2334.95764
600.363	2182.80531
600.566	2375.10078
600.768	2269.45341
600.971	2360.31162
601.173	2510.29198
601.376	2438.47715
601.578	2225.07451
601.78	2385.66416
601.983	2265.22702
602.185	2315.94123
602.388	2265.22702
602.59	2282.13235
602.792	2394.11468
602.995	2512.40399
603.197	2307.48924
603.399	2476.49836
603.601	2148.98753
603.804	2438.47715
604.006	2332.84475
604.208	2501.84385
604.41	2286.35859
604.613	2552.52991
604.815	2307.48924
605.017	2670.77065
605.219	2529.29962
605.421	2609.54362
605.623	2518.73994
605.826	2624.32352
606.028	2434.25236
606.23	2520.8519
606.432	2360.31162
606.634	2679.21493
606.836	2394.11468
607.038	2586.31687
607.24	2529.29962
607.442	2552.52991
607.644	2535.63529
607.846	2569.42377
608.048	2487.05918
608.25	2757.31466
608.452	2628.54623
608.654	2748.87231
608.856	2512.40399
609.058	2489.17131
609.26	2455.3759
609.462	2810.07441
609.664	2653.88149
609.866	2850.16607
610.067	2476.49836
610.269	2734.0977
610.471	2487.05918
610.673	2753.09351
610.875	2607.43216
611.077	2843.83614
611.278	2603.2092
611.48	2953.5366
611.682	2721.43323
611.884	2856.49587
612.085	2664.43731
612.287	2746.76169
612.489	2556.75344
612.69	2822.73548
612.892	2740.42976
613.094	2985.17359
613.295	2624.32352
613.497	2814.29482
613.699	2826.95572
613.9	2932.44341
614.102	2786.86117
614.304	2831.17591
614.505	2624.32352
614.707	2886.03324
614.908	2548.30632
615.11	2913.45828
615.311	2693.99192
615.513	2909.2392
615.714	2742.54041
615.916	2824.84561
616.117	2731.98699
616.319	2926.11516
616.52	2862.82554
616.722	2921.89626
616.923	2763.64628
617.124	3042.1116
617.326	2797.41285
617.527	3008.3719
617.729	2704.54653
617.93	2839.61612
618.131	2900.80087
618.333	2820.62534
618.534	2961.97346
618.735	3050.54591
618.937	2750.98292
619.138	3054.76297
619.339	2869.15508
619.54	2942.99019
619.742	3101.14652
619.943	3084.28066
620.144	3016.80719
620.345	3071.6306
620.546	2873.37471
620.748	3004.15416
620.949	2867.04525
621.15	3077.9557
621.351	2926.11516
621.552	2934.55279
621.753	2942.99019
621.954	3061.08845
622.155	2818.51518
622.356	3058.97997
622.558	2869.15508
622.759	3244.46472
622.96	2835.39605
623.161	3118.01137
623.362	3122.22743
623.563	3162.27673
623.764	2841.72614
623.965	3292.92267
624.166	3145.41458
624.366	3181.24541
624.567	3172.81505
624.768	3391.91723
624.969	3162.27673
625.17	3210.74961
625.371	3181.24541
625.572	3280.28233
625.773	3046.32879
625.973	3221.28604
626.174	3202.32017
626.375	3389.81136
626.576	3223.39328
626.777	3278.17555
626.977	3050.54591
627.178	3254.99982
627.379	3063.19691
627.58	3358.22126
627.78	3223.39328
627.981	3381.38772
628.182	3261.32068
628.382	3269.74825
628.583	3252.89283
628.784	3236.03635
628.984	3122.22743
629.185	3290.81599
629.386	3217.07152
629.586	3514.02696
629.787	3126.44342
629.987	3379.28176
630.188	3307.66896
630.388	3370.85777
630.589	3202.32017
630.79	3570.85031
630.99	3318.20151
631.191	3370.85777
631.391	3313.98854
631.591	3474.03216
631.792	3113.79526
631.992	3692.86923
632.193	3415.08059
632.393	3566.64163
632.594	3391.91723
632.794	3474.03216
632.994	3322.41441
633.195	3600.30895
633.395	3252.89283
633.595	3612.93296
633.796	3446.66354
633.996	3602.413
634.196	3469.8218
634.397	3503.50265
634.597	3372.9638
634.797	3716.00354
634.997	3415.08059
635.198	3644.49002
635.398	3448.76892
635.598	3623.45245
635.798	3417.18625
635.998	3694.97244
636.199	3566.64163
636.399	3648.69731
636.599	3482.45266
636.799	3615.03689
636.999	3549.80619
637.199	3711.79747
637.399	3568.74598
637.599	3631.8677
637.799	3457.19029
637.999	3615.03689
638.199	3564.53727
638.399	3648.69731
638.599	3469.8218
638.799	3926.20689
638.999	3673.93944
639.199	4054.33239
639.399	3490.87288
639.599	3900.99297
639.799	3547.70168
639.999	3947.21627
640.199	3593.99669
640.399	3768.57281
640.599	3572.95462
640.799	3945.11542
640.998	3665.5257
641.198	3947.21627
641.398	3726.51836
641.598	3959.82092
641.798	3770.67533
641.997	3903.09424
642.197	3776.98277
642.397	3972.42485
642.597	3781.18763
642.796	3779.08521
642.996	3722.31249
643.196	4087.92642
643.395	3842.14928
643.595	4094.2247
643.795	3800.10853
643.994	4161.39474
644.194	3867.36992
644.394	3943.01455
644.593	3795.90402
644.793	3987.1285
644.992	3793.80174
645.192	3968.22362
645.392	3945.11542
645.591	4029.1334
645.791	3812.72158
645.99	4022.83319
646.19	3791.69944
646.389	4052.23259
646.589	3863.16668
646.788	4230.64124
646.987	3934.61088
647.187	4132.01049
647.386	3913.60029
647.586	4117.31682
647.785	3993.42975
647.984	4083.72745
648.184	4001.83114
648.383	4230.64124
648.582	3888.38493
648.782	4205.46336
648.981	4060.63168
649.18	4283.08529
649.38	3955.61945
649.579	4186.57795
649.778	4119.41598
649.977	4186.57795
650.177	4289.37768
650.376	4333.41896
650.575	4087.92642
650.774	4035.43343
650.973	4020.73308
651.173	4239.03318
651.372	4081.62794
651.571	4253.71827
651.77	4119.41598
651.969	4266.30465
652.168	4218.05268
652.367	4325.03088
652.566	4173.98672
652.765	4364.87119
652.964	4333.41896
653.163	4421.47289
653.362	4346.00044
653.561	4257.91381
653.76	4127.8124
653.959	4442.43244
654.158	4157.19724
654.357	4274.69514
654.556	4190.77486
654.755	4364.87119
654.954	4346.00044
655.153	4480.15411
655.352	4215.95452
655.551	4442.43244
655.749	4310.3509
655.948	4457.10283
656.147	4446.62409
656.346	4563.95446
656.545	4618.40563
656.743	4467.58101
656.942	4211.75812
657.141	4473.86766
657.34	4404.70367
657.538	4530.43857
657.737	4220.15083
657.936	4802.58928
658.135	4354.38766
658.333	4543.00769
658.532	4404.70367
658.731	4641.43811
658.929	4385.83664
659.128	4593.27619
659.326	4446.62409
659.525	4597.46465
659.724	4501.10751
659.922	4547.19722
660.121	4306.15643
660.319	4421.47289
660.518	4213.85633
660.716	4398.41486
660.915	4519.96369
661.113	4672.84168
661.312	4270.49994
661.51	4689.58818
661.709	4532.53348
661.907	4704.24019
662.105	4649.81289
662.304	4905.06994
662.502	4591.18192
662.701	4660.28086
662.899	4517.86865
663.097	4603.74718
663.296	4404.70367
663.494	4852.79074
663.692	4597.46465
663.891	4838.15
664.089	4641.43811
664.287	4471.77214
664.485	4522.05871
664.684	4877.88654
664.882	4695.86775
665.08	4702.14712
665.278	4568.14354
665.476	4758.65225
665.675	4723.07686
665.873	4764.92958
666.071	4434.04889
666.269	4781.66813
666.467	4513.6785
666.665	4714.70524
666.863	4591.18192
667.061	4813.049
667.259	4683.30841
667.457	4752.37472
667.655	4637.25059
667.853	4817.23273
668.051	4475.96317
668.249	4825.59991
668.447	4400.51115
668.645	4662.37439
668.843	4413.08846
669.041	4840.2416
669.239	4658.18731
669.437	5040.9287
669.635	4790.03686
669.833	4831.87506
670.031	4630.96914
670.229	4750.28216
670.426	4725.16972
670.624	4762.83716
670.822	4645.62555
671.02	4616.31163
671.218	4578.61587
671.415	4907.16081
671.613	4681.21511
671.811	4909.25166
672.009	4867.43036
672.206	4831.87506
672.404	4695.86775
672.602	4934.34004
672.799	4725.16972
672.997	4863.24772
673.195	4622.59355
673.392	4886.25108
673.59	4467.58101
673.788	4953.15416
673.985	4852.79074
674.183	4898.79719
674.38	4999.13638
674.578	4978.23675
674.775	5015.85442
674.973	5088.97845
675.17	4771.20671
675.368	4898.79719
675.565	4794.22109
675.763	4806.77323
675.96	4758.65225
676.158	4787.94471
676.355	4800.49726
676.553	4898.79719
676.75	4589.08764
676.947	4716.79818
677.145	4605.84131
677.342	4938.52112
677.539	4679.12179
677.737	4856.9736
677.934	4704.24019
678.131	4886.25108
678.329	4532.53348
678.526	5011.67504
678.723	4735.63363
678.92	5193.39205
679.118	4934.34004
679.315	5020.0337
679.512	4689.58818
679.709	4861.15637
679.906	4739.81904
680.104	5070.17783
680.301	4940.61162
680.498	4700.05402
680.695	4748.18958
680.892	4746.09698
681.089	4884.15998
681.286	5170.42605
681.483	4781.66813
681.68	5159.98602
681.877	4940.61162
682.075	5015.85442
682.272	4496.91701
682.469	4948.97341
682.665	4762.83716
682.862	5149.54542
683.059	4716.79818
683.256	4844.42474
683.453	4779.57589
683.65	4957.33482
683.847	4685.40169
684.044	5059.73224
684.241	4735.63363
684.438	5009.58532
684.635	4723.07686
684.831	4898.79719
685.028	4790.03686
685.225	4748.18958
685.422	4576.52145
685.619	4902.97905
685.815	4668.65483
686.012	4882.06885
686.209	4681.21511
686.405	4810.9571
686.602	4821.41636
686.799	4861.15637
686.996	4925.97762
687.192	4957.33482
687.389	4630.96914
687.586	4553.48135
687.782	4848.60778
687.979	5032.57098
688.175	4689.58818
688.372	4936.43059
688.568	4616.31163
688.765	4875.79535
688.962	4601.65302
689.158	4999.13638
689.355	4798.40523
689.551	4894.61525
689.748	4725.16972
689.944	4752.37472
690.14	4767.02198
690.337	4681.21511
690.533	4626.78139
690.73	4831.87506
690.926	4762.83716
691.123	4894.61525
691.319	4750.28216
691.515	4900.88813
691.712	4944.79256
691.908	4777.48363
692.104	4723.07686
692.301	4785.85254
692.497	4691.6814
692.693	5024.21288
692.889	4905.06994
693.086	5095.2449
693.282	4702.14712
693.478	4976.14666
693.674	4727.26254
693.87	4909.25166
694.067	4760.74472
694.263	4982.41686
694.459	4802.58928
694.655	5074.35591
694.851	4794.22109
695.047	4923.88695
695.243	4940.61162
695.439	4969.87626
695.635	4873.70414
695.831	4794.22109
696.027	4871.6129
696.224	4886.25108
696.42	4643.53184
696.615	5011.67504
696.811	4618.40563
697.007	5061.8214
697.203	4685.40169
697.399	5084.80069
697.595	4689.58818
697.791	4902.97905
697.987	4513.6785
698.183	4974.05655
698.379	4741.91171
698.575	4792.12899
698.77	4785.85254
698.966	4925.97762
699.162	5032.57098
699.358	5009.58532
699.554	4750.28216
699.749	4900.88813
699.945	4829.78336
700.141	5105.68853
700.337	4869.52164
700.532	5015.85442
700.728	4760.74472
700.924	4944.79256
701.119	4783.76035
701.315	4928.06826
701.511	4559.76528
701.706	4723.07686
701.902	4519.96369
702.097	4938.52112
702.293	4731.44813
702.489	4902.97905
702.684	4867.43036
702.88	5011.67504
703.075	5015.85442
703.271	4647.71923
703.466	4716.79818
703.662	4819.32456
703.857	4886.25108
704.053	5061.8214
704.248	4948.97341
704.443	4842.33318
704.639	4846.51627
704.834	5020.0337
705.03	4813.049
705.225	4913.43329
705.42	4840.2416
705.616	5043.01808
705.811	4798.40523
706.006	4930.15888
706.202	4637.25059
706.397	4940.61162
706.592	4580.71027
706.787	4739.81904
706.983	4654.00015
707.178	4984.50688
707.373	4624.68748
707.568	4925.97762
707.763	4720.98399
707.959	4836.05838
708.154	4689.58818
708.349	4907.16081
708.544	4639.34436
708.739	4890.43321
708.934	4710.51929
709.129	4909.25166
709.324	4777.48363
709.519	5270.62062
709.714	4706.33325
709.909	4984.50688
710.104	4777.48363
710.299	4827.69165
710.494	4702.14712
710.689	5045.10743
710.884	4538.81807
711.079	5034.66044
711.274	4605.84131
711.469	4821.41636
711.664	4545.10247
711.859	5005.40581
712.054	4649.81289
712.249	4808.86518
712.443	4538.81807
712.638	4800.49726
712.833	4555.57602
713.028	4990.7768
713.223	4469.67659
713.417	4825.59991
713.612	4748.18958
713.807	4884.15998
714.002	4758.65225
714.196	5218.44265
714.391	4725.16972
714.586	4884.15998
714.78	4584.899
714.975	4693.77459
715.17	4695.86775
715.364	4664.46789
715.559	4700.05402
715.754	4580.71027
715.948	4815.14087
716.143	4622.59355
716.337	4706.33325
716.532	4886.25108
716.726	4798.40523
716.921	5059.73224
717.115	4785.85254
717.31	4856.9736
717.504	4790.03686
717.699	4955.2445
717.893	4641.43811
718.088	4748.18958
718.282	4787.94471
718.476	4976.14666
718.671	4668.65483
718.865	4911.34249
719.059	4754.46725
719.254	4808.86518
719.448	4572.33254
719.642	4599.55885
719.837	4702.14712
720.031	4854.88218
720.225	4651.90653
720.419	4825.59991
720.614	4645.62555
720.808	4714.70524
721.002	4547.19722
721.196	4689.58818
721.39	4666.56137
721.585	4833.96673
721.779	4538.81807
721.973	4794.22109
722.167	4545.10247
722.361	4674.93507
722.555	4725.16972
722.749	4593.27619
722.943	4549.29195
723.137	4693.77459
723.331	4555.57602
723.525	4702.14712
723.719	4593.27619
723.913	4833.96673
724.107	4532.53348
724.301	4792.12899
724.495	4509.48826
724.689	4739.81904
724.883	4731.44813
725.077	4815.14087
725.271	4515.77358
725.465	4758.65225
725.659	4633.06298
725.853	4798.40523
726.046	4635.15679
726.24	4739.81904
726.434	4668.65483
726.628	4710.51929
726.822	4415.1846
727.015	4771.20671
727.209	4442.43244
727.403	4637.25059
727.596	4700.05402
727.79	4861.15637
727.984	4563.95446
728.177	4940.61162
728.371	4748.18958
728.565	4900.88813
728.758	4570.23805
728.952	4760.74472
729.146	4662.37439
729.339	4992.86673
729.533	4729.35535
729.726	4806.77323
729.92	4568.14354
730.113	4842.33318
730.307	4672.84168
730.5	4668.65483
730.694	4362.77453
730.887	4737.72635
731.081	4622.59355
731.274	4741.91171
731.468	4480.15411
731.661	4737.72635
731.854	4559.76528
732.048	5101.51115
732.241	4440.33659
732.435	4702.14712
732.628	4790.03686
732.821	4656.09374
733.014	4681.21511
733.208	4729.35535
733.401	4771.20671
733.594	4750.28216
733.788	4593.27619
733.981	4842.33318
734.174	4846.51627
734.367	4798.40523
734.56	4758.65225
734.754	4823.50815
734.947	4572.33254
735.14	4725.16972
735.333	4706.33325
735.526	4605.84131
735.719	4739.81904
735.912	4658.18731
736.105	4601.65302
736.298	4733.54089
736.491	4685.40169
736.684	4702.14712
736.877	4566.04901
737.07	4616.31163
737.263	4637.25059
737.456	4404.70367
737.649	4557.67066
737.842	4685.40169
738.035	4555.57602
738.228	4727.26254
738.421	4708.42628
738.614	4744.00435
738.807	4769.11436
739	4685.40169
739.192	4727.26254
739.385	4492.72642
739.578	4482.24955
739.771	4612.12357
739.964	4664.46789
740.156	4733.54089
740.349	4482.24955
740.542	4844.42474
740.735	4568.14354
740.927	4695.86775
741.12	4664.46789
741.313	4637.25059
741.505	4574.427
741.698	4689.58818
741.891	4392.12585
742.083	4792.12899
742.276	4758.65225
742.468	4769.11436
742.661	4622.59355
742.854	4798.40523
743.046	4618.40563
743.239	4685.40169
743.431	4530.43857
743.624	4597.46465
743.816	4630.96914
744.009	4578.61587
744.201	4624.68748
744.393	4630.96914
744.586	4494.82173
744.778	4563.95446
744.971	4620.4996
745.163	4461.29417
745.355	4630.96914
745.548	4639.34436
745.74	4530.43857
745.932	4595.37043
746.125	4507.39311
746.317	4679.12179
746.509	4630.96914
746.702	4796.31317
746.894	4555.57602
747.086	4656.09374
747.278	4578.61587
747.471	4417.28072
747.663	4440.33659
747.855	4633.06298
748.047	4455.00712
748.239	4720.98399
748.431	4473.86766
748.623	4635.15679
748.815	4566.04901
749.008	4618.40563
749.2	4490.63109
749.392	4752.37472
749.584	4482.24955
749.776	4685.40169
749.968	4503.20273
750.16	4704.24019
750.352	4522.05871
750.544	4467.58101
750.736	4440.33659
750.928	4662.37439
751.12	4341.8067
751.311	4325.03088
751.503	4475.96317
751.695	4408.89611
751.887	4513.6785
752.079	4785.85254
752.271	4404.70367
752.463	4785.85254
752.654	4572.33254
752.846	4442.43244
753.038	4398.41486
753.23	4507.39311
753.421	4379.54723
753.613	4576.52145
753.805	4540.91289
753.997	4630.96914
754.188	4528.34364
754.38	4385.83664
754.572	4584.899
754.763	4547.19722
754.955	4484.34497
755.146	4415.1846
755.338	4434.04889
755.53	4308.25368
755.721	4490.63109
755.913	4480.15411
756.104	4188.67641
756.296	4385.83664
756.487	4144.60424
756.679	4211.75812
756.87	4245.32692
757.062	4400.51115
757.253	4341.8067
757.445	4387.93306
757.636	4413.08846
757.827	4356.48441
758.019	4448.71988
758.21	4304.05916
758.401	4037.53339
758.593	4358.58114
758.784	4083.72745
758.975	4169.78948
759.167	4312.44811
759.358	4362.77453
759.549	4117.31682
759.74	4295.66987
759.932	4224.34706
760.123	4264.20697
760.314	4205.46336
760.505	4071.13007
760.696	4228.5432
760.888	4346.00044
761.079	4373.25763
761.27	4410.99229
761.461	4280.98779
761.652	4230.64124
761.843	4159.296
762.034	4209.65989
762.225	4113.11844
762.416	4329.22497
762.607	4171.88811
762.798	4283.08529
762.989	4163.49345
763.18	4406.7999
763.371	4020.73308
763.562	4289.37768
763.753	4253.71827
763.944	4260.01155
764.135	4129.91145
764.326	4308.25368
764.517	4270.49994
764.708	4203.36507
764.899	3953.51869
765.089	4048.03292
765.28	3961.92163
765.471	3943.01455
765.662	3884.18209
765.853	3837.94556
766.043	3917.80257
766.234	3985.02804
766.425	3968.22362
766.615	3976.62599
766.806	3964.02231
766.997	4079.52841
767.187	3909.39793
767.378	4054.33239
767.569	4094.2247
767.759	4085.82695
767.95	4205.46336
768.141	4199.16842
768.331	3976.62599
768.522	4043.83317
768.712	4018.63294
768.903	3879.97916
769.093	3751.75196
769.284	4052.23259
769.474	3934.61088
769.665	3884.18209
769.855	3831.63983
770.046	3827.43591
770.236	3577.16318
770.426	3919.90368
770.617	4111.01922
770.807	3917.80257
770.998	3657.11165
771.188	4037.53339
771.378	3694.97244
771.569	3957.7202
771.759	3741.2383
771.949	4041.73327
772.139	3858.96336
772.33	3707.59133
772.52	3852.65822
772.71	4014.43262
772.9	3938.81276
773.09	3964.02231
773.281	3842.14928
773.471	3703.38511
773.661	3572.95462
773.851	3728.62127
774.041	3528.76023
774.231	3848.4547
774.421	3640.28266
774.611	3640.28266
774.802	3541.38803
774.992	3652.90452
775.182	3524.55081
775.372	3617.14081
775.562	3495.08287
775.752	3606.62104
775.942	3564.53727
776.131	3730.72415
776.321	3566.64163
776.511	3591.89257
776.701	3648.69731
776.891	3686.55947
777.081	3642.38635
777.271	3800.10853
777.461	3760.16254
777.651	3760.16254
777.84	3463.50613
778.03	3404.55206
778.22	3572.95462
778.41	3503.50265
778.599	3408.76352
778.789	3539.28344
778.979	3389.81136
779.169	3476.13731
779.358	3356.11511
779.548	3581.37167
779.738	3522.44608
779.927	3633.97147
780.117	3364.53959
780.307	3530.86491
780.496	3522.44608
780.686	3598.20488
780.875	3370.85777
781.065	3661.31871
781.254	3318.20151
781.444	3539.28344
781.633	3482.45266
781.823	3556.11962
782.012	3347.69035
782.202	3463.50613
782.391	3155.95354
782.581	3448.76892
782.77	3387.70548
782.96	3585.58008
783.149	3398.23472
783.338	3522.44608
783.528	3214.96423
783.717	3465.61137
783.906	3408.76352
784.096	3309.7755
784.285	3244.46472
784.474	3307.66896
784.663	3158.06129
784.853	3195.99792
785.042	3025.24224
785.231	3233.92921
785.42	3012.58958
785.61	3193.89046
785.799	3018.91598
785.988	3269.74825
786.177	3113.79526
786.366	3217.07152
786.555	3134.8752
786.744	3356.11511
786.933	3042.1116
787.122	3223.39328
787.312	3160.16902
787.501	3223.39328
787.69	3227.6077
787.879	3305.5624
788.068	2976.73739
788.257	3404.55206
788.445	3153.84578
788.634	3320.30796
788.823	2968.30095
789.012	3354.00895
789.201	3113.79526
789.39	3105.36283
789.579	3052.65445
789.768	3242.35766
789.957	3063.19691
790.145	3124.33543
790.334	2985.17359
790.523	3128.55139
790.712	2987.2826
790.9	3324.52083
791.089	3088.49722
791.278	3143.30673
791.467	3147.5224
791.655	3109.57908
791.844	3046.32879
792.033	3002.04527
792.221	2689.76999
792.41	3185.4605
792.599	2833.28599
792.787	3044.2202
792.976	2841.72614
793.164	2997.82744
793.353	2932.44341
793.541	3061.08845
793.73	2873.37471
793.918	2940.88086
794.107	2797.41285
794.295	2974.6283
794.484	2947.2088
794.672	2974.6283
794.861	2841.72614
795.049	2875.4845
795.238	3021.02475
795.426	3124.33543
795.614	2805.85395
795.803	3191.783
795.991	2700.32472
796.179	2759.42521
796.368	2729.87626
796.556	2881.81379
796.744	2626.43488
796.932	2932.44341
797.121	2829.06582
797.309	2890.25264
797.497	2936.66216
797.685	2805.85395
797.874	2801.63342
798.062	2748.87231
798.25	2759.42521
798.438	3033.67705
798.626	2835.39605
798.814	2949.31808
799.002	2666.54844
799.19	2942.99019
799.378	2740.42976
799.566	2822.73548
799.755	2848.05611
799.943	2755.20409
800.131	2757.31466
800.318	2902.91048
800.506	2780.53
800.694	3077.9557
800.882	2797.41285
801.07	2894.47198
801.258	2734.0977
801.446	2837.50609
801.634	2763.64628
801.822	2934.55279
802.01	2620.10075
802.197	2658.10385
802.385	2586.31687
802.573	2822.73548
802.761	2797.41285
802.949	3010.48075
803.136	2693.99192
803.324	2909.2392
803.512	2645.4366
803.699	2913.45828
803.887	2681.32597
804.075	2822.73548
804.262	2696.10287
804.45	2966.1918
804.638	2731.98699
804.825	3124.33543
805.013	2810.07441
805.201	2949.31808
805.388	2805.85395
805.576	2742.54041
805.763	2649.65907
805.951	3058.97997
806.138	2681.32597
806.326	3025.24224
806.513	2852.27602
806.701	2763.64628
806.888	2651.77028
807.075	2902.91048
807.263	2613.76651
807.45	2803.74369
807.638	2746.76169
807.825	3063.19691
808.012	2877.59428
808.2	2970.41008
808.387	2835.39605
808.574	2892.36231
808.761	2848.05611
808.949	3050.54591
809.136	2755.20409
809.323	2795.30254
809.51	2875.4845
809.698	2788.97153
809.885	2991.50058
810.072	2915.5678
810.259	2900.80087
810.446	3008.3719
810.633	2831.17591
810.82	2936.66216
811.008	2867.04525
811.195	2991.50058
811.382	2858.60577
811.569	2911.34875
811.756	2788.97153
811.943	2831.17591
812.13	2738.31908
812.317	2926.11516
812.504	2734.0977
812.691	2826.95572
812.878	2687.659
813.064	3058.97997
813.251	2839.61612
813.438	3052.65445
813.625	2681.32597
813.812	3092.71372
813.999	2807.96419
814.186	3050.54591
814.372	2757.31466
814.559	2940.88086
814.746	2757.31466
814.933	2797.41285
815.12	2877.59428
815.306	2886.03324
815.493	2704.54653
815.68	2997.82744
815.866	2767.86729
816.053	2875.4845
816.24	2905.02007
816.426	2848.05611
816.613	2655.99268
816.799	3132.76728
816.986	2734.0977
817.173	3010.48075
817.359	2670.77065
817.546	2976.73739
817.732	2788.97153
817.919	3088.49722
818.105	2598.98619
818.292	2816.40501
818.478	2826.95572
818.665	2966.1918
818.851	2541.97086
819.037	2978.84646
819.224	2569.42377
819.41	2767.86729
819.597	2698.2138
819.783	2793.19222
819.969	2738.31908
820.156	2814.29482
820.342	2797.41285
820.528	2712.98998
820.714	2736.2084
820.901	2926.11516
821.087	2742.54041
821.273	2886.03324
821.459	2672.88174
821.646	2852.27602
821.832	2655.99268
822.018	2968.30095
822.204	2571.53545
822.39	2807.96419
822.576	2689.76999
822.762	2810.07441
822.948	2712.98998
823.134	2797.41285
823.32	2539.85902
823.507	2778.41958
823.693	2636.99152
823.879	2763.64628
824.065	2769.97777
824.25	2755.20409
824.436	2582.09366
824.622	2613.76651
824.808	2506.06794
824.994	2782.6404
825.18	2556.75344
825.366	2816.40501
825.552	2689.76999
825.738	2788.97153
825.923	2679.21493
826.109	2816.40501
826.295	2535.63529
826.481	2674.99282
826.667	2529.29962
826.852	2780.53
827.038	2569.42377
827.224	2826.95572
827.409	2535.63529
827.595	2805.85395
827.781	2577.87041
827.966	2824.84561
828.152	2569.42377
828.338	2698.2138
828.523	2434.25236
828.709	2594.76313
828.894	2358.19885
829.08	2601.0977
829.266	2579.98204
829.451	2791.08188
829.637	2370.87536
829.822	2672.88174
830.008	2446.92661
830.193	2630.65757
830.378	2282.13235
830.564	2746.76169
830.749	2453.2636
830.935	2734.0977
831.12	2476.49836
831.305	2712.98998
831.491	2387.77681
831.676	2552.52991
831.861	2402.56503
832.047	2419.46523
832.232	2294.81097
832.417	2613.76651
832.602	2356.08606
832.788	2427.91508
832.973	2476.49836
833.158	2681.32597
833.343	2379.32616
833.528	2514.51598
833.714	2313.82825
833.899	2522.96385
834.084	2309.60225
834.269	2438.47715
834.454	2187.03238
834.639	2235.64127
834.824	2324.39307
835.009	2385.66416
835.194	2392.00206
835.379	2411.01522
835.564	2258.88736
835.749	2449.03895
835.934	2225.07451
836.119	2256.77413
836.304	1946.04092
836.489	2231.4146
836.674	2081.34592
836.859	2269.45341
837.044	2121.50908
837.228	2256.77413
837.413	2087.68765
837.598	2544.08269
837.783	2206.0538
837.968	2180.69176
838.152	2009.4685
838.337	2172.23748
838.522	2113.0539
838.707	2273.67976
838.891	2225.07451
839.076	2079.23199
839.261	2113.0539
839.445	2311.71525
839.63	2049.63629
839.815	2275.79292
839.999	2077.11806
840.184	2284.24548
840.368	1808.59716
840.553	2252.54763
840.737	2117.2815
840.922	2079.23199
841.106	1973.52689
841.291	2089.80154
841.475	2024.26744
841.66	2208.16724
841.844	1800.13841
842.029	1996.78344
842.213	1962.95549
842.397	2022.15333
842.582	1954.49825
842.766	2117.2815
842.951	1776.87652
843.135	1808.59716
843.319	1787.45017
843.504	1899.52396
843.688	1808.59716
843.872	2036.95199
844.056	1979.86966
844.241	2208.16724
844.425	1827.62908
844.609	1846.66063
844.793	1994.66924
844.977	1912.21067
845.161	1800.13841
845.346	2079.23199
845.53	1965.06978
845.714	1994.66924
845.898	1768.41752
846.082	1886.83705
846.266	1831.85835
846.45	1844.54603
846.634	1770.53228
846.818	2058.09234
847.002	1819.17049
847.186	1882.60804
847.37	1707.08806
847.554	1962.95549
847.738	1823.3998
847.922	1778.99126
848.106	1791.6796
848.29	1861.46268
848.473	1724.00682
848.657	1929.12598
848.841	1726.12166
849.025	1874.14996
849.209	1533.66134
849.392	1802.25311
849.576	1620.37648
849.76	1825.51444
849.944	1590.76675
850.127	1692.28397
850.311	1740.92537
850.495	1664.79029
850.678	1614.03157
850.862	1685.93932
851.046	1669.02012
851.229	1592.88174
851.413	1516.74105
851.596	1679.59464
851.78	1607.68664
851.964	1762.07324
852.147	1673.24993
852.331	1743.04018
852.514	1525.2012
852.698	1656.3306
852.881	1520.97113
853.065	1630.95129
853.248	1476.55518
853.431	1677.47974
853.615	1491.36052
853.798	1590.76675
853.982	1324.27245
854.165	1624.60641
854.348	1449.0595
854.532	1529.43128
854.715	1345.42254
854.898	1584.42175
855.081	1540.00643
855.265	1671.13503
855.448	1571.73173
855.631	1673.24993
855.814	1410.9886
855.997	1540.00643
856.181	1567.50171
856.364	1480.78528
856.547	1463.86487
856.73	1415.21869
856.913	1273.51298
857.096	1542.12146
857.279	1347.53755
857.462	1457.51971
857.645	1372.91786
857.828	1444.8294
858.011	1385.60808
858.194	1628.83634
858.377	1284.08777
858.56	1508.28089
858.743	1286.20273
858.926	1353.88261
859.109	1307.35249
859.292	1554.81161
859.475	1550.58156
859.658	1478.67023
859.841	1243.9039
860.023	1360.22769
860.206	1296.77759
860.389	1398.29832
860.572	1269.28308
860.755	1334.84747
860.937	1286.20273
861.12	1260.82331
861.303	1161.42464
861.486	1292.54764
861.668	1167.76901
861.851	1381.378
862.034	1083.18066
862.216	1438.48424
862.399	1125.47393
862.581	1100.09774
862.764	1110.67107
862.947	1449.0595
863.129	1193.14681
863.312	1176.22822
863.494	1131.81809
863.677	1402.52841
863.859	1174.11341
864.042	1085.29528
864.224	1021.85913
864.406	1125.47393
864.589	979.57133
864.771	1186.80231
864.954	1089.52453
865.136	1089.52453
865.318	1064.14935
865.501	1150.85078
865.683	1123.35923
865.865	1165.65421
866.048	1051.46204
866.23	1083.18066
866.412	975.34269
866.594	1051.46204
866.777	1051.46204
866.959	1070.49307
867.141	1023.97359
867.323	1163.53942
867.505	981.68566
867.687	996.48615
867.869	949.97145
868.052	1281.9728
868.234	928.82952
868.416	1093.7538
868.598	903.4602
868.78	985.91434
868.962	852.72501
869.144	1218.52513
869.326	988.02869
869.508	1119.12982
869.69	937.28621
869.872	1021.85913
870.054	1055.69112
870.236	1000.71491
870.417	863.29445
870.599	1074.72225
870.781	1021.85913
870.963	1059.92022
871.145	1043.00395
871.327	1026.08805
871.508	875.97805
871.69	971.11408
871.872	878.09201
872.054	1013.40137
872.235	895.00401
872.417	1021.85913
872.599	911.91652
872.78	1089.52453
872.962	962.65695
873.144	1127.58865
873.325	897.11805
873.507	949.97145
873.689	848.4973
873.87	850.61115
874.052	848.4973
874.233	1064.14935
874.415	854.83888
874.596	941.51459
874.778	998.60053
874.959	977.45701
875.141	897.11805
875.322	905.57427
875.503	818.90429
875.685	930.94368
875.866	852.72501
876.048	907.68835
876.229	787.19951
876.41	880.20598
876.592	844.26962
876.773	1085.29528
876.954	958.42842
877.136	1009.17253
877.317	920.37296
877.498	988.02869
877.679	835.81437
877.86	937.28621
878.042	814.67687
878.223	1004.94371
878.404	966.8855
878.585	897.11805
878.766	814.67687
878.947	787.19951
879.128	852.72501
879.309	897.11805
879.49	751.27006
879.672	920.37296
879.853	911.91652
880.034	949.97145
880.215	888.66195
880.396	1108.5564
880.576	975.34269
880.757	1165.65421
880.938	981.68566
881.119	1091.63916
881.3	983.8
881.481	1199.49135
881.662	975.34269
881.843	990.14304
882.023	998.60053
882.204	971.11408
882.385	928.82952
882.566	1051.46204
882.747	952.08568
882.927	1155.08031
883.108	975.34269
883.289	1004.94371
883.469	949.97145
883.65	1055.69112
883.831	861.18054
884.011	1081.06605
884.192	958.42842
884.373	911.91652
884.553	897.11805
884.734	1021.85913
884.914	842.15579
885.095	1019.74468
885.275	945.743
885.456	1123.35923
885.636	1030.31699
885.817	1133.93281
885.997	998.60053
886.178	1004.94371
886.358	956.31416
886.538	1047.23299
886.719	878.09201
886.899	1007.05811
887.08	981.68566
887.26	1097.98309
887.44	1040.88944
887.621	1218.52513
887.801	949.97145
887.981	1055.69112
888.161	911.91652
888.342	1023.97359
888.522	1106.44172
888.702	1165.65421
888.882	1047.23299
889.062	1068.37849
889.242	962.65695
889.423	1129.70336
889.603	964.77122
889.783	1152.96554
889.963	1009.17253
890.143	1165.65421
890.323	1049.34751
890.503	1030.31699
890.683	1009.17253
890.863	973.22839
891.043	837.92817
891.223	971.11408
891.403	865.40836
891.583	971.11408
891.763	928.82952
891.943	1085.29528
892.122	837.92817
892.302	956.31416
892.482	852.72501
892.662	1004.94371
892.842	922.48709
893.022	962.65695
893.201	905.57427
893.381	1123.35923
893.561	973.22839
893.741	1055.69112
893.92	861.18054
894.1	1064.14935
894.28	793.54029
894.459	911.91652
894.639	861.18054
894.819	1068.37849
894.998	939.40039
895.178	1091.63916
895.357	797.76753
895.537	947.85722
895.716	922.48709
895.896	937.28621
896.075	884.43395
896.255	924.60123
896.434	878.09201
896.614	920.37296
896.793	717.45683
896.973	933.05785
897.152	793.54029
897.331	914.03062
897.511	905.57427
897.69	924.60123
897.87	755.4969
898.049	861.18054
898.228	888.66195
898.407	799.88117
898.587	861.18054
898.766	884.43395
898.945	821.01802
899.124	880.20598
899.304	827.35926
899.483	854.83888
899.662	728.02317
899.841	751.27006
900.02	755.4969
900.199	751.27006
900.378	609.69639
900.557	785.08593
900.737	713.23036
900.916	759.72379
901.095	622.37247
901.274	776.63172
901.453	607.58375
901.632	713.23036
901.811	651.95172
901.989	654.06461
902.168	675.19421
902.347	711.11715
902.526	552.65979
902.705	603.35852
902.884	533.64976
903.063	662.51631
903.242	542.09852
903.42	738.58978
903.599	548.43524
903.778	539.98631
903.957	548.43524
904.135	679.42027
904.314	575.89576
904.493	523.08913
904.672	523.08913
904.85	573.78333
905.029	584.34561
905.207	527.31334
905.386	569.55852
905.565	594.90821
905.743	550.54751
905.922	592.79566
906.1	533.64976
906.279	406.94654
906.457	449.17485
906.636	535.76193
906.814	379.50161
906.993	582.23313
907.171	468.17963
907.35	523.08913
907.528	476.6266
907.707	468.17963
907.885	406.94654
908.063	523.08913
908.242	387.9459
908.42	432.28277
908.598	398.50165
908.777	381.61266
908.955	390.05702
909.133	468.17963
909.311	278.19166
909.49	349.94869
909.668	271.86117
909.846	356.28118
910.024	295.07378
910.202	343.61636
910.38	364.72473
910.559	349.94869
910.737	371.05758
910.915	459.73291
911.093	366.83566
911.271	480.85017
911.449	316.17809
911.627	466.06793
911.805	328.84154
911.983	432.28277
912.161	423.8371
912.339	466.06793
912.517	282.41208
912.695	442.8402
912.872	252.87071
913.05	463.95624
913.228	402.72406
913.406	455.50964
913.584	400.61285
913.762	491.40936
913.939	409.05781
914.117	404.83529
914.295	417.50302
914.473	489.29749
914.65	440.72869
914.828	432.28277
915.006	349.94869
915.184	377.39057
915.361	337.28419
915.539	434.39422
915.716	400.61285
915.894	480.85017
916.072	324.62032
916.249	387.9459
916.427	309.84661
916.604	432.28277
916.782	360.50292
916.959	409.05781
917.137	381.61266
917.314	385.8348
917.492	392.16815
917.669	259.20069
917.847	288.74285
918.024	470.29135
918.201	324.62032
918.379	263.42077
918.556	263.42077
918.733	337.28419
918.911	280.30186
919.088	330.95217
919.265	322.50973
919.442	423.8371
919.62	263.42077
919.797	354.17033
919.974	322.50973
920.151	303.51529
920.328	330.95217
920.506	343.61636
920.683	229.66226
920.86	328.84154
921.037	278.19166
921.214	377.39057
921.391	303.51529
921.568	320.39917
921.745	172.70621
921.922	263.42077
922.099	252.87071
922.276	295.07378
922.453	231.77202
922.63	278.19166
922.807	271.86117
922.984	269.75104
923.161	229.66226
923.338	309.84661
923.514	235.99161
923.691	271.86117
923.868	202.23715
924.045	250.76076
924.222	126.30869
924.399	278.19166
924.575	214.89448
924.752	246.5409
924.929	303.51529
925.105	257.09068
925.282	278.19166
925.459	210.67529
925.635	193.79933
925.812	286.63257
925.989	181.14322
926.165	210.67529
926.342	261.31072
926.518	269.75104
926.695	134.74384
926.871	246.5409
927.048	198.0182
927.224	210.67529
927.401	212.78487
927.577	238.10143
927.754	130.52622
927.93	181.14322
928.107	231.77202
928.283	200.12766
928.459	151.61516
928.636	143.17933
928.812	136.85268
928.988	122.09124
929.165	225.4428
929.341	204.34665
929.517	126.30869
929.693	138.96154
929.87	164.26954
930.046	284.52232
930.222	193.79933
930.398	195.90876
930.574	126.30869
930.751	126.30869
930.927	105.22233
931.103	168.48784
931.279	109.43943
931.455	219.11374
931.631	155.83321
931.807	109.43943
931.983	143.17933
932.159	101.00532
932.335	151.61516
932.511	128.41744
932.687	128.41744
932.863	160.05133
933.039	128.41744
933.215	141.07043
933.391	109.43943
933.566	189.58055
933.742	109.43943
933.918	122.09124
934.094	145.28826
934.27	84.13817
934.445	101.00532
934.621	101.00532
934.797	147.39721
934.973	155.83321
935.148	84.13817
935.324	187.47118
935.5	12.46906
935.675	71.48875
935.851	60.94819
936.027	8.25407
936.202	119.98255
936.378	67.27246
936.553	73.59693
936.729	54.62413
936.904	147.39721
937.08	46.19237
937.255	10.36155
937.431	143.17933
937.606	27.22227
937.782	166.37868
937.957	58.84015
938.133	44.08449
938.308	39.86879
938.483	134.74384
938.659	6.14661
938.834	54.62413
939.009	92.57157
939.185	67.27246
939.36	88.35483
939.535	58.84015
939.71	58.84015
939.886	98.89685
940.061	18.79172
940.236	-8.60492
940.411	18.79172
940.586	8.25407
940.761	35.65319
940.937	46.19237
941.112	8.25407
941.287	67.27246
941.462	39.86879
941.637	-33.89048
941.812	27.22227
941.987	50.4082
942.162	54.62413
942.337	117.87389
942.512	35.65319
942.687	16.68414
942.862	-17.03383
943.037	16.68414
943.212	46.19237
943.386	-6.49763
943.561	16.68414
943.736	35.65319
943.911	79.92161
944.086	63.05626
944.26	-8.60492
944.435	29.32996
944.61	-19.141
944.785	18.79172
944.959	14.57659
945.134	8.25407
945.309	27.22227
945.483	33.54542
945.658	14.57659
945.833	25.11459
946.007	41.97663
946.182	56.73213
946.357	1.93177
946.531	69.38059
946.706	16.68414
946.88	39.86879
947.055	10.36155
947.229	79.92161
947.404	4.03918
947.578	35.65319
947.752	58.84015
947.927	67.27246
948.101	27.22227
948.276	23.00695
948.45	-0.17561
948.624	25.11459
948.799	71.48875
948.973	-31.78348
949.147	-63.38577
949.321	-19.141
949.496	25.11459
949.67	-40.21131
949.844	23.00695
950.018	-12.81942
950.193	-25.46235
950.367	1.93177
950.541	-42.31821
950.715	77.81336
950.889	82.02988
951.063	25.11459
951.237	39.86879
951.411	16.68414
951.585	4.03918
951.759	8.25407
951.933	25.11459
952.107	37.76098
952.281	12.46906
952.455	16.68414
952.629	27.22227
952.803	27.22227
952.977	67.27246
953.151	46.19237
953.325	12.46906
953.499	-23.35526
953.672	63.05626
953.846	-4.39031
954.02	29.32996
954.194	-10.71218
954.368	56.73213
954.541	37.76098
954.715	58.84015
954.889	94.67998
955.062	-8.60492
955.236	-38.10439
955.41	39.86879
955.583	1.93177
955.757	-17.03383
955.93	86.24649
956.104	-8.60492
956.278	50.4082
956.451	37.76098
956.625	58.84015
956.798	18.79172
956.972	25.11459
957.145	37.76098
957.319	29.32996
957.492	4.03918
957.665	41.97663
957.839	33.54542
958.012	54.62413
958.185	-59.17246
958.359	4.03918
958.532	16.68414
958.705	44.08449
958.879	101.00532
959.052	16.68414
959.225	58.84015
959.398	92.57157
959.572	75.70514
959.745	-4.39031
959.918	-46.53192
960.091	25.11459
960.264	10.36155
960.438	12.46906
960.611	69.38059
960.784	82.02988
960.957	79.92161
961.13	8.25407
961.303	60.94819
961.476	-14.92664
961.649	-31.78348
961.822	12.46906
961.995	1.93177
962.168	37.76098
962.341	-6.49763
962.514	39.86879
962.686	88.35483
962.859	-8.60492
963.032	8.25407
963.205	75.70514
963.378	56.73213
963.551	39.86879
963.723	-17.03383
963.896	-12.81942
964.069	-2.28298
964.242	75.70514
964.414	60.94819
964.587	10.36155
964.76	-0.17561
964.932	79.92161
965.105	-25.46235
965.278	1.93177
965.45	16.68414
965.623	41.97663
965.795	-4.39031
965.968	4.03918
966.14	-21.24814
966.313	-14.92664
966.485	44.08449
966.658	-14.92664
966.83	18.79172
967.003	-8.60492
967.175	-48.63874
967.348	4.03918
967.52	67.27246
967.692	-8.60492
967.865	4.03918
968.037	77.81336
968.209	58.84015
968.382	-17.03383
968.554	10.36155
968.726	50.4082
968.898	52.51615
969.071	-48.63874
969.243	12.46906
969.415	4.03918
969.587	14.57659
969.759	-48.63874
969.932	-35.99745
970.104	18.79172
970.276	-6.49763
970.448	-6.49763
970.62	79.92161
970.792	71.48875
970.964	25.11459
971.136	50.4082
971.308	79.92161
971.48	37.76098
971.652	29.32996
971.824	10.36155
971.996	25.11459
972.168	33.54542
972.339	-107.61934
972.511	-0.17561
972.683	20.89932
972.855	-33.89048
973.027	12.46906
973.199	75.70514
973.37	46.19237
973.542	31.43768
973.714	54.62413
973.886	-23.35526
974.057	16.68414
974.229	16.68414
974.401	1.93177
974.572	-29.67646
974.744	-23.35526
974.915	18.79172
975.087	4.03918
975.259	-17.03383
975.43	16.68414
975.602	56.73213
975.773	12.46906
975.945	-31.78348
976.116	119.98255
976.288	96.7884
976.459	71.48875
976.63	-17.03383
976.802	25.11459
976.973	58.84015
977.145	63.05626
977.316	52.51615
977.487	25.11459
977.659	18.79172
977.83	71.48875
978.001	-8.60492
978.172	44.08449
978.344	-33.89048
978.515	84.13817
978.686	1.93177
978.857	41.97663
979.028	4.03918
979.2	-21.24814
979.371	-4.39031
979.542	-25.46235
979.713	-65.49239
979.884	-61.27913
980.055	1.93177
980.226	41.97663
980.397	58.84015
980.568	-2.28298
980.739	33.54542
980.91	79.92161
981.081	-21.24814
981.252	-61.27913
981.423	126.30869
981.594	33.54542
981.765	-61.27913
981.936	-8.60492
982.106	-8.60492
982.277	27.22227
982.448	-19.141
982.619	33.54542
982.79	-2.28298
982.96	35.65319
983.131	-25.46235
983.302	56.73213
983.472	84.13817
983.643	113.65661
983.814	67.27246
983.984	4.03918
984.155	-14.92664
984.326	-33.89048
984.496	12.46906
984.667	58.84015
984.837	52.51615
985.008	20.89932
985.178	44.08449
985.349	18.79172
985.519	-2.28298
985.69	-31.78348
985.86	-4.39031
986.031	48.30027
986.201	-14.92664
986.371	-0.17561
986.542	29.32996
986.712	6.14661
986.882	-6.49763
987.053	37.76098
987.223	75.70514
987.393	-63.38577
987.563	-67.59898
987.734	50.4082
987.904	-57.06577
988.074	-31.78348
988.244	-8.60492
988.414	46.19237
988.585	60.94819
988.755	-21.24814
988.925	-33.89048
989.095	-6.49763
989.265	6.14661
989.435	25.11459
989.605	-4.39031
989.775	41.97663
989.945	27.22227
990.115	23.00695
990.285	23.00695
990.455	46.19237
990.625	27.22227
990.795	27.22227
990.965	-21.24814
991.134	27.22227
991.304	8.25407
991.474	44.08449
991.644	-27.56942
991.814	35.65319
991.984	29.32996
992.153	18.79172
992.323	-4.39031
992.493	-40.21131
992.662	67.27246
992.832	33.54542
993.002	-25.46235
993.171	-14.92664
993.341	-0.17561
993.511	33.54542
993.68	-8.60492
993.85	-50.74553
994.019	-40.21131
994.189	12.46906
994.358	8.25407
994.528	8.25407
994.697	-8.60492
994.867	-29.67646
995.036	-21.24814
995.206	77.81336
995.375	-52.8523
995.544	86.24649
995.714	-4.39031
995.883	-17.03383
996.052	-8.60492
996.222	44.08449
996.391	103.11382
996.56	-38.10439
996.73	4.03918
996.899	-46.53192
997.068	-12.81942
997.237	-8.60492
997.406	16.68414
997.576	1.93177
997.745	6.14661
997.914	33.54542
998.083	-21.24814
998.252	-42.31821
998.421	107.33087
998.59	-4.39031
998.759	-42.31821
998.928	96.7884
999.097	-54.95905
999.266	1.93177
999.435	-17.03383
999.604	-52.8523
999.773	-35.99745
999.942	25.11459
1000.111	-17.03383
1000.28	29.32996
1000.448	44.08449
1000.617	25.11459
1000.786	29.32996
1000.955	4.03918
1001.124	-57.06577
1001.292	4.03918
1001.461	33.54542
1001.63	16.68414
1001.798	-46.53192
1001.967	33.54542
1002.136	77.81336
1002.304	-33.89048
1002.473	18.79172
1002.642	1.93177
1002.81	-42.31821
1002.979	-29.67646
1003.147	-0.17561
1003.316	4.03918
1003.484	6.14661
1003.653	-33.89048
1003.821	37.76098
1003.99	10.36155
1004.158	25.11459
1004.327	-84.4508
1004.495	75.70514
1004.663	4.03918
1004.832	-59.17246
1005	50.4082
1005.168	48.30027
1005.337	-17.03383
1005.505	10.36155
1005.673	-69.70555
1005.842	73.59693
1006.01	-76.0251
1006.178	12.46906
1006.346	1.93177
1006.514	-4.39031
1006.683	-29.67646
1006.851	16.68414
1007.019	10.36155
1007.187	-50.74553
1007.355	27.22227
1007.523	-8.60492
1007.691	8.25407
1007.859	16.68414
1008.027	-35.99745
1008.195	-14.92664
1008.363	6.14661
1008.531	67.27246
1008.699	29.32996
1008.867	-80.238
1009.035	-2.28298
1009.203	-2.28298
1009.37	-21.24814
1009.538	-14.92664
1009.706	-38.10439
1009.874	25.11459
1010.042	-2.28298
1010.209	-8.60492
1010.377	56.73213
1010.545	58.84015
1010.713	-0.17561
1010.88	20.89932
1011.048	-6.49763
1011.216	-69.70555
1011.383	79.92161
1011.551	-54.95905
1011.718	82.02988
1011.886	25.11459
1012.054	-33.89048
1012.221	84.13817
1012.389	60.94819
1012.556	16.68414
1012.724	44.08449
1012.891	-50.74553
1013.058	-25.46235
1013.226	33.54542
1013.393	12.46906
1013.561	35.65319
1013.728	69.38059
1013.895	41.97663
1014.063	-21.24814
1014.23	4.03918
1014.397	52.51615
1014.565	-12.81942
1014.732	-31.78348
1014.899	-2.28298
1015.066	4.03918
1015.233	18.79172
1015.401	27.22227
1015.568	-35.99745
1015.735	54.62413
1015.902	-31.78348
1016.069	27.22227
1016.236	-38.10439
1016.403	20.89932
1016.57	-6.49763
1016.737	-57.06577
1016.904	8.25407
1017.071	6.14661
1017.238	46.19237
1017.405	18.79172
1017.572	52.51615
1017.739	31.43768
1017.906	-23.35526
1018.073	-59.17246
1018.24	75.70514
1018.407	-6.49763
1018.573	-0.17561
1018.74	-23.35526
1018.907	25.11459
1019.074	33.54542
1019.241	4.03918
1019.407	69.38059
1019.574	-4.39031
1019.741	84.13817
1019.907	-29.67646
1020.074	41.97663
1020.241	-4.39031
1020.407	50.4082
1020.574	-63.38577
1020.74	48.30027
1020.907	29.32996
1021.073	-0.17561
1021.24	-33.89048
1021.406	-69.70555
1021.573	130.52622
1021.739	35.65319
1021.906	33.54542
1022.072	-54.95905
1022.239	-4.39031
1022.405	33.54542
1022.571	-6.49763
1022.738	-8.60492
1022.904	1.93177
1023.07	16.68414
1023.237	-4.39031
1023.403	12.46906
1023.569	-17.03383
1023.735	-25.46235
1023.902	20.89932
1024.068	-17.03383
1024.234	67.27246
1024.4	33.54542
1024.566	-31.78348
1024.732	1.93177
1024.898	12.46906
1025.065	16.68414
1025.231	-46.53192
1025.397	50.4082
1025.563	-50.74553
1025.729	50.4082
1025.895	8.25407
1026.061	67.27246
1026.227	35.65319
1026.392	27.22227
1026.558	69.38059
1026.724	-6.49763
1026.89	20.89932
1027.056	8.25407
1027.222	-0.17561
1027.388	-6.49763
1027.553	25.11459
1027.719	-40.21131
1027.885	-33.89048
1028.051	1.93177
1028.216	-14.92664
1028.382	-12.81942
1028.548	90.46319
1028.713	-10.71218
1028.879	52.51615
1029.045	-10.71218
1029.21	10.36155
1029.376	-12.81942
1029.541	50.4082
1029.707	60.94819
1029.873	31.43768
1030.038	52.51615
1030.204	12.46906
1030.369	79.92161
1030.534	67.27246
1030.7	-17.03383
1030.865	-6.49763
1031.031	-33.89048
1031.196	-31.78348
1031.361	16.68414
1031.527	-76.0251
1031.692	14.57659
1031.857	4.03918
1032.023	-33.89048
1032.188	-40.21131
1032.353	-14.92664
1032.518	-76.0251
1032.684	18.79172
1032.849	4.03918
1033.014	33.54542
1033.179	58.84015
1033.344	33.54542
1033.509	-76.0251
1033.674	-27.56942
1033.839	6.14661
1034.004	8.25407
1034.17	4.03918
1034.335	-0.17561
1034.5	25.11459
1034.664	16.68414
1034.829	-52.8523
1034.994	41.97663
1035.159	-8.60492
1035.324	-23.35526
1035.489	35.65319
1035.654	-0.17561
1035.819	27.22227
1035.984	-57.06577
1036.148	-4.39031
1036.313	41.97663
1036.478	44.08449
1036.643	-59.17246
1036.807	-42.31821
1036.972	4.03918
1037.137	-4.39031
1037.301	-73.91861
1037.466	-33.89048
1037.631	-17.03383
1037.795	-65.49239
1037.96	-12.81942
1038.124	35.65319
1038.289	52.51615
1038.454	-21.24814
1038.618	8.25407
1038.783	-42.31821
1038.947	60.94819
1039.111	-8.60492
1039.276	109.43943
1039.44	31.43768
1039.605	-40.21131
1039.769	33.54542
1039.933	-14.92664
1040.098	-12.81942
1040.262	-42.31821
1040.426	-69.70555
1040.591	63.05626
1040.755	25.11459
1040.919	-25.46235
1041.083	27.22227
1041.248	31.43768
1041.412	-14.92664
1041.576	-29.67646
1041.74	-29.67646
1041.904	54.62413
1042.068	20.89932
1042.232	-4.39031
1042.397	-50.74553
1042.561	-14.92664
1042.725	-25.46235
1042.889	33.54542
1043.053	4.03918
1043.217	18.79172
1043.381	-33.89048
1043.544	-12.81942
1043.708	-0.17561
1043.872	86.24649
1044.036	56.73213
1044.2	14.57659
1044.364	-0.17561
1044.528	-25.46235
1044.691	-17.03383
1044.855	-10.71218
1045.019	-38.10439
1045.183	-59.17246
1045.346	39.86879
1045.51	-14.92664
1045.674	56.73213
1045.837	1.93177
1046.001	-2.28298
1046.165	1.93177
1046.328	-6.49763
1046.492	8.25407
1046.655	41.97663
1046.819	-25.46235
1046.983	-40.21131
1047.146	35.65319
1047.31	27.22227
1047.473	18.79172
1047.636	-54.95905
1047.8	16.68414
1047.963	18.79172
1048.127	16.68414
1048.29	-42.31821
