Data from mixed_try1_USB4F045381__21__00125.txt Node

Date: Thu Apr 03 20:00:45 EDT 2025
User: mmckonesweet
Spectrometer: USB4F04538
Trigger mode: 4
Integration Time (sec): 2.700000E-3
Scans to average: 1
Electric dark correction enabled: true
Nonlinearity correction enabled: true
Boxcar width: 0
XAxis mode: Wavelengths
Number of Pixels in Spectrum: 3648
>>>>>Begin Spectral Data<<<<<
345.52	0.87808
345.736	0.87808
345.952	0.87808
346.168	-20.19457
346.384	-22.3017
346.6	5.09289
346.816	34.5993
347.032	97.84262
347.248	-24.40881
347.464	19.84552
347.68	-3.33665
347.896	-20.19457
348.112	30.38382
348.328	-79.18478
348.544	-13.87303
348.76	-51.79892
348.975	5.09289
349.191	-58.11912
349.407	13.52282
349.623	72.54284
349.839	-60.2258
350.055	5.09289
350.27	-1.2293
350.486	30.38382
350.702	-41.26476
350.918	-15.98024
351.133	9.30781
351.349	43.03055
351.565	0.87808
351.781	38.81488
351.996	-1.2293
352.212	0.87808
352.428	64.1103
352.644	-5.44397
352.859	-18.08741
353.075	13.52282
353.291	9.30781
353.506	47.24632
353.722	30.38382
353.938	24.06077
354.153	-41.26476
354.369	-32.83698
354.584	55.67812
354.8	-45.4785
355.016	-114.99048
355.231	59.89417
355.447	30.38382
355.662	-56.01241
355.878	47.24632
356.093	0.87808
356.309	53.57014
356.524	-28.62294
356.74	5.09289
356.955	21.95313
357.171	5.09289
357.386	-22.3017
357.602	-41.26476
357.817	32.49155
358.033	-20.19457
358.248	0.87808
358.464	15.63036
358.679	-18.08741
358.895	49.35423
359.11	-34.94396
359.325	-11.7658
359.541	-7.55127
359.756	30.38382
359.972	5.09289
360.187	45.13842
360.402	-37.05092
360.618	45.13842
360.833	11.4153
361.048	55.67812
361.264	43.03055
361.479	78.86748
361.694	-7.55127
361.909	28.27611
362.125	43.03055
362.34	-49.69214
362.555	0.87808
362.77	9.30781
362.986	47.24632
363.201	40.92271
363.416	30.38382
363.631	-15.98024
363.847	-13.87303
364.062	-64.43909
364.277	13.52282
364.492	-3.33665
364.707	-3.33665
364.922	13.52282
365.138	59.89417
365.353	-53.90568
365.568	2.98547
365.783	-18.08741
365.998	21.95313
366.213	5.09289
366.428	21.95313
366.643	7.20034
366.858	49.35423
367.073	-11.7658
367.288	15.63036
367.503	-49.69214
367.718	47.24632
367.933	-20.19457
368.148	-43.37164
368.363	34.5993
368.578	0.87808
368.793	0.87808
369.008	49.35423
369.223	21.95313
369.438	-34.94396
369.653	5.09289
369.868	83.08402
370.083	-83.39761
370.298	-34.94396
370.513	0.87808
370.728	-3.33665
370.943	21.95313
371.157	47.24632
371.372	15.63036
371.587	21.95313
371.802	26.16843
372.017	5.09289
372.232	7.20034
372.446	55.67812
372.661	17.73793
372.876	76.75925
373.091	15.63036
373.306	64.1103
373.52	-11.7658
373.735	-58.11912
373.95	-20.19457
374.165	11.4153
374.379	-15.98024
374.594	55.67812
374.809	34.5993
375.023	-11.7658
375.238	43.03055
375.453	45.13842
375.667	-85.50398
375.882	-20.19457
376.097	-28.62294
376.311	47.24632
376.526	66.2184
376.741	13.52282
376.955	24.06077
377.17	-53.90568
377.384	-1.2293
377.599	-20.19457
377.813	21.95313
378.028	-32.83698
378.242	-20.19457
378.457	-15.98024
378.672	-20.19457
378.886	2.98547
379.101	21.95313
379.315	-3.33665
379.53	9.30781
379.744	-9.65855
379.958	5.09289
380.173	-13.87303
380.387	13.52282
380.602	-9.65855
380.816	-43.37164
381.031	55.67812
381.245	99.95108
381.459	13.52282
381.674	-3.33665
381.888	-11.7658
382.103	24.06077
382.317	-51.79892
382.531	9.30781
382.746	110.49372
382.96	-41.26476
383.174	28.27611
383.388	59.89417
383.603	-3.33665
383.817	-66.54569
384.031	5.09289
384.246	-47.58533
384.46	-34.94396
384.674	-37.05092
384.888	-77.07833
385.103	34.5993
385.317	-58.11912
385.531	9.30781
385.745	21.95313
385.959	2.98547
386.174	24.06077
386.388	13.52282
386.602	-5.44397
386.816	26.16843
387.03	17.73793
387.244	-3.33665
387.458	9.30781
387.672	21.95313
387.887	21.95313
388.101	21.95313
388.315	-79.18478
388.529	47.24632
388.743	21.95313
388.957	38.81488
389.171	-62.33245
389.385	-3.33665
389.599	34.5993
389.813	-1.2293
390.027	-77.07833
390.241	30.38382
390.455	0.87808
390.669	40.92271
390.883	47.24632
391.097	5.09289
391.311	38.81488
391.525	26.16843
391.738	30.38382
391.952	-53.90568
392.166	24.06077
392.38	66.2184
392.594	-37.05092
392.808	7.20034
393.022	13.52282
393.236	-26.51589
393.449	26.16843
393.663	-18.08741
393.877	-11.7658
394.091	-34.94396
394.305	-3.33665
394.518	57.78613
394.732	0.87808
394.946	17.73793
395.16	89.40901
395.373	55.67812
395.587	-70.75882
395.801	-18.08741
396.015	21.95313
396.228	21.95313
396.442	47.24632
396.656	21.95313
396.869	45.13842
397.083	11.4153
397.297	21.95313
397.51	7.20034
397.724	-3.33665
397.938	-62.33245
398.151	-37.05092
398.365	-49.69214
398.578	-37.05092
398.792	21.95313
399.005	17.73793
399.219	15.63036
399.433	5.09289
399.646	5.09289
399.86	15.63036
400.073	15.63036
400.287	13.52282
400.5	-53.90568
400.714	-18.08741
400.927	17.73793
401.141	-72.86535
401.354	32.49155
401.567	26.16843
401.781	-53.90568
401.994	11.4153
402.208	17.73793
402.421	-1.2293
402.635	51.46218
402.848	13.52282
403.061	-18.08741
403.275	36.70708
403.488	38.81488
403.701	-26.51589
403.915	13.52282
404.128	-37.05092
404.341	26.16843
404.555	32.49155
404.768	-62.33245
404.981	-20.19457
405.195	99.95108
405.408	5.09289
405.621	5.09289
405.834	5.09289
406.048	-74.97185
406.261	91.51738
406.474	40.92271
406.687	47.24632
406.9	5.09289
407.114	26.16843
407.327	30.38382
407.54	-47.58533
407.753	106.2766
407.966	-7.55127
408.179	0.87808
408.392	21.95313
408.605	40.92271
408.819	76.75925
409.032	59.89417
409.245	-3.33665
409.458	38.81488
409.671	24.06077
409.884	5.09289
410.097	-7.55127
410.31	5.09289
410.523	-1.2293
410.736	7.20034
410.949	51.46218
411.162	-32.83698
411.375	34.5993
411.588	40.92271
411.801	55.67812
412.014	34.5993
412.227	51.46218
412.44	13.52282
412.653	0.87808
412.865	0.87808
413.078	-28.62294
413.291	0.87808
413.504	-43.37164
413.717	-11.7658
413.93	45.13842
414.143	-28.62294
414.356	28.27611
414.568	83.08402
414.781	-39.15785
414.994	26.16843
415.207	-64.43909
415.42	74.65103
415.632	-5.44397
415.845	83.08402
416.058	-1.2293
416.271	36.70708
416.483	-28.62294
416.696	0.87808
416.909	-62.33245
417.121	-9.65855
417.334	-13.87303
417.547	21.95313
417.759	0.87808
417.972	36.70708
418.185	-49.69214
418.397	-26.51589
418.61	32.49155
418.823	36.70708
419.035	30.38382
419.248	13.52282
419.46	30.38382
419.673	-11.7658
419.885	30.38382
420.098	-30.72997
420.311	-20.19457
420.523	99.95108
420.736	59.89417
420.948	-20.19457
421.161	-77.07833
421.373	-18.08741
421.586	17.73793
421.798	13.52282
422.01	-15.98024
422.223	-3.33665
422.435	49.35423
422.648	55.67812
422.86	-7.55127
423.073	15.63036
423.285	38.81488
423.497	7.20034
423.71	59.89417
423.922	21.95313
424.134	-24.40881
424.347	43.03055
424.559	-18.08741
424.771	45.13842
424.984	-28.62294
425.196	68.32652
425.408	-68.65227
425.621	-26.51589
425.833	-26.51589
426.045	55.67812
426.257	32.49155
426.47	13.52282
426.682	59.89417
426.894	55.67812
427.106	30.38382
427.318	66.2184
427.531	-45.4785
427.743	38.81488
427.955	-53.90568
428.167	55.67812
428.379	45.13842
428.591	15.63036
428.804	40.92271
429.016	-77.07833
429.228	43.03055
429.44	80.97574
429.652	5.09289
429.864	97.84262
430.076	21.95313
430.288	13.52282
430.5	83.08402
430.712	-11.7658
430.924	108.38515
431.136	-15.98024
431.348	68.32652
431.56	-3.33665
431.772	-49.69214
431.984	32.49155
432.196	-43.37164
432.408	40.92271
432.62	85.19233
432.832	-11.7658
433.044	26.16843
433.256	-51.79892
433.468	-51.79892
433.679	13.52282
433.891	9.30781
434.103	-18.08741
434.315	9.30781
434.527	66.2184
434.739	-30.72997
434.95	118.92822
435.162	36.70708
435.374	36.70708
435.586	-1.2293
435.798	55.67812
436.009	-1.2293
436.221	19.84552
436.433	-15.98024
436.645	5.09289
436.856	-11.7658
437.068	21.95313
437.28	68.32652
437.491	34.5993
437.703	59.89417
437.915	34.5993
438.126	57.78613
438.338	32.49155
438.55	-3.33665
438.761	40.92271
438.973	30.38382
439.184	49.35423
439.396	15.63036
439.608	47.24632
439.819	9.30781
440.031	38.81488
440.242	-3.33665
440.454	2.98547
440.665	24.06077
440.877	-37.05092
441.088	21.95313
441.3	43.03055
441.511	2.98547
441.723	13.52282
441.934	-43.37164
442.146	-53.90568
442.357	89.40901
442.569	-18.08741
442.78	59.89417
442.991	38.81488
443.203	-45.4785
443.414	26.16843
443.626	68.32652
443.837	51.46218
444.048	-18.08741
444.26	15.63036
444.471	32.49155
444.682	17.73793
444.894	-13.87303
445.105	-32.83698
445.316	17.73793
445.528	-24.40881
445.739	-11.7658
445.95	40.92271
446.161	-24.40881
446.373	51.46218
446.584	-91.82295
446.795	5.09289
447.006	11.4153
447.217	-9.65855
447.429	26.16843
447.64	-104.46018
447.851	51.46218
448.062	-30.72997
448.273	-15.98024
448.484	55.67812
448.695	15.63036
448.907	21.95313
449.118	21.95313
449.329	-43.37164
449.54	-37.05092
449.751	83.08402
449.962	21.95313
450.173	2.98547
450.384	26.16843
450.595	-60.2258
450.806	13.52282
451.017	38.81488
451.228	87.30066
451.439	38.81488
451.65	49.35423
451.861	-41.26476
452.072	-41.26476
452.283	15.63036
452.494	9.30781
452.705	-3.33665
452.915	66.2184
453.126	-5.44397
453.337	38.81488
453.548	32.49155
453.759	-13.87303
453.97	-1.2293
454.181	2.98547
454.391	78.86748
454.602	-1.2293
454.813	-22.3017
455.024	59.89417
455.235	49.35423
455.445	64.1103
455.656	-70.75882
455.867	59.89417
456.078	24.06077
456.288	68.32652
456.499	26.16843
456.71	-1.2293
456.921	72.54284
457.131	43.03055
457.342	28.27611
457.553	-7.55127
457.763	38.81488
457.974	93.62577
458.184	-1.2293
458.395	24.06077
458.606	51.46218
458.816	74.65103
459.027	68.32652
459.237	34.5993
459.448	55.67812
459.659	-41.26476
459.869	74.65103
460.08	97.84262
460.29	17.73793
460.501	-3.33665
460.711	59.89417
460.922	76.75925
461.132	51.46218
461.343	34.5993
461.553	72.54284
461.764	-7.55127
461.974	72.54284
462.184	5.09289
462.395	66.2184
462.605	97.84262
462.816	9.30781
463.026	51.46218
463.236	38.81488
463.447	97.84262
463.657	66.2184
463.867	59.89417
464.078	80.97574
464.288	45.13842
464.498	49.35423
464.709	57.78613
464.919	78.86748
465.129	38.81488
465.339	51.46218
465.55	21.95313
465.76	5.09289
465.97	30.38382
466.18	13.52282
466.391	57.78613
466.601	40.92271
466.811	26.16843
467.021	91.51738
467.231	30.38382
467.441	142.12488
467.651	114.71092
467.862	91.51738
468.072	97.84262
468.282	55.67812
468.492	118.92822
468.702	43.03055
468.912	165.32411
469.122	127.36306
469.332	64.1103
469.542	106.2766
469.752	80.97574
469.962	125.25432
470.172	156.88773
470.382	125.25432
470.592	93.62577
470.802	97.84262
471.012	116.81956
471.222	116.81956
471.432	121.0369
471.642	140.01598
471.852	99.95108
472.062	104.16807
472.272	83.08402
472.482	116.81956
472.691	108.38515
472.901	106.2766
473.111	125.25432
473.321	140.01598
473.531	182.19786
473.741	194.85404
473.95	131.58062
474.16	142.12488
474.37	131.58062
474.58	104.16807
474.79	192.74463
474.999	199.07293
475.209	194.85404
475.419	190.63523
475.628	125.25432
475.838	232.82691
476.048	131.58062
476.258	165.32411
476.467	205.40141
476.677	199.07293
476.886	194.85404
477.096	232.82691
477.306	241.26619
477.515	169.54242
477.725	201.1824
477.935	270.8061
478.144	253.9257
478.354	146.34273
478.563	323.56502
478.773	308.79138
478.982	192.74463
479.192	277.13656
479.401	291.9083
479.611	361.55837
479.82	300.34969
480.03	287.68771
480.239	325.67561
480.449	319.34389
480.658	355.22575
480.868	420.67004
481.077	317.23335
481.287	338.33954
481.496	448.11907
481.705	401.66845
481.915	469.23549
482.124	412.22473
482.333	494.57719
482.543	477.68249
482.752	488.24157
482.961	507.24884
483.171	503.0249
483.38	422.78141
483.589	553.71593
483.799	465.01208
484.008	536.81802
484.217	534.70585
484.426	581.17689
484.636	707.94735
484.845	646.66954
485.054	640.33102
485.263	762.89398
485.472	712.17376
485.682	731.19313
485.891	587.51435
486.1	705.83416
486.309	655.12107
486.518	743.87318
486.727	686.81598
486.936	889.71896
487.146	724.85324
487.355	908.74539
487.564	832.64368
487.773	993.31459
487.982	824.18863
488.191	836.87127
488.4	963.71408
488.609	1052.51931
488.818	767.12093
489.027	1020.80191
489.236	908.74539
489.445	1130.76072
489.654	1141.33439
489.863	1022.91636
490.072	993.31459
490.281	1069.43578
490.49	1065.20663
490.698	1044.06121
490.907	1086.35259
491.116	1249.1912
491.325	1107.49906
491.534	1274.57045
491.743	1236.50171
491.952	1316.86995
492.16	1259.76584
492.369	1530.48879
492.578	1283.03028
492.787	1424.73641
492.996	1255.53598
493.204	1373.97538
493.413	1361.2852
493.622	1543.17898
493.831	1450.11703
494.039	1701.8009
494.248	1471.26755
494.457	1670.07757
494.665	1450.11703
494.874	1818.11317
495.083	1593.93924
495.291	1801.19576
495.5	1678.53719
495.709	1710.26034
495.917	1695.45629
496.126	1898.46673
496.335	1835.03028
496.543	1940.75504
496.752	1769.4749
496.96	1898.46673
497.169	1801.19576
497.377	1959.78404
497.586	1716.60489
497.794	1964.01264
498.003	1818.11317
498.211	2025.3245
498.42	2025.3245
498.628	2181.74854
498.837	2046.46523
499.045	1987.26949
499.254	2050.6933
499.462	2217.67765
499.671	2103.54168
499.879	2232.47127
500.087	2308.54575
500.296	2283.18892
500.504	2188.08915
500.713	2295.8675
500.921	2304.3197
501.129	2306.43273
501.338	2253.60426
501.546	2274.73634
501.754	2211.3374
501.962	2517.68395
502.171	2498.67575
502.379	2623.26783
502.587	2441.64572
502.795	2492.33948
503.004	2576.81459
503.212	2673.93728
503.42	2583.14947
503.628	2709.82371
503.837	2578.92623
504.045	2768.92253
504.253	2608.48789
504.461	2773.14347
504.669	2616.93365
504.877	2903.96528
505.085	2686.6035
505.294	2785.80598
505.502	2633.82456
505.71	2954.59122
505.918	2861.7706
506.126	3057.92573
506.334	2944.04484
506.542	3140.14494
506.75	2825.90067
506.958	3085.3348
507.166	3000.99082
507.374	3135.92916
507.582	2990.44609
507.79	2984.11908
507.998	3178.08406
508.206	3277.12215
508.414	3091.6596
508.622	3165.43827
508.83	2979.90099
509.037	3197.05164
509.245	3184.40673
509.453	3411.92208
509.661	3323.46762
509.869	3567.69381
510.077	3346.63724
510.285	3403.49918
510.492	3401.39341
510.7	3470.8744
510.908	3350.84967
511.116	3376.1228
511.324	3357.16819
511.531	3432.97809
511.739	3302.40252
511.947	3561.38068
512.155	3519.28894
512.362	3441.39999
512.57	3401.39341
512.778	3422.4503
512.985	3536.12652
513.193	3740.18691
513.401	3563.48508
513.608	3679.19787
513.816	3430.87257
514.024	3857.91251
514.231	3645.54185
514.439	3918.85313
514.646	3805.36406
514.854	3956.66983
515.061	3729.67271
515.269	3958.77056
515.477	3889.43562
515.684	4034.38343
515.892	3939.86322
516.099	3843.20019
516.307	4023.88324
516.514	4133.05999
516.722	3965.07265
516.929	4116.26723
517.136	3973.47514
517.344	4305.1078
517.551	4154.04906
517.759	4279.93902
517.966	4237.98421
518.173	4179.23316
518.381	4042.78322
518.588	4196.02087
518.796	4311.39951
519.003	4376.40246
519.21	4336.56441
519.418	4632.01606
519.625	4353.33928
519.832	4554.52869
520.039	4376.40246
520.247	4336.56441
520.454	4409.94421
520.661	4803.63527
520.868	4644.5787
521.076	4623.64052
521.283	4585.94616
521.49	4644.5787
521.697	4428.80898
521.904	4747.14328
522.112	4535.6758
522.319	5029.43674
522.526	4579.66307
522.733	4904.0245
522.94	4646.67239
523.147	4782.71424
523.354	4876.84095
523.561	5125.52982
523.768	4947.9282
523.975	5175.64584
524.183	4939.56637
524.39	4958.37997
524.597	5094.20051
524.804	5087.93402
525.011	4872.65852
525.218	4966.74097
525.425	5156.8539
525.632	4991.82177
525.838	4910.29708
526.045	5196.52356
526.252	5263.31658
526.459	5365.54699
526.666	5064.95511
526.873	5396.83076
527.08	5156.8539
527.287	5202.78642
527.494	5129.70666
527.701	5546.91924
527.907	5321.74084
528.114	5571.92213
528.321	5359.2896
528.528	5688.55735
528.735	5698.96761
528.941	5388.48894
529.148	5355.11789
529.355	5667.73506
529.562	5511.49269
529.768	5642.74519
529.975	5667.73506
530.182	5809.28011
530.388	5655.24055
530.595	5738.52123
530.802	5751.01007
531.008	5948.63689
531.215	5738.52123
531.422	5896.65048
531.628	6002.68713
531.835	5836.32777
532.042	5744.76575
532.248	6156.43531
532.455	5888.33129
532.661	6150.20478
532.868	6054.64349
533.074	6187.58479
533.281	6148.12789
533.487	6312.12996
533.694	6216.65287
533.9	6475.98617
534.107	6092.04297
534.313	6268.54874
534.52	6106.58515
534.726	6465.61983
534.933	6534.02696
535.139	6432.44364
535.345	6268.54874
535.552	6608.62415
535.758	6467.69315
535.965	6330.80447
536.171	6399.26149
536.377	6660.41016
536.584	6563.04054
536.79	6772.21893
536.996	6710.1112
537.203	6571.3293
537.409	6606.55241
537.615	6703.8993
537.821	6511.22739
538.028	6966.69031
538.234	6654.1966
538.44	6652.12537
538.646	6343.25309
538.853	6623.12569
539.059	6687.3332
539.265	7059.7176
539.471	7034.91477
539.677	7067.98449
539.883	6914.98877
540.09	7047.31659
540.296	7030.78065
540.502	7154.76527
540.708	6925.33021
540.914	7229.11757
541.12	6935.67108
541.326	7421.06228
541.532	6987.36698
541.738	7322.0177
541.944	7092.78301
542.15	7082.45069
542.356	7239.44201
542.562	7600.45341
542.768	7301.37708
542.974	7218.79258
543.18	7332.3372
543.386	7596.3313
543.592	7680.81756
543.798	7767.32761
544.004	7441.69026
544.21	7833.21522
544.415	7482.93971
544.621	7882.61695
544.827	7524.18053
545.033	7641.66983
545.239	7684.93793
545.445	7956.69726
545.651	7557.167
545.856	7874.38415
546.062	7684.93793
546.268	7915.54482
546.474	7530.36591
546.679	7604.57544
546.885	7619.00185
547.091	8092.4424
547.297	7610.75832
547.502	7820.86292
547.708	7717.89784
547.914	7888.79133
548.119	7594.27022
548.325	8069.82434
548.531	7759.09015
548.736	8080.10558
548.942	7923.77597
549.147	7969.04139
549.353	8316.43633
549.559	8164.39279
549.764	8137.67122
549.97	8139.72685
550.175	8164.39279
550.381	8361.61773
550.586	8482.73983
550.792	8573.0249
550.997	8349.29646
551.203	8445.79442
551.408	8490.94909
551.614	8384.20491
551.819	8378.045
552.025	8589.43644
552.23	8293.84208
552.435	8689.93102
552.641	8277.40842
552.846	8618.15375
553.052	8673.52679
553.257	8546.35358
553.462	8823.17183
553.668	9052.57773
553.873	8835.46711
554.078	8884.64172
554.283	8630.46004
554.489	8946.09551
554.694	8765.78526
554.899	8997.29481
555.105	8771.9345
555.31	9066.90826
555.515	8884.64172
555.72	8892.83649
555.925	8735.03657
556.131	9003.43798
556.336	8884.64172
556.541	9097.61369
556.746	9101.70746
556.951	9193.79901
557.156	8882.59299
557.361	9171.29093
557.567	9212.21318
557.772	9351.29857
557.977	8989.10366
558.182	9091.47292
558.387	9048.48313
558.592	9068.95541
558.797	9228.58018
559.002	9608.81597
559.207	9375.83509
559.412	9527.09194
559.617	9257.21984
559.822	9465.78224
560.027	9345.16407
560.232	9199.93721
560.437	9345.16407
560.642	9476.00152
560.847	9484.17666
561.051	9743.6061
561.256	9547.52531
561.461	9876.2892
561.666	9533.22212
561.871	9657.83835
562.076	9480.08912
562.281	9859.96238
562.485	9492.35154
562.69	9719.10379
562.895	9670.09254
563.1	9610.85874
563.305	9453.51856
563.509	9653.75349
563.714	9555.69822
563.919	9757.89811
564.123	10039.50596
564.328	9800.76967
564.533	9649.66857
564.737	9888.5337
564.942	9859.96238
565.147	9937.50639
565.351	9800.76967
565.556	9898.73704
565.761	9855.88053
565.965	10039.50596
566.17	10080.29577
566.374	10320.84251
566.579	10010.94971
566.784	9841.59357
566.988	10096.61011
567.193	10312.69148
567.397	9980.3506
567.602	10159.81971
567.806	10241.36084
568.011	10288.23712
568.215	10432.89768
568.42	10481.78213
568.624	10053.78304
568.828	10249.51375
569.033	10210.78549
569.237	10347.33187
569.442	10192.4388
569.646	10119.04086
569.85	10314.72926
570.055	10634.49894
570.259	10300.46454
570.463	10469.56171
570.668	10290.27505
570.872	10500.11189
571.076	10491.96546
571.281	10510.29464
571.485	10518.44062
571.689	10707.77826
571.893	10693.53074
572.098	10628.39161
572.302	10760.69248
572.506	10756.62244
572.71	10500.11189
572.914	11057.68024
573.119	10652.82025
573.323	10644.67757
573.527	10662.99833
573.731	10943.79576
573.935	10693.53074
574.139	11000.74236
574.343	10772.9023
574.547	11041.41315
574.751	10781.04195
574.955	10953.96544
575.159	10654.85589
575.364	11010.91047
575.568	11000.74236
575.772	11019.04476
575.976	11021.07831
576.18	11216.24823
576.383	11309.7328
576.587	11269.09
576.791	11177.62864
576.995	11362.5624
577.199	11004.80963
577.403	11177.62864
577.607	11193.88998
577.811	11234.5404
578.015	11260.96095
578.219	11348.33971
578.422	11388.97467
578.626	11583.96854
578.83	11236.57281
579.034	11543.35202
579.238	11197.95521
579.442	11494.60726
579.645	11232.50798
579.849	11403.19598
580.053	11360.53062
580.257	11506.79396
580.46	11620.52024
580.664	11703.76592
580.868	11405.22755
581.071	11920.94779
581.275	11535.22827
581.479	11575.84553
581.682	11486.4826
581.886	11884.41929
582.09	11699.7055
582.293	11957.47364
582.497	12024.43094
582.7	11817.44336
582.904	11969.64834
583.107	11803.23516
583.311	11705.79612
583.515	12075.15044
583.718	11898.62514
583.922	12111.66549
584.125	11933.12337
584.329	12091.37966
584.532	12186.71651
584.735	12209.02702
584.939	12000.08383
585.142	12089.35103
585.346	11941.24026
585.549	11943.26946
585.753	12034.57523
585.956	12144.12125
586.159	12298.26027
586.363	12298.26027
586.566	12363.14859
586.769	12375.31437
586.973	12310.42738
587.176	12407.75523
587.379	12610.47265
587.582	12628.71412
587.786	12166.43346
587.989	12377.34197
588.192	12413.8377
588.395	12608.44579
588.599	12318.53864
588.802	12545.61002
589.005	12288.12083
589.208	12661.1422
589.411	12488.84993
589.615	12379.36957
589.818	12565.88028
590.021	12835.41746
590.224	12517.2306
590.427	12780.70768
590.63	12882.01893
590.833	12594.25759
591.036	12811.1025
591.239	13052.19206
591.442	12900.25352
591.645	12792.86576
591.848	12640.87483
592.051	12916.46167
592.254	12703.70173
592.457	12948.87698
592.66	12865.81005
592.863	12995.47168
593.066	13252.70922
593.269	13117.01067
593.472	12956.9806
593.675	13432.93561
593.878	13196.00184
594.081	13272.96102
594.284	13165.62145
594.486	13457.23337
594.689	13362.06393
594.892	13366.11387
595.095	13530.12339
595.298	13317.51349
595.5	13315.48842
595.703	13746.74195
595.906	13258.78481
596.109	13333.71388
596.311	13655.64534
596.514	13803.42111
596.717	13353.964
596.92	13505.82725
597.122	13742.69335
597.325	13726.49881
597.528	13627.30282
597.73	13732.57179
597.933	13515.95071
598.136	13683.9872
598.338	13617.18034
598.541	13973.4452
598.743	13643.49863
598.946	13641.47416
599.148	13613.13132
599.351	13839.85649
599.554	13758.88768
599.756	13661.71865
599.959	13880.33917
600.161	13967.37324
600.363	14046.30704
600.566	14036.18753
600.768	14052.37872
600.971	14056.4265
601.173	14003.80469
601.376	14086.78451
601.578	13886.41147
601.78	13981.54112
601.983	13860.09797
602.185	14048.33094
602.388	13951.18122
602.59	14194.04552
602.792	13955.22924
602.995	14007.85258
603.197	13926.89288
603.399	14024.04404
603.601	13789.25154
603.804	14074.64137
604.006	14046.30704
604.208	13961.30125
604.41	13906.65231
604.613	14281.06441
604.815	14123.21345
605.017	14317.4899
605.219	14202.14045
605.421	14548.17272
605.623	14287.13536
605.826	14584.59469
606.028	14244.63833
606.23	14544.12581
606.432	14315.46628
606.634	14716.11554
606.836	14440.92783
607.038	14841.56272
607.24	14659.46093
607.442	14744.44259
607.644	14432.83372
607.846	14493.539
608.048	14283.08806
608.25	14540.07889
608.452	14592.68841
608.654	14987.24037
608.856	14679.69481
609.058	14793.00286
609.26	14538.05543
609.462	14744.44259
609.664	14853.70263
609.866	14600.78211
610.067	14529.96158
610.269	14604.82895
610.471	14536.03197
610.673	14912.37856
610.875	14768.72278
611.077	14736.34916
611.278	14574.47751
611.48	14602.80553
611.682	14469.25704
611.884	14853.70263
612.085	14699.92859
612.287	14722.18564
612.489	14768.72278
612.69	14633.15674
612.892	14566.38375
613.094	14932.61154
613.295	14778.83949
613.497	14973.07737
613.699	15033.77585
613.9	15256.33583
614.102	15126.84645
614.304	14657.43754
614.505	14602.80553
614.707	14843.58604
614.908	14629.10993
615.11	15116.7301
615.311	14979.14723
615.513	15177.42822
615.714	15337.26698
615.916	14833.46944
616.117	14695.88184
616.319	15047.93879
616.52	14954.86776
616.722	15015.56633
616.923	15023.65945
617.124	15335.2437
617.326	14497.58598
617.527	15434.38505
617.729	14983.1938
617.93	15005.44992
618.131	15151.1257
618.333	15092.45083
618.534	14997.35679
618.735	15169.33514
618.937	14914.40186
619.138	15151.1257
619.339	14930.58824
619.54	15013.54305
619.742	14936.65813
619.943	15256.33583
620.144	15238.12637
620.345	15525.43425
620.546	15151.1257
620.748	15503.17767
620.949	15298.82463
621.15	15578.04104
621.351	15165.2886
621.552	15315.01087
621.753	15092.45083
621.954	15426.29184
622.155	15070.19482
622.356	15175.40495
622.558	15100.54392
622.759	15232.05655
622.96	15100.54392
623.161	15683.25615
623.362	15416.17534
623.563	15626.60158
623.764	15217.89364
623.965	15529.48091
624.166	15745.98168
624.366	15521.3876
624.567	15549.71425
624.768	15333.22041
624.969	15351.42998
625.17	15211.82383
625.371	15250.26601
625.572	15254.31256
625.773	15272.52203
625.973	15618.50812
626.174	15665.04568
626.375	15497.10771
626.576	15537.57424
626.777	15780.37996
626.977	15205.75401
627.178	15693.37311
627.379	15353.45326
627.58	15448.54819
627.78	15610.41468
627.981	15748.0051
628.182	15541.62091
628.382	15537.57424
628.583	15804.66128
628.784	15865.3653
628.984	15290.73152
629.185	15835.01316
629.386	15264.42893
629.586	15804.66128
629.787	15472.82791
629.987	15517.34094
630.188	15816.802
630.388	16027.24818
630.589	15922.02335
630.79	16011.0595
630.99	15930.11744
631.191	15863.34181
631.391	15802.63783
631.591	15782.4034
631.792	15814.77855
631.992	16031.29536
632.193	15956.42337
632.393	15887.6237
632.594	15804.66128
632.794	15729.79436
632.994	15699.44329
633.195	15667.06906
633.395	15865.3653
633.595	15924.04687
633.796	15875.48274
633.996	16395.56855
634.196	16031.29536
634.397	16539.27068
634.597	16015.10666
634.797	16359.13863
634.997	15869.41227
635.198	16051.53137
635.398	15786.45028
635.598	15928.09391
635.798	16100.0984
635.998	16278.18546
636.199	16221.51997
636.399	16618.2102
636.599	16043.43695
636.799	16322.70934
636.999	15709.56029
637.199	16130.45324
637.399	15978.68241
637.599	16251.87631
637.799	16152.71369
637.999	16002.96519
638.199	16189.1403
638.399	16079.86203
638.599	15982.72953
638.799	16197.23518
638.999	16181.04545
639.199	16306.51873
639.399	16130.45324
639.599	16334.85237
639.799	15980.70597
639.999	16170.92693
640.199	16045.46055
640.399	16332.82852
640.599	15843.10704
640.799	16357.11477
640.998	16063.67304
641.198	16227.59121
641.398	16152.71369
641.598	16316.63785
641.798	16529.15046
641.997	16729.54101
642.197	16587.84845
642.397	16952.22463
642.597	16466.40633
642.796	16284.25685
642.996	16213.42501
643.196	16512.95823
643.395	16535.22258
643.595	16316.63785
643.795	16193.18774
643.994	16446.16671
644.194	16604.04132
644.394	16863.14753
644.593	16753.83231
644.793	16788.24559
644.992	16770.02671
645.192	16608.08956
645.392	16737.63807
645.591	16604.04132
645.791	16848.97663
645.99	16747.75945
646.19	16389.49685
646.389	16986.64214
646.589	16915.78339
646.788	16804.44031
646.987	16942.10198
647.187	17112.17145
647.386	16873.26967
647.586	16960.3228
647.785	16790.26992
647.984	16915.78339
648.184	17069.65228
648.383	17045.35616
648.582	16954.24917
648.782	17029.15896
648.981	16786.22126
649.18	16533.19854
649.38	17012.96194
649.579	17124.32002
649.778	16792.29425
649.977	17100.02299
650.177	16982.59299
650.376	17187.08921
650.575	16784.19693
650.774	17134.44389
650.973	16980.56841
651.173	16869.22081
651.372	16840.87902
651.571	17156.71668
651.77	16885.41634
651.969	17205.31304
652.168	17002.83889
652.367	17150.64225
652.566	16909.70994
652.765	16988.66673
652.964	17172.91528
653.163	16895.53862
653.362	17193.16379
653.561	17146.59264
653.76	17243.78634
653.959	17320.73613
654.158	17243.78634
654.357	17006.8881
654.556	16638.45165
654.755	17233.66168
654.954	16913.7589
655.153	17189.11407
655.352	17191.13893
655.551	17434.14377
655.749	17618.45214
655.948	17658.96305
656.147	17500.97783
656.346	17458.44667
656.545	17199.2384
656.743	17474.64885
656.942	17417.94209
657.141	17428.06812
657.34	17146.59264
657.538	17106.09721
657.737	17122.29525
657.936	17707.5779
658.135	17160.76631
658.333	17413.8917
658.532	17237.71154
658.731	17193.16379
658.929	17294.41072
659.128	16984.61756
659.326	17533.38345
659.525	17628.57974
659.724	17523.25661
659.922	18102.64666
660.121	17233.66168
660.319	17460.47193
660.518	17102.04773
660.716	17164.81596
660.915	17498.9525
661.113	17760.24615
661.312	17444.26993
661.51	17343.01188
661.709	17744.04029
661.907	17679.21901
662.105	17513.12984
662.304	17810.89086
662.502	17472.62357
662.701	17709.60356
662.899	17482.75002
663.097	17547.56117
663.296	17557.68821
663.494	17750.11746
663.692	17470.59829
663.891	17638.70743
664.089	17363.26288
664.287	17492.87655
664.485	17375.41362
664.684	17952.70747
664.882	17517.18054
665.08	17687.32148
665.278	17345.03697
665.476	17865.58954
665.675	17537.43421
665.873	17498.9525
666.071	17626.55422
666.269	17650.86077
666.467	17355.16244
666.665	17571.8662
666.863	17405.79096
667.061	17590.09527
667.259	17636.68189
667.457	17867.61546
667.655	17507.05382
667.853	17685.29586
668.051	17326.8113
668.249	17511.1045
668.447	17606.29912
668.645	17598.19717
668.843	17563.76447
669.041	17774.42645
669.239	17464.52246
669.437	17914.21271
669.635	17849.38226
669.833	17407.81614
670.031	17581.99343
670.229	17525.28197
670.426	17772.40069
670.624	17681.24462
670.822	17553.63739
671.02	17762.2719
671.218	17825.07176
671.415	17509.07916
671.613	17397.69027
671.811	17468.57301
672.009	17786.58113
672.206	17616.42663
672.404	17727.83465
672.602	17812.91669
672.799	18041.85815
672.997	17721.75759
673.195	17679.21901
673.392	17851.40816
673.59	17636.68189
673.788	17634.65635
673.985	17507.05382
674.183	17709.60356
674.38	17474.64885
674.578	17768.34916
674.775	17788.60692
674.973	17630.60527
675.17	17586.04435
675.368	17715.68056
675.565	17671.11659
675.763	17456.42141
675.96	17816.96836
676.158	17537.43421
676.355	17296.43573
676.553	18175.59718
676.75	17369.33823
676.947	17553.63739
677.145	17638.70743
677.342	17407.81614
677.539	17474.64885
677.737	17768.34916
677.934	17660.98863
678.131	17573.89164
678.329	17810.89086
678.526	18023.62222
678.723	17893.95281
678.92	18074.27828
679.118	17754.16893
679.315	17555.6628
679.512	17460.47193
679.709	17646.80964
679.906	17286.31069
680.104	17709.60356
680.301	17482.75002
680.498	17371.36336
680.695	17249.86117
680.892	17304.53582
681.089	17340.9868
681.286	17717.70623
681.483	17316.68604
681.68	17379.46389
681.877	17415.9169
682.075	17610.35011
682.272	17503.00315
682.469	17636.68189
682.665	17183.0395
682.862	17318.71108
683.059	17343.01188
683.256	17345.03697
683.453	17102.04773
683.65	16893.51416
683.847	17343.01188
684.044	17428.06812
684.241	17474.64885
684.438	17095.97353
684.635	17347.06205
684.831	17780.50378
685.028	17715.68056
685.225	17424.0177
685.422	16958.29826
685.619	17573.89164
685.815	17509.07916
686.012	17241.7614
686.209	17071.67697
686.405	17102.04773
686.602	17033.20824
686.799	17419.96729
686.996	17253.91107
687.192	17035.23289
687.389	16921.85687
687.586	17172.91528
687.782	17134.44389
687.979	17310.61091
688.175	17085.84992
688.372	17555.6628
688.568	17156.71668
688.765	17300.48577
688.962	17638.70743
689.158	17239.73647
689.355	17316.68604
689.551	17310.61091
689.748	17162.79113
689.944	17140.51826
690.14	17106.09721
690.337	17381.48903
690.533	17162.79113
690.73	16687.03205
690.926	17008.91271
691.123	16869.22081
691.319	16739.66234
691.515	16927.93038
691.712	16693.1047
691.908	16723.46824
692.104	16810.51337
692.301	16806.46466
692.497	16687.03205
692.693	17367.31311
692.889	16958.29826
693.086	17217.46239
693.282	16931.9794
693.478	17197.21353
693.674	17183.0395
693.87	17132.41911
694.067	17257.96098
694.263	17480.72472
694.459	16988.66673
694.655	17075.72637
694.851	16687.03205
695.047	16996.76509
695.243	16938.05294
695.439	16855.04985
695.635	16838.85463
695.831	16770.02671
696.027	16944.12651
696.224	16915.78339
696.42	16861.1231
696.615	16909.70994
696.811	16628.33089
697.007	16646.54829
697.203	16802.41596
697.399	16946.15104
697.595	16792.29425
697.791	16541.29472
697.987	16484.62216
698.183	16929.95489
698.379	16529.15046
698.575	17043.3315
698.77	16923.88137
698.966	16836.83024
699.162	16739.66234
699.358	16739.66234
699.554	16721.44398
699.749	16820.6352
699.945	16776.09964
700.141	16707.27428
700.337	16691.08048
700.532	16812.53773
700.728	16589.87255
700.924	16577.72797
701.119	16581.77616
701.315	16672.86263
701.511	16464.38236
701.706	16723.46824
701.902	16529.15046
702.097	16612.13781
702.293	16772.05102
702.489	16940.07746
702.684	16664.76587
702.88	16956.27371
703.075	16494.74214
703.271	16397.59245
703.466	16646.54829
703.662	16474.50223
703.857	16632.37919
704.053	16664.76587
704.248	16599.99309
704.443	16923.88137
704.639	16458.31046
704.834	16731.56527
705.03	16761.92949
705.225	16701.20159
705.42	16569.63163
705.616	16792.29425
705.811	16622.25847
706.006	16448.19066
706.202	16405.68808
706.397	16498.79015
706.592	16660.7175
706.787	16703.22582
706.983	16377.35351
707.178	16391.52075
707.373	16353.06704
707.568	16225.56746
707.763	16251.87631
707.959	16478.5502
708.154	16423.90336
708.349	16608.08956
708.544	16699.17736
708.739	16585.82435
708.934	16508.9102
709.129	16638.45165
709.324	16480.57418
709.519	16747.75945
709.714	16195.21146
709.909	16434.02304
710.104	16110.21664
710.299	16274.13788
710.494	16035.34255
710.689	16543.31878
710.884	16498.79015
711.079	16733.58954
711.274	16124.38224
711.469	16725.49249
711.664	16527.12643
711.859	16565.58348
712.054	16174.97433
712.249	16296.39967
712.443	15942.25861
712.638	16245.80501
712.833	15982.72953
713.028	16278.18546
713.223	16017.13024
713.417	16189.1403
713.612	16055.57859
713.807	16170.92693
714.002	15883.57671
714.196	16468.4303
714.391	15873.45925
714.586	16268.06652
714.78	16203.30635
714.975	16199.2589
715.17	16419.85551
715.364	16553.43906
715.559	16411.75982
715.754	16278.18546
715.948	15905.83523
716.143	16065.69666
716.337	15944.28214
716.532	16259.9714
716.726	16075.81477
716.921	15804.66128
717.115	15808.70818
717.31	16164.85583
717.504	16102.12204
717.699	16312.5902
717.893	15707.53689
718.088	16185.09287
718.282	16075.81477
718.476	15893.6942
718.671	15711.58369
718.865	15768.23936
719.059	15521.3876
719.254	16027.24818
719.448	15450.57149
719.642	16351.04318
719.837	15723.72413
720.031	15950.35275
720.225	15586.13443
720.419	15717.65391
720.614	15533.52757
720.808	15614.4614
721.002	15725.74754
721.196	15561.85428
721.39	15764.1925
721.585	15624.57822
721.779	15622.55485
721.973	15944.28214
722.167	15555.78426
722.361	15614.4614
722.555	15523.41092
722.749	15509.24764
722.943	15563.87762
723.137	15377.73273
723.331	15444.50157
723.525	15843.10704
723.719	15262.40565
723.913	15776.33309
724.107	15031.75257
724.301	15268.47548
724.495	15567.92431
724.689	15367.61628
724.883	15557.8076
725.077	15820.84892
725.271	15774.30965
725.465	15586.13443
725.659	15731.81777
725.853	15260.38238
726.046	15189.56785
726.24	15213.8471
726.434	15015.56633
726.628	15675.1626
726.822	15187.54457
727.015	15203.73074
727.209	15363.5697
727.403	15557.8076
727.596	15402.01225
727.79	15754.07537
727.984	15899.76471
728.177	15930.11744
728.371	15665.04568
728.565	15602.32125
728.758	15646.83528
728.952	15711.58369
729.146	15588.15778
729.339	15849.17746
729.533	15434.38505
729.726	15499.13103
729.92	15517.34094
730.113	15622.55485
730.307	15561.85428
730.5	15286.68497
730.694	15420.22194
730.887	15288.70824
731.081	15416.17534
731.274	15179.45149
731.468	14938.68142
731.661	15274.54531
731.854	15141.00935
732.048	15456.64142
732.241	15339.29026
732.435	15110.66028
732.628	15242.17291
732.821	15005.44992
733.014	14902.26205
733.208	15189.56785
733.401	15230.03328
733.594	15450.57149
733.788	15371.66286
733.981	15891.6707
734.174	15667.06906
734.367	15223.96346
734.56	15406.05885
734.754	15260.38238
734.947	15256.33583
735.14	15541.62091
735.333	15582.08773
735.526	15092.45083
735.719	15223.96346
735.912	15215.87037
736.105	15355.47655
736.298	15296.80136
736.491	15391.89578
736.684	15145.05589
736.877	15256.33583
737.07	15519.36427
737.263	15189.56785
737.456	15418.19864
737.649	15612.43804
737.842	15497.10771
738.035	15464.73466
738.228	15393.91907
738.421	15308.94103
738.614	15491.03775
738.807	15319.05744
739	15153.14897
739.192	15110.66028
739.385	15039.84568
739.578	14799.07287
739.771	15013.54305
739.964	14641.25036
740.156	15084.35774
740.349	15051.98534
740.542	14871.91245
740.735	14776.81615
740.927	15037.8224
741.12	15019.61289
741.313	15213.8471
741.505	15011.51977
741.698	14973.07737
741.891	15054.00862
742.083	14892.14553
742.276	14936.65813
742.468	14799.07287
742.661	14677.67142
742.854	14894.16884
743.046	14600.78211
743.239	14635.18015
743.431	14888.09892
743.624	14712.06881
743.816	14515.79729
744.009	14665.5311
744.201	14825.37615
744.393	14756.5827
744.586	14665.5311
744.778	15108.63701
744.971	14859.77258
745.163	14776.81615
745.355	14633.15674
745.548	14582.57126
745.74	14793.00286
745.932	15051.98534
746.125	15013.54305
746.317	14748.48929
746.509	14914.40186
746.702	15217.89364
746.894	14722.18564
747.086	14572.45407
747.278	14594.71184
747.471	14736.34916
747.663	14849.656
747.855	14918.44846
748.047	14778.83949
748.239	14705.9987
748.431	14977.12394
748.623	15068.17155
748.815	14778.83949
749.008	15102.5672
749.2	14685.76495
749.392	14582.57126
749.584	14398.43347
749.776	14218.33022
749.968	14013.92439
750.16	14675.64804
750.352	14525.91465
750.544	14390.33923
750.736	14687.78833
750.928	14776.81615
751.12	14647.32056
751.311	14614.94605
751.503	15045.91551
751.695	14884.05231
751.887	14566.38375
752.079	14661.48432
752.271	14548.17272
752.463	14602.80553
752.654	14202.14045
752.846	14428.78665
753.038	14260.82777
753.23	14451.04544
753.421	14432.83372
753.613	14477.35105
753.805	14384.26853
753.997	14187.9743
754.188	14618.99287
754.38	14449.02192
754.572	14616.96946
754.763	14078.68909
754.955	14244.63833
755.146	14179.87931
755.338	13971.42122
755.53	14125.23726
755.721	13993.68492
755.913	14147.49902
756.104	14157.61792
756.296	14277.0171
756.487	14382.24496
756.679	14485.44504
756.87	14297.25359
757.062	14210.23535
757.253	14489.49202
757.445	14307.37177
757.636	14218.33022
757.827	14270.94611
758.019	14198.09299
758.21	14181.90306
758.401	13912.72451
758.593	13831.75982
758.784	13339.78896
758.975	13793.3
759.167	13773.05757
759.358	13823.6631
759.549	13683.9872
759.74	13712.32843
759.932	13708.27972
760.123	13677.914
760.314	13876.29095
760.505	13896.53193
760.696	13815.56634
760.888	13979.51715
761.079	13805.44532
761.27	14076.66523
761.461	13815.56634
761.652	13760.91196
761.843	13477.48108
762.034	13520.00006
762.225	13236.50746
762.416	13422.81138
762.607	13165.62145
762.798	13449.13418
762.989	13528.09873
763.18	13621.22934
763.371	13477.48108
763.562	13287.13703
763.753	13337.76393
763.944	13441.03492
764.135	13443.05974
764.326	13864.14623
764.517	13619.20484
764.708	13351.939
764.899	13471.40681
765.089	13720.42581
765.28	13639.4497
765.471	13266.88553
765.662	12809.07622
765.853	13155.49442
766.043	13044.08938
766.234	13189.92584
766.425	12910.38365
766.615	13072.4484
766.806	13238.5327
766.997	13270.93586
767.187	13011.6779
767.378	13127.13813
767.569	12809.07622
767.759	13094.72982
767.95	12918.48767
768.141	12894.17537
768.331	13181.82445
768.522	12991.42007
768.712	13165.62145
768.903	13013.70365
769.093	13198.02717
769.284	12973.18759
769.474	12910.38365
769.665	12721.94073
769.855	12707.75488
770.046	12987.36844
770.236	12598.31139
770.426	12452.35862
770.617	12488.84993
770.807	12444.24915
770.998	12752.33803
771.188	12719.9142
771.378	12825.28632
771.569	12861.75778
771.759	12610.47265
771.949	12671.27566
772.139	12608.44579
772.33	12091.37966
772.52	12563.85328
772.71	12588.17684
772.9	12423.97502
773.09	12381.39716
773.281	12423.97502
773.471	12204.97063
773.661	11918.9185
773.851	12156.29166
774.041	12012.25753
774.231	12330.70532
774.421	11998.05486
774.611	12067.03565
774.802	12312.4552
774.992	12164.40512
775.182	12160.3484
775.372	12300.28814
775.562	12251.61735
775.752	12209.02702
775.942	12006.17072
776.131	12138.03594
776.321	11734.21791
776.511	12032.54638
776.701	12073.12175
776.891	11989.93887
777.081	11969.64834
777.271	12032.54638
777.461	12012.25753
777.651	12202.94242
777.84	11835.71043
778.03	11916.8892
778.22	12048.77691
778.41	11967.61925
778.599	11657.06899
778.789	12054.86322
778.979	11705.79612
779.169	11882.38985
779.358	11545.38294
779.548	11740.30807
779.738	11713.91681
779.927	11902.68388
780.117	11634.73399
780.307	11910.80126
780.496	11715.94696
780.686	11886.44872
780.875	11659.09939
781.065	11831.65114
781.254	11545.38294
781.444	11730.15776
781.633	11616.45909
781.823	11693.61481
782.012	11650.97773
782.202	11559.59908
782.391	11462.10771
782.581	11699.7055
782.77	11399.1328
782.96	11628.64244
783.149	11153.23537
783.338	11441.79424
783.528	11393.03795
783.717	11724.06747
783.906	11614.4285
784.096	11518.98032
784.285	11183.72672
784.474	11374.75289
784.663	10984.4728
784.853	11108.5104
785.042	10884.80603
785.231	10980.40529
785.42	11090.21232
785.61	11370.68943
785.799	11163.39942
785.988	11325.98878
786.177	11094.27864
786.366	11214.21571
786.555	11147.13682
786.744	11112.57652
786.933	10892.94312
787.122	10966.16869
787.312	10779.00706
787.501	10982.43905
787.69	10750.51729
787.879	11116.6426
788.068	10781.04195
788.257	10913.28503
788.445	10691.49533
788.634	10982.43905
788.823	10628.39161
789.012	10872.60006
789.201	10764.76247
789.39	10876.66877
789.579	10660.96274
789.768	10860.39368
789.957	10563.23987
790.145	10618.21249
790.334	10730.16603
790.523	10705.74293
790.712	10534.73196
790.9	10886.84032
791.089	10512.33116
791.278	10789.18141
791.467	10530.6592
791.655	10783.07683
791.844	10770.86736
792.033	10388.08037
792.221	10333.06865
792.41	10481.78213
792.599	10127.19708
792.787	10349.36942
792.976	10610.06897
793.164	10375.85638
793.353	10392.15494
793.541	10434.93468
793.73	10131.2751
793.918	10420.6754
794.107	10155.74208
794.295	10396.22944
794.484	10591.74532
794.672	10640.60615
794.861	10286.19917
795.049	10471.59848
795.238	10043.5852
795.426	10408.45266
795.614	9933.42566
795.803	10155.74208
795.991	9992.59063
796.179	10216.9008
796.368	10094.57087
796.556	10320.84251
796.744	9968.11005
796.932	10245.43732
797.121	9849.75764
797.309	10000.75037
797.497	10000.75037
797.685	9837.51145
797.874	9631.28567
798.062	10035.42667
798.25	9678.2617
798.438	9919.14262
798.626	9910.98056
798.814	10055.82257
799.002	9943.62738
799.19	9768.10623
799.378	9815.05872
799.566	9841.59357
799.755	9772.18937
799.943	10019.10892
800.131	9939.54674
800.318	10068.05943
800.506	9943.62738
800.694	9968.11005
800.882	9737.48073
801.07	9933.42566
801.258	9649.66857
801.446	9892.61508
801.634	9269.49298
801.822	9490.30785
802.01	9663.96551
802.197	9719.10379
802.385	9743.6061
802.573	9864.04418
802.761	9759.93976
802.949	9819.14117
803.136	9784.43843
803.324	9808.93493
803.512	9786.47989
803.699	9723.18766
803.887	9817.09995
804.075	9935.46603
804.262	9933.42566
804.45	10004.83015
804.638	9947.70797
804.825	9902.81827
805.013	9802.81101
805.201	9802.81101
805.388	9686.43061
805.576	9751.77305
805.763	9884.45226
805.951	9545.48205
806.138	9633.32828
806.326	9906.89945
806.513	10012.98953
806.701	9937.50639
806.888	9792.60417
807.075	10057.86208
807.263	9792.60417
807.45	10220.97761
807.638	9959.94939
807.825	10023.18845
808.012	9549.56856
808.2	9764.02302
808.387	9702.76769
808.574	9939.54674
808.761	9616.98699
808.949	9878.32999
809.136	9829.34703
809.323	9839.55252
809.51	9710.93586
809.698	9580.21542
809.885	9580.21542
810.072	9547.52531
810.259	9627.20041
810.446	9584.3014
810.633	9902.81827
810.82	9864.04418
811.008	9817.09995
811.195	9719.10379
811.382	9745.64786
811.569	9902.81827
811.756	9759.93976
811.943	9892.61508
812.13	9857.92146
812.317	9710.93586
812.504	9572.04327
812.691	9972.19029
812.878	9866.08505
813.064	9972.19029
813.251	9882.41152
813.438	10041.54559
813.625	9833.42927
813.812	9964.02975
813.999	9947.70797
814.186	9862.00329
814.372	9645.58359
814.559	9557.74141
814.746	9690.51497
814.933	10039.50596
815.12	9694.59927
815.306	9602.68754
815.493	9418.76833
815.68	9619.0297
815.866	9651.71104
816.053	9749.73134
816.24	9725.22957
816.426	9833.42927
816.613	9792.60417
816.799	9978.31055
816.986	9841.59357
817.173	9862.00329
817.359	9426.94528
817.546	9727.27147
817.732	9428.98947
817.919	9833.42927
818.105	9533.22212
818.292	9698.68351
818.478	9610.85874
818.665	9584.3014
818.851	9565.914
819.037	9514.83115
819.224	9516.87465
819.41	9745.64786
819.597	9559.78458
819.783	9563.87087
819.969	9373.79047
820.156	9518.91814
820.342	9680.30395
820.528	9578.17241
820.714	9437.1661
820.901	9428.98947
821.087	9277.67473
821.273	9649.66857
821.459	9574.08634
821.646	9588.38732
821.832	9306.30878
822.018	9523.00507
822.204	9263.35649
822.39	9359.47767
822.576	9416.72406
822.762	9351.29857
822.948	9240.85472
823.134	9631.28567
823.32	9392.19146
823.507	9604.73036
823.693	9790.56276
823.879	9520.96161
824.065	9220.39681
824.25	9414.67976
824.436	9236.76328
824.622	9525.04851
824.808	9555.69822
824.994	9343.1192
825.18	9101.70746
825.366	9433.07782
825.552	9019.81902
825.738	9263.35649
825.923	9025.96162
826.109	9420.81259
826.295	9087.37898
826.481	9191.7529
826.667	9244.94611
826.852	9277.67473
827.038	8968.62456
827.224	9453.51856
827.409	9015.72386
827.595	9400.36925
827.781	9132.40849
827.966	9433.07782
828.152	9107.84797
828.338	9208.12126
828.523	9019.81902
828.709	9351.29857
828.894	9025.96162
829.08	9154.92013
829.266	8780.13324
829.451	9113.98833
829.637	8991.15147
829.822	9011.62864
830.008	8855.95779
830.193	8892.83649
830.378	8720.68577
830.564	8946.09551
830.749	8771.9345
830.935	8745.28659
831.12	8439.63625
831.305	8950.19186
831.491	8788.33168
831.676	8956.33625
831.861	8556.61216
832.047	8802.67826
832.232	8607.89799
832.417	8823.17183
832.602	8531.99078
832.788	8632.51103
832.973	8505.31454
833.158	8451.95242
833.343	8400.63047
833.528	8804.7277
833.714	8375.99166
833.899	8745.28659
834.084	8607.89799
834.269	8952.24001
834.454	8390.36464
834.639	8698.1327
834.824	8386.25817
835.009	8694.0319
835.194	8433.4779
835.379	8810.87591
835.564	8507.36668
835.749	8810.87591
835.934	8308.22051
836.119	8470.42538
836.304	8369.83152
836.489	8417.0548
836.674	8246.5919
836.859	8382.15162
837.044	8320.54412
837.228	8273.2998
837.413	8478.63509
837.598	8655.07062
837.783	8047.20384
837.968	8234.26406
838.152	8119.1697
838.337	8211.66116
838.522	8147.94915
838.707	8252.75556
838.891	7936.12206
839.076	8024.58089
839.261	7907.31335
839.445	8063.65536
839.63	7505.62323
839.815	7775.56473
839.999	7645.791
840.184	7975.21318
840.368	7903.19749
840.553	7901.13953
840.737	7800.27408
840.922	7999.8985
841.106	7855.85916
841.291	8008.12629
841.475	7859.97597
841.66	7952.58238
841.844	7662.27485
842.029	7833.21522
842.213	7404.55834
842.397	7629.3058
842.582	7567.47414
842.766	7932.00678
842.951	7550.98245
843.135	7666.3956
843.319	7499.43707
843.504	7367.41937
843.688	7350.9109
843.872	7627.24505
844.056	7629.3058
844.241	7664.33524
844.425	7540.67445
844.609	7742.61424
844.793	7431.37654
844.977	7452.00343
845.161	7301.37708
845.346	7400.43213
845.53	7132.04077
845.714	7371.54627
845.898	7065.9178
846.082	7008.04139
846.266	7045.24967
846.45	7264.21842
846.634	7156.831
846.818	6883.96105
847.002	7210.53219
847.186	7247.70117
847.37	7032.84772
847.554	7359.16531
847.738	7142.37042
847.922	7202.27144
848.106	7276.60543
848.29	7264.21842
848.473	7059.7176
848.657	7173.35604
848.841	6943.94337
849.025	7024.5793
849.209	7096.91579
849.392	7117.57832
849.576	7032.84772
849.76	7063.85109
849.944	6904.64676
850.127	7127.90875
850.311	6741.16764
850.495	7123.77665
850.678	6966.69031
850.862	7117.57832
851.046	6832.23684
851.229	6805.33463
851.413	6693.54566
851.596	7092.78301
851.78	6743.23789
851.964	7181.61803
852.147	6629.34028
852.331	6658.339
852.514	6579.61769
852.698	6681.12054
852.881	6349.47709
853.065	6668.69459
853.248	6714.25236
853.431	6898.44129
853.615	6701.82861
853.798	6890.167
853.982	6428.2962
854.165	6554.75141
854.348	6380.59391
854.532	6513.30019
854.715	6361.92445
854.898	6478.05937
855.081	6579.61769
855.265	6689.40404
855.448	6451.10598
855.631	6444.88541
855.814	6249.86791
855.997	6592.04959
856.181	6071.26642
856.364	6581.68973
856.547	6283.07696
856.73	6453.17946
856.913	6231.18519
857.096	6291.37828
857.279	6021.39312
857.462	6042.17531
857.645	6075.42192
857.828	6376.44531
858.011	6256.09507
858.194	6351.5517
858.377	6123.20337
858.56	6187.58479
858.743	6243.64055
858.926	6038.01906
859.109	5919.52632
859.292	6044.2534
859.475	5886.25143
859.658	6071.26642
859.841	5832.16685
860.023	5877.93176
860.206	5740.60276
860.389	5813.44155
860.572	5638.57988
860.755	5771.82292
860.937	5665.6527
861.12	5751.01007
861.303	5979.82167
861.486	6013.07958
861.668	5734.35809
861.851	5988.13671
862.034	5821.76414
862.216	5742.68427
862.399	5319.65458
862.581	5580.25567
862.764	5409.34279
862.947	5859.21113
863.129	5471.89025
863.312	5513.57679
863.494	5317.56829
863.677	5601.08787
863.859	5471.89025
864.042	5496.9033
864.224	5288.3578
864.406	5657.32303
864.589	5202.78642
864.771	5446.8738
864.954	5280.0111
865.136	5401.00153
865.318	5188.17275
865.501	5229.92306
865.683	5014.80958
865.865	5307.1365
866.048	5305.05007
866.23	5104.64419
866.412	5098.37805
866.594	5056.59844
866.777	5000.1813
866.959	5167.2941
867.141	4920.75091
867.323	5123.44136
867.505	4987.64187
867.687	5238.272
867.869	5211.13657
868.052	5288.3578
868.234	5046.1521
868.416	5240.35918
868.598	5062.86598
868.78	5140.14837
868.962	5194.43589
869.144	5119.26437
869.326	4960.47026
869.508	5037.7946
869.69	5031.52624
869.872	5027.34721
870.054	5206.96154
870.236	5146.41312
870.417	4991.82177
870.599	5227.83576
870.781	4895.66074
870.963	5165.20611
871.145	4678.07512
871.327	5129.70666
871.508	4791.08293
871.69	4979.28179
871.872	4841.2874
872.054	5165.20611
872.235	4786.89863
872.417	4912.38789
872.599	4732.49451
872.78	4839.19581
872.962	4818.27864
873.144	4742.95803
873.325	4786.89863
873.507	4922.84161
873.689	4822.46226
873.87	5148.50132
874.052	4950.0186
874.233	5096.28929
874.415	4793.17504
874.596	5321.74084
874.778	4757.60601
874.959	4918.66019
875.141	4891.47873
875.322	5004.36092
875.503	4606.88837
875.685	4939.56637
875.866	4782.71424
876.048	4950.0186
876.229	4640.39124
876.41	4600.60594
876.592	4514.72604
876.773	4684.35506
876.954	4518.91617
877.136	4814.09494
877.317	4644.5787
877.498	4740.86538
877.679	4573.37977
877.86	4715.75171
878.042	4696.91433
878.223	4696.91433
878.404	4736.67999
878.585	4688.54157
878.766	4692.72799
878.947	4975.10161
879.128	4535.6758
879.309	4812.00305
879.49	4866.38471
879.672	4922.84161
879.853	4864.29339
880.034	4837.10419
880.215	4732.49451
880.396	4745.05067
880.576	4709.47278
880.757	4772.25288
880.938	4613.17059
881.119	4839.19581
881.3	4569.1908
881.481	5037.7946
881.662	4552.43401
881.843	4818.27864
882.023	4795.26713
882.204	4895.66074
882.385	4797.3592
882.566	4786.89863
882.747	4581.75746
882.927	5006.4507
883.108	4527.29616
883.289	4768.06817
883.469	4646.67239
883.65	4887.29662
883.831	4797.3592
884.011	5232.01033
884.192	5046.1521
884.373	5021.0785
884.553	4874.74975
884.734	5052.41997
884.914	4803.63527
885.095	4970.92134
885.275	5079.57837
885.456	5016.89924
885.636	4929.11357
885.817	5044.06276
885.997	4763.88337
886.178	5188.17275
886.358	4864.29339
886.538	5073.3114
886.719	5069.1333
886.899	5092.1117
887.08	5196.52356
887.26	5140.14837
887.44	5021.0785
887.621	5138.06008
887.801	4937.47586
887.981	5271.66403
888.161	4914.47868
888.342	5096.28929
888.522	5041.97339
888.702	4979.28179
888.882	4807.81921
889.062	4839.19581
889.242	4866.38471
889.423	4933.29476
889.603	4613.17059
889.783	4983.46187
889.963	4780.62202
890.143	5098.37805
890.323	5016.89924
890.503	5294.61758
890.683	4874.74975
890.863	5158.94199
891.043	4786.89863
891.223	4993.91169
891.403	4726.21613
891.583	4943.74733
891.763	4634.10989
891.943	5000.1813
892.122	4594.32331
892.302	4941.65687
892.482	4652.95334
892.662	4874.74975
892.842	4535.6758
893.022	4862.20205
893.201	4552.43401
893.381	4747.14328
893.561	4481.20184
893.741	4688.54157
893.92	4334.46745
894.1	4621.54658
894.28	4506.34552
894.459	4768.06817
894.639	4359.62949
894.819	4694.82117
894.998	4523.10621
895.178	4776.43749
895.357	4554.52869
895.537	4638.29748
895.716	4495.86937
895.896	4552.43401
896.075	4338.66134
896.255	4523.10621
896.434	4254.76716
896.614	4518.91617
896.793	4294.62119
896.973	4460.24634
897.152	4196.02087
897.331	4300.91322
897.511	4309.30229
897.69	4361.72619
897.87	4078.47864
898.049	4244.27798
898.228	4172.93742
898.407	4237.98421
898.587	4084.7772
898.766	4177.1346
898.945	3872.62386
899.124	4202.31591
899.304	3792.75059
899.483	4074.27949
899.662	4002.8813
899.841	4015.48271
900.02	3925.15637
900.199	4143.55479
900.378	3841.09835
900.557	4107.87035
900.737	3830.58886
900.916	3902.04361
901.095	3687.61111
901.274	3902.04361
901.453	3679.19787
901.632	3792.75059
901.811	3595.04874
901.989	3754.90597
902.168	3588.73634
902.347	3740.18691
902.526	3449.82161
902.705	3788.54595
902.884	3647.64549
903.063	3731.77559
903.242	3422.4503
903.42	3510.86971
903.599	3319.25474
903.778	3494.03038
903.957	3247.6253
904.135	3363.48655
904.314	3369.80475
904.493	3531.91724
904.672	3300.29592
904.85	3363.48655
905.029	3157.00742
905.207	3216.01788
905.386	2996.77297
905.565	3148.57631
905.743	3165.43827
905.922	3342.42473
906.1	2874.42961
906.279	3256.05331
906.457	3057.92573
906.636	3165.43827
906.814	2992.55507
906.993	3087.44308
907.171	3013.64399
907.35	3068.46799
907.528	2963.02805
907.707	2929.2793
907.885	2859.66072
908.063	3085.3348
908.242	2785.80598
908.42	2878.64916
908.598	2654.93708
908.777	2880.75892
908.955	2627.49056
909.133	2659.15944
909.311	2399.39617
909.49	2851.22105
909.668	2325.44953
909.846	2787.91635
910.024	2407.84642
910.202	2570.47961
910.38	2395.17098
910.559	2828.01078
910.737	2475.44227
910.915	2646.49222
911.093	2395.17098
911.271	2697.15834
911.449	2412.07148
911.627	2764.70153
911.805	2433.19615
911.983	2802.68856
912.161	2851.22105
912.339	2992.55507
912.517	2800.57829
912.695	3108.52502
912.872	2676.04835
913.05	2847.00112
913.228	2760.48048
913.406	2882.86866
913.584	2916.62255
913.762	2665.49287
913.939	2838.56111
914.117	2861.7706
914.295	2661.2706
914.473	2847.00112
914.65	2515.57198
914.828	2920.84153
915.006	2692.93644
915.184	2965.13722
915.361	2638.04716
915.539	2954.59122
915.716	2625.3792
915.894	2625.3792
916.072	2390.94575
916.249	2667.60399
916.427	2458.54434
916.604	2629.60191
916.782	2545.1386
916.959	2811.12952
917.137	2678.15941
917.314	2914.51304
917.492	2642.26972
917.669	2707.71285
917.847	2481.77881
918.024	2466.99339
918.201	2393.05837
918.379	2650.71468
918.556	2348.69123
918.733	2397.28358
918.911	2131.021
919.088	2363.48077
919.265	2211.3374
919.442	2488.11524
919.62	2185.97562
919.797	2359.25524
919.974	2078.17503
920.151	2219.79105
920.328	2088.7446
920.506	2380.3825
920.683	2198.65666
920.86	2213.45083
921.037	1993.61214
921.214	2228.24457
921.391	2198.65666
921.568	2376.15713
921.745	2156.38535
921.922	2338.12697
922.099	1999.95473
922.276	2122.56596
922.453	2050.6933
922.63	2361.36801
922.807	2042.23714
922.984	2004.18309
923.161	1892.12329
923.338	2059.14934
923.514	1862.51996
923.691	1932.29756
923.868	1722.94941
924.045	1830.80103
924.222	1657.38806
924.399	1767.36015
924.575	1653.1582
924.752	1953.44109
924.929	1729.2939
925.105	1925.95439
925.282	1754.67153
925.459	1822.34247
925.635	1813.88384
925.812	2025.3245
925.989	1790.62224
926.165	1934.41194
926.342	1720.83457
926.518	1792.73696
926.695	1585.47925
926.871	1560.09916
927.048	1579.13425
927.224	1653.1582
927.401	1395.12576
927.577	1598.16922
927.754	1441.65682
927.93	1627.77886
928.107	1390.89568
928.283	1587.59425
928.459	1494.53309
928.636	1475.49765
928.812	1261.88078
928.988	1452.23208
929.165	1331.67496
929.341	1502.99328
929.517	1187.85973
929.693	1519.91361
929.87	1196.31908
930.046	1323.21494
930.222	1166.71161
930.398	1327.44495
930.574	1213.23794
930.751	1285.14525
930.927	1094.81112
931.103	1340.135
931.279	1075.77955
931.455	1331.67496
931.631	1126.53129
931.807	1280.91532
931.983	1272.4555
932.159	1318.98495
932.335	1063.09206
932.511	1124.41658
932.687	976.39985
932.863	1039.83219
933.039	986.97151
933.215	1189.97456
933.391	904.51724
933.566	1001.77211
933.742	841.09888
933.918	995.42896
934.094	817.84743
934.27	805.16529
934.445	754.44019
934.621	944.6859
934.797	754.44019
934.973	807.27896
935.148	638.2182
935.324	722.73996
935.5	640.33102
935.675	667.79872
935.851	642.44384
936.027	691.04216
936.202	549.49137
936.378	646.66954
936.553	511.47284
936.729	591.73939
936.904	473.45896
937.08	511.47284
937.255	401.66845
937.431	481.90607
937.606	386.89035
937.782	462.9004
937.957	325.67561
938.133	285.57744
938.308	285.57744
938.483	287.68771
938.659	226.49765
938.834	376.33506
939.009	230.71714
939.185	275.02639
939.36	182.19786
939.535	232.82691
939.71	192.74463
939.886	283.46719
940.061	167.43326
940.236	239.15634
940.411	211.73008
940.586	224.38794
940.761	173.76082
940.937	300.34969
941.112	186.41651
941.287	209.6205
941.462	135.79826
941.637	167.43326
941.812	182.19786
941.987	220.16857
942.162	194.85404
942.337	152.66967
942.512	182.19786
942.687	203.2919
942.862	148.45169
943.037	171.65161
943.212	114.71092
943.386	97.84262
943.561	158.99679
943.736	87.30066
943.911	184.30718
944.086	131.58062
944.26	140.01598
944.435	199.07293
944.61	192.74463
944.785	234.9367
944.959	154.77869
945.134	182.19786
945.309	201.1824
945.483	121.0369
945.658	135.79826
945.833	116.81956
946.007	182.19786
946.182	218.05892
946.357	165.32411
946.531	123.1456
946.706	89.40901
946.88	64.1103
947.055	110.49372
947.229	80.97574
947.404	116.81956
947.578	110.49372
947.752	118.92822
947.927	140.01598
948.101	224.38794
948.276	173.76082
948.45	108.38515
948.624	123.1456
948.799	171.65161
948.973	207.51095
949.147	165.32411
949.321	224.38794
949.496	167.43326
949.67	102.05957
949.844	156.88773
950.018	110.49372
950.193	154.77869
950.367	218.05892
950.541	199.07293
950.715	140.01598
950.889	171.65161
951.063	165.32411
951.237	106.2766
951.411	194.85404
951.585	190.63523
951.759	152.66967
951.933	161.10588
952.107	222.27825
952.281	158.99679
952.455	167.43326
952.629	133.68943
952.803	165.32411
952.977	175.87005
953.151	173.76082
953.325	116.81956
953.499	226.49765
953.672	224.38794
953.846	148.45169
954.02	161.10588
954.194	184.30718
954.368	228.60739
954.541	177.9793
954.715	148.45169
954.889	173.76082
955.062	177.9793
955.236	226.49765
955.41	161.10588
955.583	205.40141
955.757	167.43326
955.93	83.08402
956.104	199.07293
956.278	140.01598
956.451	93.62577
956.625	97.84262
956.798	158.99679
956.972	224.38794
957.145	123.1456
957.319	182.19786
957.492	177.9793
957.665	209.6205
957.839	207.51095
958.012	148.45169
958.185	241.26619
958.359	201.1824
958.532	190.63523
958.705	234.9367
958.879	167.43326
959.052	239.15634
959.225	205.40141
959.398	175.87005
959.572	226.49765
959.745	182.19786
959.918	152.66967
960.091	137.90711
960.264	173.76082
960.438	140.01598
960.611	152.66967
960.784	203.2919
960.957	140.01598
961.13	215.94929
961.303	142.12488
961.476	182.19786
961.649	194.85404
961.822	76.75925
961.995	150.56067
962.168	108.38515
962.341	150.56067
962.514	131.58062
962.686	144.23379
962.859	158.99679
963.032	190.63523
963.205	106.2766
963.378	167.43326
963.551	165.32411
963.723	83.08402
963.896	114.71092
964.069	131.58062
964.242	125.25432
964.414	106.2766
964.587	161.10588
964.76	140.01598
964.932	142.12488
965.105	165.32411
965.278	140.01598
965.45	154.77869
965.623	165.32411
965.795	123.1456
965.968	152.66967
966.14	196.96348
966.313	127.36306
966.485	97.84262
966.658	133.68943
966.83	148.45169
967.003	102.05957
967.175	80.97574
967.348	110.49372
967.52	152.66967
967.692	144.23379
967.865	182.19786
968.037	93.62577
968.209	161.10588
968.382	152.66967
968.554	165.32411
968.726	186.41651
968.898	114.71092
969.071	104.16807
969.243	80.97574
969.415	95.73419
969.587	161.10588
969.759	125.25432
969.932	161.10588
970.104	150.56067
970.276	38.81488
970.448	38.81488
970.62	125.25432
970.792	32.49155
970.964	169.54242
971.136	142.12488
971.308	123.1456
971.48	142.12488
971.652	125.25432
971.824	72.54284
971.996	74.65103
972.168	89.40901
972.339	152.66967
972.511	66.2184
972.683	74.65103
972.855	19.84552
973.027	161.10588
973.199	49.35423
973.37	144.23379
973.542	133.68943
973.714	66.2184
973.886	125.25432
974.057	66.2184
974.229	53.57014
974.401	125.25432
974.572	125.25432
974.744	104.16807
974.915	80.97574
975.087	114.71092
975.259	148.45169
975.43	108.38515
975.602	125.25432
975.773	57.78613
975.945	114.71092
976.116	177.9793
976.288	102.05957
976.459	97.84262
976.63	9.30781
976.802	45.13842
976.973	114.71092
977.145	72.54284
977.316	83.08402
977.487	55.67812
977.659	5.09289
977.83	123.1456
978.001	85.19233
978.172	91.51738
978.344	64.1103
978.515	70.43467
978.686	21.95313
978.857	66.2184
979.028	9.30781
979.2	57.78613
979.371	85.19233
979.542	118.92822
979.713	97.84262
979.884	30.38382
980.055	68.32652
980.226	140.01598
980.397	40.92271
980.568	51.46218
980.739	114.71092
980.91	0.87808
981.081	32.49155
981.252	106.2766
981.423	72.54284
981.594	156.88773
981.765	144.23379
981.936	13.52282
982.106	80.97574
982.277	21.95313
982.448	66.2184
982.619	24.06077
982.79	24.06077
982.96	89.40901
983.131	51.46218
983.302	21.95313
983.472	-32.83698
983.643	66.2184
983.814	15.63036
983.984	133.68943
984.155	91.51738
984.326	13.52282
984.496	40.92271
984.667	38.81488
984.837	-9.65855
985.008	99.95108
985.178	110.49372
985.349	91.51738
985.519	49.35423
985.69	55.67812
985.86	62.00222
986.031	89.40901
986.201	93.62577
986.371	57.78613
986.542	38.81488
986.712	62.00222
986.882	34.5993
987.053	57.78613
987.223	34.5993
987.393	64.1103
987.563	38.81488
987.734	21.95313
987.904	-11.7658
988.074	-49.69214
988.244	30.38382
988.414	49.35423
988.585	51.46218
988.755	64.1103
988.925	30.38382
989.095	85.19233
989.265	106.2766
989.435	38.81488
989.605	30.38382
989.775	99.95108
989.945	28.27611
990.115	21.95313
990.285	5.09289
990.455	49.35423
990.625	57.78613
990.795	51.46218
990.965	30.38382
991.134	13.52282
991.304	59.89417
991.474	38.81488
991.644	38.81488
991.814	-1.2293
991.984	47.24632
992.153	83.08402
992.323	53.57014
992.493	-47.58533
992.662	49.35423
992.832	0.87808
993.002	32.49155
993.171	21.95313
993.341	38.81488
993.511	85.19233
993.68	133.68943
993.85	133.68943
994.019	13.52282
994.189	-28.62294
994.358	5.09289
994.528	80.97574
994.697	13.52282
994.867	32.49155
995.036	80.97574
995.206	36.70708
995.375	0.87808
995.544	-1.2293
995.714	-26.51589
995.883	5.09289
996.052	32.49155
996.222	93.62577
996.391	93.62577
996.56	97.84262
996.73	74.65103
996.899	72.54284
997.068	5.09289
997.237	34.5993
997.406	89.40901
997.576	21.95313
997.745	51.46218
997.914	-49.69214
998.083	-47.58533
998.252	-43.37164
998.421	24.06077
998.59	-15.98024
998.759	89.40901
998.928	24.06077
999.097	38.81488
999.266	68.32652
999.435	13.52282
999.604	-28.62294
999.773	118.92822
999.942	19.84552
1000.111	40.92271
1000.28	47.24632
1000.448	47.24632
1000.617	72.54284
1000.786	-18.08741
1000.955	15.63036
1001.124	80.97574
1001.292	72.54284
1001.461	47.24632
1001.63	59.89417
1001.798	55.67812
1001.967	-3.33665
1002.136	-3.33665
1002.304	57.78613
1002.473	30.38382
1002.642	89.40901
1002.81	45.13842
1002.979	131.58062
1003.147	76.75925
1003.316	7.20034
1003.484	13.52282
1003.653	57.78613
1003.821	57.78613
1003.99	-28.62294
1004.158	9.30781
1004.327	0.87808
1004.495	43.03055
1004.663	68.32652
1004.832	34.5993
1005	72.54284
1005.168	-43.37164
1005.337	40.92271
1005.505	80.97574
1005.673	13.52282
1005.842	32.49155
1006.01	66.2184
1006.178	26.16843
1006.346	59.89417
1006.514	-20.19457
1006.683	34.5993
1006.851	57.78613
1007.019	55.67812
1007.187	9.30781
1007.355	7.20034
1007.523	5.09289
1007.691	5.09289
1007.859	72.54284
1008.027	-32.83698
1008.195	-74.97185
1008.363	-11.7658
1008.531	-9.65855
1008.699	74.65103
1008.867	7.20034
1009.035	21.95313
1009.203	66.2184
1009.37	47.24632
1009.538	43.03055
1009.706	-7.55127
1009.874	21.95313
1010.042	99.95108
1010.209	53.57014
1010.377	51.46218
1010.545	53.57014
1010.713	51.46218
1010.88	-11.7658
1011.048	-15.98024
1011.216	26.16843
1011.383	76.75925
1011.551	38.81488
1011.718	24.06077
1011.886	13.52282
1012.054	5.09289
1012.221	55.67812
1012.389	-1.2293
1012.556	68.32652
1012.724	17.73793
1012.891	-1.2293
1013.058	64.1103
1013.226	66.2184
1013.393	21.95313
1013.561	53.57014
1013.728	53.57014
1013.895	-49.69214
1014.063	24.06077
1014.23	26.16843
1014.397	64.1103
1014.565	30.38382
1014.732	40.92271
1014.899	-11.7658
1015.066	-18.08741
1015.233	74.65103
1015.401	24.06077
1015.568	-20.19457
1015.735	102.05957
1015.902	-1.2293
1016.069	-51.79892
1016.236	49.35423
1016.403	24.06077
1016.57	0.87808
1016.737	24.06077
1016.904	91.51738
1017.071	2.98547
1017.238	64.1103
1017.405	36.70708
1017.572	38.81488
1017.739	24.06077
1017.906	5.09289
1018.073	116.81956
1018.24	-3.33665
1018.407	24.06077
1018.573	26.16843
1018.74	-32.83698
1018.907	24.06077
1019.074	13.52282
1019.241	55.67812
1019.407	43.03055
1019.574	-45.4785
1019.741	5.09289
1019.907	-3.33665
1020.074	13.52282
1020.241	26.16843
1020.407	30.38382
1020.574	-3.33665
1020.74	24.06077
1020.907	7.20034
1021.073	21.95313
1021.24	-3.33665
1021.406	62.00222
1021.573	66.2184
1021.739	74.65103
1021.906	21.95313
1022.072	13.52282
1022.239	-28.62294
1022.405	30.38382
1022.571	13.52282
1022.738	30.38382
1022.904	190.63523
1023.07	83.08402
1023.237	36.70708
1023.403	-9.65855
1023.569	-3.33665
1023.735	40.92271
1023.902	-43.37164
1024.068	64.1103
1024.234	38.81488
1024.4	-26.51589
1024.566	-3.33665
1024.732	51.46218
1024.898	11.4153
1025.065	64.1103
1025.231	-1.2293
1025.397	13.52282
1025.563	-20.19457
1025.729	43.03055
1025.895	49.35423
1026.061	38.81488
1026.227	-26.51589
1026.392	-49.69214
1026.558	-1.2293
1026.724	-32.83698
1026.89	17.73793
1027.056	47.24632
1027.222	24.06077
1027.388	-53.90568
1027.553	32.49155
1027.719	-3.33665
1027.885	17.73793
1028.051	57.78613
1028.216	47.24632
1028.382	28.27611
1028.548	24.06077
1028.713	-3.33665
1028.879	-26.51589
1029.045	21.95313
1029.21	-41.26476
1029.376	64.1103
1029.541	-24.40881
1029.707	57.78613
1029.873	-64.43909
1030.038	30.38382
1030.204	7.20034
1030.369	5.09289
1030.534	5.09289
1030.7	24.06077
1030.865	26.16843
1031.031	38.81488
1031.196	13.52282
1031.361	-20.19457
1031.527	0.87808
1031.692	-49.69214
1031.857	47.24632
1032.023	38.81488
1032.188	-45.4785
1032.353	55.67812
1032.518	17.73793
1032.684	-26.51589
1032.849	24.06077
1033.014	-1.2293
1033.179	9.30781
1033.344	38.81488
1033.509	51.46218
1033.674	-7.55127
1033.839	-45.4785
1034.004	108.38515
1034.17	-62.33245
1034.335	-28.62294
1034.5	-3.33665
1034.664	-28.62294
1034.829	-62.33245
1034.994	21.95313
1035.159	-28.62294
1035.324	21.95313
1035.489	49.35423
1035.654	-37.05092
1035.819	-15.98024
1035.984	59.89417
1036.148	28.27611
1036.313	17.73793
1036.478	21.95313
1036.643	-34.94396
1036.807	-24.40881
1036.972	-28.62294
1037.137	21.95313
1037.301	43.03055
1037.466	57.78613
1037.631	-79.18478
1037.795	7.20034
1037.96	57.78613
1038.124	-15.98024
1038.289	0.87808
1038.454	45.13842
1038.618	21.95313
1038.783	13.52282
1038.947	62.00222
1039.111	-18.08741
1039.276	-11.7658
1039.44	-79.18478
1039.605	-43.37164
1039.769	-28.62294
1039.933	-28.62294
1040.098	40.92271
1040.262	24.06077
1040.426	-7.55127
1040.591	57.78613
1040.755	17.73793
1040.919	7.20034
1041.083	68.32652
1041.248	74.65103
1041.412	-1.2293
1041.576	-28.62294
1041.74	80.97574
1041.904	13.52282
1042.068	-7.55127
1042.232	99.95108
1042.397	7.20034
1042.561	62.00222
1042.725	21.95313
1042.889	5.09289
1043.053	-41.26476
1043.217	24.06077
1043.381	-53.90568
1043.544	2.98547
1043.708	43.03055
1043.872	13.52282
1044.036	11.4153
1044.2	55.67812
1044.364	9.30781
1044.528	55.67812
1044.691	15.63036
1044.855	76.75925
1045.019	24.06077
1045.183	-1.2293
1045.346	5.09289
1045.51	64.1103
1045.674	30.38382
1045.837	72.54284
1046.001	2.98547
1046.165	21.95313
1046.328	-11.7658
1046.492	51.46218
1046.655	0.87808
1046.819	-121.30834
1046.983	32.49155
1047.146	38.81488
1047.31	-1.2293
1047.473	7.20034
1047.636	-3.33665
1047.8	80.97574
1047.963	-37.05092
1048.127	30.38382
1048.29	55.67812
