Data from mixed_try1_USB4F045381__43__00147.txt Node

Date: Thu Apr 03 20:06:10 EDT 2025
User: mmckonesweet
Spectrometer: USB4F04538
Trigger mode: 4
Integration Time (sec): 2.700000E-3
Scans to average: 1
Electric dark correction enabled: true
Nonlinearity correction enabled: true
Boxcar width: 0
XAxis mode: Wavelengths
Number of Pixels in Spectrum: 3648
>>>>>Begin Spectral Data<<<<<
345.52	11.06405
345.736	11.06405
345.952	11.06405
346.168	-37.40208
346.384	-24.75999
346.6	23.70949
346.816	-22.65289
347.032	27.92483
347.248	57.4348
347.464	-10.00976
347.68	-39.50901
347.896	36.35578
348.112	-5.79519
348.328	-45.82964
348.544	-45.82964
348.76	38.46358
348.975	-14.22423
349.191	-35.29512
349.407	-31.08114
349.623	61.65088
349.839	4.74166
350.055	-47.93647
350.27	15.2791
350.486	110.14229
350.702	-52.15005
350.918	19.49425
351.133	-20.54576
351.349	6.8491
351.565	40.5714
351.781	2.63424
351.996	27.92483
352.212	27.92483
352.428	91.16598
352.644	61.65088
352.859	-31.08114
353.075	-45.82964
353.291	2.63424
353.506	23.70949
353.722	32.14026
353.938	-28.97412
354.153	15.2791
354.369	-47.93647
354.584	-1.58052
354.8	36.35578
355.016	11.06405
355.231	40.5714
355.447	61.65088
355.662	-14.22423
355.878	-35.29512
356.093	-22.65289
356.309	27.92483
356.524	-39.50901
356.74	-31.08114
356.955	38.46358
357.171	91.16598
357.386	2.63424
357.602	27.92483
357.817	19.49425
358.033	2.63424
358.248	93.27437
358.464	-18.43861
358.679	-26.86706
358.895	-22.65289
359.11	30.03253
359.325	2.63424
359.541	19.49425
359.756	21.60186
359.972	8.95656
360.187	-43.72279
360.402	-60.57691
360.618	19.49425
360.833	-28.97412
361.048	11.06405
361.264	13.17157
361.479	-26.86706
361.694	34.24801
361.909	11.06405
362.125	23.70949
362.34	-43.72279
362.555	23.70949
362.77	-90.0677
362.986	-14.22423
363.201	8.95656
363.416	27.92483
363.631	-31.08114
363.847	46.895
364.062	30.03253
364.277	27.92483
364.492	-3.68787
364.707	19.49425
364.922	-12.11701
365.138	-1.58052
365.353	-22.65289
365.568	-20.54576
365.783	55.32679
365.998	-62.68356
366.213	19.49425
366.428	11.06405
366.643	6.8491
366.858	63.75895
367.073	21.60186
367.288	-39.50901
367.503	11.06405
367.718	8.95656
367.933	-14.22423
368.148	82.73264
368.363	57.4348
368.578	-3.68787
368.793	40.5714
369.008	13.17157
369.223	36.35578
369.438	-24.75999
369.653	23.70949
369.868	-14.22423
370.083	13.17157
370.298	-60.57691
370.513	-31.08114
370.728	-14.22423
370.943	-5.79519
371.157	17.38667
371.372	38.46358
371.587	-14.22423
371.802	-3.68787
372.017	55.32679
372.232	13.17157
372.446	-5.79519
372.661	21.60186
372.876	-45.82964
373.091	-43.72279
373.306	61.65088
373.52	-31.08114
373.735	19.49425
373.95	-3.68787
374.165	-31.08114
374.379	15.2791
374.594	21.60186
374.809	-5.79519
375.023	4.74166
375.238	171.30008
375.453	15.2791
375.667	63.75895
375.882	2.63424
376.097	63.75895
376.311	-90.0677
376.526	15.2791
376.741	-20.54576
376.955	49.00291
377.17	-28.97412
377.384	2.63424
377.599	-1.58052
377.813	27.92483
378.028	34.24801
378.242	36.35578
378.457	-5.79519
378.672	-5.79519
378.886	61.65088
379.101	13.17157
379.315	27.92483
379.53	-1.58052
379.744	55.32679
379.958	34.24801
380.173	-52.15005
380.387	89.05761
380.602	-10.00976
380.816	40.5714
381.031	49.00291
381.245	-41.61591
381.459	36.35578
381.674	11.06405
381.888	-14.22423
382.103	-14.22423
382.317	-28.97412
382.531	19.49425
382.746	2.63424
382.96	13.17157
383.174	46.895
383.388	36.35578
383.603	19.49425
383.817	86.94927
384.031	19.49425
384.246	72.19148
384.46	46.895
384.674	-52.15005
384.888	27.92483
385.103	-14.22423
385.317	78.51611
385.531	-5.79519
385.745	2.63424
385.959	-43.72279
386.174	51.11085
386.388	36.35578
386.602	15.2791
386.816	-5.79519
387.03	-14.22423
387.244	36.35578
387.458	11.06405
387.672	46.895
387.887	65.86705
388.101	23.70949
388.315	36.35578
388.529	-47.93647
388.743	23.70949
388.957	23.70949
389.171	-71.10991
389.385	-18.43861
389.599	-56.36353
389.813	-1.58052
390.027	2.63424
390.241	40.5714
390.455	6.8491
390.669	-1.58052
390.883	11.06405
391.097	15.2791
391.311	-28.97412
391.525	13.17157
391.738	-37.40208
391.952	-35.29512
392.166	19.49425
392.38	11.06405
392.594	36.35578
392.808	-26.86706
393.022	44.78711
393.236	70.08331
393.449	-20.54576
393.663	61.65088
393.877	-39.50901
394.091	70.08331
394.305	49.00291
394.518	-5.79519
394.732	57.4348
394.946	-1.58052
395.16	-14.22423
395.373	-24.75999
395.587	32.14026
395.801	30.03253
396.015	-26.86706
396.228	11.06405
396.442	21.60186
396.656	17.38667
396.869	89.05761
397.083	-18.43861
397.297	95.38278
397.51	4.74166
397.724	-31.08114
397.938	30.03253
398.151	-37.40208
398.365	27.92483
398.578	27.92483
398.792	17.38667
399.005	-37.40208
399.219	59.54283
399.433	-22.65289
399.646	-1.58052
399.86	-41.61591
400.073	57.4348
400.287	27.92483
400.5	8.95656
400.714	53.21881
400.927	30.03253
401.141	116.46812
401.354	-37.40208
401.567	-60.57691
401.781	6.8491
401.994	-14.22423
402.208	51.11085
402.421	19.49425
402.635	-58.47023
402.848	-5.79519
403.061	21.60186
403.275	11.06405
403.488	-10.00976
403.701	2.63424
403.915	17.38667
404.128	63.75895
404.341	67.97517
404.555	-22.65289
404.768	34.24801
404.981	-20.54576
405.195	-5.79519
405.408	30.03253
405.621	70.08331
405.834	13.17157
406.048	82.73264
406.261	-5.79519
406.474	32.14026
406.687	34.24801
406.9	55.32679
407.114	27.92483
407.327	-41.61591
407.54	-14.22423
407.753	-26.86706
407.966	59.54283
408.179	23.70949
408.392	-31.08114
408.605	25.81715
408.819	-10.00976
409.032	11.06405
409.245	-39.50901
409.458	-64.79019
409.671	120.68545
409.884	15.2791
410.097	78.51611
410.31	82.73264
410.523	25.81715
410.736	23.70949
410.949	46.895
411.162	46.895
411.375	27.92483
411.588	2.63424
411.801	-1.58052
412.014	80.62436
412.227	-56.36353
412.44	-1.58052
412.653	84.84094
412.865	-10.00976
413.078	53.21881
413.291	-20.54576
413.504	-28.97412
413.717	116.46812
413.93	-22.65289
414.143	44.78711
414.356	11.06405
414.568	36.35578
414.781	49.00291
414.994	0.52684
415.207	57.4348
415.42	11.06405
415.632	2.63424
415.845	-28.97412
416.058	84.84094
416.271	-31.08114
416.483	19.49425
416.696	89.05761
416.909	21.60186
417.121	-12.11701
417.334	61.65088
417.547	59.54283
417.759	-14.22423
417.972	53.21881
418.185	-77.42941
418.397	19.49425
418.61	44.78711
418.823	55.32679
419.035	44.78711
419.248	55.32679
419.46	-35.29512
419.673	53.21881
419.885	89.05761
420.098	36.35578
420.311	42.67924
420.523	38.46358
420.736	53.21881
420.948	53.21881
421.161	53.21881
421.373	82.73264
421.586	-12.11701
421.798	61.65088
422.01	-10.00976
422.223	-12.11701
422.435	42.67924
422.648	27.92483
422.86	76.40788
423.073	103.81665
423.285	97.49122
423.497	70.08331
423.71	4.74166
423.922	61.65088
424.134	86.94927
424.347	108.03372
424.559	38.46358
424.771	82.73264
424.984	23.70949
425.196	-22.65289
425.408	89.05761
425.621	15.2791
425.833	53.21881
426.045	-3.68787
426.257	89.05761
426.47	-3.68787
426.682	-12.11701
426.894	19.49425
427.106	-31.08114
427.318	57.4348
427.531	-16.33143
427.743	82.73264
427.955	11.06405
428.167	-39.50901
428.379	55.32679
428.591	49.00291
428.804	2.63424
429.016	38.46358
429.228	11.06405
429.44	27.92483
429.652	-14.22423
429.864	40.5714
430.076	36.35578
430.288	93.27437
430.5	-20.54576
430.712	61.65088
430.924	23.70949
431.136	19.49425
431.348	53.21881
431.56	76.40788
431.772	6.8491
431.984	93.27437
432.196	-1.58052
432.408	120.68545
432.62	11.06405
432.832	19.49425
433.044	61.65088
433.256	36.35578
433.468	63.75895
433.679	30.03253
433.891	13.17157
434.103	27.92483
434.315	6.8491
434.527	61.65088
434.739	53.21881
434.95	74.29967
435.162	-10.00976
435.374	-39.50901
435.586	2.63424
435.798	27.92483
436.009	59.54283
436.221	-14.22423
436.433	63.75895
436.645	34.24801
436.856	97.49122
437.068	70.08331
437.28	63.75895
437.491	38.46358
437.703	27.92483
437.915	40.5714
438.126	89.05761
438.338	19.49425
438.55	78.51611
438.761	61.65088
438.973	49.00291
439.184	55.32679
439.396	27.92483
439.608	74.29967
439.819	49.00291
440.031	86.94927
440.242	30.03253
440.454	63.75895
440.665	59.54283
440.877	44.78711
441.088	89.05761
441.3	63.75895
441.511	55.32679
441.723	57.4348
441.934	51.11085
442.146	95.38278
442.357	86.94927
442.569	95.38278
442.78	65.86705
442.991	65.86705
443.203	86.94927
443.414	44.78711
443.626	61.65088
443.837	65.86705
444.048	82.73264
444.26	78.51611
444.471	44.78711
444.682	105.92518
444.894	30.03253
445.105	91.16598
445.316	44.78711
445.528	27.92483
445.739	133.33796
445.95	122.79415
446.161	72.19148
446.373	72.19148
446.584	63.75895
446.795	80.62436
447.006	103.81665
447.217	70.08331
447.429	116.46812
447.64	67.97517
447.851	131.22915
448.062	188.1743
448.273	103.81665
448.484	137.55563
448.695	2.63424
448.907	112.25088
449.118	110.14229
449.329	112.25088
449.54	78.51611
449.751	131.22915
449.962	133.33796
450.173	139.6645
450.384	154.42718
450.595	116.46812
450.806	19.49425
451.017	84.84094
451.228	158.64528
451.439	61.65088
451.65	120.68545
451.861	55.32679
452.072	103.81665
452.283	137.55563
452.494	112.25088
452.705	114.35949
452.915	158.64528
453.126	122.79415
453.337	95.38278
453.548	139.6645
453.759	158.64528
453.97	133.33796
454.181	156.53622
454.391	156.53622
454.602	209.26891
454.813	183.95562
455.024	80.62436
455.235	116.46812
455.445	143.8823
455.656	175.51851
455.867	101.70815
456.078	70.08331
456.288	95.38278
456.499	173.40929
456.71	51.11085
456.921	145.99124
457.131	152.31817
457.342	192.39306
457.553	158.64528
457.763	183.95562
457.974	183.95562
458.184	209.26891
458.395	272.56455
458.606	186.06495
458.816	179.73703
459.027	164.97259
459.237	205.04983
459.448	145.99124
459.659	112.25088
459.869	251.46407
460.08	236.69488
460.29	232.47528
460.501	192.39306
460.711	255.68401
460.922	175.51851
461.132	224.03632
461.343	224.03632
461.553	175.51851
461.764	264.12413
461.974	215.59768
462.184	251.46407
462.395	306.32919
462.605	245.1343
462.816	228.25576
463.026	257.79401
463.236	268.3443
463.447	299.99796
463.657	240.91455
463.867	302.10835
464.078	274.6747
464.288	352.76311
464.498	331.65572
464.709	295.77723
464.919	285.22573
465.129	321.10269
465.339	365.42837
465.55	392.87187
465.76	342.2092
465.97	335.87706
466.18	331.65572
466.391	458.32515
466.601	418.2068
466.811	449.87871
467.021	382.31634
467.231	426.6523
467.441	407.65029
467.651	515.34488
467.862	519.56899
468.072	568.15026
468.282	509.00883
468.492	601.95012
468.702	618.85129
468.912	642.09171
469.122	627.30218
469.332	623.07671
469.542	637.86606
469.752	639.97888
469.962	756.20138
470.172	694.9162
470.382	654.76892
470.592	857.65739
470.802	713.93477
471.012	849.20191
471.222	885.13862
471.432	992.96219
471.642	849.20191
471.852	973.93315
472.062	1007.76292
472.272	1069.08335
472.482	937.99093
472.691	1105.03195
472.901	1045.82331
473.111	1079.65631
473.321	1083.88554
473.531	1143.09668
473.741	1160.01479
473.95	1303.82752
474.16	1193.85176
474.37	1269.98806
474.58	1371.50784
474.79	1502.64077
474.999	1392.65821
475.209	1360.9327
475.419	1508.9859
475.628	1684.52939
475.838	1494.18059
476.048	1599.9317
476.258	1697.21869
476.467	1783.92563
476.677	1815.64606
476.886	1938.28829
477.096	1929.83078
477.306	2060.911
477.515	1845.2509
477.725	2035.54261
477.935	2120.09989
478.144	2101.07553
478.354	1862.16753
478.563	2194.07743
478.773	2242.68566
478.982	2348.33909
479.192	2303.96753
479.401	2377.91771
479.611	2339.8877
479.82	2394.81888
480.03	2515.21998
480.239	2791.78533
480.449	2510.99599
480.658	2804.44711
480.868	2711.58275
481.077	2878.29753
481.287	2749.57585
481.496	3002.74824
481.705	2969.00399
481.915	3200.91524
482.124	3002.74824
482.333	3245.16708
482.543	3038.59723
482.752	3129.25404
482.961	3221.98846
483.171	3451.57608
483.38	3299.94482
483.589	3398.93665
483.799	3476.83903
484.008	3651.50212
484.217	3495.78453
484.426	3695.67351
484.636	3794.5025
484.845	3977.32617
485.054	3687.26056
485.263	4157.89683
485.472	3746.14474
485.682	3907.99713
485.891	3905.8959
486.1	4172.58765
486.309	4122.21482
486.518	4118.01654
486.727	4180.98194
486.936	4438.93934
487.146	4311.04997
487.355	4575.12515
487.564	4290.07682
487.773	4529.04195
487.982	4399.11363
488.191	4660.97871
488.4	4700.75172
488.609	4799.10258
488.818	4771.90415
489.027	4671.44608
489.236	4868.12745
489.445	5189.91253
489.654	5004.01262
489.863	4951.76059
490.072	4978.93344
490.281	5169.03408
490.49	5254.62093
490.698	5185.73703
490.907	5315.13426
491.116	5659.05841
491.325	5354.77025
491.534	5656.97595
491.743	5594.49126
491.952	5536.15307
492.16	5431.93181
492.369	5696.5386
492.578	5811.01406
492.787	5904.62269
492.996	5644.48071
493.204	6018.96838
493.413	5964.92294
493.622	6097.92923
493.831	5777.71947
494.039	6187.23871
494.248	5910.86156
494.457	5919.17974
494.665	6120.77997
494.874	6274.42935
495.083	6166.47294
495.291	6386.47095
495.5	6440.39264
495.709	6475.64064
495.917	6392.69349
496.126	6573.05608
496.335	6548.18891
496.543	6403.06392
496.752	6593.77617
496.96	6780.15343
497.169	6467.3476
497.377	6691.12973
497.586	6649.7089
497.794	7022.16761
498.003	6848.44529
498.211	6885.68495
498.42	6931.1901
498.628	7220.51345
498.837	6831.89197
499.045	7268.00342
499.254	6844.30709
499.462	7024.23478
499.671	7334.05706
499.879	7226.70846
500.087	7137.89431
500.296	7608.35389
500.504	7408.34061
500.713	7369.13893
500.921	7517.65131
501.129	7593.9267
501.338	7253.55119
501.546	7692.83506
501.754	7501.15547
501.962	7641.32639
502.171	7682.53439
502.379	7754.62806
502.587	7618.65838
502.795	7925.49075
503.004	7589.80445
503.212	7978.98474
503.42	8036.57821
503.628	7888.44831
503.837	7892.56447
504.045	8053.03057
504.253	8205.15382
504.461	8353.06137
504.669	8223.64784
504.877	8447.50499
505.085	8225.70263
505.294	8334.57848
505.502	8143.49544
505.71	8468.03083
505.918	8287.33724
506.126	8488.55475
506.334	8135.27297
506.542	8734.6949
506.75	8293.49973
506.958	8486.50245
507.166	8406.44756
507.374	8728.54465
507.582	8390.02244
507.79	8779.79163
507.998	8712.1432
508.206	8951.89865
508.414	8597.29988
508.622	8775.69229
508.83	8753.14463
509.037	8857.66527
509.245	8902.73812
509.453	8949.8505
509.661	9046.09459
509.869	9236.42232
510.077	8874.0564
510.285	9136.16057
510.492	8968.28322
510.7	9355.04736
510.908	9062.47271
511.116	9187.31962
511.324	9136.16057
511.531	9312.10337
511.739	9291.65128
511.947	9350.95777
512.155	9218.00995
512.362	9479.74849
512.57	9160.71825
512.778	9457.26586
512.985	9489.96723
513.193	9508.35994
513.401	9420.47188
513.608	9620.73195
513.816	9555.35769
514.024	9430.69296
514.231	9569.65968
514.439	9677.92132
514.646	9534.92492
514.854	9951.44846
515.061	9745.30757
515.269	9849.41747
515.477	9747.34932
515.684	10067.71952
515.892	9782.05671
516.099	10004.49017
516.307	9882.07139
516.514	9851.45845
516.722	9841.2534
516.929	10110.54457
517.136	9975.93046
517.344	9961.64955
517.551	10135.01324
517.759	10177.8286
517.966	10353.1049
518.173	10173.75121
518.381	10344.95471
518.588	10216.56107
518.796	10081.99523
519.003	10511.99174
519.21	10410.15029
519.418	10277.70756
519.625	10355.14241
519.832	10648.40965
520.039	10373.47943
520.247	10518.10121
520.454	10463.11186
520.661	10917.01426
520.868	10597.51399
521.076	10786.80742
521.283	10742.03775
521.49	10735.93234
521.697	10691.15609
521.904	11083.7739
522.112	10880.39837
522.319	11219.97448
522.526	10994.30241
522.733	11165.0934
522.94	11016.67228
523.147	10874.29536
523.354	11167.12617
523.561	11406.92052
523.768	11404.88896
523.975	11410.98363
524.183	11010.57154
524.39	11191.51858
524.597	11392.69935
524.804	11488.17525
525.011	11447.54982
525.218	11614.09006
525.425	11770.41939
525.632	11484.11288
525.838	11549.10626
526.045	11605.9676
526.252	11589.72224
526.459	11557.22975
526.666	11729.81941
526.873	11910.46303
527.08	11510.51761
527.287	11914.52168
527.494	11679.06451
527.701	12060.61135
527.907	12003.8036
528.114	12149.86842
528.321	11681.09481
528.528	12180.29363
528.735	12032.20824
528.941	12056.55385
529.148	11719.66888
529.355	12190.43499
529.562	12113.35594
529.768	12271.55935
529.975	11951.04799
530.182	12279.67115
530.388	12078.86968
530.595	12401.33478
530.802	11949.01882
531.008	12322.25626
531.215	12600.00047
531.422	12618.24222
531.628	12441.88387
531.835	12729.70905
532.042	12693.23097
532.248	12370.9212
532.455	12437.82908
532.661	12800.63331
532.868	12597.97357
533.074	12683.09784
533.281	12652.69753
533.487	13017.41752
533.694	12796.58069
533.9	13088.31553
534.107	13005.26297
534.313	13250.34648
534.52	12942.46156
534.726	13104.51996
534.933	13074.13641
535.139	13009.31451
535.345	13076.16201
535.552	13323.25115
535.758	13173.38542
535.965	13523.71196
536.171	13345.5265
536.377	13327.30125
536.584	13576.35211
536.79	13357.67647
536.996	13375.90116
537.203	13264.52282
537.409	13313.12583
537.615	13600.64676
537.821	13359.70145
538.028	13578.37669
538.234	13592.5486
538.44	13570.27837
538.646	13665.4301
538.853	13786.88993
539.059	13641.13675
539.265	13896.19458
539.471	13762.59886
539.677	14248.34842
539.883	14041.92193
540.09	14157.28062
540.296	14070.25632
540.502	14203.82689
540.708	14047.99362
540.914	14230.13518
541.12	14080.37564
541.326	14424.40232
541.532	14452.7317
541.738	14390.00197
541.944	14248.34842
542.15	14499.27221
542.356	14479.0373
542.562	14400.11977
542.768	14173.47075
542.974	14343.45959
543.18	14438.56705
543.386	14717.80168
543.592	14410.23753
543.798	14946.43738
544.004	14598.42145
544.21	14849.31878
544.415	14655.07691
544.621	14754.22212
544.827	14590.32774
545.033	15009.15927
545.239	14997.01958
545.445	15233.74261
545.651	14978.81001
545.856	15330.85992
546.062	15118.41616
546.268	15035.46191
546.474	15059.74123
546.679	14847.29546
546.885	15199.34699
547.091	15268.13827
547.297	15128.53251
547.502	15288.37103
547.708	15148.76522
547.914	15041.53175
548.119	15219.5797
548.325	15312.65038
548.531	15357.16262
548.736	15413.81482
548.942	15359.18591
549.147	15371.32564
549.353	15241.8357
549.559	15925.73314
549.764	15391.55856
549.97	15521.05038
550.175	15502.84045
550.381	15881.21596
550.586	15559.49372
550.792	15852.88716
550.997	15660.66168
551.203	16192.85045
551.408	15875.14549
551.614	15828.60552
551.819	15604.00738
552.025	15915.61554
552.23	15539.26035
552.435	16026.91091
552.641	16200.94534
552.846	16229.27767
553.052	16336.5389
553.257	16399.27904
553.462	16366.8968
553.668	16083.57202
553.873	16445.82938
554.078	16423.56604
554.283	16285.94335
554.489	16532.8612
554.694	16715.03387
554.899	16668.47688
555.105	16346.65816
555.31	16565.24613
555.515	16591.5593
555.72	16830.41968
555.925	16431.66178
556.131	16879.00559
556.336	16516.66894
556.541	16779.81089
556.746	16765.64071
556.951	16617.87284
557.156	16733.25216
557.361	17026.79688
557.567	16909.37252
557.772	16941.76456
557.977	16881.03003
558.182	17113.85875
558.387	16601.67985
558.592	17030.84616
558.797	17081.46304
559.002	17034.89545
559.207	16832.44407
559.412	17156.37921
559.617	16919.49496
559.822	17101.71027
560.027	16893.17675
560.232	17065.26545
560.437	17243.44885
560.642	17253.57358
560.847	17018.69836
561.051	17300.14827
561.256	17188.77659
561.461	17656.59988
561.666	17265.72334
561.871	17668.75339
562.076	17182.70202
562.281	17508.7416
562.485	17188.77659
562.69	17557.35064
562.895	17304.19831
563.1	17553.29982
563.305	17488.48837
563.509	17691.03513
563.714	17435.83146
563.919	17518.86833
564.123	17589.7577
564.328	17723.44566
564.533	17652.54874
564.737	17470.26074
564.942	17549.24901
565.147	17934.13528
565.351	17328.49885
565.556	17389.2521
565.761	17458.10913
565.965	17533.04589
566.17	17796.37249
566.374	17903.74505
566.579	17800.42411
566.784	17701.16333
566.988	17776.1146
567.193	17897.6671
567.397	17701.16333
567.602	18323.20148
567.806	18055.70413
568.011	18371.8443
568.215	18365.76383
568.42	18219.84263
568.624	18227.94886
568.828	18402.24717
569.033	17800.42411
569.237	18402.24717
569.442	18300.90757
569.646	18201.60384
569.85	18394.13965
570.055	18384.00534
570.259	18373.87113
570.463	18611.03675
570.668	18323.20148
570.872	18238.08173
571.076	18489.40679
571.281	18355.62978
571.485	18402.24717
571.689	18459.00147
571.893	18657.66527
572.098	18647.52846
572.302	18675.91178
572.506	18560.35591
572.71	18497.51503
572.914	18779.31467
573.119	18609.00947
573.323	18779.31467
573.527	18862.44995
573.731	19316.77226
573.935	18803.64625
574.139	18933.42441
574.343	18773.23186
574.547	19022.65643
574.751	18783.36989
574.955	18580.62795
575.159	18540.08425
575.364	19128.12257
575.568	18830.00612
575.772	18838.11698
575.976	18677.93919
576.18	18724.57068
576.383	19233.59974
576.587	19040.9094
576.791	18878.67225
576.995	18973.98345
577.199	19113.92456
577.403	19166.66102
577.607	19357.34673
577.811	19377.63459
578.015	19046.99379
578.219	19414.15378
578.422	19079.44452
578.626	19292.42836
578.83	19280.25664
579.034	19367.49061
579.238	19122.03768
579.442	19363.43305
579.645	19521.69031
579.849	19513.57394
580.053	19511.54486
580.257	19314.74358
580.46	19761.15335
580.664	19548.06898
580.868	19268.08506
581.071	19763.18295
581.275	19462.84812
581.479	19911.35485
581.682	19659.67885
581.886	20010.82527
582.09	19958.04379
582.293	20201.67433
582.497	19842.3405
582.7	20193.55234
582.904	20325.54308
583.107	19986.46423
583.311	20087.97254
583.515	20331.63538
583.718	19820.01336
583.922	19972.25391
584.125	20268.68335
584.329	20112.3361
584.532	20416.93167
584.735	20404.74603
584.939	19998.64467
585.142	20268.68335
585.346	20167.15632
585.549	20087.97254
585.753	20477.86212
585.956	20620.0478
586.159	20475.83104
586.363	20685.05378
586.566	20299.14351
586.769	20252.43832
586.973	20260.5608
587.176	20670.83336
587.379	20441.3034
587.582	20886.19295
587.786	20439.2724
587.989	20802.88796
588.192	20425.05551
588.395	20839.46003
588.599	20634.26749
588.802	20546.92118
589.005	20575.35866
589.208	21032.5014
589.411	21101.59889
589.615	20884.16104
589.818	21046.72697
590.021	20912.60818
590.224	20674.89631
590.427	21138.18182
590.63	21016.24385
590.833	21089.40487
591.036	20977.63324
591.239	21563.04608
591.442	21087.37255
591.645	21424.79353
591.848	21140.21425
592.051	21373.97001
592.254	21073.14641
592.457	21355.67416
592.66	21416.6616
592.863	21866.04536
593.066	21593.54543
593.269	21841.63954
593.472	21530.51441
593.675	21870.11305
593.878	21382.10161
594.081	21447.15666
594.284	21384.13452
594.486	22083.68822
594.689	22024.69661
594.892	21939.26613
595.095	21963.67415
595.298	21786.72848
595.5	21800.96441
595.703	22095.89378
595.906	21866.04536
596.109	21851.80856
596.311	21851.80856
596.514	22093.85951
596.717	21922.99442
596.92	22045.03819
597.122	22319.6861
597.325	22063.34593
597.528	21973.84432
597.73	22468.22735
597.933	22193.54309
598.136	22474.3322
598.338	21918.92653
598.541	21908.75687
598.743	22087.75673
598.946	21888.41784
599.148	21878.24847
599.351	21925.02837
599.554	21868.0792
599.756	22285.09709
599.959	22547.59289
600.161	22663.59839
600.363	22181.33646
600.566	22563.87367
600.768	22427.5292
600.971	22358.34566
601.173	22201.68092
601.376	22688.02206
601.578	22419.38974
601.78	22631.03429
601.983	22226.09476
602.185	22490.61195
602.388	22614.75257
602.59	22651.38675
602.792	22854.93053
602.995	22604.57661
603.197	22594.40074
603.399	22639.17523
603.601	22681.9161
603.804	22512.99698
604.006	22545.5578
604.208	22435.66871
604.41	22702.26944
604.613	23115.51628
604.815	22602.54143
605.017	23152.16552
605.219	22494.68192
605.421	22802.00582
605.623	22496.71692
605.826	22885.46507
606.028	22549.62797
606.23	22952.64374
606.432	23103.30011
606.634	22979.10907
606.836	22543.52273
607.038	22930.25044
607.24	22529.27728
607.442	22582.18982
607.644	22775.54434
607.846	22938.39341
608.048	22928.2147
608.25	22852.89492
608.452	23048.32878
608.654	23184.74352
608.856	22659.52783
609.058	22997.43156
609.26	23205.10518
609.462	23433.17777
609.664	23433.17777
609.866	23056.47253
610.067	22993.35987
610.269	23215.28614
610.471	23410.77603
610.673	23188.81582
610.875	23123.66047
611.077	23027.96964
611.278	22822.3612
611.48	22938.39341
611.682	23139.94899
611.884	23644.99459
612.085	23107.37215
612.287	23496.312
612.489	23280.44617
612.69	23380.2288
612.892	22907.85755
613.094	23628.69982
613.295	23156.23773
613.497	23447.43363
613.699	23235.64829
613.9	23846.65819
614.102	23673.51091
614.304	23302.84569
614.505	22913.96466
614.707	23384.30173
614.908	23374.11944
615.11	23579.81666
615.311	23294.70036
615.513	23315.06377
615.714	23308.95471
615.916	23681.65853
616.117	23192.88814
616.319	23626.66298
616.52	23958.7059
616.722	23702.02781
616.923	23679.62162
617.124	23742.76726
617.326	23247.86574
617.527	23496.312
617.729	23368.01011
617.93	23341.53667
618.131	23416.88556
618.333	23575.74314
618.534	23938.33294
618.735	23970.92981
618.937	23647.03145
619.138	23341.53667
619.339	23809.98993
619.54	23699.99087
619.742	23867.02985
619.943	23359.86438
620.144	23241.757
620.345	23406.70302
620.546	23439.28741
620.748	23486.12886
620.949	23746.84127
621.15	23473.90919
621.351	23581.85342
621.552	23793.69323
621.753	23624.62615
621.954	24109.47454
622.155	23184.74352
622.356	23298.77302
622.558	23596.11085
622.759	23653.14205
622.96	23557.41246
623.161	23952.59398
623.362	23950.55668
623.563	23917.96027
623.764	23427.06817
623.965	23769.24854
624.166	23985.19116
624.366	23514.64185
624.567	23500.38528
624.768	23659.25267
624.969	23343.57307
625.17	23775.35967
625.371	23655.17892
625.572	23858.88115
625.773	23559.44919
625.973	24107.43702
626.174	24034.0883
626.375	24064.64983
626.576	23767.2115
626.777	24313.2399
626.977	23807.95284
627.178	24243.95664
627.379	23649.06831
627.58	23903.69957
627.78	24089.0995
627.981	24007.60215
628.182	23889.43902
628.382	24030.01347
628.583	23850.7325
628.784	23716.28648
628.984	23365.97368
629.185	23785.54495
629.386	23628.69982
629.586	24148.18786
629.787	23818.13835
629.987	23618.51568
630.188	23885.3646
630.388	24272.48467
630.589	24058.53747
630.79	23942.40751
630.99	23895.55067
631.191	24258.22059
631.391	23783.50789
631.591	23985.19116
631.792	24046.31283
631.992	24429.3981
632.193	24394.75353
632.393	24231.73051
632.594	23936.29566
632.794	24085.02453
632.994	24009.63953
633.195	24207.27853
633.395	24215.42914
633.595	24052.42514
633.796	24260.25831
633.996	24486.46136
634.196	24170.60129
634.397	24284.71112
634.597	23848.69534
634.797	24480.34734
634.997	24315.27769
635.198	24386.60198
635.398	24038.16313
635.598	24276.56014
635.798	24394.75353
635.998	24667.85423
636.199	24168.56369
636.399	24229.69283
636.599	24223.5798
636.799	24270.44693
636.999	24286.74888
637.199	24129.84985
637.399	23881.29019
637.599	23875.1786
637.799	23742.76726
637.999	24231.73051
638.199	24266.37147
638.399	24535.37432
638.599	24184.86456
638.799	24504.80355
638.999	24402.90513
639.199	24543.52663
639.399	24484.42335
639.599	24623.0137
639.799	24462.00543
639.999	24172.63889
640.199	24294.89991
640.399	24555.75516
640.599	23651.10518
640.799	24855.38195
640.998	24582.25062
641.198	24678.04542
641.398	24669.89246
641.598	24576.13625
641.798	24525.184
641.997	24665.81599
642.197	24582.25062
642.397	24887.99753
642.597	24667.85423
642.796	24466.08139
642.996	24429.3981
643.196	24857.42041
643.395	24423.28429
643.595	24582.25062
643.795	24810.53651
643.994	25022.54311
644.194	25002.15677
644.394	24812.57492
644.593	24908.38258
644.793	25000.11815
644.992	24781.99911
645.192	25075.54865
645.392	24496.65144
645.591	25273.31334
645.791	25008.27265
645.99	24916.53666
646.19	24981.77066
646.389	25203.99141
646.589	25073.50995
646.788	24914.49814
646.987	24651.54844
647.187	25095.9358
647.386	25277.39118
647.586	25130.59447
647.785	25232.53543
647.984	25316.13107
648.184	24943.03769
648.383	25089.81963
648.582	24947.1148
648.782	25002.15677
648.981	24828.88224
649.18	24584.28875
649.38	24814.61333
649.579	24843.15126
649.778	25071.47125
649.977	25248.84649
650.177	25026.6204
650.376	25226.41882
650.575	25069.43255
650.774	25102.05199
650.973	24918.57519
651.173	24804.42132
651.372	24881.88207
651.571	24912.45962
651.77	25322.24796
651.969	25259.04097
652.168	25393.61314
652.367	25238.65206
652.566	24926.72932
652.765	25360.98874
652.964	25430.31622
653.163	25448.66802
653.362	25350.79372
653.561	25263.11878
653.76	25110.20694
653.959	24806.45971
654.158	25171.3702
654.357	24989.92508
654.556	24706.5811
654.755	25104.09072
654.954	24808.49811
655.153	25189.71956
655.352	25201.95257
655.551	25440.51164
655.749	25568.97832
655.948	25326.3259
656.147	25644.43071
656.346	25650.54859
656.545	25573.05676
656.743	25444.58983
656.942	25081.66477
657.141	25774.94927
657.34	25322.24796
657.538	25611.80232
657.737	25522.07686
657.936	25660.7451
658.135	25640.35214
658.333	25340.59876
658.532	25273.31334
658.731	25717.84643
658.929	25206.03026
659.128	25575.09598
659.326	25409.92554
659.525	26131.87491
659.724	25175.44782
659.922	25208.0691
660.121	25271.27442
660.319	24910.4211
660.518	25022.54311
660.716	25748.43705
660.915	25244.76871
661.113	25787.18579
661.312	25438.47256
661.51	25709.689
661.709	25634.23429
661.907	25681.13826
662.105	25860.60631
662.304	25817.77738
662.502	25636.27357
662.701	25962.58325
662.899	25589.37059
663.097	25823.89575
663.296	25691.33491
663.494	25656.66649
663.692	25324.28693
663.891	25599.5668
664.089	25611.80232
664.287	25513.92019
664.485	25615.88084
664.684	26011.5338
664.882	25177.48663
665.08	24955.26906
665.278	25028.65906
665.476	25644.43071
665.675	25342.63775
665.873	25248.84649
666.071	25662.78441
666.269	25214.18566
666.467	25018.46582
666.665	24981.77066
666.863	25093.89708
667.061	25322.24796
667.259	25191.75839
667.457	25583.25289
667.655	25432.3553
667.853	25825.93521
668.051	24987.88647
668.249	24996.04092
668.447	25230.49656
668.645	25059.23909
668.843	25077.58735
669.041	25279.4301
669.239	24922.65225
669.437	25222.34109
669.635	25299.81944
669.833	25265.15769
670.031	25222.34109
670.229	25409.92554
670.426	25458.86353
670.624	25597.52756
670.822	25479.25471
671.02	25648.5093
671.218	25536.3511
671.415	25489.45038
671.613	25210.10795
671.811	25297.7805
672.009	25144.86587
672.206	25352.83272
672.404	25263.11878
672.602	25234.57431
672.799	24959.34621
672.997	25322.24796
673.195	25318.17003
673.392	25201.95257
673.59	25102.05199
673.788	25187.68073
673.985	24857.42041
674.183	25271.27442
674.38	25354.87172
674.578	25377.30087
674.775	25464.98086
674.973	25108.1682
675.17	25022.54311
675.368	25089.81963
675.565	25085.7422
675.763	25022.54311
675.96	25069.43255
676.158	25116.32318
676.355	25026.6204
676.553	25677.05961
676.75	24802.38292
676.947	25613.84158
677.145	24963.42336
677.342	24979.73206
677.539	24961.38478
677.737	25018.46582
677.934	25446.62892
678.131	25267.1966
678.329	25342.63775
678.526	25442.55073
678.723	25055.16172
678.92	25491.48952
679.118	25232.53543
679.315	24959.34621
679.512	24914.49814
679.709	24839.07439
679.906	24722.88741
680.104	24957.30763
680.301	25426.23807
680.498	25191.75839
680.695	24678.04542
680.892	24620.97552
681.089	24692.3132
681.286	24885.95904
681.483	24101.32449
681.68	24590.40316
681.877	24794.22937
682.075	24673.96894
682.272	24468.11938
682.469	24729.00232
682.665	24176.7141
682.862	24162.45092
683.059	24233.76819
683.256	24301.01322
683.453	24307.12655
683.65	23930.18384
683.847	23993.34057
684.044	24131.88739
684.241	24146.15029
684.438	24912.45962
684.635	24649.51023
684.831	24586.32688
685.028	24195.05269
685.225	24288.78663
685.422	24341.76919
685.619	24315.27769
685.815	24590.40316
686.012	24726.96402
686.209	24182.82694
686.405	24160.41333
686.602	23818.13835
686.799	24036.12571
686.996	23987.22851
687.192	23993.34057
687.389	24025.93866
687.586	23830.36107
687.782	23960.74321
687.979	24142.07517
688.175	23689.80621
688.372	24101.32449
688.568	23659.25267
688.765	23962.78052
688.962	23742.76726
689.158	23885.3646
689.355	23962.78052
689.551	24290.82439
689.748	23934.25838
689.944	23724.43436
690.14	23864.99267
690.337	23893.51345
690.533	24209.31618
690.73	23869.06704
690.926	24374.37473
691.123	23581.85342
691.319	23824.2497
691.515	23704.06475
691.712	24048.35027
691.908	23909.81128
692.104	23697.95393
692.301	23518.71518
692.497	23699.99087
692.693	23958.7059
692.889	23699.99087
693.086	23604.25802
693.282	23545.19215
693.478	23695.917
693.674	23891.47623
693.87	23632.77349
694.067	23592.03728
694.263	24042.23798
694.459	23791.65616
694.655	24211.35383
694.851	24237.84356
695.047	23909.81128
695.243	24146.15029
695.439	23873.14141
695.635	23475.94579
695.831	23663.32644
696.027	23638.88403
696.224	23608.33162
696.42	23490.2021
696.615	23579.81666
696.811	23288.5914
697.007	23610.36843
697.203	23642.95773
697.399	23932.22111
697.595	23846.65819
697.791	23579.81666
697.987	23229.53961
698.183	23677.58471
698.379	23306.91837
698.575	23559.44919
698.77	23561.48593
698.966	23567.59614
699.162	23372.083
699.358	23186.77967
699.554	23046.29285
699.749	23007.61084
699.945	22787.75726
700.141	22710.41087
700.337	22970.96583
700.532	23657.2158
700.728	23111.44421
700.924	23178.63508
701.119	23117.55232
701.315	22767.40246
701.511	22718.55236
701.706	22979.10907
701.902	22930.25044
702.097	23058.50847
702.293	22787.75726
702.489	23001.50326
702.684	22810.14793
702.88	23182.70737
703.075	22903.78616
703.271	22777.57981
703.466	23129.76864
703.662	23400.59354
703.857	22958.75107
704.053	23162.34606
704.248	23044.25693
704.443	23109.40818
704.639	22962.82265
704.834	23027.96964
705.03	22852.89492
705.225	23170.49054
705.42	23341.53667
705.616	23078.86811
705.811	22596.43591
706.006	22930.25044
706.202	22600.50625
706.397	22989.2882
706.592	23091.08405
706.787	22822.3612
706.983	22745.01258
707.178	22856.96614
707.373	22537.41751
707.568	22380.72811
707.763	22140.64865
707.959	22783.68627
708.154	23196.96048
708.349	23054.43659
708.544	22761.29609
708.739	22677.84547
708.934	23030.00554
709.129	22688.02206
709.324	22767.40246
709.519	23021.86197
709.714	22759.26064
709.909	22956.71529
710.104	22433.63383
710.299	22706.34015
710.494	22700.23409
710.689	22704.30479
710.884	22610.68218
711.079	22826.43232
711.274	22061.31172
711.469	22517.06704
711.664	22624.92862
711.859	22541.48765
712.054	22651.38675
712.249	22702.26944
712.443	22179.30203
712.638	22596.43591
712.833	21955.53808
713.028	22093.85951
713.223	22057.24332
713.417	22059.27752
713.612	22325.79015
713.807	22095.89378
714.002	22539.45258
714.196	22335.96365
714.391	22118.27099
714.586	22407.18066
714.78	22531.31233
714.975	22356.31091
715.17	21733.85383
715.364	22163.02676
715.559	22040.96984
715.754	21837.57195
715.948	21916.89259
716.143	22089.79099
716.337	22390.90209
716.532	22582.18982
716.726	22069.44858
716.921	22272.88946
717.115	21959.60611
717.31	22372.58898
717.504	22427.5292
717.699	22394.97171
717.893	21723.68592
718.088	21874.18075
718.282	22000.28722
718.476	21373.97001
718.671	21573.21243
718.865	21599.6454
719.059	21634.21261
719.254	21992.15087
719.448	21382.10161
719.642	22112.16807
719.837	21841.63954
720.031	21888.41784
720.225	21632.17921
720.419	22106.06518
720.614	21162.57118
720.808	21495.95063
721.002	21132.08458
721.196	21373.97001
721.39	21099.56654
721.585	21077.211
721.779	21032.5014
721.973	21528.48122
722.167	21060.95274
722.361	20703.33748
722.555	20971.53696
722.749	20855.71471
722.943	21262.16711
723.137	21115.82543
723.331	21422.76054
723.525	21461.388
723.719	21030.46919
723.913	21585.41218
724.107	21321.11622
724.301	21687.08229
724.495	21168.66861
724.689	21109.72832
724.883	20823.20561
725.077	21239.808
725.271	21073.14641
725.465	20800.85622
725.659	20735.84266
725.853	20709.43212
726.046	20813.04674
726.24	20731.77946
726.434	20408.8079
726.628	20668.80188
726.822	20640.36171
727.015	20739.90589
727.209	20435.21041
727.403	21073.14641
727.596	20754.1273
727.79	21262.16711
727.984	21091.4372
728.177	21207.28652
728.371	20813.04674
728.565	20520.51567
728.758	20764.28557
728.952	21024.37259
729.146	20731.77946
729.339	21138.18182
729.533	21002.01872
729.726	21207.28652
729.92	21065.01728
730.113	21308.91957
730.307	21036.56583
730.5	20522.54684
730.694	20589.57772
730.887	20626.14193
731.081	20843.52367
731.274	20934.96007
731.468	20293.0514
731.661	20658.64458
731.854	20437.2414
732.048	20534.73393
732.241	20126.54846
732.435	20900.41645
732.628	20658.64458
732.821	20469.73784
733.014	20687.08528
733.208	20526.60919
733.401	20640.36171
733.594	20557.07733
733.788	20595.67166
733.981	21032.5014
734.174	20959.34451
734.367	20941.05612
734.56	20577.38995
734.754	20971.53696
734.947	20609.891
735.14	20802.88796
735.333	20804.91971
735.526	20550.98362
735.719	20090.00282
735.912	19690.1201
736.105	20163.09546
736.298	19862.63833
736.491	20236.19356
736.684	20349.91254
736.877	20398.65327
737.07	20228.07128
737.263	20315.38931
737.456	20548.9524
737.649	20256.49955
737.842	20437.2414
738.035	20746.00075
738.228	20278.83663
738.421	20764.28557
738.614	20488.01756
738.807	20542.85875
739	19669.82583
739.192	20102.18454
739.385	20217.91852
739.578	19858.57873
739.771	20516.45335
739.964	20224.01016
740.156	20502.23535
740.349	20228.07128
740.542	20244.31591
740.735	20057.51894
740.927	20201.67433
741.12	20159.03462
741.313	20185.43041
741.505	20433.17942
741.698	19797.68673
741.891	19842.3405
742.083	20372.25174
742.276	20035.18691
742.468	20018.94575
742.661	19720.56229
742.854	19909.32495
743.046	19367.49061
743.239	19714.47378
743.431	20029.09644
743.624	19661.70824
743.816	19777.39024
744.009	19909.32495
744.201	19448.64536
744.393	19558.21481
744.586	19343.14548
744.778	19619.09198
744.971	19592.71141
745.163	19781.44951
745.355	19720.56229
745.548	19430.38496
745.74	19466.90609
745.932	19872.78741
746.125	19801.74608
746.317	19984.43417
746.509	19872.78741
746.702	19728.68037
746.894	19272.14224
747.086	19073.35993
747.278	19182.88818
747.471	19111.89629
747.663	19000.34769
747.855	19264.0279
748.047	19018.60026
748.239	19158.54754
748.431	19040.9094
748.623	19487.19619
748.815	19270.11365
749.008	19314.74358
749.2	19115.95283
749.392	19663.73763
749.584	19022.65643
749.776	19517.63212
749.968	19227.51421
750.16	19286.34248
750.352	19249.82798
750.544	19286.34248
750.736	19361.40427
750.928	19253.88508
751.12	18811.75691
751.311	18890.83914
751.503	19367.49061
751.695	19008.4599
751.887	18554.27437
752.079	19073.35993
752.271	19071.33174
752.463	19298.51428
752.654	19024.68452
752.846	18935.45232
753.038	18732.68072
753.23	18937.48024
753.421	18971.95546
753.613	18939.50816
753.805	18909.08975
753.997	19140.29244
754.188	18789.45276
754.38	18426.57007
754.572	18489.40679
754.763	18651.58317
754.955	18211.73647
755.146	18483.32566
755.338	18523.8672
755.53	18574.5463
755.721	18604.95492
755.913	18489.40679
756.104	18469.13648
756.296	18495.48796
756.487	18540.08425
756.679	18698.21349
756.87	18592.79137
757.062	18491.43385
757.253	18730.6532
757.445	18748.90099
757.636	18878.67225
757.827	18694.1586
758.019	18742.81836
758.21	18878.67225
758.401	18463.05546
758.593	18606.98219
758.784	18483.32566
758.975	18270.50752
759.167	18294.8275
759.358	18288.74745
759.549	18067.86173
759.74	18000.99657
759.932	18033.41555
760.123	17901.71906
760.314	17733.57412
760.505	18029.36313
760.696	17966.55239
760.888	18142.83641
761.079	17952.36979
761.27	17986.81355
761.461	18017.20595
761.652	18197.55081
761.843	18311.04111
762.034	17889.56321
762.225	17778.14037
762.416	17926.03114
762.607	17640.39539
762.798	18193.4978
762.989	18011.1274
763.18	18088.12467
763.371	17786.2435
763.562	17551.27441
763.753	17543.17281
763.944	17749.77984
764.135	17419.62976
764.326	17624.1911
764.517	17227.24944
764.708	17612.03803
764.899	17348.74963
765.089	17261.67341
765.28	17190.80145
765.471	17221.17471
765.662	16883.05448
765.853	17016.67374
766.043	17051.09271
766.234	16951.88721
766.425	16846.61482
766.615	17296.09823
766.806	16921.51946
766.997	16941.76456
767.187	16953.91175
767.378	17063.24076
767.569	17176.62749
767.759	16891.15229
767.95	17358.87513
768.141	17445.95763
768.331	17075.38892
768.522	17063.24076
768.712	17081.46304
768.903	17067.29014
769.093	16735.27642
769.284	16783.85954
769.474	16808.15162
769.665	16919.49496
769.855	16802.07857
770.046	16883.05448
770.236	16575.36654
770.426	16680.62206
770.617	16903.29909
770.807	16783.85954
770.998	16743.37351
771.188	16686.69468
771.378	16249.51525
771.569	16251.53902
771.759	16571.31837
771.949	16405.35076
772.139	16482.26084
772.33	15925.73314
772.52	15925.73314
772.71	16087.61928
772.9	16275.82437
773.09	16350.70587
773.281	16403.32685
773.471	16352.72973
773.661	16459.99709
773.851	16148.32904
774.041	16215.11146
774.231	16334.51506
774.421	15968.22739
774.611	16020.84015
774.802	15652.56817
774.992	15895.38045
775.182	15814.4413
775.372	15674.82536
775.562	15587.82055
775.752	15741.59761
775.942	15784.0896
776.131	15782.06616
776.321	15642.4513
776.511	15668.75521
776.701	15616.14754
776.891	15854.91064
777.081	15385.48868
777.271	15717.31667
777.461	15747.66786
777.651	15933.82724
777.84	15715.29327
778.03	15474.514
778.22	15470.46738
778.41	15245.88225
778.599	15533.19035
778.789	15561.51706
778.979	15399.65174
779.169	15523.0737
779.358	15318.72022
779.548	15624.24099
779.738	15276.23137
779.927	15466.42075
780.117	15599.96067
780.307	15330.85992
780.496	15322.76679
780.686	15146.74195
780.875	14839.20218
781.065	15130.55579
781.254	15019.27568
781.444	14895.85492
781.633	14934.29762
781.823	15177.09101
782.012	15164.95139
782.202	15081.99725
782.391	15043.55502
782.581	14885.73839
782.77	15120.43943
782.96	15227.67279
783.149	14910.01804
783.338	15251.95207
783.528	15276.23137
783.717	15587.82055
783.906	15175.06774
784.096	15189.23063
784.285	14940.3675
784.474	14968.69358
784.663	14948.46067
784.853	14825.03893
785.042	14651.03012
785.231	14588.30431
785.42	14717.80168
785.61	14683.40434
785.799	14327.27073
785.988	14357.62475
786.177	14045.96973
786.366	14151.20929
786.555	14039.89803
786.744	14367.74268
786.933	14296.91631
787.122	14568.06995
787.312	14400.11977
787.501	14256.44314
787.69	14114.78089
787.879	14262.51416
788.068	14047.99362
788.257	13932.62766
788.445	13991.32364
788.634	14147.16173
788.823	14015.61101
789.012	14132.99518
789.201	14015.61101
789.39	13851.66405
789.579	13954.89191
789.768	14007.51525
789.957	14029.77848
790.145	13932.62766
790.334	14021.68279
790.523	13965.01191
790.712	13825.34992
790.9	13792.96263
791.089	13620.89193
791.278	13924.5315
791.467	13754.50174
791.655	13920.4834
791.844	13797.01108
792.033	13365.77638
792.221	13351.6015
792.41	13454.87111
792.599	13177.43617
792.787	13803.08374
792.976	13707.94233
793.164	13756.52602
793.353	13462.97026
793.541	13529.78595
793.73	13464.99504
793.918	13649.23459
794.107	13282.74924
794.295	13359.70145
794.484	13367.80134
794.672	13284.77438
794.861	13066.03394
795.049	13592.5486
795.238	13017.41752
795.426	13094.39223
795.614	13134.90245
795.803	13201.74025
795.991	12837.10597
796.179	13035.64901
796.368	13001.21142
796.556	12849.26313
796.744	12608.10797
796.932	12920.176
797.121	12597.97357
797.309	12989.05662
797.497	13219.96788
797.685	13104.51996
797.874	13059.95705
798.062	12768.21166
798.25	12604.05423
798.438	12891.81163
798.626	12654.72426
798.814	12989.05662
799.002	12806.71222
799.19	12985.00499
799.378	12458.10276
799.566	12717.5499
799.755	12474.32124
799.943	12768.21166
800.131	12829.00109
800.318	12752.00029
800.506	12802.65962
800.694	12644.59056
800.882	12697.28419
801.07	12936.38374
801.258	12541.21805
801.446	12934.35779
801.634	12533.10972
801.822	12583.78515
802.01	12843.18457
802.197	12930.30588
802.385	12737.81504
802.573	12752.00029
802.761	12814.81734
802.949	12833.05354
803.136	12725.65603
803.324	12699.31078
803.512	12346.58923
803.699	12575.67734
803.887	12685.12447
804.075	12725.65603
804.262	12800.63331
804.45	12924.22796
804.638	12654.72426
804.825	12449.99337
805.013	12233.02673
805.201	12579.73126
805.388	12492.56652
805.576	12843.18457
805.763	12768.21166
805.951	12454.04808
806.138	12379.03164
806.326	12644.59056
806.513	12383.08682
806.701	12693.23097
806.888	12421.60966
807.075	12632.42992
807.263	12490.53929
807.45	12711.47025
807.638	12800.63331
807.825	12952.59115
808.012	12449.99337
808.2	12484.45757
808.387	12711.47025
808.574	12950.56524
808.761	12685.12447
808.949	12743.89446
809.136	12445.93863
809.323	12368.89357
809.51	12597.97357
809.698	12520.94703
809.885	12721.60298
810.072	12833.05354
810.259	12841.15838
810.446	12737.81504
810.633	12480.40305
810.82	12543.24512
811.008	12638.51027
811.195	12401.33478
811.382	12257.36342
811.569	12488.51205
811.756	12368.89357
811.943	12703.36396
812.13	12695.25758
812.317	12689.17774
812.504	12685.12447
812.691	13096.41778
812.878	12717.5499
813.064	12851.2893
813.251	12826.97486
813.438	12802.65962
813.625	12496.62095
813.812	12646.61731
813.999	12320.22847
814.186	12518.91989
814.372	12277.64321
814.559	12656.75099
814.746	12474.32124
814.933	12464.18474
815.12	12356.72767
815.306	12304.00588
815.493	12200.57617
815.68	12735.78855
815.866	12184.3502
816.053	12516.89274
816.24	12074.81233
816.426	12304.00588
816.613	12042.35238
816.799	12379.03164
816.986	12149.86842
817.173	12149.86842
817.359	12184.3502
817.546	12247.22326
817.732	12143.78318
817.919	12334.42287
818.105	12078.86968
818.292	11766.35954
818.478	11898.28691
818.665	12084.95565
818.851	12210.71717
819.037	12322.25626
819.224	11737.93969
819.41	12316.17287
819.597	12133.64095
819.783	12338.47835
819.969	12034.23709
820.156	12285.75493
820.342	12157.98197
820.528	12233.02673
820.714	12022.06391
820.901	12157.98197
821.087	11806.9564
821.273	12587.83902
821.459	12058.5826
821.646	12220.85799
821.832	12233.02673
822.018	12005.83256
822.204	11441.45567
822.39	11662.82176
822.576	11752.14983
822.762	11762.29967
822.948	11547.07536
823.134	11892.19873
823.32	11654.70017
823.507	11792.74789
823.693	11882.05161
823.879	11691.24619
824.065	11526.76587
824.25	11890.16933
824.436	11636.42607
824.622	11902.34565
824.808	11713.57845
824.994	11711.54829
825.18	11758.23976
825.366	11841.46104
825.552	11796.80751
825.738	11847.54984
825.923	11561.29144
826.109	12141.75475
826.295	11461.76916
826.481	11768.38947
826.667	11762.29967
826.852	11725.75923
827.038	11697.33691
827.224	11719.66888
827.409	11587.69153
827.595	11658.76099
827.781	11390.66771
827.966	11333.77788
828.152	11443.48707
828.338	11232.16924
828.523	11388.63606
828.709	11478.01925
828.894	10896.67255
829.08	11297.2017
829.266	11461.76916
829.451	11163.06062
829.637	10984.13384
829.822	10947.52468
830.008	10615.83732
830.193	10548.64685
830.378	10752.21318
830.564	10849.88229
830.749	10774.59808
830.935	10927.18468
831.12	10835.64056
831.305	11043.10767
831.491	10933.2868
831.676	11047.17449
831.861	10748.14304
832.047	11004.4707
832.232	10868.19225
832.417	11061.40802
832.602	10943.45677
832.788	11004.4707
832.973	10947.52468
833.158	11028.87346
833.343	10646.37397
833.528	10491.62602
833.714	10980.06633
833.899	10882.43268
834.084	10900.74099
834.269	10788.84227
834.454	10662.65906
834.639	10825.46754
834.824	10841.74422
835.009	10754.24823
835.194	10558.8281
835.379	10744.07286
835.564	10516.06473
835.749	10931.25277
835.934	10786.80742
836.119	10703.36837
836.304	10436.63217
836.489	10638.23114
836.674	10705.40371
836.859	10308.27625
837.044	10530.31981
837.228	10387.74083
837.413	10312.35185
837.598	10385.70352
837.783	9980.01059
837.968	10420.33589
838.152	10026.92796
838.337	10245.09762
838.522	10075.87715
838.707	10361.25487
838.891	10114.62282
839.076	10124.8182
839.261	9967.77003
839.445	10179.86728
839.63	9824.92454
839.815	10210.44574
839.999	9945.32764
840.184	10155.40227
840.368	10051.40358
840.553	10173.75121
840.737	9716.7215
840.922	10000.41038
841.106	9653.41308
841.291	10090.15246
841.475	9794.30534
841.66	10018.76896
841.844	9998.37047
842.029	9837.17127
842.213	9720.80541
842.397	9896.35629
842.582	9455.22189
842.766	9712.63753
842.951	9287.56067
843.135	9726.93115
843.319	9581.91792
843.504	9440.91363
843.688	9432.73713
843.872	9684.04804
844.056	9716.7215
844.241	9912.68101
844.425	9592.13269
844.609	9557.40088
844.793	9643.20066
844.977	9524.70794
845.161	9457.26586
845.346	9375.49432
845.53	9353.00257
845.714	9406.1617
845.898	9332.55379
846.082	9230.28501
846.266	9070.66136
846.45	9271.19753
846.634	9095.22563
846.818	9166.85728
847.002	9095.22563
847.186	8849.46927
847.37	8896.59233
847.554	9099.31944
847.738	8976.47509
847.922	9320.28374
848.106	9434.78128
848.29	9203.68827
848.473	9119.78742
848.657	8972.37919
848.841	8933.46465
849.025	8917.07766
849.209	8855.61629
849.392	8878.154
849.576	8673.18503
849.76	8730.59475
849.944	8562.42514
850.127	8939.60947
850.311	8605.50491
850.495	8828.97802
850.678	8654.72882
850.862	8753.14463
851.046	8783.8909
851.229	8742.89496
851.413	8582.94035
851.596	8767.4934
851.78	8865.86098
851.964	9025.62036
852.147	8439.29412
852.331	8617.8119
852.514	8451.61031
852.698	8533.70069
852.881	8194.87866
853.065	8617.8119
853.248	8613.70964
853.431	8876.10521
853.615	8355.11493
853.798	8465.97833
853.982	8461.87328
854.165	8416.71264
854.348	8213.37358
854.532	8597.29988
854.715	8151.7176
854.898	8449.55766
855.081	8272.95742
855.265	8599.35116
855.448	8100.32388
855.631	8258.57663
855.814	8145.55101
855.997	8318.14792
856.181	8314.04008
856.364	8209.26374
856.547	7925.49075
856.73	8032.46492
856.913	7946.067
857.096	8090.04363
857.279	8120.88287
857.462	7822.57856
857.645	7571.25329
857.828	8042.748
858.011	7680.47419
858.194	7851.39919
858.377	7711.37495
858.56	8003.66961
858.743	7855.51609
858.926	7756.6875
859.109	7567.13058
859.292	7686.65472
859.475	7303.09721
859.658	7451.65967
859.841	7013.89873
860.023	7439.28377
860.206	7088.30574
860.389	7497.03129
860.572	7259.74513
860.755	7400.08828
860.937	7195.73143
861.12	7362.94847
861.303	7352.6306
861.486	7327.86548
861.668	7265.93888
861.851	7284.51894
862.034	7137.89431
862.216	7237.03302
862.399	6891.89084
862.581	7011.83146
862.764	7022.16761
862.947	6997.35989
863.129	6958.07437
863.312	7197.79672
863.494	6924.9855
863.677	7150.28944
863.859	6968.41345
864.042	7106.90296
864.224	6873.27255
864.406	6974.61663
864.589	7009.76416
864.771	6887.7536
864.954	6800.85056
865.136	6916.71238
865.318	6641.42363
865.501	6651.78016
865.683	6618.63724
865.865	6664.20724
866.048	6384.39672
866.23	6645.56631
866.412	6641.42363
866.594	6560.62291
866.777	6753.24375
866.959	6784.29304
867.141	6784.29304
867.323	6804.98971
867.505	6649.7089
867.687	6763.59409
867.869	6452.83388
868.052	6608.27886
868.234	6417.58154
868.416	6844.30709
868.598	6593.77617
868.78	6718.04834
868.962	6699.41279
869.144	6823.61476
869.326	6508.80909
869.508	6728.40062
869.69	6347.05667
869.872	6496.37161
870.054	6212.15454
870.236	6471.49416
870.417	6274.42935
870.599	6351.20594
870.781	6320.08415
870.963	6259.90044
871.145	5925.41812
871.327	6160.24275
871.508	5835.98103
871.69	6143.62788
871.872	5987.79026
872.054	6208.00214
872.235	6058.45305
872.417	6183.08574
872.599	6060.53095
872.78	6386.47095
872.962	6135.31988
873.144	6085.46398
873.325	6191.39158
873.507	6301.40855
873.689	6120.77997
873.87	6170.62628
874.052	5823.49797
874.233	6301.40855
874.415	6226.68721
874.596	6326.30893
874.778	6035.59454
874.959	6318.00917
875.141	6081.30871
875.322	6359.50419
875.503	6145.70482
875.685	6303.48371
875.866	6060.53095
876.048	6309.70905
876.229	6060.53095
876.41	6135.31988
876.592	6045.98512
876.773	6060.53095
876.954	5860.94461
877.136	5910.86156
877.317	6124.93435
877.498	5958.6859
877.679	5902.54301
877.86	6114.54823
878.042	6068.84234
878.223	5933.73563
878.404	5579.90844
878.585	5700.7026
878.766	5752.74457
878.947	5960.76494
879.128	5848.46324
879.309	6104.16153
879.49	6043.90705
879.672	6218.38297
879.853	6048.06317
880.034	6052.21919
880.215	5887.98464
880.396	6183.08574
880.576	5927.49753
880.757	6309.70905
880.938	5969.08084
881.119	6284.80643
881.3	6075.07563
881.481	6089.61916
881.662	6187.23871
881.843	6226.68721
882.023	6210.07835
882.204	6442.46624
882.385	5927.49753
882.566	5863.02475
882.747	5879.66506
882.927	5998.18355
883.108	5944.13199
883.289	6137.39691
883.469	5804.77178
883.65	5994.02631
883.831	6245.37039
884.011	6320.08415
884.192	6286.88178
884.373	6558.55064
884.553	5962.84395
884.734	6394.76762
884.914	5887.98464
885.095	6384.39672
885.275	6066.76453
885.456	6380.2482
885.636	6301.40855
885.817	6384.39672
885.997	6010.65473
886.178	6299.33337
886.358	5973.23866
886.538	6245.37039
886.719	6095.85174
886.899	6282.73106
887.08	5948.29037
887.26	6390.61933
887.44	5919.17974
887.621	6255.74912
887.801	6006.49776
887.981	6334.6083
888.161	5987.79026
888.342	6135.31988
888.522	6081.30871
888.702	6043.90705
888.882	6072.99789
889.062	6118.70275
889.242	6259.90044
889.423	6214.23071
889.603	6201.77336
889.783	6519.17301
889.963	6216.30685
890.143	6176.85612
890.323	5989.86896
890.503	6243.29458
890.683	6095.85174
890.863	6212.15454
891.043	5950.36952
891.223	6193.46799
891.403	5840.14186
891.583	6095.85174
891.763	5681.96388
891.943	5894.22409
892.122	5625.73626
892.302	6048.06317
892.482	5873.42512
892.662	5777.71947
892.842	5813.09477
893.022	5910.86156
893.201	5731.92955
893.381	6072.99789
893.561	5964.92294
893.741	6072.99789
893.92	6079.23104
894.1	5927.49753
894.28	5815.17545
894.459	5937.89424
894.639	5852.62379
894.819	5786.04368
894.998	5848.46324
895.178	5740.25584
895.357	5563.24095
895.537	5692.37451
895.716	5536.15307
895.896	5883.8249
896.075	5586.15836
896.255	5819.33676
896.434	5625.73626
896.614	5763.15119
896.793	5444.44147
896.973	5715.27584
897.152	5740.25584
897.331	5769.39488
897.511	5627.81907
897.69	5381.88473
897.87	5402.73933
898.049	5594.49126
898.228	5273.40303
898.407	5588.24162
898.587	5325.5656
898.766	5490.30296
898.945	5177.38574
899.124	5169.03408
899.304	5283.83672
899.483	5377.71353
899.662	5160.68204
899.841	5361.02779
900.02	5077.14124
900.199	5162.77009
900.378	4755.16476
900.557	5041.62517
900.737	4866.03616
900.916	4983.11354
901.095	4738.42391
901.274	4905.7669
901.453	4750.97968
901.632	4847.21345
901.811	4644.22975
901.989	4993.56337
902.168	4499.71069
902.347	4612.82158
902.526	4537.42151
902.705	4822.11363
902.884	4640.04228
903.063	4625.38545
903.242	4669.35265
903.42	4696.56547
903.599	4392.82463
903.778	4480.8526
903.957	4302.66097
904.135	4541.61116
904.314	4300.56367
904.493	4746.79452
904.672	4287.97939
904.85	4214.55573
905.029	4210.3593
905.207	4399.11363
905.386	4281.68696
905.565	4541.61116
905.743	4174.68625
905.922	4407.49864
906.1	4241.83042
906.279	4155.79805
906.457	3962.62186
906.636	4073.92955
906.814	3783.99083
906.993	3971.02445
907.171	3813.42229
907.35	3901.6934
907.528	3424.20497
907.707	3779.78602
907.885	3426.31054
908.063	3542.08955
908.242	3468.41833
908.42	3697.7767
908.598	3577.8646
908.777	3405.25397
908.955	3293.62489
909.133	3567.34308
909.311	3411.57113
909.49	3596.80216
909.668	3302.05142
909.846	3542.08955
910.024	3207.23738
910.202	3499.99444
910.38	3407.35971
910.559	3544.19411
910.737	3371.55978
910.915	3596.80216
911.093	3335.7548
911.271	3769.27365
911.449	3243.06001
911.627	3428.4161
911.805	3302.05142
911.983	3584.17729
912.161	3243.06001
912.339	3601.0103
912.517	3529.46179
912.695	3754.55552
912.872	3474.73388
913.05	3628.36138
913.228	3535.77575
913.406	3664.12338
913.584	3525.25239
913.762	3594.69806
913.939	3544.19411
914.117	3546.29866
914.295	3398.93665
914.473	3415.78248
914.65	3217.77395
914.828	3468.41833
915.006	3179.84037
915.184	3537.88037
915.361	3327.32937
915.539	3356.81716
915.716	3221.98846
915.894	3280.98459
916.072	3299.94482
916.249	3609.42635
916.427	3455.78675
916.604	3567.34308
916.782	3243.06001
916.959	3428.4161
917.137	3417.88813
917.314	3533.67112
917.492	3135.57784
917.669	3266.23679
917.847	3129.25404
918.024	3230.41728
918.201	2922.59942
918.379	3348.39243
918.556	3089.19997
918.733	3207.23738
918.911	3070.225
919.088	3255.70214
919.265	3023.83642
919.442	3175.6252
919.62	2770.68126
919.797	3129.25404
919.974	2791.78533
920.151	3162.9793
920.328	2960.56733
920.506	3291.51822
920.683	3108.17367
920.86	3264.1299
921.037	2701.02836
921.214	2943.69329
921.391	2665.14102
921.568	3091.30822
921.745	3032.27126
921.922	2931.03714
922.099	2726.35835
922.276	3072.33339
922.453	2751.68645
922.63	2897.28484
922.807	2732.69056
922.984	2774.90219
923.161	2589.13231
923.338	2669.36325
923.514	2445.51838
923.691	2722.13682
923.868	2654.58522
924.045	2783.34387
924.222	2458.1923
924.399	2542.67481
924.575	2225.77897
924.752	2654.58522
924.929	2356.79032
925.105	2692.58462
925.282	2439.18128
925.459	2515.21998
925.635	2409.60686
925.812	2496.21166
925.989	2219.43882
926.165	2388.48102
926.342	2251.13879
926.518	2363.12865
926.695	2158.14672
926.871	2166.60122
927.048	2177.16916
927.224	2001.71655
927.401	1843.1363
927.577	1972.11738
927.754	1864.28209
927.93	2168.71482
928.107	2082.05056
928.283	2145.46473
928.459	2082.05056
928.636	2217.32542
928.812	1881.19837
928.988	2041.8848
929.165	1925.60199
929.341	2204.64483
929.517	1912.91549
929.693	1984.80289
929.87	1790.26979
930.046	1955.20303
930.222	1659.1505
930.398	1921.37318
930.574	1627.42636
930.751	1955.20303
930.927	1813.5314
931.103	1815.64606
931.279	1542.82647
931.455	1849.48009
931.631	1777.58143
931.807	1805.07269
931.983	1669.72509
932.159	1741.63031
932.335	1589.35675
932.511	1659.1505
932.687	1261.52829
932.863	1574.55174
933.039	1327.09245
933.215	1447.64947
933.391	1312.28747
933.566	1339.7825
933.742	1246.72379
933.918	1350.35758
934.094	1149.44094
934.27	1341.89751
934.445	1033.1363
934.621	1396.8883
934.797	1050.05236
934.973	1238.26414
935.148	1054.28143
935.324	1033.1363
935.5	1069.08335
935.675	1145.21142
935.851	973.93315
936.027	942.21932
936.202	876.6827
936.378	957.01892
936.553	770.99567
936.729	859.77128
936.904	627.30218
937.08	697.02933
937.255	713.93477
937.431	747.74772
937.606	635.75326
937.782	608.28796
937.957	496.33711
938.133	673.78553
938.308	517.45693
938.483	456.21352
938.659	403.4278
938.834	451.9903
939.009	441.43252
939.185	418.2068
939.36	416.09547
939.535	418.2068
939.71	331.65572
939.886	399.20538
940.061	371.76124
940.236	407.65029
940.411	312.66058
940.586	253.57403
940.761	340.09847
940.937	281.00526
941.112	259.90403
941.287	259.90403
941.462	272.56455
941.637	264.12413
941.812	207.15936
941.987	209.26891
942.162	179.73703
942.337	310.5501
942.512	156.53622
942.687	264.12413
942.862	224.03632
943.037	202.94032
943.212	188.1743
943.386	215.59768
943.561	171.30008
943.736	190.28367
943.911	221.92663
944.086	190.28367
944.26	181.84631
944.435	167.08173
944.61	213.48807
944.785	264.12413
944.959	164.97259
945.134	238.8047
945.309	215.59768
945.483	154.42718
945.658	213.48807
945.833	224.03632
946.007	167.08173
946.182	164.97259
946.357	129.12037
946.531	245.1343
946.706	249.35413
946.88	108.03372
947.055	205.04983
947.229	139.6645
947.404	213.48807
947.578	259.90403
947.752	188.1743
947.927	190.28367
948.101	150.20917
948.276	255.68401
948.45	255.68401
948.624	230.36551
948.799	188.1743
948.973	183.95562
949.147	205.04983
949.321	276.78487
949.496	240.91455
949.67	186.06495
949.844	188.1743
950.018	192.39306
950.193	192.39306
950.367	156.53622
950.541	162.86346
950.715	266.2342
950.889	173.40929
951.063	219.81696
951.237	240.91455
951.411	289.44628
951.585	181.84631
951.759	272.56455
951.933	243.02442
952.107	196.6119
952.281	247.24421
952.455	257.79401
952.629	200.83082
952.803	283.11549
952.977	154.42718
953.151	247.24421
953.325	243.02442
953.499	196.6119
953.672	198.72135
953.846	167.08173
954.02	247.24421
954.194	268.3443
954.368	249.35413
954.541	365.42837
954.715	215.59768
954.889	183.95562
955.062	148.10019
955.236	230.36551
955.41	228.25576
955.583	281.00526
955.757	196.6119
955.93	268.3443
956.104	272.56455
956.278	255.68401
956.451	278.89506
956.625	221.92663
956.798	209.26891
956.972	297.88759
957.145	221.92663
957.319	202.94032
957.492	200.83082
957.665	259.90403
957.839	268.3443
958.012	274.6747
958.185	281.00526
958.359	226.14603
958.532	188.1743
958.705	232.47528
958.879	209.26891
959.052	272.56455
959.225	268.3443
959.398	200.83082
959.572	232.47528
959.745	272.56455
959.918	186.06495
960.091	230.36551
960.264	112.25088
960.438	207.15936
960.611	238.8047
960.784	264.12413
960.957	236.69488
961.13	158.64528
961.303	287.336
961.476	255.68401
961.649	179.73703
961.822	200.83082
961.995	196.6119
962.168	190.28367
962.341	141.77339
962.514	156.53622
962.686	232.47528
962.859	209.26891
963.032	173.40929
963.205	148.10019
963.378	207.15936
963.551	135.44678
963.723	150.20917
963.896	207.15936
964.069	215.59768
964.242	154.42718
964.414	213.48807
964.587	232.47528
964.76	173.40929
964.932	181.84631
965.105	179.73703
965.278	173.40929
965.45	221.92663
965.623	162.86346
965.795	232.47528
965.968	183.95562
966.14	188.1743
966.313	213.48807
966.485	167.08173
966.658	175.51851
966.83	190.28367
967.003	215.59768
967.175	188.1743
967.348	158.64528
967.52	183.95562
967.692	221.92663
967.865	196.6119
968.037	164.97259
968.209	221.92663
968.382	257.79401
968.554	171.30008
968.726	135.44678
968.898	175.51851
969.071	190.28367
969.243	171.30008
969.415	217.70731
969.587	122.79415
969.759	145.99124
969.932	183.95562
970.104	131.22915
970.276	120.68545
970.448	283.11549
970.62	148.10019
970.792	183.95562
970.964	131.22915
971.136	53.21881
971.308	219.81696
971.48	183.95562
971.652	196.6119
971.824	70.08331
971.996	156.53622
972.168	160.75436
972.339	133.33796
972.511	154.42718
972.683	145.99124
972.855	99.59967
973.027	188.1743
973.199	264.12413
973.37	226.14603
973.542	162.86346
973.714	70.08331
973.886	139.6645
974.057	114.35949
974.229	190.28367
974.401	148.10019
974.572	171.30008
974.744	19.49425
974.915	196.6119
975.087	84.84094
975.259	171.30008
975.43	95.38278
975.602	99.59967
975.773	112.25088
975.945	74.29967
976.116	118.57677
976.288	127.01161
976.459	53.21881
976.63	91.16598
976.802	103.81665
976.973	150.20917
977.145	108.03372
977.316	65.86705
977.487	103.81665
977.659	84.84094
977.83	91.16598
978.001	53.21881
978.172	86.94927
978.344	101.70815
978.515	63.75895
978.686	112.25088
978.857	105.92518
979.028	148.10019
979.2	46.895
979.371	171.30008
979.542	131.22915
979.713	55.32679
979.884	154.42718
980.055	46.895
980.226	30.03253
980.397	61.65088
980.568	110.14229
980.739	95.38278
980.91	133.33796
981.081	49.00291
981.252	95.38278
981.423	103.81665
981.594	99.59967
981.765	78.51611
981.936	105.92518
982.106	103.81665
982.277	74.29967
982.448	36.35578
982.619	80.62436
982.79	61.65088
982.96	99.59967
983.131	95.38278
983.302	105.92518
983.472	76.40788
983.643	53.21881
983.814	34.24801
983.984	103.81665
984.155	55.32679
984.326	36.35578
984.496	127.01161
984.667	70.08331
984.837	44.78711
985.008	97.49122
985.178	86.94927
985.349	63.75895
985.519	63.75895
985.69	55.32679
985.86	23.70949
986.031	86.94927
986.201	11.06405
986.371	89.05761
986.542	40.5714
986.712	89.05761
986.882	112.25088
987.053	49.00291
987.223	122.79415
987.393	21.60186
987.563	67.97517
987.734	120.68545
987.904	11.06405
988.074	46.895
988.244	2.63424
988.414	61.65088
988.585	97.49122
988.755	49.00291
988.925	145.99124
989.095	78.51611
989.265	91.16598
989.435	103.81665
989.605	120.68545
989.775	112.25088
989.945	91.16598
990.115	67.97517
990.285	13.17157
990.455	27.92483
990.625	61.65088
990.795	36.35578
990.965	65.86705
991.134	27.92483
991.304	38.46358
991.474	91.16598
991.644	59.54283
991.814	49.00291
991.984	19.49425
992.153	82.73264
992.323	32.14026
992.493	44.78711
992.662	40.5714
992.832	19.49425
993.002	40.5714
993.171	89.05761
993.341	105.92518
993.511	15.2791
993.68	129.12037
993.85	-43.72279
994.019	-31.08114
994.189	27.92483
994.358	86.94927
994.528	36.35578
994.697	95.38278
994.867	120.68545
995.036	25.81715
995.206	95.38278
995.375	70.08331
995.544	70.08331
995.714	-54.2568
995.883	118.57677
996.052	-7.90249
996.222	53.21881
996.391	46.895
996.56	55.32679
996.73	86.94927
996.899	11.06405
997.068	27.92483
997.237	44.78711
997.406	-37.40208
997.576	44.78711
997.745	30.03253
997.914	53.21881
998.083	8.95656
998.252	95.38278
998.421	19.49425
998.59	72.19148
998.759	61.65088
998.928	-20.54576
999.097	27.92483
999.266	11.06405
999.435	65.86705
999.604	34.24801
999.773	74.29967
999.942	-26.86706
1000.111	78.51611
1000.28	19.49425
1000.448	95.38278
1000.617	61.65088
1000.786	118.57677
1000.955	72.19148
1001.124	-16.33143
1001.292	57.4348
1001.461	2.63424
1001.63	27.92483
1001.798	82.73264
1001.967	57.4348
1002.136	72.19148
1002.304	93.27437
1002.473	-77.42941
1002.642	65.86705
1002.81	86.94927
1002.979	53.21881
1003.147	61.65088
1003.316	120.68545
1003.484	-22.65289
1003.653	27.92483
1003.821	72.19148
1003.99	105.92518
1004.158	30.03253
1004.327	44.78711
1004.495	78.51611
1004.663	-14.22423
1004.832	44.78711
1005	95.38278
1005.168	46.895
1005.337	2.63424
1005.505	108.03372
1005.673	44.78711
1005.842	70.08331
1006.01	2.63424
1006.178	70.08331
1006.346	46.895
1006.514	-35.29512
1006.683	11.06405
1006.851	40.5714
1007.019	11.06405
1007.187	15.2791
1007.355	32.14026
1007.523	32.14026
1007.691	55.32679
1007.859	27.92483
1008.027	-14.22423
1008.195	21.60186
1008.363	44.78711
1008.531	61.65088
1008.699	70.08331
1008.867	17.38667
1009.035	53.21881
1009.203	27.92483
1009.37	2.63424
1009.538	32.14026
1009.706	63.75895
1009.874	23.70949
1010.042	55.32679
1010.209	-12.11701
1010.377	27.92483
1010.545	11.06405
1010.713	30.03253
1010.88	59.54283
1011.048	44.78711
1011.216	19.49425
1011.383	-14.22423
1011.551	4.74166
1011.718	44.78711
1011.886	42.67924
1012.054	42.67924
1012.221	86.94927
1012.389	-26.86706
1012.556	17.38667
1012.724	72.19148
1012.891	30.03253
1013.058	0.52684
1013.226	6.8491
1013.393	67.97517
1013.561	-94.28026
1013.728	36.35578
1013.895	61.65088
1014.063	-37.40208
1014.23	49.00291
1014.397	-10.00976
1014.565	44.78711
1014.732	32.14026
1014.899	38.46358
1015.066	2.63424
1015.233	42.67924
1015.401	13.17157
1015.568	46.895
1015.735	21.60186
1015.902	57.4348
1016.069	67.97517
1016.236	23.70949
1016.403	27.92483
1016.57	-24.75999
1016.737	57.4348
1016.904	30.03253
1017.071	30.03253
1017.238	32.14026
1017.405	11.06405
1017.572	53.21881
1017.739	55.32679
1017.906	59.54283
1018.073	-22.65289
1018.24	36.35578
1018.407	-3.68787
1018.573	32.14026
1018.74	42.67924
1018.907	38.46358
1019.074	82.73264
1019.241	27.92483
1019.407	55.32679
1019.574	-12.11701
1019.741	-39.50901
1019.907	-26.86706
1020.074	19.49425
1020.241	53.21881
1020.407	11.06405
1020.574	78.51611
1020.74	-52.15005
1020.907	27.92483
1021.073	70.08331
1021.24	27.92483
1021.406	49.00291
1021.573	11.06405
1021.739	-37.40208
1021.906	21.60186
1022.072	-7.90249
1022.239	11.06405
1022.405	13.17157
1022.571	11.06405
1022.738	-26.86706
1022.904	40.5714
1023.07	17.38667
1023.237	-35.29512
1023.403	2.63424
1023.569	-18.43861
1023.735	4.74166
1023.902	11.06405
1024.068	42.67924
1024.234	63.75895
1024.4	25.81715
1024.566	86.94927
1024.732	-39.50901
1024.898	23.70949
1025.065	13.17157
1025.231	-24.75999
1025.397	72.19148
1025.563	23.70949
1025.729	27.92483
1025.895	19.49425
1026.061	-24.75999
1026.227	15.2791
1026.392	78.51611
1026.558	6.8491
1026.724	13.17157
1026.89	-5.79519
1027.056	46.895
1027.222	19.49425
1027.388	97.49122
1027.553	84.84094
1027.719	55.32679
1027.885	34.24801
1028.051	21.60186
1028.216	65.86705
1028.382	32.14026
1028.548	40.5714
1028.713	13.17157
1028.879	44.78711
1029.045	19.49425
1029.21	13.17157
1029.376	-22.65289
1029.541	11.06405
1029.707	53.21881
1029.873	30.03253
1030.038	-39.50901
1030.204	-56.36353
1030.369	53.21881
1030.534	55.32679
1030.7	36.35578
1030.865	55.32679
1031.031	59.54283
1031.196	-26.86706
1031.361	-3.68787
1031.527	-39.50901
1031.692	19.49425
1031.857	49.00291
1032.023	23.70949
1032.188	36.35578
1032.353	95.38278
1032.518	86.94927
1032.684	23.70949
1032.849	11.06405
1033.014	-22.65289
1033.179	36.35578
1033.344	4.74166
1033.509	21.60186
1033.674	19.49425
1033.839	-14.22423
1034.004	15.2791
1034.17	-18.43861
1034.335	-12.11701
1034.5	44.78711
1034.664	61.65088
1034.829	36.35578
1034.994	17.38667
1035.159	-20.54576
1035.324	-37.40208
1035.489	53.21881
1035.654	23.70949
1035.819	-14.22423
1035.984	-33.18815
1036.148	19.49425
1036.313	32.14026
1036.478	57.4348
1036.643	-14.22423
1036.807	23.70949
1036.972	-1.58052
1037.137	-31.08114
1037.301	-45.82964
1037.466	-47.93647
1037.631	6.8491
1037.795	-5.79519
1037.96	36.35578
1038.124	-10.00976
1038.289	-5.79519
1038.454	-33.18815
1038.618	21.60186
1038.783	19.49425
1038.947	-1.58052
1039.111	23.70949
1039.276	53.21881
1039.44	99.59967
1039.605	53.21881
1039.769	23.70949
1039.933	-35.29512
1040.098	80.62436
1040.262	2.63424
1040.426	13.17157
1040.591	72.19148
1040.755	19.49425
1040.919	-12.11701
1041.083	-5.79519
1041.248	36.35578
1041.412	-1.58052
1041.576	36.35578
1041.74	70.08331
1041.904	19.49425
1042.068	-31.08114
1042.232	-10.00976
1042.397	55.32679
1042.561	-33.18815
1042.725	23.70949
1042.889	-18.43861
1043.053	74.29967
1043.217	-7.90249
1043.381	4.74166
1043.544	2.63424
1043.708	32.14026
1043.872	2.63424
1044.036	19.49425
1044.2	-18.43861
1044.364	46.895
1044.528	30.03253
1044.691	67.97517
1044.855	25.81715
1045.019	61.65088
1045.183	27.92483
1045.346	11.06405
1045.51	55.32679
1045.674	32.14026
1045.837	36.35578
1046.001	-5.79519
1046.165	78.51611
1046.328	2.63424
1046.492	15.2791
1046.655	38.46358
1046.819	27.92483
1046.983	53.21881
1047.146	19.49425
1047.31	74.29967
1047.473	61.65088
1047.636	42.67924
1047.8	-5.79519
1047.963	-31.08114
1048.127	-14.22423
1048.29	-37.40208
