Data from mixed_try1_USB4F045381__38__00142.txt Node

Date: Thu Apr 03 20:05:39 EDT 2025
User: mmckonesweet
Spectrometer: USB4F04538
Trigger mode: 4
Integration Time (sec): 2.700000E-3
Scans to average: 1
Electric dark correction enabled: true
Nonlinearity correction enabled: true
Boxcar width: 0
XAxis mode: Wavelengths
Number of Pixels in Spectrum: 3648
>>>>>Begin Spectral Data<<<<<
345.52	20.02115
345.736	20.02115
345.952	20.02115
346.168	20.02115
346.384	28.45175
346.6	24.2364
346.816	24.2364
347.032	-64.26353
347.248	17.91356
347.464	3.16109
347.68	-26.3403
347.896	-72.68981
348.112	79.04317
348.328	15.80599
348.544	-20.01897
348.76	-5.26836
348.975	24.2364
349.191	32.66719
349.407	-1.05368
349.623	-26.3403
349.839	-83.22208
350.055	55.85379
350.27	-34.76838
350.486	-32.6614
350.702	34.77495
350.918	51.63784
351.133	-70.58328
351.349	-60.05024
351.565	-7.37567
351.781	7.37596
351.996	9.48343
352.212	-1.05368
352.428	-9.48295
352.644	17.91356
352.859	-7.37567
353.075	45.31408
353.291	-32.6614
353.506	-70.58328
353.722	-60.05024
353.938	-7.37567
354.153	-5.26836
354.369	34.77495
354.584	-74.79631
354.8	13.69845
355.016	15.80599
355.231	17.91356
355.447	13.69845
355.662	-68.47672
355.878	20.02115
356.093	-13.69743
356.309	-47.40976
356.524	-22.12611
356.74	-36.87534
356.955	49.5299
357.171	-43.19607
357.386	-34.76838
357.602	49.5299
357.817	-15.80464
358.033	-9.48295
358.248	-41.08919
358.464	-43.19607
358.679	-15.80464
358.895	34.77495
359.11	-13.69743
359.325	-133.76787
359.541	-5.26836
359.756	-47.40976
359.972	-26.3403
360.187	30.55946
360.402	-119.02692
360.618	-22.12611
360.833	-17.91182
361.048	1.05369
361.264	-51.62336
361.479	83.25972
361.694	-68.47672
361.909	-34.76838
362.125	-76.90279
362.34	24.2364
362.555	32.66719
362.77	-64.26353
362.986	34.77495
363.201	-36.87534
363.416	24.2364
363.631	30.55946
363.847	26.34407
364.062	5.26851
364.277	41.09836
364.492	-24.23321
364.707	-47.40976
364.922	-3.16104
365.138	-66.37014
365.353	-68.47672
365.568	60.06984
365.783	13.69845
365.998	11.59093
366.213	-38.98228
366.428	55.85379
366.643	57.9618
366.858	87.47635
367.073	-106.39078
367.288	3.16109
367.503	15.80599
367.718	57.9618
367.933	9.48343
368.148	-38.98228
368.363	-81.11567
368.578	15.80599
368.793	1.05369
369.008	34.77495
369.223	41.09836
369.438	13.69845
369.653	11.59093
369.868	-24.23321
370.083	7.37596
370.298	-26.3403
370.513	91.69308
370.728	15.80599
370.943	-7.37567
371.157	3.16109
371.372	41.09836
371.587	-13.69743
371.802	-51.62336
372.017	32.66719
372.232	-51.62336
372.446	1.05369
372.661	1.05369
372.876	-49.51657
373.091	-30.55439
373.306	15.80599
373.52	-1.05368
373.735	32.66719
373.95	98.01833
374.165	79.04317
374.379	76.93493
374.594	15.80599
374.809	11.59093
375.023	-5.26836
375.238	-11.5902
375.453	28.45175
375.667	1.05369
375.882	-49.51657
376.097	-3.16104
376.311	26.34407
376.526	41.09836
376.741	30.55946
376.955	3.16109
377.17	45.31408
377.384	-49.51657
377.599	24.2364
377.813	-1.05368
378.028	1.05369
378.242	15.80599
378.457	28.45175
378.672	24.2364
378.886	7.37596
379.101	41.09836
379.315	87.47635
379.53	22.12877
379.744	-34.76838
379.958	15.80599
380.173	91.69308
380.387	7.37596
380.602	41.09836
380.816	20.02115
381.031	-41.08919
381.245	-9.48295
381.459	-9.48295
381.674	-68.47672
381.888	-17.91182
382.103	17.91356
382.317	-13.69743
382.531	41.09836
382.746	-26.3403
382.96	24.2364
383.174	72.71852
383.388	24.2364
383.603	24.2364
383.817	-5.26836
384.031	-89.54113
384.246	-34.76838
384.46	7.37596
384.674	100.12679
384.888	9.48343
385.103	9.48343
385.317	-30.55439
385.531	22.12877
385.745	-34.76838
385.959	-1.05368
386.174	-17.91182
386.388	30.55946
386.602	-3.16104
386.816	-66.37014
387.03	24.2364
387.244	3.16109
387.458	66.39408
387.672	20.02115
387.887	-26.3403
388.101	-30.55439
388.315	-85.32845
388.529	24.2364
388.743	-34.76838
388.957	17.91356
389.171	-53.73012
389.385	26.34407
389.599	24.2364
389.813	-9.48295
390.027	60.06984
390.241	7.37596
390.455	24.2364
390.669	-72.68981
390.883	-5.26836
391.097	-9.48295
391.311	-9.48295
391.525	1.05369
391.738	7.37596
391.952	13.69845
392.166	7.37596
392.38	15.80599
392.594	7.37596
392.808	74.82672
393.022	-38.98228
393.236	-9.48295
393.449	-26.3403
393.663	1.05369
393.877	-5.26836
394.091	68.5022
394.305	-51.62336
394.518	-62.1569
394.732	-15.80464
394.946	7.37596
395.16	7.37596
395.373	-102.17852
395.587	20.02115
395.801	11.59093
396.015	5.26851
396.228	-60.05024
396.442	-5.26836
396.656	7.37596
396.869	5.26851
397.083	34.77495
397.297	-5.26836
397.51	-1.05368
397.724	7.37596
397.938	43.20621
398.151	34.77495
398.365	-68.47672
398.578	83.25972
398.792	-9.48295
399.005	-3.16104
399.219	-1.05368
399.433	11.59093
399.646	-15.80464
399.86	32.66719
400.073	-26.3403
400.287	1.05369
400.5	34.77495
400.714	9.48343
400.927	9.48343
401.141	34.77495
401.354	24.2364
401.567	-60.05024
401.781	-55.83685
401.994	-47.40976
402.208	7.37596
402.421	24.2364
402.635	24.2364
402.848	47.42198
403.061	-20.01897
403.275	-24.23321
403.488	55.85379
403.701	28.45175
403.915	49.5299
404.128	-15.80464
404.341	1.05369
404.555	41.09836
404.768	-24.23321
404.981	24.2364
405.195	28.45175
405.408	-55.83685
405.621	85.36802
405.834	-22.12611
406.048	-1.05368
406.261	-41.08919
406.474	-17.91182
406.687	68.5022
406.9	3.16109
407.114	1.05369
407.327	-1.05368
407.54	-3.16104
407.753	13.69845
407.966	-24.23321
408.179	-26.3403
408.392	74.82672
408.605	7.37596
408.819	11.59093
409.032	-26.3403
409.245	74.82672
409.458	-43.19607
409.671	74.82672
409.884	76.93493
410.097	34.77495
410.31	15.80599
410.523	-7.37567
410.736	-45.30293
410.949	38.99053
411.162	24.2364
411.375	-24.23321
411.588	20.02115
411.801	51.63784
412.014	28.45175
412.227	-24.23321
412.44	51.63784
412.653	-43.19607
412.865	41.09836
413.078	53.7458
413.291	17.91356
413.504	7.37596
413.717	-24.23321
413.93	-20.01897
414.143	-34.76838
414.356	-20.01897
414.568	-26.3403
414.781	26.34407
414.994	26.34407
415.207	-43.19607
415.42	60.06984
415.632	-13.69743
415.845	57.9618
416.058	3.16109
416.271	24.2364
416.483	62.17789
416.696	74.82672
416.909	-24.23321
417.121	116.99528
417.334	-9.48295
417.547	-15.80464
417.759	-68.47672
417.972	36.88273
418.185	1.05369
418.397	-47.40976
418.61	43.20621
418.823	41.09836
419.035	-9.48295
419.248	-22.12611
419.46	-17.91182
419.673	41.09836
419.885	13.69845
420.098	68.5022
420.311	1.05369
420.523	-1.05368
420.736	24.2364
420.948	24.2364
421.161	28.45175
421.373	-30.55439
421.586	11.59093
421.798	36.88273
422.01	9.48343
422.223	-17.91182
422.435	74.82672
422.648	36.88273
422.86	11.59093
423.073	-9.48295
423.285	22.12877
423.497	-5.26836
423.71	-30.55439
423.922	17.91356
424.134	51.63784
424.347	51.63784
424.559	51.63784
424.771	104.34378
424.984	11.59093
425.196	-17.91182
425.408	24.2364
425.621	24.2364
425.833	38.99053
426.045	45.31408
426.257	24.2364
426.47	74.82672
426.682	57.9618
426.894	3.16109
427.106	3.16109
427.318	32.66719
427.531	13.69845
427.743	1.05369
427.955	87.47635
428.167	-3.16104
428.379	83.25972
428.591	62.17789
428.804	-34.76838
429.016	-51.62336
429.228	13.69845
429.44	60.06984
429.652	1.05369
429.864	49.5299
430.076	-9.48295
430.288	47.42198
430.5	70.61035
430.712	34.77495
430.924	-72.68981
431.136	24.2364
431.348	7.37596
431.56	60.06984
431.772	-9.48295
431.984	51.63784
432.196	62.17789
432.408	53.7458
432.62	100.12679
432.832	24.2364
433.044	26.34407
433.256	43.20621
433.468	43.20621
433.679	43.20621
433.891	-9.48295
434.103	24.2364
434.315	11.59093
434.527	-15.80464
434.739	100.12679
434.95	24.2364
435.162	64.28597
435.374	-5.26836
435.586	9.48343
435.798	47.42198
436.009	85.36802
436.221	100.12679
436.433	-13.69743
436.645	110.66943
436.856	62.17789
437.068	-24.23321
437.28	-17.91182
437.491	108.56086
437.703	41.09836
437.915	49.5299
438.126	68.5022
438.338	32.66719
438.55	24.2364
438.761	74.82672
438.973	74.82672
439.184	-1.05368
439.396	83.25972
439.608	-32.6614
439.819	66.39408
440.031	24.2364
440.242	49.5299
440.454	22.12877
440.665	28.45175
440.877	17.91356
441.088	95.90989
441.3	32.66719
441.511	131.75635
441.723	125.43005
441.934	57.9618
442.146	108.56086
442.357	-13.69743
442.569	-17.91182
442.78	74.82672
442.991	24.2364
443.203	36.88273
443.414	49.5299
443.626	20.02115
443.837	66.39408
444.048	47.42198
444.26	53.7458
444.471	3.16109
444.682	114.88664
444.894	68.5022
445.105	66.39408
445.316	47.42198
445.528	53.7458
445.739	43.20621
445.95	133.86516
446.161	133.86516
446.373	119.10394
446.584	74.82672
446.795	125.43005
447.006	79.04317
447.217	57.9618
447.429	91.69308
447.64	49.5299
447.851	57.9618
448.062	68.5022
448.273	68.5022
448.484	22.12877
448.695	87.47635
448.907	76.93493
449.118	121.21262
449.329	85.36802
449.54	95.90989
449.751	152.84542
449.962	45.31408
450.173	163.39074
450.384	91.69308
450.595	70.61035
450.806	129.64756
451.017	176.04582
451.228	22.12877
451.439	83.25972
451.65	146.51847
451.861	129.64756
452.072	51.63784
452.283	91.69308
452.494	60.06984
452.705	152.84542
452.915	100.12679
453.126	87.47635
453.337	203.46769
453.548	116.99528
453.759	133.86516
453.97	159.17255
454.181	102.23527
454.391	142.30062
454.602	87.47635
454.813	165.49987
455.024	184.48295
455.235	184.48295
455.445	138.08285
455.656	205.57721
455.867	104.34378
456.078	127.53879
456.288	133.86516
456.499	184.48295
456.71	108.56086
456.921	146.51847
457.131	159.17255
457.342	169.71819
457.553	190.81102
457.763	199.24872
457.974	247.77168
458.184	216.12509
458.395	125.43005
458.606	228.7832
458.816	281.53282
459.027	178.15507
459.237	192.92041
459.448	211.90588
459.659	260.43154
459.869	214.01547
460.08	209.7963
460.29	323.7409
460.501	308.96725
460.711	218.23472
460.922	319.51977
461.132	287.86356
461.343	298.41518
461.553	209.7963
461.764	243.55189
461.974	184.48295
462.184	268.87183
462.395	374.39997
462.605	323.7409
462.816	264.65165
463.026	273.09208
463.236	346.9584
463.447	338.51543
463.657	311.07772
463.867	406.06685
464.078	477.85847
464.288	359.62338
464.498	363.84518
464.709	395.51081
464.919	370.17801
465.129	479.97025
465.339	425.06875
465.55	441.9604
465.76	372.28898
465.97	403.95561
466.18	496.86509
466.391	606.70349
466.601	479.97025
466.811	600.36568
467.021	553.89196
467.231	670.08778
467.441	475.74669
467.651	606.70349
467.862	581.35293
468.072	606.70349
468.282	564.4536
468.492	594.02798
468.702	763.0701
468.912	716.57631
469.122	684.87899
469.332	644.73275
469.542	706.01026
469.752	822.25103
469.962	758.84318
470.172	923.72034
470.382	843.38886
470.592	957.54748
470.802	989.26206
471.012	995.60516
471.222	1010.40594
471.432	1031.55043
471.642	963.89027
471.852	1158.4287
472.062	1124.5928
472.272	1185.92113
472.482	1141.51062
472.691	1327.6212
472.901	1158.4287
473.111	1152.08439
473.321	1304.35626
473.531	1456.63844
473.741	1433.37287
473.95	1589.8855
474.16	1281.09157
474.37	1539.12517
474.58	1494.70935
474.79	1750.61819
474.999	1579.3105
475.209	1666.02399
475.419	1756.96254
475.628	1883.84151
475.838	1572.96548
476.048	1921.90178
476.258	1759.07731
476.467	2105.83168
476.677	1919.78737
476.886	2203.05973
477.096	2213.62694
477.306	2196.7193
477.515	2162.90239
477.725	2289.70434
477.935	2209.40008
478.144	2255.89361
478.354	2500.96382
478.563	2568.5439
478.773	2433.37218
478.982	2486.17912
479.192	2682.5574
479.401	2640.33439
479.611	2836.62691
479.82	2807.08492
480.03	3001.16656
480.239	3125.56509
480.449	3039.12439
480.658	3260.44279
480.868	3211.97888
481.077	3348.91898
481.287	3150.85976
481.496	3260.44279
481.705	3365.76814
481.915	3572.07782
482.124	3454.20776
482.333	3525.77857
482.543	3508.94027
482.752	3727.74506
482.961	3519.46434
483.171	3778.20919
483.38	3706.71504
483.589	3952.64336
483.799	3921.12932
484.008	4093.34995
484.217	4198.2941
484.426	4105.94602
484.636	4162.61899
484.845	4288.50375
485.054	4294.79597
485.263	4405.92648
485.472	4412.21506
485.682	4738.94709
485.891	4397.5414
486.1	4563.08172
486.309	4607.06287
486.518	4770.3349
486.727	4676.15621
486.936	4985.72605
487.146	4799.62559
487.355	5113.17277
487.564	4931.37839
487.773	5315.65584
487.982	5186.25897
488.191	5121.52692
488.4	5111.08417
488.609	5382.40612
488.818	5167.4681
489.027	5213.39801
489.236	5407.43129
489.445	5515.83454
489.654	5482.48647
489.863	5740.77622
490.072	5601.26146
490.281	5865.6249
490.49	5873.94512
490.698	6009.09588
490.907	5869.78506
491.116	6142.07016
491.325	5934.25546
491.534	5898.90353
491.743	6015.3312
491.952	6206.44496
492.16	6133.76209
492.369	6277.02367
492.578	6416.02613
492.787	6552.85176
492.996	6416.02613
493.204	6449.20527
493.413	6513.47292
493.622	6608.7968
493.831	6527.98189
494.039	6919.29777
494.248	6573.57411
494.457	6764.11159
494.665	6741.34016
494.874	6931.70714
495.083	7092.95522
495.291	7061.95658
495.5	6968.93039
495.709	7258.19667
495.917	7092.95522
496.126	7190.05177
496.335	7204.50876
496.543	7239.61408
496.752	7134.27891
496.96	7369.65479
497.169	7326.31756
497.377	7439.79945
497.586	7439.79945
497.794	7761.32116
498.003	7315.99775
498.211	7584.13623
498.42	7563.52313
498.628	7862.20587
498.837	7604.74719
499.045	7808.68144
499.254	7821.03448
499.462	8119.34102
499.671	7909.54274
499.879	7946.58138
500.087	8244.70853
500.296	8137.84253
500.504	8240.59929
500.713	8411.06691
500.921	8240.59929
501.129	8312.49962
501.338	8236.48997
501.546	8562.93805
501.754	7985.67051
501.962	8517.79805
502.171	8355.62831
502.379	8388.48252
502.587	8433.64897
502.795	8927.83175
503.004	8644.98744
503.212	8737.25745
503.42	8811.04669
503.628	8960.6031
503.837	8657.29227
504.045	8560.88643
504.253	8804.89849
504.461	9017.94208
504.669	9026.13224
504.877	8913.49286
505.085	9075.26735
505.294	9128.4858
505.502	8886.86117
505.71	9345.33447
505.918	9083.45556
506.126	9535.43576
506.334	9167.36886
506.542	9296.25315
506.75	9298.29839
506.958	9492.52185
507.166	9363.73752
507.374	9660.05095
507.582	9423.02719
507.79	9729.48351
507.998	9369.87157
508.206	9802.98112
508.414	9345.33447
508.622	9496.60919
508.83	9570.17045
509.037	9949.91827
509.245	9420.98295
509.453	9925.43405
509.661	9788.69145
509.869	10088.623
510.077	9821.35247
510.285	10168.14471
510.492	10096.78005
510.7	10225.22423
510.908	9741.73447
511.116	10064.15048
511.324	10029.4776
511.531	10090.66228
511.739	10196.68582
511.947	10259.87443
512.155	10333.23845
512.362	10259.87443
512.57	10284.33103
512.778	10506.39129
512.985	10284.33103
513.193	10488.06188
513.401	10518.61033
513.608	10382.13821
513.816	10396.39921
514.024	10486.02522
514.231	10172.22218
514.439	10622.45383
514.646	10579.69868
514.854	10923.62507
515.061	10488.06188
515.269	10834.11462
515.477	10677.41675
515.684	10876.83829
515.892	10915.48867
516.099	10832.08003
516.307	10870.73522
516.514	11029.38183
516.722	11082.249
516.929	11147.30622
517.136	11004.9791
517.344	11157.47042
517.551	11029.38183
517.759	11322.09418
517.966	11496.80766
518.173	11307.87009
518.381	11425.71206
518.588	11500.86991
518.796	11433.83787
519.003	11401.33369
519.21	11322.09418
519.418	11746.56732
519.625	11401.33369
519.832	11657.23819
520.039	11675.51146
520.247	11764.8371
520.454	11815.58279
520.661	11906.91169
520.868	11827.76096
521.076	12162.54579
521.283	11951.55528
521.49	12081.40551
521.697	11957.64274
521.904	12150.37552
522.112	11675.51146
522.319	12482.93713
522.526	12057.06104
522.733	12150.37552
522.94	12046.91718
523.147	12401.84166
523.354	12036.77313
523.561	12414.00666
523.768	12409.95169
523.975	12515.37238
524.183	12353.17923
524.39	12718.05654
524.597	12596.4534
524.804	12568.07618
525.011	12744.40108
525.218	12829.50765
525.425	12493.07332
525.632	12683.6045
525.838	12776.8238
526.045	12868.00502
526.252	12868.00502
526.459	13096.92417
526.666	12971.33056
526.873	13005.76942
527.08	13151.61236
527.287	13096.92417
527.494	12859.90048
527.701	13030.07832
527.907	13098.94972
528.114	13335.90766
528.321	13076.66841
528.528	13190.09462
528.735	13299.45648
528.941	13319.7073
529.148	13194.14529
529.355	13475.62506
529.562	13339.95771
529.768	13556.61234
529.975	13256.92838
530.182	13655.81404
530.388	13117.17946
530.595	13621.39805
530.802	13491.82298
531.008	13963.49392
531.215	13722.61884
531.422	13904.79691
531.628	13872.4114
531.835	14008.02124
532.042	13858.24251
532.248	14143.6201
532.455	13906.82098
532.661	14074.81002
532.868	14149.69145
533.074	14206.35655
533.281	14026.23662
533.487	14536.20059
533.694	14212.42771
533.9	14576.66957
534.107	14038.3801
534.313	14675.81665
534.52	14356.10706
534.726	14528.10674
534.933	14285.28035
535.139	14455.26109
535.345	14560.48204
535.552	14843.75465
535.758	14803.28814
535.965	14677.84004
536.171	14892.31414
536.377	15357.66845
536.584	14694.02708
536.79	14920.64036
536.996	14989.43226
537.203	15147.24777
537.409	14783.05479
537.615	14872.08106
537.821	15185.68991
538.028	15503.34628
538.234	15234.24843
538.44	15203.89935
538.646	15137.13142
538.853	15143.20123
539.059	15477.04315
539.265	15367.78489
539.471	15313.1562
539.677	15272.69064
539.883	15383.97121
540.09	15475.01983
540.296	15551.9062
540.502	15649.02727
540.708	15345.52873
540.914	15804.8299
541.12	15784.59546
541.326	15800.783
541.532	15897.90983
541.738	16233.83111
541.944	15794.71267
542.15	16092.17247
542.356	15800.783
542.562	16193.35638
542.768	15966.70972
542.974	16225.73611
543.18	16353.23569
543.386	16565.75215
543.592	16156.92971
543.798	16213.59366
544.004	16298.59213
544.21	16355.25956
544.415	16140.74024
544.621	16389.66551
544.827	16513.1269
545.033	16494.91081
545.239	16717.56417
545.445	16922.02558
545.651	16612.30648
545.856	16907.85416
546.062	16760.07388
546.268	16650.7653
546.474	16503.00683
546.679	16749.95243
546.885	16766.14678
547.091	16608.25824
547.297	16561.704
547.502	16992.88462
547.708	16652.78948
547.914	16843.07212
548.119	16883.56059
548.325	16798.53597
548.531	16867.36508
548.736	17215.60623
548.942	16766.14678
549.147	16859.26739
549.353	17047.54954
549.559	17304.70457
549.764	17211.55644
549.97	17537.603
550.175	17118.41445
550.381	17499.12128
550.586	17343.18064
550.792	17655.0807
550.997	17675.33659
551.203	17410.01009
551.408	17539.62838
551.614	17391.78355
551.819	17351.281
552.025	17466.71651
552.23	17539.62838
552.435	17669.25979
552.641	17906.27754
552.846	17774.59527
553.052	17975.16334
553.257	18121.05271
553.462	18333.84191
553.668	18159.55442
553.873	18346.00253
554.078	18542.61819
554.283	18123.07909
554.489	18573.02589
554.694	18125.10546
554.899	18189.95143
555.105	18508.15717
555.31	18483.83242
555.515	18066.34202
555.72	18388.56577
555.925	17997.4508
556.131	18427.07681
556.336	18350.0561
556.541	19021.13536
556.746	18552.75399
556.951	18577.08032
557.156	18508.15717
557.361	18907.56886
557.567	18942.04307
557.772	18696.69291
557.977	18658.17211
558.182	18725.07756
558.387	18739.27017
558.592	18808.20849
558.797	18641.95326
559.002	18812.26383
559.207	18418.96911
559.412	18836.59619
559.617	18451.40027
559.822	18998.82666
560.027	18879.1792
560.232	19027.21964
560.437	18899.45745
560.642	18869.04023
560.847	19041.41643
561.051	19177.31006
561.256	18609.51629
561.461	19177.31006
561.666	19096.17733
561.871	19333.50903
562.076	19177.31006
562.281	19199.62271
562.485	19187.45211
562.69	19530.31403
562.895	19002.88275
563.1	19165.13974
563.305	18804.15317
563.509	19116.4599
563.714	19213.82192
563.919	19739.33545
564.123	19548.57627
564.328	19645.9806
564.533	19455.23947
564.737	19301.05009
564.942	19410.60324
565.147	19897.65309
565.351	19786.0162
565.556	19593.21873
565.761	19712.95166
565.965	19477.55834
566.17	19363.94024
566.374	19652.06869
566.579	19455.23947
566.784	19637.8632
566.988	19648.00996
567.193	20072.23807
567.397	20011.3328
567.602	20196.09046
567.806	19601.33575
568.011	20399.161
568.215	20273.25231
568.42	20210.30403
568.624	19932.1616
568.828	20114.87401
569.033	19832.69917
569.237	20317.92774
569.442	20543.36655
569.646	19995.09203
569.85	20443.84215
570.055	20590.08554
570.259	20062.08692
570.463	20634.77534
570.668	20403.22284
570.872	20486.49423
571.076	20510.86768
571.281	20409.31563
571.485	20681.49865
571.689	20770.88851
571.893	20458.05931
572.098	20525.0858
572.302	20592.11685
572.506	20923.27606
572.71	20324.02
572.914	20703.84536
573.119	20959.85253
573.323	20898.89249
573.527	20651.02668
573.731	20636.80674
573.935	20939.5321
574.139	21132.59268
574.343	20768.85683
574.547	21415.13687
574.751	21187.46925
574.955	21132.59268
575.159	21321.62441
575.364	21087.88063
575.568	20787.14207
575.772	20917.18011
575.976	21083.816
576.18	20988.30181
576.383	21455.7971
576.587	21091.94528
576.791	21256.57729
576.995	21455.7971
577.199	21352.11667
577.403	21404.97206
577.607	21831.97905
577.811	21616.42052
578.015	21770.96749
578.219	21484.2602
578.422	21634.72096
578.626	21888.92631
578.83	21866.55382
579.034	21604.22041
579.238	21402.93911
579.442	21539.15554
579.645	22078.09406
579.849	22076.05982
580.053	22069.95713
580.257	21846.21559
580.46	21756.73196
580.664	22076.05982
580.868	21811.64148
581.071	21949.94457
581.275	21884.85855
581.479	21982.48905
581.682	21884.85855
581.886	22206.25847
582.09	22244.91414
582.293	22114.71095
582.497	22417.8636
582.7	21943.84259
582.904	22137.08853
583.107	22232.70694
583.311	22104.53947
583.515	22521.64586
583.718	22151.32905
583.922	22625.43742
584.125	22344.61119
584.329	22189.98281
584.532	22352.75011
584.735	22647.82504
584.939	22541.99642
585.142	22558.27712
585.346	22601.01505
585.549	22664.10721
585.753	22845.26142
585.956	22959.26002
586.159	22857.47504
586.363	22782.15965
586.566	22973.51059
586.769	22603.05023
586.973	22454.49156
587.176	22914.47359
587.379	22997.94052
587.582	23309.4638
587.786	22991.833
587.989	23207.65042
588.192	22908.36647
588.395	23460.1622
588.599	23211.7228
588.802	23221.9038
589.005	22796.40815
589.208	23382.77438
589.411	23496.82116
589.615	23826.7961
589.818	23747.35052
590.021	23366.48278
590.224	23032.55042
590.427	23462.19878
590.63	23285.02786
590.833	23409.24865
591.036	23380.73792
591.239	23714.75876
591.442	23741.23951
591.645	23337.97298
591.848	23653.65127
592.051	23537.55451
592.254	23610.87763
592.457	23492.74789
592.66	23743.27651
592.863	23784.01716
593.066	23403.13916
593.269	23942.91683
593.472	23818.64763
593.675	24038.67249
593.878	23710.68484
594.081	24248.54147
594.284	23993.84991
594.486	24421.75585
594.689	24588.87455
594.892	24354.50565
595.095	24350.42997
595.298	24601.10342
595.5	24698.93757
595.703	24631.67598
595.906	24328.01393
596.109	24421.75585
596.311	24093.68386
596.514	24105.90888
596.717	24071.27157
596.92	24456.401
597.122	24548.11232
597.325	24574.60766
597.528	24643.90516
597.73	24592.95083
597.933	24609.25605
598.136	24668.36378
598.338	24580.72202
598.541	24684.66973
598.743	25345.18649
598.946	24923.16188
599.148	24839.584
599.351	24741.74179
599.554	24813.08452
599.756	25218.77308
599.959	25284.01768
600.161	24743.78011
600.363	24929.27749
600.566	25027.13007
600.768	25228.96741
600.971	25247.31732
601.173	25353.34247
601.376	25324.79667
601.578	24727.47359
601.78	25045.47801
601.983	24925.20042
602.185	25424.70876
602.388	25318.67977
602.59	24998.58919
602.792	25088.29059
602.995	25145.37557
603.197	25051.59403
603.399	25326.83564
603.601	25080.13574
603.804	24941.50877
604.006	25471.608
604.208	25400.24003
604.41	25231.00628
604.613	25526.665
604.815	25373.73258
605.017	25326.83564
605.219	25398.20099
605.421	25455.2951
605.623	25563.37048
605.826	25545.01766
606.028	25494.03845
606.23	25171.8799
606.432	25316.64081
606.634	25950.85567
606.836	25334.99155
607.038	25534.82171
607.24	25608.23362
607.442	25579.68424
607.644	25235.08403
607.846	25498.11674
608.048	25728.5531
608.25	25875.39268
608.452	25965.13273
608.654	26226.21433
608.856	25614.35139
609.058	25744.86812
609.26	25950.85567
609.462	25875.39268
609.664	26054.87629
609.866	25879.4717
610.067	25850.91874
610.269	26054.87629
610.471	25669.41217
610.673	25981.44949
610.875	25730.59247
611.077	25787.69564
611.278	25820.3267
611.48	25583.7627
611.682	25926.38091
611.884	26095.66995
612.085	25840.72135
612.287	25773.41971
612.489	25757.10447
612.69	25934.53914
612.892	25685.72674
613.094	26397.56433
613.295	25912.10409
613.497	25901.90642
613.699	25846.83978
613.9	26020.20223
614.102	25885.59024
614.304	26014.08333
614.505	25777.49854
614.707	26273.13042
614.908	25865.19518
615.11	26063.03496
615.311	25714.27755
615.513	25661.25493
615.714	25693.88408
615.916	25779.53796
616.117	26058.95562
616.319	26844.35082
616.52	26130.34511
616.722	26067.11431
616.923	26160.94126
617.124	26540.36475
617.326	26056.91595
617.527	26495.48378
617.729	26320.0474
617.93	25779.53796
618.131	26087.51116
618.333	26165.02077
618.534	26444.4836
618.735	26487.32368
618.937	26405.72414
619.138	26413.88398
619.339	26083.43177
619.54	26246.61252
619.742	26132.38484
619.943	26258.85152
620.144	26283.32969
620.345	26609.72774
620.546	26464.88355
620.748	26607.68762
620.949	26507.72397
621.15	26546.48494
621.351	26162.98101
621.552	26509.764
621.753	26415.92394
621.954	26522.00426
622.155	26050.79696
622.356	26195.61736
622.558	26179.29913
622.759	26462.84355
622.96	26063.03496
623.161	26252.73201
623.362	25954.93482
623.563	26356.76565
623.764	26060.99529
623.965	26352.68582
624.166	26695.41387
624.366	26452.64356
624.567	26256.81168
624.768	26267.01088
624.969	25852.95823
625.17	26158.9015
625.371	26273.13042
625.572	26326.16708
625.773	26309.84799
625.973	26413.88398
626.174	26615.84809
626.375	26789.26364
626.576	26397.56433
626.777	26603.6074
626.977	26466.92356
627.178	26738.25794
627.379	26593.40687
627.58	26403.68418
627.78	26393.48443
627.981	26652.57047
628.182	26964.73017
628.382	26689.29335
628.583	26262.9312
628.784	26734.17753
628.984	26179.29913
629.185	26777.02219
629.386	26438.36365
629.586	26807.62592
629.787	26703.5746
629.987	26905.56004
630.188	26760.70034
630.388	26899.43906
630.589	26485.28366
630.79	27240.19265
630.99	26772.94172
631.191	27034.10356
631.391	26864.75375
631.591	26740.29815
631.792	26450.60357
631.992	27125.92373
632.193	27538.12722
632.393	27111.64041
632.594	26538.32469
632.794	26599.52718
632.994	26756.61989
633.195	27217.74664
633.395	26989.21471
633.595	27232.03045
633.796	27183.05767
633.996	27509.55698
634.196	27187.1387
634.397	27483.0277
634.597	27150.40957
634.797	27378.95331
634.997	26509.764
635.198	27019.82067
635.398	26968.81092
635.598	27148.36908
635.798	27274.88225
635.998	27162.65257
636.199	27074.91218
636.399	27319.77524
636.599	27115.72135
636.799	27634.04334
636.999	26750.49923
637.199	27217.74664
637.399	26979.0128
637.599	27038.1844
637.799	26774.98195
637.999	26825.98831
638.199	27127.96421
638.399	27403.44111
638.599	27062.66954
638.799	27248.35488
638.999	27640.16574
639.199	27793.22916
639.399	27278.96341
639.599	27703.43114
639.799	27156.53107
639.999	27578.94226
640.199	27370.79076
640.399	27499.35339
640.599	26905.56004
640.799	27952.42211
640.998	27776.90207
641.198	27787.10649
641.398	27291.2069
641.598	28064.67774
641.798	27880.98851
641.997	27803.43362
642.197	27462.6207
642.397	27603.43152
642.597	27640.16574
642.796	27440.17314
642.996	27440.17314
643.196	27680.98199
643.395	27750.37073
643.595	27740.16641
643.795	27762.61594
643.994	27852.41546
644.194	27823.84264
644.394	27740.16641
644.593	27793.22916
644.793	28101.41668
644.992	27897.31606
645.192	27868.74289
645.392	27319.77524
645.591	28070.80087
645.791	27913.6437
645.99	27505.47554
646.19	27568.73845
646.389	27776.90207
646.589	27993.24195
646.788	28215.71792
646.987	27799.35183
647.187	28085.08822
647.386	27393.23784
647.586	28350.43449
647.785	28258.58177
647.984	28007.52899
648.184	27925.88947
648.383	27962.62703
648.582	27778.94296
648.782	28015.69305
648.981	27683.02282
649.18	27813.63812
649.38	28191.2245
649.579	28399.42351
649.778	28217.75904
649.977	28719.90841
650.177	28307.56962
650.376	28481.07324
650.575	27689.1453
650.774	27983.03694
650.973	27956.50408
651.173	28293.28143
651.372	27791.18827
651.571	27825.88355
651.77	27783.02472
651.969	28442.2894
652.168	28285.11677
652.367	28223.88242
652.566	28132.03274
652.765	28136.11491
652.964	28256.54062
653.163	28170.81345
653.362	28244.29376
653.561	27878.94757
653.76	28264.70522
653.959	28346.3521
654.158	28817.89623
654.357	28572.93121
654.556	27874.86569
654.755	28319.81668
654.954	28091.21138
655.153	28428.00072
655.352	28381.05256
655.551	28666.83269
655.749	28601.50969
655.948	28924.0524
656.147	28664.79133
656.346	28401.46473
656.545	28403.50595
656.743	28411.67086
656.942	28601.50969
657.141	28766.86061
657.34	28332.06377
657.538	27872.82476
657.737	27897.31606
657.936	28476.99071
658.135	28132.03274
658.333	28609.675
658.532	28242.25263
658.731	28634.17105
658.929	28044.26737
659.128	28072.84192
659.326	28548.43554
659.525	28330.02259
659.724	28842.39355
659.922	28597.42703
660.121	28670.91541
660.319	28989.38067
660.518	28470.86693
660.716	28844.43501
660.915	29044.50222
661.113	28813.81335
661.312	28301.4461
661.51	28556.60075
661.709	28615.799
661.907	28593.34439
662.105	27956.50408
662.304	28605.59234
662.502	28730.11536
662.701	28948.55037
662.899	28766.86061
663.097	28646.41913
663.296	28895.47161
663.494	29064.9178
663.692	28852.60082
663.891	28658.66725
664.089	28440.24816
664.287	28536.18776
664.485	28597.42703
664.684	29001.62983
664.882	28507.60976
665.08	28889.34719
665.278	28354.51689
665.476	28438.20692
665.675	28166.73125
665.873	28432.08319
666.071	28064.67774
666.269	28307.56962
666.467	28295.3226
666.665	28344.31091
666.863	28078.96506
667.061	28083.04717
667.259	28360.64049
667.457	28421.87701
667.655	28295.3226
667.853	28227.96468
668.051	28109.58094
668.249	28046.3084
668.447	28425.95948
668.645	27970.79098
668.843	28744.40514
669.041	28230.00581
669.239	28474.94945
669.437	28754.61216
669.635	28752.57075
669.833	28650.50183
670.031	28101.41668
670.229	28599.46836
670.426	28868.9325
670.624	28162.64906
670.822	28468.82567
671.02	29007.75443
671.218	28591.30306
671.415	28824.02054
671.613	28170.81345
671.811	28842.39355
672.009	28327.9814
672.206	28538.22906
672.404	28511.69232
672.602	28272.86983
672.799	28883.22277
672.997	28840.3521
673.195	28705.61872
673.392	28509.65104
673.59	27974.87296
673.788	27809.55632
673.985	27987.11894
674.183	28197.34784
674.38	28068.75983
674.578	28381.05256
674.775	28452.49564
674.973	27703.43114
675.17	27832.00628
675.368	27976.91396
675.565	28544.35295
675.763	28472.90819
675.96	28515.77489
676.158	28493.32084
676.355	28325.94022
676.553	28977.13153
676.75	28415.75332
676.947	28395.34107
677.145	27999.36496
677.342	27803.43362
677.539	28107.53988
677.737	27889.15228
677.934	28183.06007
678.131	28250.41719
678.329	28148.36141
678.526	28430.04196
678.723	28479.03197
678.92	28383.09377
679.118	28285.11677
679.315	27976.91396
679.512	27872.82476
679.709	28003.44697
679.906	27952.42211
680.104	27768.73856
680.301	28015.69305
680.498	27725.88043
680.695	27550.37168
680.892	27591.18687
681.089	27860.57916
681.286	28185.10118
681.483	27217.74664
681.68	27958.54506
681.877	27772.82032
682.075	27689.1453
682.272	27474.86488
682.469	27476.90558
682.665	26966.77055
682.862	27240.19265
683.059	27311.61283
683.256	27276.92283
683.453	27480.98699
683.65	27460.58
683.847	27011.65905
684.044	27064.70998
684.241	27332.01889
684.438	27685.06364
684.635	27664.65543
684.831	28087.12927
685.028	27354.4657
685.225	27878.94757
685.422	27158.57157
685.619	27452.41724
685.815	27329.97828
686.012	27497.31267
686.209	26681.13267
686.405	27281.00399
686.602	27062.66954
686.799	26579.1262
686.996	27315.69403
687.192	26909.6407
687.389	26887.19714
687.586	27148.36908
687.782	26738.25794
687.979	27085.11442
688.175	26901.47939
688.372	27144.2881
688.568	26517.92417
688.765	26799.46489
688.962	27027.98231
689.158	26915.7617
689.355	27123.88325
689.551	27160.61207
689.748	26928.00374
689.944	27315.69403
690.14	27001.45706
690.337	27485.0684
690.533	26950.44762
690.73	26913.72137
690.926	26862.71345
691.123	26793.34413
691.319	26589.32667
691.515	26856.59256
691.712	26815.78696
691.908	26528.12441
692.104	26401.64423
692.301	26393.48443
692.497	26144.62326
692.693	26581.16629
692.889	26640.32962
693.086	26740.29815
693.282	26326.16708
693.478	26603.6074
693.674	26303.72836
693.87	26375.12497
694.067	26825.98831
694.263	26679.0925
694.459	26770.90148
694.655	26881.0762
694.851	26422.04384
695.047	26481.20363
695.243	26383.28472
695.439	26542.40481
695.635	26340.44636
695.831	26432.24371
696.027	26893.31809
696.224	26787.22339
696.42	26420.00387
696.615	26422.04384
696.811	26454.68356
697.007	26191.53779
697.203	26295.56887
697.399	26191.53779
697.595	26034.47972
697.791	26124.22593
697.987	25761.18327
698.183	26071.19367
698.379	26336.36656
698.575	26140.54378
698.77	26575.04602
698.966	26440.40363
699.162	26958.60907
699.358	26760.70034
699.554	26515.88412
699.749	26436.32367
699.945	26291.48914
700.141	26044.67798
700.337	26083.43177
700.532	26083.43177
700.728	26309.84799
700.924	26099.74935
701.119	26138.50404
701.315	25506.27334
701.511	25443.06051
701.706	25589.8804
701.902	25744.86812
702.097	25938.61826
702.293	25885.59024
702.489	25757.10447
702.684	25734.67122
702.88	25944.73696
703.075	25824.40561
703.271	25936.5787
703.466	25536.8609
703.662	25377.81063
703.857	25581.72347
704.053	25916.18318
704.248	25746.90751
704.443	25895.78784
704.639	26452.64356
704.834	26389.40454
705.03	25704.08079
705.225	25432.86507
705.42	25180.03515
705.616	25286.05661
705.811	24970.04875
706.006	25581.72347
706.202	25379.84965
706.397	25069.94222
706.592	25810.12944
706.787	25728.5531
706.983	25532.78253
707.178	25816.24779
707.373	25667.37285
707.568	25720.39563
707.763	25237.1229
707.959	25432.86507
708.154	25379.84965
708.349	25224.88967
708.544	25730.59247
708.739	25720.39563
708.934	25571.52734
709.129	25681.64809
709.324	25459.37331
709.519	25418.59155
709.714	25288.09554
709.909	25383.92771
710.104	25573.56656
710.299	25255.4729
710.494	25198.3846
710.689	25540.93927
710.884	25314.60185
711.079	25720.39563
711.274	25398.20099
711.469	25824.40561
711.664	25341.10851
711.859	25471.608
712.054	25461.41242
712.249	25310.52393
712.443	24933.35458
712.638	25306.44602
712.833	24894.62265
713.028	24847.73776
713.223	24454.36302
713.417	24794.73896
713.612	24906.85369
713.807	25049.55536
714.002	24972.08734
714.196	25251.39511
714.391	24900.73816
714.586	25332.95257
714.78	25127.02664
714.975	25090.32931
715.17	24409.52833
715.364	24474.74285
715.559	24539.95999
715.754	24311.71156
715.948	24323.93832
716.143	24768.24017
716.337	24268.91864
716.532	24892.58415
716.726	24448.24913
716.921	24224.08922
717.115	24262.80546
717.31	24641.86695
717.504	24629.63779
717.699	24574.60766
717.893	24399.3388
718.088	24415.64208
718.282	24523.65546
718.476	24859.96848
718.671	24217.97622
718.865	24383.03569
719.059	24057.00938
719.254	24093.68386
719.448	24001.99937
719.642	24006.07412
719.837	24085.5339
720.031	24760.08678
720.225	24330.05174
720.419	24319.86272
720.614	23786.05422
720.808	23765.68372
721.002	23507.00438
721.196	23561.99511
721.39	23651.6144
721.585	23959.21522
721.779	23690.31544
721.973	23979.58847
722.167	23388.88378
722.361	23790.12836
722.555	23678.09394
722.749	23635.31954
722.943	23694.3893
723.137	23287.06417
723.331	23555.88492
723.525	23568.10533
723.719	23804.38792
723.913	23879.76229
724.107	23608.84082
724.301	23743.27651
724.495	23596.62005
724.689	23747.35052
724.883	23900.13442
725.077	23702.53705
725.271	23541.62791
725.465	23657.72501
725.659	23690.31544
725.853	24171.11069
726.046	23574.21557
726.24	23757.5356
726.434	23476.45494
726.628	23757.5356
726.822	23743.27651
727.015	23865.50197
727.209	23572.17882
727.403	23792.16543
727.596	23610.87763
727.79	23853.27895
727.984	23857.35328
728.177	23989.7752
728.371	24136.47188
728.565	23496.82116
728.758	23745.31351
728.952	23659.76189
729.146	23741.23951
729.339	23973.47647
729.533	23535.51781
729.726	23946.99141
729.92	23949.02871
730.113	23802.35083
730.307	23875.6879
730.5	23643.46695
730.694	23515.15101
730.887	23452.0159
731.081	23417.39469
731.274	23240.22982
731.468	23215.79519
731.661	23134.34979
731.854	23268.73748
732.048	23366.48278
732.241	23311.50015
732.435	23303.35477
732.628	23034.58633
732.821	22831.01234
733.014	22975.5464
733.208	23425.54077
733.401	23124.16948
733.594	23537.55451
733.788	23168.96345
733.981	23700.5001
734.174	23543.66462
734.367	23356.30064
734.56	23478.49155
734.754	23437.76
734.947	23327.79106
735.14	23162.85509
735.333	23201.54187
735.526	23177.10797
735.719	23211.7228
735.912	23012.19154
736.105	22969.43898
736.298	22509.4357
736.491	22666.1425
736.684	22678.3543
736.877	22723.13197
737.07	22900.2237
737.263	22786.23063
737.456	22851.36822
737.649	22853.40382
737.842	23282.99155
738.035	23364.44635
738.228	23175.07184
738.421	23278.91894
738.614	23356.30064
738.807	23154.71065
739	22949.08114
739.192	22922.61645
739.385	23120.09738
739.578	22932.79511
739.771	23113.98925
739.964	22786.23063
740.156	23154.71065
740.349	22983.68967
740.542	23285.02786
740.735	22668.17779
740.927	22664.10721
741.12	23034.58633
741.313	22861.54628
741.505	23069.19724
741.698	22751.62773
741.891	22635.61356
742.083	22780.12417
742.276	22810.65682
742.468	22835.08349
742.661	22265.25976
742.854	22330.36821
743.046	22019.10274
743.239	21968.25072
743.431	22580.66346
743.624	22464.66621
743.816	22261.1906
744.009	22379.20202
744.201	22228.6379
744.393	22383.2716
744.586	22128.95118
744.778	22419.89845
744.971	22452.45665
745.163	22277.46731
745.355	22330.36821
745.548	22366.99337
745.74	22301.8828
745.932	22468.73609
746.125	22694.63689
746.317	22670.21309
746.509	22397.51523
746.702	22434.14255
746.894	21899.09578
747.086	21966.21669
747.278	22242.87959
747.471	22222.53438
747.663	22255.0869
747.855	21978.42093
748.047	21966.21669
748.239	22366.99337
748.431	22228.6379
748.623	22153.36343
748.815	22169.63856
749.008	22246.94868
749.2	21960.11461
749.392	21821.81022
749.584	21315.52607
749.776	21614.38716
749.968	21716.06006
750.16	21974.35284
750.352	21508.65777
750.544	22106.57375
750.736	22013.00038
750.928	22122.8482
751.12	21868.58766
751.311	21815.70896
751.503	21579.82061
751.695	21671.32278
751.887	21323.6572
752.079	21933.6727
752.271	21317.55885
752.463	21213.89236
752.654	21486.29331
752.846	21657.08859
753.038	21589.98712
753.23	21703.8588
753.421	21606.25375
753.613	21419.20282
753.805	21691.65767
753.997	21390.7415
754.188	21624.55401
754.38	21533.05591
754.572	21768.93383
754.763	21697.75822
754.955	21219.9901
755.146	21254.54463
755.338	21498.49205
755.53	21236.25091
755.721	21415.13687
755.913	21370.41246
756.104	21065.52535
756.296	21071.62219
756.487	20876.54141
756.679	21313.4933
756.87	21364.31383
757.062	21335.85402
757.253	20848.0953
757.445	20970.01289
757.636	21224.05528
757.827	21248.44669
758.019	21346.01815
758.21	21276.90407
758.401	20795.26895
758.593	20935.46807
758.784	20537.27293
758.975	20447.90418
759.167	20370.7286
759.358	20675.40418
759.549	20338.23543
759.74	20458.05931
759.932	20429.6252
760.123	20279.3443
760.314	20248.88476
760.505	19954.49129
760.696	20194.05996
760.888	20309.80479
761.079	20382.91381
761.27	20510.86768
761.461	20348.38943
761.652	20352.45106
761.843	20561.64763
762.034	20453.99724
762.225	20212.33455
762.416	20070.20783
762.607	20346.35862
762.798	20139.23823
762.989	20100.66182
763.18	20328.08153
763.371	19982.91163
763.562	19842.84794
763.753	19944.34137
763.944	20210.30403
764.135	19844.8777
764.326	20159.54222
764.517	20029.60398
764.708	19940.28143
764.899	19739.33545
765.089	19717.01066
765.28	19871.26504
765.471	19753.5424
765.662	19104.29031
765.853	19254.39222
766.043	18925.81976
766.234	19589.16024
766.425	19408.57437
766.615	19526.2558
766.806	19382.19942
766.997	19248.30657
767.187	19280.76379
767.378	19678.45084
767.569	19591.18948
767.759	19800.22383
767.95	19635.83386
768.141	19463.35537
768.331	19625.68724
768.522	19376.11299
768.712	19157.02627
768.903	19359.88269
769.093	19079.95157
769.284	19069.8106
769.474	18737.24264
769.665	18944.071
769.855	19023.16345
770.046	19396.40123
770.236	19230.04984
770.426	19256.42078
770.617	19288.87826
770.807	18558.83552
770.998	18787.93204
771.188	18818.34686
771.378	18723.05006
771.569	18268.98754
771.759	18042.027
771.949	18323.70816
772.139	18858.90135
772.33	18510.18426
772.52	18633.84392
772.71	18741.2977
772.9	18412.88837
773.09	18552.75399
773.281	18668.30903
773.471	18775.76636
773.661	18327.76165
773.851	18226.42894
774.041	18177.79253
774.231	18228.4555
774.421	18098.76285
774.611	18147.39584
774.802	18066.34202
774.992	18125.10546
775.182	17661.15743
775.372	17592.28953
775.562	17849.55109
775.752	18094.7102
775.942	17572.03499
776.131	17663.18302
776.321	17567.98412
776.511	17890.0697
776.701	17776.62104
776.891	17750.28627
777.081	17665.2086
777.271	17683.43904
777.461	18023.79107
777.651	17912.35554
777.84	17592.28953
778.03	17531.52686
778.22	17956.92847
778.41	17709.77236
778.599	17430.2621
778.789	17677.3622
778.979	17389.75839
779.169	17377.60752
779.358	17367.48187
779.548	17555.83158
779.738	17527.47612
779.927	17248.00497
780.117	17252.05486
780.307	17207.50666
780.496	17185.23309
780.686	17140.68699
780.875	16924.05008
781.065	16998.9584
781.254	17086.01864
781.444	17181.18339
781.633	17351.281
781.823	17130.56307
782.012	17134.61263
782.202	16632.54787
782.391	16415.97632
782.581	16571.82439
782.77	16628.49957
782.96	16664.93455
783.149	16503.00683
783.338	16879.5117
783.528	16966.56517
783.717	17083.99393
783.906	16905.82968
784.096	16626.47543
784.285	16737.80676
784.474	16490.86281
784.663	16679.10391
784.853	16778.29265
785.042	16656.83782
785.231	16891.65841
785.42	16756.02529
785.61	16717.56417
785.799	16444.31142
785.988	16183.23781
786.177	16391.68941
786.366	16387.64161
786.555	16013.25171
786.744	16195.3801
786.933	16124.55088
787.122	16183.23781
787.312	16156.92971
787.501	16221.68862
787.69	16023.36963
787.879	16167.04817
788.068	15958.61554
788.257	16015.27529
788.445	16094.19611
788.634	16175.14298
788.823	16067.88892
789.012	16148.83496
789.201	16061.81806
789.39	15549.88286
789.579	15673.30783
789.768	16075.98341
789.957	15744.12688
790.145	15784.59546
790.334	15891.83933
790.523	15742.10346
790.712	15632.84029
790.9	15541.78952
791.089	15559.99955
791.278	15689.49494
791.467	15717.82252
791.655	15782.57202
791.844	15566.06958
792.033	15990.99241
792.221	15584.27969
792.41	15638.9104
792.599	15141.17796
792.787	15564.04624
792.976	15525.60286
793.164	15647.00389
793.353	15216.03898
793.541	15436.57696
793.73	15347.55201
793.918	15770.43141
794.107	15290.90013
794.295	15628.79356
794.484	15222.10879
794.672	15462.87996
794.861	15143.20123
795.049	14993.47883
795.238	15199.85281
795.426	15066.31688
795.614	14981.33912
795.803	14888.26753
795.991	15050.13067
796.179	15153.31758
796.368	14908.50057
796.556	14965.15282
796.744	14671.76988
796.932	14999.54868
797.121	14503.82505
797.309	14673.79327
797.497	14752.70461
797.685	14781.03145
797.874	14643.44237
798.062	14489.66065
798.25	14289.32765
798.438	14866.01113
798.626	14463.35514
798.814	14590.8336
799.002	14855.89456
799.19	14833.63805
799.378	14428.95528
799.566	14669.74649
799.755	14352.05987
799.943	14530.1302
800.131	14955.03637
800.318	14946.9432
800.506	14918.61706
800.694	14548.34134
800.882	14317.65854
801.07	14613.09125
801.258	14453.23758
801.446	14467.40216
801.634	14149.69145
801.822	14358.13065
802.01	14153.73902
802.197	14422.88467
802.385	14244.80697
802.573	14244.80697
802.761	14305.51677
802.949	14722.35425
803.136	14426.93174
803.324	14451.21406
803.512	14194.21416
803.699	14495.73111
803.887	14564.52893
804.075	15029.8979
804.262	14604.99757
804.45	14675.81665
804.638	14536.20059
804.825	14888.26753
805.013	14467.40216
805.201	14817.45145
805.388	14479.54317
805.576	14548.34134
805.763	14592.85703
805.951	14752.70461
806.138	14542.27097
806.326	14451.21406
806.513	14368.24857
806.701	14335.87107
806.888	14588.81017
807.075	14479.54317
807.263	14400.62566
807.45	14649.51257
807.638	14190.16668
807.825	14406.69631
808.012	14220.52257
808.2	14143.6201
808.387	14341.94188
808.574	14613.09125
808.761	14374.31931
808.949	14538.22405
809.136	14475.49617
809.323	14515.96592
809.51	14524.0598
809.698	14327.77663
809.885	14511.91897
810.072	14734.49442
810.259	14564.52893
810.446	14916.59377
810.633	14592.85703
810.82	14625.23173
811.008	14659.62955
811.195	14888.26753
811.382	14505.84853
811.569	14653.55936
811.756	14095.04855
811.943	14663.67633
812.13	14443.11998
812.317	14426.93174
812.504	14774.96142
812.691	14936.82674
812.878	14839.70801
813.064	15017.75822
813.251	14637.37217
813.438	14886.24422
813.625	14669.74649
813.812	14760.79801
813.999	14572.62269
814.186	14734.49442
814.372	14621.1849
814.559	14507.87201
814.746	14517.98939
814.933	14598.92731
815.12	14552.38824
815.306	14609.04441
815.493	14536.20059
815.68	14582.73987
815.866	14103.14389
816.053	14797.21814
816.24	14159.81034
816.426	14627.25514
816.613	14105.16772
816.799	14374.31931
816.986	14594.88045
817.173	14738.54113
817.359	14321.70578
817.546	14665.69972
817.732	14206.35655
817.919	14495.73111
818.105	14149.69145
818.292	13997.9015
818.478	13947.30186
818.665	14151.71524
818.851	14309.56403
819.037	14143.6201
819.224	13809.66242
819.41	13886.58015
819.597	13894.67651
819.783	14200.28536
819.969	14254.92538
820.156	14206.35655
820.342	13941.22979
820.528	14078.85774
820.714	14012.06912
820.901	14117.31066
821.087	13916.9413
821.273	14256.94906
821.459	14060.64292
821.646	14204.33282
821.832	13912.89318
822.018	14125.40591
822.204	13728.69183
822.39	13890.62834
822.576	13597.10382
822.762	13706.42406
822.948	13886.58015
823.134	14018.14092
823.32	13789.42023
823.507	14263.02008
823.693	13945.27784
823.879	13550.53849
824.065	13425.00497
824.25	13601.1529
824.436	13443.22848
824.622	13880.50784
824.808	13580.9074
824.994	13684.1559
825.18	13491.82298
825.366	13663.91178
825.552	13412.85579
825.738	13540.41535
825.923	13416.90553
826.109	13850.14594
826.295	13595.07928
826.481	13740.83773
826.667	13572.8091
826.852	13712.49713
827.038	13601.1529
827.224	13730.71616
827.409	13514.09475
827.595	13783.34751
827.781	13475.62506
827.966	13532.31677
828.152	13267.05429
828.338	13416.90553
828.523	13226.55
828.709	13305.53177
828.894	13226.55
829.08	13443.22848
829.266	13060.46346
829.451	12973.35642
829.637	13019.9497
829.822	12973.35642
830.008	12551.86008
830.193	12811.27136
830.378	12793.03462
830.564	12809.24508
830.749	12535.64358
830.935	12754.53334
831.12	12673.47122
831.305	12938.91617
831.491	12784.92925
831.676	12831.53387
831.861	12489.01886
832.047	12821.40269
832.232	12659.28438
832.417	12697.79084
832.602	12531.58939
832.788	12478.8826
832.973	12464.69157
833.158	12809.24508
833.343	12247.73027
833.528	12738.32166
833.714	12732.24218
833.899	12811.27136
834.084	12561.99519
834.269	12770.74465
834.454	12450.50021
834.639	12557.94117
834.824	12225.4213
835.009	12509.2909
835.194	12085.46281
835.379	12549.83304
835.564	12081.40551
835.749	12768.71826
835.934	12458.6096
836.119	12503.20936
836.304	12276.12225
836.489	12203.11144
836.674	11941.40936
836.859	12215.28056
837.044	12190.94206
837.228	12292.34562
837.413	12121.97717
837.598	12616.7221
837.783	12152.40392
837.968	12154.43231
838.152	11953.58444
838.337	12150.37552
838.522	11882.55897
838.707	12073.29081
838.891	11626.78111
839.076	11860.23459
839.261	11770.92686
839.445	11959.67188
839.63	11699.87469
839.815	11710.02566
839.999	11464.30828
840.184	11612.56711
840.368	11334.28586
840.553	11671.45079
840.737	11628.81165
840.922	11927.20472
841.106	11707.99548
841.291	11275.35603
841.475	11411.49151
841.66	11576.01476
841.844	11387.11232
842.029	11415.55458
842.213	11397.27049
842.397	11212.35256
842.582	10937.86332
842.766	11031.41532
842.951	10789.35098
843.135	10954.13494
843.319	10819.87226
843.504	10628.56126
843.688	10703.87721
843.872	11004.9791
844.056	11281.45261
844.241	11236.74218
844.425	10996.8445
844.609	11315.9982
844.793	11360.69993
844.977	11301.7739
845.161	11090.38175
845.346	11403.36527
845.53	10966.33817
845.714	10952.10102
845.898	10720.15955
846.082	11051.74961
846.266	10724.23002
846.45	10960.23661
846.634	10718.1243
846.818	11078.18255
847.002	10860.56321
847.186	10821.90692
847.37	10325.08775
847.554	10595.987
847.738	10483.98854
847.922	10492.13518
848.106	10528.79251
848.29	10520.64679
848.473	10268.02685
848.657	10257.83629
848.841	10314.89907
849.025	10449.36306
849.209	10025.39816
849.392	10630.59705
849.576	10306.74789
849.76	10009.07986
849.944	10188.53149
850.127	10545.08333
850.311	10060.07153
850.495	10424.9193
850.678	10443.25229
850.862	10650.95424
851.046	10467.69466
851.229	10378.06352
851.413	10047.83434
851.596	10270.06492
851.78	9966.23992
851.964	10204.83992
852.147	9660.05095
852.331	10023.35843
852.514	9786.65001
852.698	9623.28531
852.881	9406.67279
853.065	9953.99877
853.248	9666.17807
853.431	9888.70376
853.615	9753.98489
853.798	9751.94319
853.982	9561.998
854.165	9698.85369
854.348	9541.56574
854.532	9655.96613
854.715	9286.02667
854.898	9606.94341
855.081	9359.64807
855.265	9369.87157
855.448	9290.11731
855.631	9731.52537
855.814	9619.19993
855.997	9717.23199
856.181	9898.90709
856.364	9606.94341
856.547	9566.08426
856.73	9486.39072
856.913	9132.57904
857.096	9322.84005
857.279	9361.6928
857.462	9576.29963
857.645	9226.70485
857.828	9365.78222
858.011	9198.06167
858.194	9431.204
858.377	9009.75164
858.56	9161.22984
858.743	9183.73883
858.926	9017.94208
859.109	8989.27431
859.292	9110.06534
859.475	8733.15735
859.658	9005.65631
859.841	8649.08913
860.023	8893.00721
860.206	8739.30747
860.389	9030.22722
860.572	8825.39186
860.755	8856.12854
860.937	8616.27356
861.12	9056.84286
861.303	8808.99731
861.486	9071.17314
861.668	8599.86398
861.851	8657.29227
862.034	8608.06892
862.216	8765.95607
862.399	8538.31737
862.581	8751.60721
862.764	8550.62805
862.947	8564.98965
863.129	8351.52119
863.312	8398.74844
863.494	8127.56411
863.677	8579.35033
863.859	8304.28366
864.042	8493.17237
864.224	8382.32273
864.406	8575.24737
864.589	8111.1176
864.771	8462.38641
864.954	7989.78473
865.136	8057.65756
865.318	8016.52515
865.501	8057.65756
865.683	7843.67977
865.865	7837.50403
866.048	7680.98924
866.23	7802.50464
866.412	7650.0838
866.594	8098.78188
866.777	7736.60706
866.959	7967.15553
867.141	7831.32811
867.323	8131.67554
867.505	7954.81128
867.687	7893.07898
867.869	7909.54274
868.052	7909.54274
868.234	7588.25859
868.416	7864.26423
868.598	7823.09325
868.78	7602.68619
868.962	7781.91395
869.144	7678.92903
869.326	7561.4617
869.508	7767.49922
869.69	7666.5673
869.872	7891.02092
870.054	7549.09269
870.236	7829.26942
870.417	7483.11156
870.599	7697.4702
870.781	7678.92903
870.963	7408.85637
871.145	7559.40026
871.327	7732.48774
871.508	7571.76863
871.69	7771.61782
871.872	7497.54682
872.054	7821.03448
872.235	7481.0493
872.417	7559.40026
872.599	7470.73765
872.78	7641.84155
872.962	7621.23442
873.144	7557.33879
873.325	7610.93006
873.507	7476.9247
873.689	7443.92482
873.87	7415.04538
874.052	7082.6229
874.233	7243.7437
874.415	7121.88274
874.596	7394.4146
874.778	7059.88983
874.959	7344.89184
875.141	7216.8996
875.322	7551.15425
875.503	7363.46435
875.685	7645.96272
875.866	7272.64855
876.048	7660.38614
876.229	7231.35458
876.41	7357.27371
876.592	7181.79015
876.773	7313.93372
876.954	7128.08092
877.136	7518.16678
877.317	7206.57396
877.498	7357.27371
877.679	7068.15671
877.86	7379.97176
878.042	7142.54258
878.223	7466.61283
878.404	7307.74151
878.585	7328.38146
878.766	7243.7437
878.947	7396.47778
879.128	6857.23865
879.309	7035.08702
879.49	6993.74183
879.672	7163.20019
879.853	7256.13202
880.034	7421.23419
880.215	7336.63682
880.396	7476.9247
880.576	7227.2247
880.757	7503.73303
880.938	6875.85853
881.119	7412.9824
881.3	7202.44354
881.481	7499.60891
881.662	7386.16168
881.843	7423.29708
882.023	7417.10834
882.204	7427.4228
882.385	7412.9824
882.566	7450.11272
882.747	7382.03509
882.927	7542.9079
883.108	7301.54909
883.289	7662.44655
883.469	7264.39046
883.65	7324.25364
883.831	7291.22797
884.011	7563.52313
884.192	7390.28818
884.373	7573.82995
884.553	7417.10834
884.734	7650.0838
884.914	7505.79506
885.095	7481.0493
885.275	7285.03503
885.456	7499.60891
885.636	7549.09269
885.817	7697.4702
885.997	7357.27371
886.178	7687.16976
886.358	7650.0838
886.538	7728.36835
886.719	7382.03509
886.899	7390.28818
887.08	7588.25859
887.26	7610.93006
887.44	7396.47778
887.621	7530.53772
887.801	7175.5937
887.981	7538.78459
888.161	7311.86967
888.342	7584.13623
888.522	7287.09936
888.702	7474.86237
888.882	7563.52313
889.062	7678.92903
889.242	7192.11712
889.423	7398.54093
889.603	7194.18245
889.783	7247.87323
889.963	7152.87166
890.143	7511.98102
890.323	7497.54682
890.503	7687.16976
890.683	7328.38146
890.863	7516.10488
891.043	7260.26129
891.223	7608.86912
891.403	7291.22797
891.583	7501.67098
891.763	7068.15671
891.943	7386.16168
892.122	7398.54093
892.302	7538.78459
892.482	7142.54258
892.662	7074.35664
892.842	7177.6592
893.022	7187.9864
893.201	6830.34002
893.381	7092.95522
893.561	7035.08702
893.741	7229.28965
893.92	7309.8056
894.1	7187.9864
894.28	6999.94418
894.459	7037.15405
894.639	6855.16966
894.819	7117.7505
894.998	6803.43754
895.178	7002.01159
895.357	6898.61366
895.537	6979.26888
895.716	6836.54774
895.896	6817.92397
896.075	6625.36987
896.255	6803.43754
896.434	6629.51291
896.614	6944.11571
896.793	6538.34474
896.973	6815.85454
897.152	6480.30531
897.331	6733.05896
897.511	6641.94147
897.69	6882.06475
897.87	6795.15907
898.049	6848.96256
898.228	6879.99603
898.407	6822.06274
898.587	6513.47292
898.766	6954.45555
898.945	6650.22672
899.124	6652.29797
899.304	6554.9241
899.483	6426.39525
899.662	6171.14544
899.841	6306.07763
900.02	6191.91069
900.199	6272.87273
900.378	6106.75826
900.557	6179.45182
900.737	6150.37785
900.916	6129.60791
901.095	6007.01739
901.274	6200.21613
901.453	5984.15247
901.632	6069.36179
901.811	5611.67666
901.989	5771.99635
902.168	5684.56659
902.347	5998.7032
902.526	5903.06293
902.705	6148.30096
902.884	6266.64615
903.063	6312.30288
903.242	6040.27037
903.42	6106.75826
903.599	5778.23974
903.778	5840.66196
903.957	5424.11285
904.135	5582.5126
904.314	5382.40612
904.493	5607.51065
904.672	5349.03398
904.85	5311.48315
905.029	5071.39645
905.207	5432.45307
905.386	5125.70385
905.565	5106.90691
905.743	4854.01075
905.922	5090.19694
906.1	4881.19755
906.279	5144.49892
906.457	4831.00352
906.636	5215.48547
906.814	4927.19716
906.993	4902.10784
907.171	4772.42724
907.35	5042.14751
907.528	4741.03976
907.707	4705.46114
907.885	4470.89899
908.063	4596.59206
908.242	4280.11382
908.42	4657.31499
908.598	4328.3512
908.777	4611.25104
908.955	4544.22965
909.133	4724.2977
909.311	4343.02988
909.49	4496.04398
909.668	4156.32275
909.846	4552.60857
910.024	4303.18529
910.202	4584.02635
910.38	4336.73915
910.559	4416.40734
910.737	4395.44507
910.915	4519.09076
911.093	4470.89899
911.271	4726.39053
911.449	4464.61225
911.627	4655.22141
911.805	4349.32042
911.983	4523.28079
912.161	4537.94522
912.339	4831.00352
912.517	4391.25236
912.695	4567.27082
912.872	4523.28079
913.05	4831.00352
913.228	4588.21501
913.406	4676.15621
913.584	4573.55431
913.762	4764.05774
913.939	4416.40734
914.117	4657.31499
914.295	4655.22141
914.473	4523.28079
914.65	4324.1571
914.828	4372.38406
915.006	4171.01368
915.184	4745.22506
915.361	4529.56568
915.539	4688.71601
915.716	4389.15597
915.894	4586.12069
916.072	4330.44822
916.249	4449.94242
916.427	4412.21506
916.604	4387.05955
916.782	4454.13391
916.959	4504.42493
917.137	4347.2236
917.314	4552.60857
917.492	4168.91504
917.669	4292.69858
917.847	3921.12932
918.024	4236.06108
918.201	3900.11744
918.379	4206.68736
918.556	3774.00428
918.733	3942.13919
918.911	3731.95083
919.088	3963.14703
919.265	3734.05369
919.442	4053.45748
919.62	3740.36214
919.797	3996.75534
919.974	3904.31997
920.151	4097.54873
920.328	3824.45809
920.506	4160.52026
920.683	3868.59585
920.86	3837.06977
921.037	3698.3025
921.214	3790.82347
921.391	3551.03381
921.568	3782.41403
921.745	3534.19728
921.922	3824.45809
922.099	3582.59913
922.276	3715.12728
922.453	3633.0949
922.63	3790.82347
922.807	3664.64925
922.984	3668.85617
923.161	3319.43028
923.338	3679.37315
923.514	3504.73051
923.691	3715.12728
923.868	3475.26017
924.045	3675.16641
924.222	3112.91689
924.399	3403.67466
924.575	3115.02497
924.752	3380.51024
924.929	3167.72158
925.105	3209.87156
925.282	3117.13302
925.459	3494.2058
925.635	3395.25148
925.812	3689.88964
925.989	3397.3573
926.165	3409.99185
926.342	3332.06871
926.518	3416.30889
926.695	2963.20381
926.871	3104.48444
927.048	3041.23301
927.224	2980.07675
927.401	2864.0563
927.577	2880.93473
927.754	2887.2639
927.93	3015.92853
928.107	2802.86442
928.283	2990.62184
928.459	2864.0563
928.636	3015.92853
928.812	2678.33533
928.988	2914.68883
929.165	2762.76689
929.341	2889.3736
929.517	2568.5439
929.693	2674.1132
929.87	2367.88233
930.046	2735.32894
930.222	2443.93412
930.398	2707.88875
930.574	2308.72183
930.751	2585.43704
930.927	2302.38275
931.103	2331.96437
931.279	2272.79927
931.455	2486.17912
931.631	2181.92466
931.807	2471.39387
931.983	2162.90239
932.159	2433.37218
932.335	2165.01601
932.511	2120.62833
932.687	2120.62833
932.863	2281.25188
933.039	2014.93006
933.215	2380.55856
933.391	2139.65205
933.566	2196.7193
933.742	1993.78832
933.918	2065.66747
934.094	1723.12564
934.27	1892.2995
934.445	1731.58495
934.621	1945.15995
934.797	1659.67923
934.973	1721.01081
935.148	1486.24916
935.324	1600.46045
935.5	1333.96622
935.675	1545.47026
935.851	1160.54348
936.027	1372.0366
936.202	1198.61016
936.378	1291.6664
936.553	1149.96963
936.729	1228.21836
936.904	1141.51062
937.08	1133.05168
937.255	879.32516
937.431	989.26206
937.606	913.14974
937.782	898.35124
937.957	792.65962
938.133	818.02358
938.308	782.09171
938.483	712.34986
938.659	680.65288
938.834	741.93593
939.009	598.2531
939.185	617.26677
939.36	522.20909
939.535	520.09701
939.71	488.41755
939.886	471.52319
940.061	475.74669
940.236	526.43329
940.411	382.84411
940.586	463.07638
940.761	437.73739
940.937	467.29976
941.112	349.06919
941.287	479.97025
941.462	315.29871
941.637	355.40166
941.812	395.51081
941.987	355.40166
942.162	346.9584
942.337	294.19448
942.512	184.48295
942.687	294.19448
942.862	201.3582
943.037	268.87183
943.212	277.31241
943.386	327.96211
943.561	298.41518
943.736	275.20224
943.911	294.19448
944.086	304.74637
944.26	277.31241
944.435	298.41518
944.61	188.70164
944.785	239.33216
944.959	336.40473
945.134	308.96725
945.309	285.7533
945.483	277.31241
945.658	327.96211
945.833	304.74637
946.007	186.59229
946.182	266.76173
946.357	237.22233
946.531	260.43154
946.706	256.21151
946.88	287.86356
947.055	311.07772
947.229	349.06919
947.404	222.45405
947.578	338.51543
947.752	311.07772
947.927	389.17739
948.101	270.98194
948.276	243.55189
948.45	184.48295
948.624	332.18339
948.799	302.63595
948.973	285.7533
949.147	237.22233
949.321	289.97385
949.496	243.55189
949.67	332.18339
949.844	157.06349
950.018	289.97385
950.193	327.96211
950.367	302.63595
950.541	260.43154
950.715	363.84518
950.889	277.31241
951.063	372.28898
951.237	294.19448
951.411	311.07772
951.585	302.63595
951.759	336.40473
951.933	321.63033
952.107	353.29082
952.281	298.41518
952.455	308.96725
952.629	294.19448
952.803	370.17801
952.977	317.40923
953.151	349.06919
953.325	349.06919
953.499	289.97385
953.672	319.51977
953.846	422.95736
954.02	260.43154
954.194	399.73318
954.368	338.51543
954.541	304.74637
954.715	357.51251
954.889	365.95611
955.062	268.87183
955.236	222.45405
955.41	363.84518
955.583	382.84411
955.757	211.90588
955.93	285.7533
956.104	317.40923
956.278	450.40661
956.451	302.63595
956.625	319.51977
956.798	306.8568
956.972	268.87183
957.145	245.66178
957.319	336.40473
957.492	287.86356
957.665	378.62201
957.839	281.53282
958.012	338.51543
958.185	268.87183
958.359	353.29082
958.532	387.06628
958.705	370.17801
958.879	340.62615
959.052	346.9584
959.225	270.98194
959.398	332.18339
959.572	332.18339
959.745	327.96211
959.918	294.19448
960.091	256.21151
960.264	245.66178
960.438	319.51977
960.611	243.55189
960.784	330.07274
960.957	289.97385
961.13	408.17811
961.303	226.67346
961.476	270.98194
961.649	349.06919
961.822	260.43154
961.995	209.7963
962.168	304.74637
962.341	268.87183
962.514	317.40923
962.686	235.11252
962.859	247.77168
963.032	268.87183
963.205	304.74637
963.378	190.81102
963.551	188.70164
963.723	214.01547
963.896	281.53282
964.069	266.76173
964.242	327.96211
964.414	292.08415
964.587	289.97385
964.76	251.99156
964.932	247.77168
965.105	157.06349
965.278	287.86356
965.45	220.34438
965.623	230.89295
965.795	245.66178
965.968	287.86356
966.14	262.54158
966.313	235.11252
966.485	226.67346
966.658	243.55189
966.83	330.07274
967.003	226.67346
967.175	146.51847
967.348	277.31241
967.52	184.48295
967.692	281.53282
967.865	247.77168
968.037	287.86356
968.209	262.54158
968.382	266.76173
968.554	178.15507
968.726	277.31241
968.898	203.46769
969.071	239.33216
969.243	142.30062
969.415	184.48295
969.587	211.90588
969.759	199.24872
969.932	154.95444
970.104	146.51847
970.276	167.60902
970.448	203.46769
970.62	76.93493
970.792	218.23472
970.964	176.04582
971.136	171.82738
971.308	218.23472
971.48	152.84542
971.652	199.24872
971.824	152.84542
971.996	184.48295
972.168	146.51847
972.339	224.56375
972.511	104.34378
972.683	186.59229
972.855	216.12509
973.027	218.23472
973.199	159.17255
973.37	150.73642
973.542	178.15507
973.714	133.86516
973.886	197.13926
974.057	131.75635
974.229	144.40954
974.401	142.30062
974.572	171.82738
974.744	161.28164
974.915	230.89295
975.087	108.56086
975.259	148.62743
975.43	144.40954
975.602	135.97399
975.773	150.73642
975.945	138.08285
976.116	98.01833
976.288	218.23472
976.459	100.12679
976.63	108.56086
976.802	125.43005
976.973	135.97399
977.145	95.90989
977.316	133.86516
977.487	95.90989
977.659	79.04317
977.83	146.51847
978.001	203.46769
978.172	57.9618
978.344	116.99528
978.515	127.53879
978.686	144.40954
978.857	85.36802
979.028	140.19172
979.2	91.69308
979.371	152.84542
979.542	104.34378
979.713	173.93659
979.884	100.12679
980.055	70.61035
980.226	127.53879
980.397	100.12679
980.568	135.97399
980.739	138.08285
980.91	74.82672
981.081	146.51847
981.252	83.25972
981.423	93.80147
981.594	51.63784
981.765	41.09836
981.936	74.82672
982.106	167.60902
982.277	150.73642
982.448	57.9618
982.619	209.7963
982.79	51.63784
982.96	135.97399
983.131	51.63784
983.302	81.15143
983.472	169.71819
983.643	85.36802
983.814	152.84542
983.984	76.93493
984.155	70.61035
984.326	83.25972
984.496	62.17789
984.667	79.04317
984.837	95.90989
985.008	53.7458
985.178	74.82672
985.349	133.86516
985.519	34.77495
985.69	102.23527
985.86	66.39408
986.031	108.56086
986.201	36.88273
986.371	112.77803
986.542	76.93493
986.712	138.08285
986.882	116.99528
987.053	66.39408
987.223	95.90989
987.393	68.5022
987.563	45.31408
987.734	85.36802
987.904	36.88273
988.074	85.36802
988.244	51.63784
988.414	32.66719
988.585	121.21262
988.755	68.5022
988.925	49.5299
989.095	15.80599
989.265	28.45175
989.435	83.25972
989.605	76.93493
989.775	60.06984
989.945	74.82672
990.115	83.25972
990.285	7.37596
990.455	55.85379
990.625	66.39408
990.795	91.69308
990.965	20.02115
991.134	112.77803
991.304	11.59093
991.474	-7.37567
991.644	68.5022
991.814	68.5022
991.984	41.09836
992.153	49.5299
992.323	81.15143
992.493	79.04317
992.662	11.59093
992.832	51.63784
993.002	87.47635
993.171	104.34378
993.341	11.59093
993.511	26.34407
993.68	43.20621
993.85	49.5299
994.019	34.77495
994.189	-38.98228
994.358	24.2364
994.528	36.88273
994.697	47.42198
994.867	45.31408
995.036	9.48343
995.206	17.91356
995.375	-3.16104
995.544	70.61035
995.714	28.45175
995.883	85.36802
996.052	-9.48295
996.222	-28.44736
996.391	20.02115
996.56	70.61035
996.73	45.31408
996.899	-55.83685
997.068	83.25972
997.237	28.45175
997.406	36.88273
997.576	127.53879
997.745	7.37596
997.914	66.39408
998.083	62.17789
998.252	57.9618
998.421	36.88273
998.59	43.20621
998.759	93.80147
998.928	-43.19607
999.097	7.37596
999.266	26.34407
999.435	7.37596
999.604	24.2364
999.773	9.48343
999.942	20.02115
1000.111	7.37596
1000.28	55.85379
1000.448	15.80599
1000.617	15.80599
1000.786	66.39408
1000.955	98.01833
1001.124	-5.26836
1001.292	38.99053
1001.461	34.77495
1001.63	-9.48295
1001.798	-30.55439
1001.967	7.37596
1002.136	55.85379
1002.304	17.91356
1002.473	36.88273
1002.642	41.09836
1002.81	-26.3403
1002.979	41.09836
1003.147	3.16109
1003.316	32.66719
1003.484	60.06984
1003.653	41.09836
1003.821	43.20621
1003.99	66.39408
1004.158	-22.12611
1004.327	45.31408
1004.495	28.45175
1004.663	79.04317
1004.832	1.05369
1005	38.99053
1005.168	-51.62336
1005.337	51.63784
1005.505	55.85379
1005.673	32.66719
1005.842	64.28597
1006.01	91.69308
1006.178	30.55946
1006.346	74.82672
1006.514	-15.80464
1006.683	81.15143
1006.851	53.7458
1007.019	26.34407
1007.187	64.28597
1007.355	-45.30293
1007.523	1.05369
1007.691	93.80147
1007.859	51.63784
1008.027	91.69308
1008.195	83.25972
1008.363	98.01833
1008.531	-97.96616
1008.699	41.09836
1008.867	57.9618
1009.035	57.9618
1009.203	-5.26836
1009.37	41.09836
1009.538	-30.55439
1009.706	-15.80464
1009.874	-15.80464
1010.042	24.2364
1010.209	60.06984
1010.377	-1.05368
1010.545	-64.26353
1010.713	79.04317
1010.88	7.37596
1011.048	41.09836
1011.216	30.55946
1011.383	102.23527
1011.551	-17.91182
1011.718	-74.79631
1011.886	60.06984
1012.054	85.36802
1012.221	-17.91182
1012.389	7.37596
1012.556	-13.69743
1012.724	85.36802
1012.891	1.05369
1013.058	62.17789
1013.226	34.77495
1013.393	15.80599
1013.561	9.48343
1013.728	-32.6614
1013.895	-57.94356
1014.063	15.80599
1014.23	15.80599
1014.397	-17.91182
1014.565	41.09836
1014.732	-26.3403
1014.899	-1.05368
1015.066	-17.91182
1015.233	-15.80464
1015.401	7.37596
1015.568	-17.91182
1015.735	11.59093
1015.902	20.02115
1016.069	-22.12611
1016.236	-60.05024
1016.403	-51.62336
1016.57	22.12877
1016.737	-30.55439
1016.904	-34.76838
1017.071	32.66719
1017.238	7.37596
1017.405	28.45175
1017.572	1.05369
1017.739	36.88273
1017.906	-41.08919
1018.073	57.9618
1018.24	26.34407
1018.407	-9.48295
1018.573	-45.30293
1018.74	9.48343
1018.907	1.05369
1019.074	49.5299
1019.241	-66.37014
1019.407	-1.05368
1019.574	-17.91182
1019.741	26.34407
1019.907	87.47635
1020.074	30.55946
1020.241	-1.05368
1020.407	-34.76838
1020.574	7.37596
1020.74	68.5022
1020.907	34.77495
1021.073	32.66719
1021.24	11.59093
1021.406	41.09836
1021.573	83.25972
1021.739	1.05369
1021.906	102.23527
1022.072	-5.26836
1022.239	-5.26836
1022.405	-24.23321
1022.571	-49.51657
1022.738	64.28597
1022.904	7.37596
1023.07	24.2364
1023.237	68.5022
1023.403	5.26851
1023.569	-17.91182
1023.735	32.66719
1023.902	-45.30293
1024.068	-30.55439
1024.234	-1.05368
1024.4	-64.26353
1024.566	64.28597
1024.732	-66.37014
1024.898	-5.26836
1025.065	-17.91182
1025.231	5.26851
1025.397	53.7458
1025.563	15.80599
1025.729	53.7458
1025.895	49.5299
1026.061	-38.98228
1026.227	-34.76838
1026.392	95.90989
1026.558	-43.19607
1026.724	5.26851
1026.89	3.16109
1027.056	47.42198
1027.222	15.80599
1027.388	68.5022
1027.553	49.5299
1027.719	-17.91182
1027.885	1.05369
1028.051	34.77495
1028.216	-5.26836
1028.382	-57.94356
1028.548	-72.68981
1028.713	-9.48295
1028.879	-1.05368
1029.045	57.9618
1029.21	1.05369
1029.376	-41.08919
1029.541	-26.3403
1029.707	-3.16104
1029.873	-1.05368
1030.038	28.45175
1030.204	30.55946
1030.369	36.88273
1030.534	34.77495
1030.7	-28.44736
1030.865	3.16109
1031.031	62.17789
1031.196	7.37596
1031.361	-60.05024
1031.527	7.37596
1031.692	41.09836
1031.857	-15.80464
1032.023	-3.16104
1032.188	-47.40976
1032.353	55.85379
1032.518	-17.91182
1032.684	-51.62336
1032.849	-47.40976
1033.014	7.37596
1033.179	1.05369
1033.344	11.59093
1033.509	17.91356
1033.674	60.06984
1033.839	1.05369
1034.004	-7.37567
1034.17	-5.26836
1034.335	-9.48295
1034.5	-70.58328
1034.664	-13.69743
1034.829	-13.69743
1034.994	30.55946
1035.159	-15.80464
1035.324	17.91356
1035.489	34.77495
1035.654	11.59093
1035.819	-1.05368
1035.984	41.09836
1036.148	-51.62336
1036.313	-26.3403
1036.478	36.88273
1036.643	15.80599
1036.807	17.91356
1036.972	-68.47672
1037.137	15.80599
1037.301	57.9618
1037.466	-41.08919
1037.631	-26.3403
1037.795	32.66719
1037.96	41.09836
1038.124	-43.19607
1038.289	-9.48295
1038.454	20.02115
1038.618	-17.91182
1038.783	9.48343
1038.947	32.66719
1039.111	3.16109
1039.276	72.71852
1039.44	-41.08919
1039.605	43.20621
1039.769	47.42198
1039.933	22.12877
1040.098	3.16109
1040.262	-57.94356
1040.426	-62.1569
1040.591	-55.83685
1040.755	-66.37014
1040.919	-1.05368
1041.083	-17.91182
1041.248	26.34407
1041.412	51.63784
1041.576	24.2364
1041.74	-24.23321
1041.904	43.20621
1042.068	-22.12611
1042.232	11.59093
1042.397	-38.98228
1042.561	-9.48295
1042.725	7.37596
1042.889	-5.26836
1043.053	-17.91182
1043.217	-34.76838
1043.381	11.59093
1043.544	-38.98228
1043.708	-70.58328
1043.872	32.66719
1044.036	9.48343
1044.2	9.48343
1044.364	45.31408
1044.528	1.05369
1044.691	-9.48295
1044.855	-32.6614
1045.019	5.26851
1045.183	-7.37567
1045.346	-15.80464
1045.51	-51.62336
1045.674	-43.19607
1045.837	-5.26836
1046.001	74.82672
1046.165	49.5299
1046.328	-5.26836
1046.492	-30.55439
1046.655	7.37596
1046.819	26.34407
1046.983	22.12877
1047.146	-5.26836
1047.31	32.66719
1047.473	-30.55439
1047.636	28.45175
1047.8	32.66719
1047.963	-43.19607
1048.127	-7.37567
1048.29	49.5299
