Data from mixed_try1_USB4F045381__11__00115.txt Node

Date: Thu Apr 03 19:59:34 EDT 2025
User: mmckonesweet
Spectrometer: USB4F04538
Trigger mode: 4
Integration Time (sec): 2.700000E-3
Scans to average: 1
Electric dark correction enabled: true
Nonlinearity correction enabled: true
Boxcar width: 0
XAxis mode: Wavelengths
Number of Pixels in Spectrum: 3648
>>>>>Begin Spectral Data<<<<<
345.52	-63.73688
345.736	-63.73688
345.952	-63.73688
346.168	45.84105
346.384	-19.49219
346.6	-13.17063
346.816	-4.74153
347.032	-40.56246
347.248	28.97868
347.464	-101.65198
347.68	-21.59933
347.896	14.22533
348.112	12.11781
348.328	39.51749
348.544	54.2728
348.76	3.68794
348.975	28.97868
349.191	10.01031
349.407	3.68794
349.623	37.40968
349.839	7.90283
350.055	45.84105
350.27	14.22533
350.486	-46.88306
350.702	56.38079
350.918	-53.20343
351.133	20.54805
351.349	-55.31017
351.565	24.76332
351.781	26.87099
351.996	1.58054
352.212	-55.31017
352.428	1.58054
352.644	58.48881
352.859	-63.73688
353.075	-8.95613
353.291	104.87091
353.506	16.33288
353.722	20.54805
353.938	24.76332
354.153	37.40968
354.369	-61.63024
354.584	26.87099
354.8	45.84105
355.016	-13.17063
355.231	28.97868
355.447	24.76332
355.662	-34.24164
355.878	3.68794
356.093	41.62532
356.309	20.54805
356.524	-34.24164
356.74	-2.6342
356.955	-19.49219
357.171	-4.74153
357.386	47.94895
357.602	41.62532
357.817	22.65567
358.033	12.11781
358.248	-30.02763
358.464	47.94895
358.679	71.13739
358.895	-61.63024
359.11	3.68794
359.325	-46.88306
359.541	3.68794
359.756	-30.02763
359.972	-57.41689
360.187	28.97868
360.402	45.84105
360.618	3.68794
360.833	20.54805
361.048	71.13739
361.264	-21.59933
361.479	3.68794
361.694	-72.16318
361.909	-19.49219
362.125	-46.88306
362.34	7.90283
362.555	-34.24164
362.77	33.19413
362.986	50.05688
363.201	14.22533
363.416	41.62532
363.631	-15.27784
363.847	64.813
364.062	-59.52357
364.277	-21.59933
364.492	1.58054
364.707	22.65567
364.922	-34.24164
365.138	-0.52684
365.353	60.59685
365.568	20.54805
365.783	14.22533
365.998	-21.59933
366.213	-13.17063
366.428	-21.59933
366.643	14.22533
366.858	-15.27784
367.073	33.19413
367.288	-38.45555
367.503	-11.06339
367.718	3.68794
367.933	10.01031
368.148	-11.06339
368.363	-0.52684
368.578	-78.48264
368.793	-21.59933
369.008	56.38079
369.223	5.79537
369.438	12.11781
369.653	7.90283
369.868	-23.70644
370.083	24.76332
370.298	1.58054
370.513	56.38079
370.728	33.19413
370.943	24.76332
371.157	-38.45555
371.372	-2.6342
371.587	-23.70644
371.802	-0.52684
372.017	-13.17063
372.232	50.05688
372.446	-80.58907
372.661	37.40968
372.876	-13.17063
373.091	-13.17063
373.306	22.65567
373.52	5.79537
373.735	14.22533
373.95	-44.77622
374.165	-2.6342
374.379	37.40968
374.594	7.90283
374.809	-13.17063
375.023	28.97868
375.238	50.05688
375.453	28.97868
375.667	41.62532
375.882	22.65567
376.097	31.08639
376.311	16.33288
376.526	18.44046
376.741	-36.3486
376.955	5.79537
377.17	-19.49219
377.384	-11.06339
377.599	-27.92059
377.813	33.19413
378.028	16.33288
378.242	12.11781
378.457	-11.06339
378.672	39.51749
378.886	16.33288
379.101	-8.95613
379.315	-44.77622
379.53	47.94895
379.744	79.57023
379.958	-4.74153
380.173	45.84105
380.387	5.79537
380.602	56.38079
380.816	37.40968
381.031	-13.17063
381.245	66.92111
381.459	-25.81353
381.674	-21.59933
381.888	73.24557
382.103	-4.74153
382.317	-36.3486
382.531	-8.95613
382.746	-21.59933
382.96	45.84105
383.174	-19.49219
383.388	-19.49219
383.603	-11.06339
383.817	7.90283
384.031	-17.38502
384.246	62.70491
384.46	3.68794
384.674	35.30189
384.888	-21.59933
385.103	5.79537
385.317	22.65567
385.531	16.33288
385.745	-0.52684
385.959	12.11781
386.174	-30.02763
386.388	-13.17063
386.602	-8.95613
386.816	54.2728
387.03	12.11781
387.244	7.90283
387.458	52.16483
387.672	10.01031
387.887	-0.52684
388.101	-25.81353
388.315	16.33288
388.529	-48.98987
388.743	7.90283
388.957	50.05688
389.171	-21.59933
389.385	-6.84884
389.599	16.33288
389.813	7.90283
390.027	-34.24164
390.241	-38.45555
390.455	-15.27784
390.669	45.84105
390.883	-0.52684
391.097	24.76332
391.311	-4.74153
391.525	16.33288
391.738	22.65567
391.952	1.58054
392.166	-25.81353
392.38	-76.37618
392.594	-8.95613
392.808	28.97868
393.022	14.22533
393.236	-13.17063
393.449	54.2728
393.663	-21.59933
393.877	-13.17063
394.091	37.40968
394.305	3.68794
394.518	-0.52684
394.732	-4.74153
394.946	45.84105
395.16	-42.66935
395.373	-13.17063
395.587	18.44046
395.801	54.2728
396.015	5.79537
396.228	88.00344
396.442	62.70491
396.656	12.11781
396.869	-11.06339
397.083	-4.74153
397.297	-4.74153
397.51	-13.17063
397.724	28.97868
397.938	7.90283
398.151	-21.59933
398.365	66.92111
398.578	-51.09666
398.792	-23.70644
399.005	-34.24164
399.219	71.13739
399.433	33.19413
399.646	75.35377
399.86	-15.27784
400.073	-17.38502
400.287	-27.92059
400.5	-4.74153
400.714	41.62532
400.927	71.13739
401.141	16.33288
401.354	71.13739
401.567	-55.31017
401.781	-34.24164
401.994	-70.05664
402.208	-13.17063
402.421	-32.13465
402.635	-53.20343
402.848	12.11781
403.061	14.22533
403.275	-93.22713
403.488	26.87099
403.701	-2.6342
403.915	20.54805
404.128	64.813
404.341	50.05688
404.555	-38.45555
404.768	28.97868
404.981	12.11781
405.195	-11.06339
405.408	-8.95613
405.621	45.84105
405.834	58.48881
406.048	28.97868
406.261	24.76332
406.474	-21.59933
406.687	26.87099
406.9	3.68794
407.114	-46.88306
407.327	-0.52684
407.54	79.57023
407.753	1.58054
407.966	-38.45555
408.179	24.76332
408.392	-59.52357
408.605	-38.45555
408.819	-0.52684
409.032	28.97868
409.245	-72.16318
409.458	-30.02763
409.671	-21.59933
409.884	81.6785
410.097	14.22533
410.31	12.11781
410.523	12.11781
410.736	-21.59933
410.949	20.54805
411.162	-80.58907
411.375	-4.74153
411.588	-27.92059
411.801	41.62532
412.014	-13.17063
412.227	-42.66935
412.44	31.08639
412.653	-30.02763
412.865	-0.52684
413.078	-4.74153
413.291	90.11179
413.504	-55.31017
413.717	-34.24164
413.93	-0.52684
414.143	-4.74153
414.356	33.19413
414.568	28.97868
414.781	37.40968
414.994	81.6785
415.207	33.19413
415.42	37.40968
415.632	45.84105
415.845	-0.52684
416.058	-2.6342
416.271	71.13739
416.483	64.813
416.696	3.68794
416.909	45.84105
417.121	5.79537
417.334	20.54805
417.547	37.40968
417.759	7.90283
417.972	-42.66935
418.185	14.22533
418.397	-51.09666
418.61	96.437
418.823	7.90283
419.035	33.19413
419.248	16.33288
419.46	37.40968
419.673	28.97868
419.885	-8.95613
420.098	18.44046
420.311	37.40968
420.523	-17.38502
420.736	3.68794
420.948	-34.24164
421.161	-59.52357
421.373	5.79537
421.586	-0.52684
421.798	37.40968
422.01	-36.3486
422.223	10.01031
422.435	24.76332
422.648	18.44046
422.86	62.70491
423.073	39.51749
423.285	26.87099
423.497	22.65567
423.71	50.05688
423.922	45.84105
424.134	-2.6342
424.347	31.08639
424.559	-4.74153
424.771	43.73317
424.984	-21.59933
425.196	16.33288
425.408	58.48881
425.621	-4.74153
425.833	35.30189
426.045	37.40968
426.257	5.79537
426.47	-30.02763
426.682	33.19413
426.894	52.16483
427.106	37.40968
427.318	-19.49219
427.531	28.97868
427.743	22.65567
427.955	5.79537
428.167	14.22533
428.379	-2.6342
428.591	-46.88306
428.804	-21.59933
429.016	94.32857
429.228	-13.17063
429.44	71.13739
429.652	28.97868
429.864	41.62532
430.076	-30.02763
430.288	50.05688
430.5	31.08639
430.712	-13.17063
430.924	-27.92059
431.136	50.05688
431.348	-76.37618
431.56	-4.74153
431.772	54.2728
431.984	3.68794
432.196	7.90283
432.408	47.94895
432.62	-4.74153
432.832	-30.02763
433.044	12.11781
433.256	-4.74153
433.468	3.68794
433.679	62.70491
433.891	3.68794
434.103	33.19413
434.315	24.76332
434.527	20.54805
434.739	5.79537
434.95	-38.45555
435.162	37.40968
435.374	106.97945
435.586	-57.41689
435.798	56.38079
436.009	-72.16318
436.221	52.16483
436.433	62.70491
436.645	-30.02763
436.856	10.01031
437.068	5.79537
437.28	-4.74153
437.491	45.84105
437.703	50.05688
437.915	3.68794
438.126	-23.70644
438.338	-4.74153
438.55	-57.41689
438.761	-15.27784
438.973	-38.45555
439.184	66.92111
439.396	24.76332
439.608	-19.49219
439.819	58.48881
440.031	12.11781
440.242	39.51749
440.454	-13.17063
440.665	7.90283
440.877	-11.06339
441.088	-30.02763
441.3	50.05688
441.511	-36.3486
441.723	-27.92059
441.934	56.38079
442.146	28.97868
442.357	-8.95613
442.569	20.54805
442.78	56.38079
442.991	24.76332
443.203	88.00344
443.414	-27.92059
443.626	14.22533
443.837	-42.66935
444.048	56.38079
444.26	62.70491
444.471	22.65567
444.682	-13.17063
444.894	5.79537
445.105	-11.06339
445.316	20.54805
445.528	-13.17063
445.739	54.2728
445.95	-4.74153
446.161	7.90283
446.373	39.51749
446.584	7.90283
446.795	-13.17063
447.006	-13.17063
447.217	14.22533
447.429	-46.88306
447.64	92.22017
447.851	12.11781
448.062	20.54805
448.273	33.19413
448.484	-13.17063
448.695	47.94895
448.907	-17.38502
449.118	-17.38502
449.329	12.11781
449.54	79.57023
449.751	-17.38502
449.962	37.40968
450.173	96.437
450.384	-34.24164
450.595	16.33288
450.806	47.94895
451.017	37.40968
451.228	-2.6342
451.439	20.54805
451.65	-27.92059
451.861	-11.06339
452.072	41.62532
452.283	31.08639
452.494	64.813
452.705	-4.74153
452.915	28.97868
453.126	-44.77622
453.337	-19.49219
453.548	5.79537
453.759	-2.6342
453.97	50.05688
454.181	-17.38502
454.391	75.35377
454.602	24.76332
454.813	-13.17063
455.024	-36.3486
455.235	56.38079
455.445	20.54805
455.656	-30.02763
455.867	-11.06339
456.078	64.813
456.288	-27.92059
456.499	56.38079
456.71	12.11781
456.921	52.16483
457.131	-34.24164
457.342	58.48881
457.553	56.38079
457.763	-76.37618
457.974	39.51749
458.184	69.02924
458.395	37.40968
458.606	-8.95613
458.816	-13.17063
459.027	64.813
459.237	96.437
459.448	-19.49219
459.659	-4.74153
459.869	22.65567
460.08	31.08639
460.29	-13.17063
460.501	5.79537
460.711	66.92111
460.922	75.35377
461.132	79.57023
461.343	-15.27784
461.553	-27.92059
461.764	-21.59933
461.974	-4.74153
462.184	-0.52684
462.395	12.11781
462.605	12.11781
462.816	-23.70644
463.026	75.35377
463.236	37.40968
463.447	20.54805
463.657	-70.05664
463.867	-19.49219
464.078	75.35377
464.288	7.90283
464.498	14.22533
464.709	-42.66935
464.919	1.58054
465.129	-17.38502
465.339	-25.81353
465.55	31.08639
465.76	10.01031
465.97	45.84105
466.18	50.05688
466.391	-27.92059
466.601	-13.17063
466.811	-13.17063
467.021	45.84105
467.231	-8.95613
467.441	28.97868
467.651	20.54805
467.862	-13.17063
468.072	7.90283
468.282	-27.92059
468.492	-4.74153
468.702	-11.06339
468.912	28.97868
469.122	47.94895
469.332	58.48881
469.542	20.54805
469.752	-67.95008
469.962	104.87091
470.172	-13.17063
470.382	73.24557
470.592	-21.59933
470.802	-48.98987
471.012	16.33288
471.222	47.94895
471.432	-19.49219
471.642	-4.74153
471.852	7.90283
472.062	20.54805
472.272	20.54805
472.482	66.92111
472.691	18.44046
472.901	-27.92059
473.111	-46.88306
473.321	-13.17063
473.531	-19.49219
473.741	43.73317
473.95	111.19658
474.16	37.40968
474.37	-19.49219
474.58	-4.74153
474.79	-11.06339
474.999	56.38079
475.209	7.90283
475.419	37.40968
475.628	-48.98987
475.838	66.92111
476.048	77.46199
476.258	-8.95613
476.467	3.68794
476.677	81.6785
476.886	37.40968
477.096	69.02924
477.306	-46.88306
477.515	28.97868
477.725	24.76332
477.935	90.11179
478.144	-0.52684
478.354	-2.6342
478.563	14.22533
478.773	37.40968
478.982	37.40968
479.192	7.90283
479.401	-55.31017
479.611	31.08639
479.82	-4.74153
480.03	50.05688
480.239	28.97868
480.449	-72.16318
480.658	64.813
480.868	5.79537
481.077	92.22017
481.287	22.65567
481.496	-11.06339
481.705	24.76332
481.915	37.40968
482.124	-13.17063
482.333	62.70491
482.543	-8.95613
482.752	12.11781
482.961	3.68794
483.171	37.40968
483.38	39.51749
483.589	-4.74153
483.799	28.97868
484.008	-84.80186
484.217	7.90283
484.426	98.54544
484.636	56.38079
484.845	73.24557
485.054	56.38079
485.263	37.40968
485.472	54.2728
485.682	-61.63024
485.891	39.51749
486.1	-8.95613
486.309	5.79537
486.518	24.76332
486.727	79.57023
486.936	37.40968
487.146	73.24557
487.355	3.68794
487.564	66.92111
487.773	43.73317
487.982	3.68794
488.191	14.22533
488.4	3.68794
488.609	45.84105
488.818	77.46199
489.027	81.6785
489.236	58.48881
489.445	12.11781
489.654	96.437
489.863	45.84105
490.072	69.02924
490.281	-36.3486
490.49	12.11781
490.698	-55.31017
490.907	28.97868
491.116	16.33288
491.325	83.78679
491.534	62.70491
491.743	39.51749
491.952	75.35377
492.16	24.76332
492.369	1.58054
492.578	-36.3486
492.787	22.65567
492.996	35.30189
493.204	66.92111
493.413	50.05688
493.622	31.08639
493.831	54.2728
494.039	45.84105
494.248	22.65567
494.457	56.38079
494.665	-11.06339
494.874	7.90283
495.083	109.088
495.291	35.30189
495.5	79.57023
495.709	3.68794
495.917	28.97868
496.126	98.54544
496.335	45.84105
496.543	31.08639
496.752	90.11179
496.96	83.78679
497.169	75.35377
497.377	45.84105
497.586	56.38079
497.794	88.00344
498.003	28.97868
498.211	90.11179
498.42	33.19413
498.628	-27.92059
498.837	-8.95613
499.045	35.30189
499.254	-38.45555
499.462	-8.95613
499.671	3.68794
499.879	33.19413
500.087	20.54805
500.296	62.70491
500.504	172.35468
500.713	16.33288
500.921	62.70491
501.129	92.22017
501.338	81.6785
501.546	81.6785
501.754	3.68794
501.962	71.13739
502.171	94.32857
502.379	16.33288
502.587	58.48881
502.795	24.76332
503.004	28.97868
503.212	47.94895
503.42	56.38079
503.628	69.02924
503.837	100.65391
504.045	52.16483
504.253	96.437
504.461	22.65567
504.669	79.57023
504.877	10.01031
505.085	41.62532
505.294	100.65391
505.502	-6.84884
505.71	138.61006
505.918	56.38079
506.126	-32.13465
506.334	45.84105
506.542	50.05688
506.75	66.92111
506.958	90.11179
507.166	28.97868
507.374	88.00344
507.582	33.19413
507.79	71.13739
507.998	66.92111
508.206	43.73317
508.414	81.6785
508.622	28.97868
508.83	41.62532
509.037	102.7624
509.245	43.73317
509.453	47.94895
509.661	71.13739
509.869	79.57023
510.077	106.97945
510.285	31.08639
510.492	58.48881
510.7	138.61006
510.908	111.19658
511.116	-63.73688
511.324	79.57023
511.531	39.51749
511.739	-4.74153
511.947	73.24557
512.155	88.00344
512.362	96.437
512.57	58.48881
512.778	96.437
512.985	94.32857
513.193	39.51749
513.401	62.70491
513.608	45.84105
513.816	140.71894
514.024	88.00344
514.231	121.73979
514.439	79.57023
514.646	98.54544
514.854	90.11179
515.061	75.35377
515.269	37.40968
515.477	39.51749
515.684	157.59075
515.892	130.17476
516.099	64.813
516.307	47.94895
516.514	73.24557
516.722	123.8485
516.929	54.2728
517.136	121.73979
517.344	33.19413
517.551	98.54544
517.759	62.70491
517.966	90.11179
518.173	64.813
518.381	130.17476
518.588	81.6785
518.796	113.30518
519.003	71.13739
519.21	163.91802
519.418	56.38079
519.625	106.97945
519.832	142.82785
520.039	98.54544
520.247	45.84105
520.454	14.22533
520.661	71.13739
520.868	73.24557
521.076	71.13739
521.283	33.19413
521.49	166.02716
521.697	79.57023
521.904	73.24557
522.112	132.28355
522.319	163.91802
522.526	121.73979
522.733	71.13739
522.94	172.35468
523.147	117.52244
523.354	172.35468
523.561	142.82785
523.768	90.11179
523.975	153.37267
524.183	157.59075
524.39	47.94895
524.597	106.97945
524.804	170.24549
525.011	100.65391
525.218	75.35377
525.425	115.4138
525.632	197.66663
525.838	155.4817
526.045	130.17476
526.252	88.00344
526.459	159.69982
526.666	185.01029
526.873	98.54544
527.08	123.8485
527.287	134.39237
527.494	7.90283
527.701	125.95723
527.907	149.15468
528.114	47.94895
528.321	147.04571
528.528	138.61006
528.735	71.13739
528.941	106.97945
529.148	121.73979
529.355	155.4817
529.562	149.15468
529.768	174.4639
529.975	92.22017
530.182	233.53017
530.388	248.29916
530.595	199.77609
530.802	115.4138
531.008	265.17916
531.215	208.21413
531.422	195.55718
531.628	168.13631
531.835	113.30518
532.042	168.13631
532.248	185.01029
532.455	176.57313
532.661	206.10459
532.868	134.39237
533.074	199.77609
533.281	113.30518
533.487	216.6525
533.694	191.33836
533.9	206.10459
534.107	193.44776
534.313	225.09118
534.52	178.68239
534.726	197.66663
534.933	185.01029
535.139	229.31064
535.345	218.76214
535.552	250.4091
535.758	267.28925
535.965	140.71894
536.171	315.82634
536.377	147.04571
536.584	187.11962
536.79	248.29916
536.996	239.85962
537.203	208.21413
537.409	142.82785
537.615	235.63997
537.821	178.68239
538.028	250.4091
538.234	189.22898
538.44	248.29916
538.646	239.85962
538.853	189.22898
539.059	267.28925
539.265	288.39113
539.471	214.54287
539.677	292.61173
539.883	197.66663
540.09	231.42039
540.296	269.39935
540.502	309.49486
540.708	296.83241
540.914	269.39935
541.12	315.82634
541.326	271.50948
541.532	250.4091
541.738	214.54287
541.944	260.95905
542.15	277.83996
542.356	273.61962
542.562	330.6004
542.768	214.54287
542.974	265.17916
543.18	265.17916
543.386	330.6004
543.592	277.83996
543.798	368.59479
544.004	349.59689
544.21	332.71105
544.415	349.59689
544.621	374.92772
544.827	286.28086
545.033	370.70575
545.239	315.82634
545.445	341.15383
545.651	374.92772
545.856	374.92772
546.062	408.70593
546.268	309.49486
546.474	275.72978
546.679	438.26527
546.885	326.37915
547.091	402.37219
547.297	415.03981
547.502	425.5966
547.708	349.59689
547.914	442.48828
548.119	374.92772
548.325	408.70593
548.531	355.92937
548.736	461.49263
548.942	324.26855
549.147	385.48296
549.353	341.15383
549.559	408.70593
549.764	438.26527
549.97	442.48828
550.175	393.92744
550.381	421.37383
550.586	358.04023
550.792	467.82768
550.997	383.37188
551.203	484.72183
551.408	377.03874
551.614	472.05113
551.819	419.26247
552.025	510.06483
552.23	453.0461
552.435	535.4099
552.641	442.48828
552.846	512.17684
553.052	476.27464
553.257	425.5966
553.462	421.37383
553.668	510.06483
553.873	577.65613
554.078	567.09406
554.283	478.38641
554.489	548.0832
554.694	537.52208
554.899	518.51296
555.105	514.28887
555.31	628.35855
555.515	590.33104
555.72	628.35855
555.925	436.15378
556.131	653.71246
556.336	514.28887
556.541	598.78124
556.746	510.06483
556.951	742.46427
557.156	611.45693
557.361	632.58408
557.567	558.64466
557.772	581.88105
557.977	577.65613
558.182	586.10602
558.387	605.11903
558.592	611.45693
558.797	594.55612
559.002	679.06809
559.207	552.30774
559.412	664.2771
559.617	567.09406
559.822	641.03529
560.027	672.72903
560.232	622.02035
560.437	611.45693
560.642	723.44439
560.847	676.95506
561.051	772.05243
561.256	657.93829
561.461	780.50655
561.666	704.42538
561.871	695.97277
562.076	744.57764
562.281	755.14466
562.485	695.97277
562.69	710.76495
562.895	695.97277
563.1	772.05243
563.305	672.72903
563.509	856.60045
563.714	577.65613
563.919	831.2345
564.123	738.23756
564.328	862.94213
564.533	757.2581
564.737	822.77947
564.942	723.44439
565.147	714.99138
565.351	865.05604
565.556	761.485
565.761	765.71194
565.965	788.96083
566.17	670.61603
566.374	852.3727
566.579	763.59846
566.784	881.96763
566.988	712.87816
567.193	856.60045
567.397	865.05604
567.602	909.45008
567.806	687.52034
568.011	945.39064
568.215	907.336
568.42	890.42363
568.624	865.05604
568.828	943.27643
569.033	907.336
569.237	1053.22416
569.442	951.73331
569.646	898.87975
569.85	974.99031
570.055	1042.65153
570.259	905.22192
570.463	1038.42252
570.668	928.47716
570.872	987.67629
571.076	900.9938
571.281	1118.77737
571.485	881.96763
571.689	960.1903
571.893	962.30457
572.098	1093.40136
572.302	1046.88057
572.506	1110.31863
572.71	953.84754
572.914	1135.69509
573.119	1144.15405
573.323	1042.65153
573.527	962.30457
573.731	1279.50535
573.935	1118.77737
574.139	1076.48441
574.343	955.96179
574.547	1156.84262
574.751	951.73331
574.955	1182.22019
575.159	1032.07905
575.364	1129.35091
575.568	1063.79692
575.772	1118.77737
575.976	996.13375
576.18	1237.20668
576.383	1065.91149
576.587	1161.07218
576.791	1000.36252
576.995	1264.7007
577.199	1139.92456
577.403	1129.35091
577.607	1226.63219
577.811	1271.04553
578.015	1177.99056
578.219	1218.17265
578.422	1167.41654
578.626	1330.26495
578.83	1161.07218
579.034	1323.91994
579.238	1194.90918
579.442	1300.65505
579.645	1222.40241
579.849	1330.26495
580.053	1262.58576
580.257	1340.84
580.46	1232.97688
580.664	1402.1759
580.868	1307
581.071	1370.45033
581.275	1296.42509
581.479	1366.22027
581.682	1241.4365
581.886	1440.24679
582.09	1258.35589
582.293	1457.16721
582.497	1317.57495
582.7	1427.55648
582.904	1423.32638
583.107	1634.82871
583.311	1300.65505
583.515	1493.12306
583.718	1330.26495
583.922	1516.38855
584.125	1372.56536
584.329	1425.44143
584.532	1383.14053
584.735	1609.44912
584.939	1433.90163
585.142	1474.08762
585.346	1321.80494
585.549	1567.1492
585.753	1516.38855
585.956	1749.0321
586.159	1562.91918
586.363	1586.18425
586.566	1499.4682
586.769	1588.29925
586.973	1510.04342
587.176	1626.36888
587.379	1516.38855
587.582	1793.44186
587.786	1615.79405
587.989	1808.24471
588.192	1704.62072
588.395	1801.90066
588.599	1736.34329
588.802	1846.3082
589.005	1514.27351
589.208	1683.47195
589.411	1732.11366
589.615	1710.9653
589.818	1626.36888
590.021	1668.66763
590.224	1550.22906
590.427	1672.89745
590.63	1753.26167
590.833	1596.75922
591.036	1626.36888
591.239	1922.43038
591.442	1541.76896
591.645	1911.85827
591.848	1804.01535
592.051	1922.43038
592.254	1778.6388
592.457	2034.48557
592.66	1753.26167
592.863	2015.45859
593.066	1793.44186
593.269	1930.88797
593.472	1992.20267
593.675	1933.00235
593.878	1806.13003
594.081	2070.42389
594.284	1947.80287
594.486	2085.22143
594.689	2061.968
594.892	2051.39797
595.095	1913.9727
595.298	1941.45983
595.5	1905.51493
595.703	2002.77364
595.906	1907.62938
596.109	2129.61184
596.311	1890.71363
596.514	2028.1433
596.717	1871.683
596.92	2171.88521
597.122	2061.968
597.325	2038.71371
597.528	2163.4308
597.73	2116.9292
597.933	2184.56659
598.136	2351.50832
598.338	1907.62938
598.541	2300.79797
598.743	2125.38432
598.946	2220.49552
599.148	2028.1433
599.351	2235.28905
599.554	2235.28905
599.756	2332.4926
599.959	2144.40788
600.161	2400.10036
600.363	2264.87482
600.566	2205.70155
600.768	2186.68013
600.971	2518.38794
601.173	2260.64839
601.376	2518.38794
601.578	2218.38212
601.78	2556.40148
601.983	2351.50832
602.185	2315.58907
602.388	2150.74893
602.59	2514.16399
602.792	2277.55388
602.995	2482.48286
603.197	2281.78017
603.399	2710.52733
603.601	2319.81501
603.804	2448.6869
604.006	2362.07226
604.208	2592.29966
604.41	2478.25852
604.613	2429.67545
604.815	2315.58907
605.017	2556.40148
605.219	2414.88816
605.421	2607.08025
605.623	2311.36309
605.826	2805.50224
606.028	2547.95435
606.23	2558.51323
606.432	2522.61185
606.634	2598.63427
606.836	2465.58523
607.038	2581.74173
607.24	2668.3077
607.442	2773.84696
607.644	2507.82796
607.846	2598.63427
608.048	2531.05954
608.25	2560.62498
608.452	2664.08545
608.654	2801.28171
608.856	2471.92192
609.058	2718.97063
609.26	2611.30317
609.462	2837.15442
609.664	2465.58523
609.866	2746.40992
610.067	2512.05199
610.269	2813.94312
610.471	2598.63427
610.673	2797.06113
610.875	2623.97162
611.077	2809.72271
611.278	2372.63596
611.48	2750.63115
611.682	2585.96494
611.884	2803.39198
612.085	2702.08382
612.287	2856.14422
612.489	2649.3072
612.69	2786.50944
612.892	2767.51554
613.094	2854.0343
613.295	2531.05954
613.497	2896.23002
613.699	2655.64081
613.9	2784.39906
614.102	2678.86309
614.304	2940.5293
614.505	2592.29966
614.707	3058.62856
614.908	2647.19597
615.11	2894.12037
615.311	2531.05954
615.513	2773.84696
615.714	2712.63818
615.916	2786.50944
616.117	2896.23002
616.319	2957.40352
616.52	2868.80345
616.722	3126.09209
616.923	2864.58376
617.124	2843.48448
617.326	2721.08143
617.527	3105.01148
617.729	2864.58376
617.93	2913.10669
618.131	2868.80345
618.333	2932.09184
618.534	2993.25806
618.735	3062.8455
618.937	2936.3106
619.138	3128.20006
619.339	2837.15442
619.54	3098.68698
619.742	2978.49495
619.943	3109.22773
620.144	3014.34692
620.345	2957.40352
620.546	2904.66847
620.748	3130.30802
620.949	3058.62856
621.15	3138.73969
621.351	2877.24265
621.552	3130.30802
621.753	2854.0343
621.954	3279.9312
622.155	3105.01148
622.356	3117.66003
622.558	3003.80268
622.759	3273.61079
622.96	3054.41155
623.161	3359.97637
623.362	3088.14584
623.563	3073.38758
623.764	3073.38758
623.965	3387.35449
624.166	3003.80268
624.366	3345.23308
624.567	2940.5293
624.768	3366.29466
624.969	3159.81773
625.17	3100.79516
625.371	3010.12927
625.572	3341.02055
625.773	3008.02042
625.973	3286.25146
626.174	3174.5714
626.375	3376.8248
626.576	3123.9841
626.777	3248.32764
626.977	3176.679
627.178	3260.96952
627.379	3079.71265
627.58	3260.96952
627.78	3159.81773
627.981	3391.56625
628.182	3334.70163
628.382	3421.04657
628.583	3250.43466
628.784	3290.46487
628.984	3199.86153
629.185	3486.31196
629.386	3341.02055
629.586	3477.89159
629.787	3189.32426
629.987	3450.5234
630.188	3309.42441
630.388	3581.02096
630.589	3218.82758
630.79	3541.03726
630.99	3269.3971
631.191	3435.78542
631.391	3277.82441
631.591	3433.67992
631.792	3383.14267
631.992	3501.04691
632.193	3349.44553
632.393	3503.15183
632.594	3366.29466
632.794	3393.6721
632.994	3338.91426
633.195	3435.78542
633.395	3391.56625
633.595	3635.72459
633.796	3404.2011
633.996	3654.6575
634.196	3475.78646
634.397	3684.10563
634.597	3496.83702
634.797	3766.11985
634.997	3564.18654
635.198	3627.30948
635.398	3644.13941
635.598	3538.93267
635.798	3547.35092
635.998	3602.06232
636.199	3635.72459
636.399	3740.88784
636.599	3484.2069
636.799	3614.68624
636.999	3431.57441
637.199	3822.88158
637.399	3511.57133
637.599	3620.99794
637.799	3463.15525
637.999	3740.88784
638.199	3534.72344
638.399	3677.79563
638.599	3711.44696
638.799	3938.46261
638.999	3963.6722
639.199	3932.15975
639.399	3524.20003
639.599	3797.65591
639.799	3627.30948
639.999	3787.14438
640.199	3526.30474
640.399	3663.07163
640.599	3300.99812
640.799	4135.85866
640.998	3837.59524
641.198	3913.2501
641.398	3547.35092
641.598	3818.6775
641.798	3879.62892
641.997	3974.17533
642.197	3782.93963
642.397	4085.47703
642.597	3711.44696
642.796	3969.97414
642.996	4014.08259
643.196	4030.88343
643.395	3923.75566
643.595	4089.67596
643.795	3881.73039
643.994	4039.28335
644.194	3877.52742
644.394	4041.38328
644.593	3755.60685
644.793	3982.57747
644.992	3883.83184
645.192	3820.77955
645.392	3959.4708
645.591	3976.2759
645.791	3850.20618
645.99	3957.37007
646.19	3888.03469
646.389	3951.06777
646.589	3957.37007
646.788	4205.11365
646.987	4116.96696
647.187	4133.75966
647.386	3858.61308
647.586	4100.17292
647.785	3846.00261
647.984	4223.99737
648.184	4077.07893
648.383	4261.75966
648.582	4032.98344
648.782	4077.07893
648.981	4066.58083
649.18	4268.0527
649.38	4173.63695
649.579	4257.56419
649.778	4140.05658
649.977	4458.84923
650.177	4289.02811
650.376	4349.84463
650.575	3930.05876
650.774	4114.86778
650.973	4200.91703
651.173	3984.67796
651.372	4064.48115
651.571	4293.22293
651.77	4030.88343
651.969	4234.48759
652.168	4198.81869
652.367	4341.45722
652.566	4324.68137
652.765	4519.61452
652.964	4333.06947
653.163	4467.23175
653.362	4391.77645
653.561	4263.85736
653.76	4161.04495
653.959	4427.41165
654.158	4125.36348
654.357	4416.93137
654.556	3997.28043
654.755	4504.94873
654.954	4511.2342
655.153	4534.27922
655.352	4330.97248
655.551	4567.79445
655.749	4295.32031
655.948	4664.11898
656.147	4408.54674
656.346	4626.43241
656.545	4511.2342
656.743	4632.71401
656.942	4419.02747
657.141	4536.37409
657.34	4333.06947
657.538	4565.69992
657.737	4492.3772
657.936	4795.96449
658.135	4368.71502
658.333	4479.80487
658.532	4450.46636
658.731	4603.39815
658.929	4460.94489
659.128	4553.13224
659.326	4408.54674
659.525	4546.8481
659.724	4406.45053
659.922	4492.3772
660.121	4215.60482
660.319	4437.89139
660.518	4507.04391
660.716	4548.94283
660.915	4458.84923
661.113	4685.05282
661.312	4509.13907
661.51	4414.83524
661.709	4592.92715
661.907	4659.93194
662.105	4563.60536
662.304	4682.95953
662.502	4439.98728
662.701	4590.83288
662.899	4517.51947
663.097	4697.61204
663.296	4618.05663
663.494	4697.61204
663.692	4341.45722
663.891	4802.24061
664.089	4567.79445
664.287	4718.54228
664.485	4557.32155
664.684	5161.72607
664.882	4546.8481
665.08	4850.35069
665.278	4609.68049
665.476	4720.63518
665.675	4659.93194
665.873	4829.43475
666.071	4561.51078
666.269	4657.83839
666.467	4664.11898
666.665	4798.05656
666.863	4622.24456
667.061	4848.2592
667.259	4450.46636
667.457	4793.87241
667.655	4463.04053
667.853	4814.79223
668.051	4795.96449
668.249	4685.05282
668.447	4400.16177
668.645	4605.49229
668.843	4563.60536
669.041	4844.07615
669.239	4607.5864
669.437	4760.39598
669.635	4772.95032
669.833	4752.02596
670.031	4703.89135
670.229	4726.91374
670.426	4544.75334
670.624	4883.81146
670.822	4664.11898
671.02	4829.43475
671.218	4821.06773
671.415	4936.08217
671.613	4810.60845
671.811	4808.51652
672.009	4724.82091
672.206	4818.97592
672.404	4615.96263
672.602	4726.91374
672.799	4592.92715
672.997	4850.35069
673.195	4743.65558
673.392	4779.22718
673.59	4764.58085
673.788	4890.0847
673.985	4695.51889
674.183	4940.26321
674.38	4779.22718
674.578	4731.09934
674.775	4910.99402
674.973	5071.91871
675.17	4852.44216
675.368	4835.70977
675.565	4793.87241
675.763	5122.04904
675.96	4994.60832
676.158	5048.93785
676.355	4576.17237
676.553	4821.06773
676.75	4659.93194
676.947	4890.0847
677.145	4517.51947
677.342	4929.81044
677.539	4779.22718
677.737	4896.35773
677.934	4829.43475
678.131	4835.70977
678.329	4760.39598
678.526	4760.39598
678.723	5007.14729
678.92	5105.34042
679.118	4931.90104
679.315	4860.80781
679.512	4758.30351
679.709	4986.24855
679.906	4582.45558
680.104	4913.08482
680.301	4729.00655
680.498	4806.42457
680.695	4881.72033
680.892	5203.48228
681.089	4961.16701
681.286	5074.00774
681.483	4754.1185
681.68	4994.60832
681.877	4936.08217
682.075	5055.20563
682.272	4787.59602
682.469	5145.02097
682.665	4697.61204
682.862	4969.52789
683.059	4752.02596
683.256	5115.78348
683.453	4668.30592
683.65	4867.08181
683.847	4808.51652
684.044	4764.58085
684.241	4804.3326
684.438	5082.36363
684.635	4714.35641
684.831	4854.53361
685.028	4762.48842
685.225	5193.0441
685.422	4659.93194
685.619	4770.85798
685.815	4831.52644
686.012	4877.53801
686.209	4538.46893
686.405	4869.17309
686.602	4743.65558
686.799	4569.88897
686.996	4844.07615
687.192	4798.05656
687.389	4630.62016
687.586	4737.37756
687.782	4860.80781
687.979	5080.27469
688.175	4735.28484
688.372	5090.71915
688.568	4682.95953
688.765	4929.81044
688.962	4877.53801
689.158	4977.8884
689.355	4724.82091
689.551	5007.14729
689.748	4754.1185
689.944	4879.62918
690.14	4710.17045
690.337	4800.14859
690.533	4678.7729
690.73	4852.44216
690.926	4735.28484
691.123	4879.62918
691.319	4785.50385
691.515	4927.71982
691.712	4592.92715
691.908	4879.62918
692.104	4651.55759
692.301	5023.86462
692.497	4902.63056
692.693	4967.43771
692.889	4798.05656
693.086	4873.3556
693.282	4756.21101
693.478	4954.89611
693.674	4752.02596
693.87	4986.24855
694.067	4714.35641
694.263	4940.26321
694.459	4917.26636
694.655	4988.33852
694.851	4919.3571
695.047	5061.47321
695.243	4904.72146
695.439	4908.90319
695.635	4651.55759
695.831	4885.90256
696.027	4896.35773
696.224	4894.26675
696.42	4701.79827
696.615	4894.26675
696.811	4659.93194
697.007	4925.62917
697.203	4798.05656
697.399	5069.82966
697.595	4576.17237
697.791	4818.97592
697.987	4745.74821
698.183	4837.8014
698.379	4586.64427
698.575	5013.41646
698.77	4793.87241
698.966	5136.66787
699.162	4800.14859
699.358	4988.33852
699.554	4691.33253
699.749	4952.80577
699.945	4839.893
700.141	4982.06852
700.337	4921.44781
700.532	4923.53851
700.728	4754.1185
700.924	4827.34303
701.119	4864.9905
701.315	4720.63518
701.511	4532.18433
701.706	4662.02547
701.902	4739.47026
702.097	4948.62501
702.293	4881.72033
702.489	5119.96054
702.684	4795.96449
702.88	5103.25173
703.075	4735.28484
703.271	5090.71915
703.466	4693.42572
703.662	4906.81234
703.857	4791.7803
704.053	5128.31439
704.248	4900.53964
704.443	4963.25727
704.639	5109.51771
704.834	4967.43771
705.03	4894.26675
705.225	4875.44682
705.42	4831.52644
705.616	5002.96772
705.811	4754.1185
706.006	5040.58047
706.202	4804.3326
706.397	4921.44781
706.592	4743.65558
706.787	4867.08181
706.983	4844.07615
707.178	5000.87791
707.373	4772.95032
707.568	4975.79831
707.763	4764.58085
707.959	5046.84854
708.154	4831.52644
708.349	5021.77503
708.544	4584.54994
708.739	4904.72146
708.934	4825.25128
709.129	4946.53459
709.324	4933.99162
709.519	5243.14204
709.714	4814.79223
709.909	4975.79831
710.104	4747.84082
710.299	4954.89611
710.494	4806.42457
710.689	5053.11639
710.884	4718.54228
711.079	5153.37371
711.274	4676.67955
711.469	4984.15855
711.664	4821.06773
711.859	4662.02547
712.054	4676.67955
712.249	4890.0847
712.443	4821.06773
712.638	4883.81146
712.833	4685.05282
713.028	4915.1756
713.223	4530.08941
713.417	4846.16769
713.612	4722.72805
713.807	5082.36363
714.002	4762.48842
714.196	4959.07674
714.391	4628.52629
714.586	4919.3571
714.78	4724.82091
714.975	5071.91871
715.17	4779.22718
715.364	4959.07674
715.559	4655.74481
715.754	4831.52644
715.948	4636.90163
716.143	4877.53801
716.337	4662.02547
716.532	4988.33852
716.726	4854.53361
716.921	4902.63056
717.115	4691.33253
717.31	4883.81146
717.504	4869.17309
717.699	4910.99402
717.893	4689.23931
718.088	5184.69314
718.282	4806.42457
718.476	4831.52644
718.671	4685.05282
718.865	4789.68817
719.059	4785.50385
719.254	4998.78807
719.448	4574.07793
719.642	4835.70977
719.837	4479.80487
720.031	4873.3556
720.225	4460.94489
720.419	4917.26636
720.614	4595.02139
720.808	4798.05656
721.002	4446.27479
721.196	4931.90104
721.39	4611.77456
721.585	4756.21101
721.779	4735.28484
721.973	4875.44682
722.167	4584.54994
722.361	4846.16769
722.555	4599.20982
722.749	4766.67325
722.943	4530.08941
723.137	4710.17045
723.331	4530.08941
723.525	4618.05663
723.719	4502.85353
723.913	4620.15061
724.107	4389.68007
724.301	4739.47026
724.495	4358.23169
724.689	4737.37756
724.883	4569.88897
725.077	4936.08217
725.271	4804.3326
725.465	4864.9905
725.659	4542.65856
725.853	4770.85798
726.046	4416.93137
726.24	4678.7729
726.434	4548.94283
726.628	4789.68817
726.822	4492.3772
727.015	4806.42457
727.209	4421.12355
727.403	4641.08916
727.596	4477.70941
727.79	4850.35069
727.984	4592.92715
728.177	4839.893
728.371	4735.28484
728.565	4814.79223
728.758	4609.68049
728.952	5002.96772
729.146	4584.54994
729.339	5228.53153
729.533	4634.80783
729.726	4969.52789
729.92	4492.3772
730.113	4680.86623
730.307	4802.24061
730.5	4705.98441
730.694	4731.09934
730.887	4643.18289
731.081	4601.304
731.274	4693.42572
731.468	4611.77456
731.661	4779.22718
731.854	4542.65856
732.048	4496.5678
732.241	4743.65558
732.435	4785.50385
732.628	4703.89135
732.821	4580.3612
733.014	4701.79827
733.208	4829.43475
733.401	4752.02596
733.594	4645.2766
733.788	4551.03755
733.981	4798.05656
734.174	4841.98459
734.367	4664.11898
734.56	4685.05282
734.754	4902.63056
734.947	4768.76563
735.14	4816.88408
735.333	4603.39815
735.526	4779.22718
735.719	4559.41618
735.912	4618.05663
736.105	4427.41165
736.298	4789.68817
736.491	4722.72805
736.684	4752.02596
736.877	4561.51078
737.07	4810.60845
737.263	4716.44936
737.456	4682.95953
737.649	4444.17898
737.842	4609.68049
738.035	4641.08916
738.228	4502.85353
738.421	4592.92715
738.614	4733.1921
738.807	4793.87241
739	4745.74821
739.192	4618.05663
739.385	4689.23931
739.578	4712.26344
739.771	4693.42572
739.964	4620.15061
740.156	4534.27922
740.349	4509.13907
740.542	4638.9954
740.735	4402.25805
740.927	4634.80783
741.12	4601.304
741.313	4827.34303
741.505	4643.18289
741.698	4710.17045
741.891	4530.08941
742.083	4894.26675
742.276	4643.18289
742.468	4605.49229
742.661	4509.13907
742.854	4735.28484
743.046	4483.99574
743.239	4664.11898
743.431	4804.3326
743.624	4632.71401
743.816	4672.49278
744.009	4779.22718
744.201	4775.04263
744.393	4693.42572
744.586	4643.18289
744.778	4779.22718
744.971	4557.32155
745.163	4569.88897
745.355	4458.84923
745.548	4548.94283
745.74	4446.27479
745.932	4446.27479
746.125	4527.99448
746.317	4695.51889
746.509	4777.13492
746.702	4827.34303
746.894	4460.94489
747.086	4687.14608
747.278	4486.09113
747.471	4628.52629
747.663	4511.2342
747.855	4701.79827
748.047	4668.30592
748.239	4703.89135
748.431	4395.96915
748.623	4743.65558
748.815	4421.12355
749.008	4689.23931
749.2	4718.54228
749.392	4534.27922
749.584	4634.80783
749.776	4806.42457
749.968	4634.80783
750.16	4634.80783
750.352	4580.3612
750.544	4680.86623
750.736	4710.17045
750.928	4580.3612
751.12	4532.18433
751.311	4525.89952
751.503	4389.68007
751.695	4611.77456
751.887	4341.45722
752.079	4720.63518
752.271	4668.30592
752.463	4597.11562
752.654	4626.43241
752.846	4672.49278
753.038	4379.19782
753.23	4643.18289
753.421	4590.83288
753.613	4571.98346
753.805	4634.80783
753.997	4647.37029
754.188	4500.75831
754.38	4500.75831
754.572	4624.33849
754.763	4603.39815
754.955	4569.88897
755.146	4622.24456
755.338	4402.25805
755.53	4429.50765
755.721	4427.41165
755.913	4437.89139
756.104	4333.06947
756.296	4463.04053
756.487	4270.15033
756.679	4576.17237
756.87	4106.47084
757.062	4182.03121
757.253	4502.85353
757.445	4433.69956
757.636	4312.09858
757.827	4456.75355
758.019	4322.58429
758.21	4544.75334
758.401	4286.93066
758.593	4337.26339
758.784	4179.93267
758.975	4240.78146
759.167	4297.41767
759.358	4316.29293
759.549	4177.83412
759.74	4158.94621
759.932	4158.94621
760.123	4253.36863
760.314	4188.32667
760.505	4247.07515
760.696	4177.83412
760.888	4223.99737
761.079	4106.47084
761.27	4286.93066
761.461	4198.81869
761.652	4393.87281
761.843	4257.56419
762.034	4249.173
762.225	4020.38305
762.416	4305.80689
762.607	4265.95504
762.798	4127.46256
762.989	4286.93066
763.18	4375.00476
763.371	4043.48319
763.562	4268.0527
763.753	4133.75966
763.944	4383.39078
764.135	4244.97727
764.326	4379.19782
764.517	4169.4397
764.708	4259.66193
764.899	4104.37155
765.089	4110.66935
765.28	4091.77539
765.471	4207.21192
765.662	3806.06478
765.853	4072.87975
766.043	4030.88343
766.234	4064.48115
766.425	3841.79897
766.615	4030.88343
766.806	4028.78339
766.997	4240.78146
767.187	4043.48319
767.378	4064.48115
767.569	3860.71475
767.759	4133.75966
767.95	4024.58326
768.141	4116.96696
768.331	4032.98344
768.522	4022.48317
768.712	3803.9626
768.903	4125.36348
769.093	3728.27078
769.284	3846.00261
769.474	3890.13609
769.665	3904.84529
769.855	3824.98359
770.046	3934.26072
770.236	3900.64276
770.426	3764.01729
770.617	3890.13609
770.807	3864.91804
770.998	3719.85903
771.188	4011.98239
771.378	3890.13609
771.569	3969.97414
771.759	3898.54146
771.949	3728.27078
772.139	3858.61308
772.33	3780.83723
772.52	3948.96696
772.71	3837.59524
772.9	3648.3467
773.09	3879.62892
773.281	3757.70949
773.471	3690.41545
773.661	3648.3467
773.851	3642.03573
774.041	3618.89406
774.231	3715.65303
774.421	3517.88576
774.611	3698.82829
774.802	3721.962
774.992	3618.89406
775.182	3646.24307
775.372	3824.98359
775.562	3568.39525
775.752	3578.91673
775.942	3509.46648
776.131	3728.27078
776.321	3519.99053
776.511	3881.73039
776.701	3530.51413
776.891	3787.14438
777.081	3791.34905
777.271	3860.71475
777.461	3869.12125
777.651	3761.91471
777.84	3650.45032
778.03	3608.37436
778.22	3471.57613
778.41	3650.45032
778.599	3463.15525
778.789	3669.38203
778.979	3458.94471
779.169	3618.89406
779.358	3429.46888
779.548	3454.73409
779.738	3458.94471
779.927	3627.30948
780.117	3627.30948
780.307	3587.33357
780.496	3536.82806
780.686	3696.72511
780.875	3433.67992
781.065	3637.82833
781.254	3359.97637
781.444	3545.24639
781.633	3606.27037
781.823	3511.57133
782.012	3408.41257
782.202	3581.02096
782.391	3170.35615
782.581	3370.50677
782.77	3341.02055
782.96	3471.57613
783.149	3223.04207
783.338	3296.78487
783.528	3439.99636
783.717	3501.04691
783.906	3267.29023
784.096	3448.41803
784.285	3155.60225
784.474	3326.27617
784.663	3216.72031
784.853	3168.2485
785.042	3016.45573
785.231	3378.93077
785.42	3206.1837
785.61	3307.31787
785.799	3185.10924
785.988	3284.14472
786.177	3147.1711
786.366	3172.46378
786.555	3094.47057
786.744	3250.43466
786.933	3153.49449
787.122	3279.9312
787.312	3138.73969
787.501	3214.61302
787.69	3176.679
787.879	3425.25776
788.068	3134.52389
788.257	3105.01148
788.445	2967.94942
788.634	3389.46038
788.823	3020.67329
789.012	3134.52389
789.201	3105.01148
789.39	3189.32426
789.579	3020.67329
789.768	3265.18335
789.957	3056.52006
790.145	3113.44391
790.334	3185.10924
790.523	3362.08248
790.712	3073.38758
790.9	3317.85043
791.089	3248.32764
791.278	3227.2565
791.467	2959.51273
791.655	3273.61079
791.844	3115.55198
792.033	3033.3256
792.221	3005.91156
792.41	3041.76017
792.599	2843.48448
792.787	3147.1711
792.976	2989.0401
793.164	3105.01148
793.353	2716.85983
793.541	2980.60401
793.73	3020.67329
793.918	2860.36402
794.107	2695.75104
794.295	2932.09184
794.484	2801.28171
794.672	3210.39839
794.861	3029.10822
795.049	3168.2485
795.238	3012.23811
795.426	3024.89079
795.614	2946.85725
795.803	3043.86877
795.991	3003.80268
796.179	2902.55888
796.368	2771.7365
796.556	2801.28171
796.744	2607.08025
796.932	2929.98244
797.121	2674.64097
797.309	2860.36402
797.497	2632.41701
797.685	2894.12037
797.874	2708.41647
798.062	2919.43521
798.25	2775.95741
798.438	2978.49495
798.626	2729.52447
798.814	2917.32572
799.002	2978.49495
799.19	2870.91327
799.378	2832.93431
799.566	2803.39198
799.755	2623.97162
799.943	2995.36701
800.131	2799.17143
800.318	2932.09184
800.506	2775.95741
800.694	2851.92436
800.882	2695.75104
801.07	2851.92436
801.258	2748.52054
801.446	2809.72271
801.634	2657.75199
801.822	2765.40504
802.01	2638.75093
802.197	2847.70445
802.385	2676.75204
802.573	2778.06784
802.761	2710.52733
802.949	3001.69379
803.136	2906.77805
803.324	2830.82423
803.512	2716.85983
803.699	2986.9311
803.887	2778.06784
804.075	2959.51273
804.262	2598.63427
804.45	2917.32572
804.638	2725.30298
804.825	2820.27364
805.013	2657.75199
805.201	2860.36402
805.388	2750.63115
805.576	2887.79133
805.763	2830.82423
805.951	2761.18399
806.138	2733.74591
806.326	2929.98244
806.513	2929.98244
806.701	2894.12037
806.888	2710.52733
807.075	2910.99716
807.263	2573.29517
807.45	2982.71306
807.638	2693.6401
807.825	2986.9311
808.012	2820.27364
808.2	2989.0401
808.387	2948.96653
808.574	2919.43521
808.761	2963.73111
808.949	2927.87302
809.136	2691.52913
809.323	2940.5293
809.51	2710.52733
809.698	2801.28171
809.885	2894.12037
810.072	2873.02308
810.259	2889.90102
810.446	2919.43521
810.633	2750.63115
810.82	3064.95395
811.008	2769.62603
811.195	2902.55888
811.382	2721.08143
811.569	2887.79133
811.756	2854.0343
811.943	2970.05856
812.13	2735.85661
812.317	2989.0401
812.504	2845.59447
812.691	2938.41996
812.878	2915.21621
813.064	2997.47595
813.251	2710.52733
813.438	2989.0401
813.625	2756.9629
813.812	2894.12037
813.999	2830.82423
814.186	3050.19449
814.372	2896.23002
814.559	3128.20006
814.746	2809.72271
814.933	2913.10669
815.12	2822.38379
815.306	2906.77805
815.493	2604.96877
815.68	2936.3106
815.866	2794.95082
816.053	3054.41155
816.24	2828.71414
816.426	2999.58488
816.613	2765.40504
816.799	2995.36701
816.986	2976.38587
817.173	3054.41155
817.359	2792.8405
817.546	2934.20123
817.732	2740.07798
817.919	2980.60401
818.105	2862.4739
818.292	2771.7365
818.478	2702.08382
818.665	2674.64097
818.851	2708.41647
819.037	2797.06113
819.224	2816.05331
819.41	2822.38379
819.597	2661.97431
819.783	2961.62193
819.969	2636.63964
820.156	2847.70445
820.342	2704.19471
820.528	2733.74591
820.714	2655.64081
820.901	2938.41996
821.087	2729.52447
821.273	2915.21621
821.459	2754.85233
821.646	3100.79516
821.832	2778.06784
822.018	2811.83292
822.204	2617.63745
822.39	2699.97291
822.576	2539.50704
822.762	2896.23002
822.948	2526.83572
823.134	2708.41647
823.32	2619.74885
823.507	2826.60404
823.693	2480.37069
823.879	2845.59447
824.065	2585.96494
824.25	2862.4739
824.436	2541.61889
824.622	2617.63745
824.808	2628.19434
824.994	2691.52913
825.18	2455.02385
825.366	2784.39906
825.552	2898.33965
825.738	2881.46216
825.923	2879.35241
826.109	3024.89079
826.295	2649.3072
826.481	2843.48448
826.667	2666.19658
826.852	2902.55888
827.038	2712.63818
827.224	2843.48448
827.409	2792.8405
827.595	2889.90102
827.781	2564.84842
827.966	2725.30298
828.152	2457.13615
828.338	2482.48286
828.523	2499.37978
828.709	2596.52274
828.894	2372.63596
829.08	2649.3072
829.266	2467.69747
829.451	2683.08515
829.637	2345.16984
829.822	2459.24844
830.008	2480.37069
830.193	2547.95435
830.378	2302.91101
830.564	2742.18864
830.749	2556.40148
830.935	2609.19171
831.12	2457.13615
831.305	2708.41647
831.491	2406.43805
831.676	2480.37069
831.861	2286.00641
832.047	2497.2677
832.232	2408.5506
832.417	2535.28331
832.602	2376.86136
832.788	2520.4999
832.973	2404.3255
833.158	2531.05954
833.343	2095.79087
833.528	2533.17143
833.714	2286.00641
833.899	2573.29517
834.084	2395.87518
834.269	2566.96013
834.454	2317.70204
834.639	2269.10121
834.824	2188.79365
835.009	2440.23747
835.194	2395.87518
835.379	2509.93998
835.564	2104.2463
835.749	2455.02385
835.934	2218.38212
836.119	2315.58907
836.304	2026.0292
836.489	2110.58778
836.674	2091.56312
836.859	2176.11237
837.044	2203.5881
837.228	2319.81501
837.413	2106.36013
837.598	2372.63596
837.783	2066.19596
837.968	2406.43805
838.152	2072.53785
838.337	2220.49552
838.522	2152.86259
838.707	2163.4308
838.891	2097.90474
839.076	2036.59964
839.261	2055.626
839.445	2228.94902
839.63	2110.58778
839.815	2260.64839
839.999	2087.33533
840.184	2247.96888
840.368	2135.95305
840.553	2313.47608
840.737	1996.43107
840.922	2053.51199
841.106	1930.88797
841.291	2127.49808
841.475	2097.90474
841.66	2281.78017
841.844	1812.47406
842.029	2002.77364
842.213	1880.14111
842.397	2038.71371
842.582	1846.3082
842.766	2078.87967
842.951	1992.20267
843.135	1888.59914
843.319	1935.11673
843.504	1956.26019
843.688	1871.683
843.872	2019.68685
844.056	1863.22481
844.241	1952.03154
844.425	1719.42468
844.609	1812.47406
844.793	1875.91207
844.977	1916.08713
845.161	1897.05708
845.346	2100.0186
845.53	1941.45983
845.714	2066.19596
845.898	1907.62938
846.082	1829.39128
846.266	1812.47406
846.45	1880.14111
846.634	1729.99884
846.818	1903.40048
847.002	1744.80251
847.186	1901.28602
847.37	1884.37013
847.554	1968.94597
847.738	1761.72078
847.922	1901.28602
848.106	1738.4581
848.29	1958.3745
848.473	1696.16125
848.657	1846.3082
848.841	1687.70173
849.025	2002.77364
849.209	1634.82871
849.392	1668.66763
849.576	1501.58325
849.76	1742.68771
849.944	1609.44912
850.127	1795.55657
850.311	1545.99901
850.495	1725.76918
850.678	1600.9892
850.862	1850.53738
851.046	1588.29925
851.229	1624.25392
851.413	1524.8487
851.596	1812.47406
851.78	1596.75922
851.964	1780.75353
852.147	1571.37923
852.331	1719.42468
852.514	1476.20267
852.698	1634.82871
852.881	1524.8487
853.065	1596.75922
853.248	1491.00802
853.431	1537.5389
853.615	1518.50359
853.798	1643.2885
853.982	1592.52924
854.165	1660.20796
854.348	1457.16721
854.532	1702.50586
854.715	1440.24679
854.898	1717.30984
855.081	1558.68914
855.265	1634.82871
855.448	1465.62741
855.631	1594.64423
855.814	1488.89297
855.997	1537.5389
856.181	1516.38855
856.364	1558.68914
856.547	1423.32638
856.73	1501.58325
856.913	1336.60998
857.096	1518.50359
857.279	1402.1759
857.462	1474.08762
857.645	1448.707
857.828	1526.96373
858.011	1273.16048
858.194	1495.23811
858.377	1262.58576
858.56	1423.32638
858.743	1381.0255
858.926	1537.5389
859.109	1334.49497
859.292	1575.60924
859.475	1307
859.658	1423.32638
859.841	1249.89617
860.023	1359.87518
860.206	1281.62031
860.389	1249.89617
860.572	1237.20668
860.755	1383.14053
860.937	1211.82803
861.12	1290.08017
861.303	1180.10537
861.486	1442.36184
861.668	1222.40241
861.851	1321.80494
862.034	1118.77737
862.216	1177.99056
862.399	1201.25372
862.581	1298.54007
862.764	1080.71362
862.947	1203.36858
863.129	1165.30175
863.312	1402.1759
863.494	1260.47082
863.677	1127.23619
863.859	1036.30803
864.042	1106.08928
864.224	1013.04897
864.406	1127.23619
864.589	996.13375
864.771	1275.27544
864.954	983.44761
865.136	1230.86198
865.318	981.33327
865.501	1182.22019
865.683	1034.19354
865.865	1127.23619
866.048	998.24813
866.23	1095.516
866.412	983.44761
866.594	1182.22019
866.777	1053.22416
866.959	1131.46563
867.141	1023.62118
867.323	1197.02402
867.505	932.70549
867.687	1017.27783
867.869	898.87975
868.052	1070.14064
868.234	911.56417
868.416	1080.71362
868.598	869.28389
868.78	1019.39227
868.962	1010.93454
869.144	1106.08928
869.326	966.53312
869.508	1029.96458
869.69	1002.47691
869.872	966.53312
870.054	1013.04897
870.236	1106.08928
870.417	1004.59131
870.599	1034.19354
870.781	822.77947
870.963	1097.63065
871.145	983.44761
871.327	962.30457
871.508	892.53765
871.69	928.47716
871.872	848.14499
872.054	1123.00677
872.235	822.77947
872.417	949.61908
872.599	932.70549
872.78	1004.59131
872.962	852.3727
873.144	1010.93454
873.325	915.79237
873.507	977.10462
873.689	1000.36252
873.87	949.61908
874.052	858.71433
874.233	920.02061
874.415	854.48657
874.596	994.01938
874.778	833.34828
874.959	934.81966
875.141	915.79237
875.322	974.99031
875.503	812.21088
875.685	873.51177
875.866	881.96763
876.048	968.64741
876.229	788.96083
876.41	979.21894
876.592	748.80442
876.773	996.13375
876.954	833.34828
877.136	1055.3387
877.317	873.51177
877.498	1076.48441
877.679	831.2345
877.86	991.90501
878.042	835.46207
878.223	892.53765
878.404	839.68967
878.585	996.13375
878.766	746.69103
878.947	892.53765
879.128	721.33112
879.309	860.82823
879.49	877.73969
879.672	892.53765
879.853	894.65167
880.034	1080.71362
880.215	881.96763
880.396	1091.28672
880.576	907.336
880.757	1203.36858
880.938	996.13375
881.119	1076.48441
881.3	911.56417
881.481	1074.36982
881.662	983.44761
881.843	1000.36252
882.023	881.96763
882.204	1093.40136
882.385	881.96763
882.566	1027.8501
882.747	945.39064
882.927	1158.9574
883.108	915.79237
883.289	951.73331
883.469	930.59132
883.65	1021.50672
883.831	890.42363
884.011	1023.62118
884.192	926.36301
884.373	968.64741
884.553	917.90649
884.734	945.39064
884.914	920.02061
885.095	1059.5678
885.275	920.02061
885.456	1025.73564
885.636	977.10462
885.817	1177.99056
885.997	873.51177
886.178	1051.10962
886.358	945.39064
886.538	924.24887
886.719	848.14499
886.899	1076.48441
887.08	881.96763
887.26	1027.8501
887.44	1023.62118
887.621	1203.36858
887.801	1017.27783
887.981	1072.25523
888.161	1103.97461
888.342	1148.38356
888.522	1032.07905
888.702	1142.0393
888.882	1188.56467
889.062	1042.65153
889.242	960.1903
889.423	1156.84262
889.603	945.39064
889.783	1169.53134
889.963	943.27643
890.143	1095.516
890.323	943.27643
890.503	1080.71362
890.683	924.24887
890.863	1006.70571
891.043	974.99031
891.223	1084.94284
891.403	1021.50672
891.583	1034.19354
891.763	926.36301
891.943	991.90501
892.122	875.62572
892.302	1004.59131
892.482	1040.53703
892.662	1061.68236
892.842	818.55201
893.022	907.336
893.201	875.62572
893.381	945.39064
893.561	900.9938
893.741	1139.92456
893.92	955.96179
894.1	1059.5678
894.28	818.55201
894.459	970.7617
894.639	858.71433
894.819	1040.53703
894.998	920.02061
895.178	1087.05747
895.357	911.56417
895.537	1089.17209
895.716	911.56417
895.896	1076.48441
896.075	960.1903
896.255	1053.22416
896.434	955.96179
896.614	934.81966
896.793	788.96083
896.973	1000.36252
897.152	738.23756
897.331	894.65167
897.511	786.84724
897.69	900.9938
897.87	714.99138
898.049	890.42363
898.228	915.79237
898.407	974.99031
898.587	799.52889
898.766	898.87975
898.945	776.27947
899.124	884.08162
899.304	723.44439
899.483	886.19561
899.662	805.86985
899.841	788.96083
900.02	645.26097
900.199	746.69103
900.378	772.05243
900.557	704.42538
900.737	685.40726
900.916	738.23756
901.095	624.13307
901.274	848.14499
901.453	657.93829
901.632	662.16415
901.811	670.61603
901.989	706.53856
902.168	556.53234
902.347	689.63343
902.526	603.00642
902.705	769.93892
902.884	641.03529
903.063	672.72903
903.242	524.84921
903.42	670.61603
903.599	679.06809
903.778	647.37382
903.957	543.85871
904.135	672.72903
904.314	586.10602
904.493	567.09406
904.672	520.62503
904.85	537.52208
905.029	448.82293
905.207	543.85871
905.386	632.58408
905.565	543.85871
905.743	429.81942
905.922	647.37382
906.1	510.06483
906.279	493.16926
906.457	453.0461
906.636	526.96132
906.814	442.48828
906.993	531.18558
907.171	455.15771
907.35	472.05113
907.528	425.5966
907.707	535.4099
907.885	455.15771
908.063	425.5966
908.242	402.37219
908.42	467.82768
908.598	417.15113
908.777	446.71136
908.955	391.8163
909.133	444.59982
909.311	379.14977
909.49	379.14977
909.668	402.37219
909.846	360.15111
910.024	370.70575
910.202	362.262
910.38	387.59405
910.559	400.26098
910.737	248.29916
910.915	387.59405
911.093	453.0461
911.271	406.59467
911.449	182.90097
911.627	434.04231
911.805	206.10459
911.983	495.28116
912.161	358.04023
912.339	497.39307
912.517	385.48296
912.695	419.26247
912.872	311.60534
913.05	438.26527
913.228	436.15378
913.406	510.06483
913.584	425.5966
913.762	486.83367
913.939	417.15113
914.117	461.49263
914.295	427.708
914.473	396.03861
914.65	480.4982
914.828	486.83367
915.006	442.48828
915.184	510.06483
915.361	396.03861
915.539	446.71136
915.716	366.48384
915.894	419.26247
916.072	423.48521
916.249	334.82172
916.427	322.15797
916.604	444.59982
916.782	377.03874
916.959	379.14977
917.137	298.94277
917.314	421.37383
917.492	290.50142
917.669	387.59405
917.847	393.92744
918.024	391.8163
918.201	324.26855
918.379	381.26081
918.556	317.93686
918.733	343.26457
918.911	341.15383
919.088	417.15113
919.265	315.82634
919.442	341.15383
919.62	368.59479
919.797	434.04231
919.974	298.94277
920.151	307.38441
920.328	336.93241
920.506	417.15113
920.683	336.93241
920.86	282.06037
921.037	292.61173
921.214	292.61173
921.391	383.37188
921.568	307.38441
921.745	301.05315
921.922	315.82634
922.099	206.10459
922.276	273.61962
922.453	324.26855
922.63	311.60534
922.807	307.38441
922.984	372.81673
923.161	353.81853
923.338	330.6004
923.514	174.4639
923.691	332.71105
923.868	248.29916
924.045	176.57313
924.222	273.61962
924.399	328.48976
924.575	206.10459
924.752	315.82634
924.929	208.21413
925.105	349.59689
925.282	214.54287
925.459	265.17916
925.635	214.54287
925.812	349.59689
925.989	317.93686
926.165	246.18925
926.342	233.53017
926.518	282.06037
926.695	140.71894
926.871	298.94277
927.048	239.85962
927.224	149.15468
927.401	248.29916
927.577	294.72206
927.754	138.61006
927.93	222.98148
928.107	147.04571
928.283	263.0691
928.459	180.79167
928.636	168.13631
928.812	231.42039
928.988	237.74979
929.165	174.4639
929.341	159.69982
929.517	182.90097
929.693	195.55718
929.87	222.98148
930.046	231.42039
930.222	206.10459
930.398	176.57313
930.574	166.02716
930.751	206.10459
930.927	195.55718
931.103	214.54287
931.279	113.30518
931.455	157.59075
931.631	189.22898
931.807	180.79167
931.983	159.69982
932.159	106.97945
932.335	180.79167
932.511	185.01029
932.687	170.24549
932.863	140.71894
933.039	149.15468
933.215	185.01029
933.391	113.30518
933.566	206.10459
933.742	96.437
933.918	115.4138
934.094	121.73979
934.27	149.15468
934.445	153.37267
934.621	125.95723
934.797	121.73979
934.973	157.59075
935.148	134.39237
935.324	79.57023
935.5	113.30518
935.675	92.22017
935.851	149.15468
936.027	125.95723
936.202	28.97868
936.378	98.54544
936.553	62.70491
936.729	10.01031
936.904	-0.52684
937.08	138.61006
937.255	121.73979
937.431	96.437
937.606	77.46199
937.782	96.437
937.957	125.95723
938.133	-13.17063
938.308	-0.52684
938.483	37.40968
938.659	111.19658
938.834	20.54805
939.009	7.90283
939.185	64.813
939.36	-40.56246
939.535	45.84105
939.71	56.38079
939.886	96.437
940.061	58.48881
940.236	7.90283
940.411	20.54805
940.586	62.70491
940.761	37.40968
940.937	64.813
941.112	56.38079
941.287	43.73317
941.462	58.48881
941.637	39.51749
941.812	138.61006
941.987	47.94895
942.162	3.68794
942.337	54.2728
942.512	31.08639
942.687	109.088
942.862	92.22017
943.037	100.65391
943.212	96.437
943.386	28.97868
943.561	22.65567
943.736	47.94895
943.911	56.38079
944.086	45.84105
944.26	56.38079
944.435	58.48881
944.61	3.68794
944.785	64.813
944.959	54.2728
945.134	71.13739
945.309	22.65567
945.483	35.30189
945.658	73.24557
945.833	54.2728
946.007	31.08639
946.182	47.94895
946.357	-46.88306
946.531	37.40968
946.706	7.90283
946.88	24.76332
947.055	47.94895
947.229	-36.3486
947.404	47.94895
947.578	-27.92059
947.752	66.92111
947.927	75.35377
948.101	10.01031
948.276	-17.38502
948.45	88.00344
948.624	45.84105
948.799	62.70491
948.973	31.08639
949.147	62.70491
949.321	41.62532
949.496	41.62532
949.67	58.48881
949.844	88.00344
950.018	66.92111
950.193	-6.84884
950.367	-17.38502
950.541	62.70491
950.715	12.11781
950.889	-2.6342
951.063	79.57023
951.237	24.76332
951.411	28.97868
951.585	14.22533
951.759	7.90283
951.933	83.78679
952.107	85.8951
952.281	-17.38502
952.455	35.30189
952.629	121.73979
952.803	-63.73688
952.977	79.57023
953.151	12.11781
953.325	41.62532
953.499	58.48881
953.672	24.76332
953.846	22.65567
954.02	39.51749
954.194	-8.95613
954.368	20.54805
954.541	62.70491
954.715	54.2728
954.889	73.24557
955.062	41.62532
955.236	14.22533
955.41	28.97868
955.583	62.70491
955.757	12.11781
955.93	41.62532
956.104	62.70491
956.278	104.87091
956.451	83.78679
956.625	88.00344
956.798	117.52244
956.972	64.813
957.145	41.62532
957.319	3.68794
957.492	132.28355
957.665	7.90283
957.839	66.92111
958.012	37.40968
958.185	-21.59933
958.359	37.40968
958.532	-21.59933
958.705	66.92111
958.879	35.30189
959.052	73.24557
959.225	-2.6342
959.398	50.05688
959.572	96.437
959.745	-19.49219
959.918	151.26366
960.091	22.65567
960.264	39.51749
960.438	31.08639
960.611	92.22017
960.784	20.54805
960.957	71.13739
961.13	3.68794
961.303	28.97868
961.476	-8.95613
961.649	28.97868
961.822	71.13739
961.995	155.4817
962.168	104.87091
962.341	-30.02763
962.514	100.65391
962.686	104.87091
962.859	39.51749
963.032	33.19413
963.205	33.19413
963.378	-2.6342
963.551	47.94895
963.723	47.94895
963.896	64.813
964.069	62.70491
964.242	-11.06339
964.414	71.13739
964.587	37.40968
964.76	64.813
964.932	45.84105
965.105	35.30189
965.278	31.08639
965.45	-19.49219
965.623	39.51749
965.795	28.97868
965.968	71.13739
966.14	7.90283
966.313	-6.84884
966.485	20.54805
966.658	58.48881
966.83	10.01031
967.003	41.62532
967.175	43.73317
967.348	41.62532
967.52	88.00344
967.692	81.6785
967.865	35.30189
968.037	-4.74153
968.209	-19.49219
968.382	31.08639
968.554	5.79537
968.726	18.44046
968.898	83.78679
969.071	45.84105
969.243	98.54544
969.415	50.05688
969.587	7.90283
969.759	83.78679
969.932	62.70491
970.104	-2.6342
970.276	88.00344
970.448	33.19413
970.62	117.52244
970.792	24.76332
970.964	92.22017
971.136	28.97868
971.308	-0.52684
971.48	56.38079
971.652	22.65567
971.824	41.62532
971.996	22.65567
972.168	-21.59933
972.339	47.94895
972.511	-38.45555
972.683	37.40968
972.855	-2.6342
973.027	14.22533
973.199	7.90283
973.37	26.87099
973.542	-46.88306
973.714	12.11781
973.886	28.97868
974.057	104.87091
974.229	1.58054
974.401	-65.84349
974.572	3.68794
974.744	31.08639
974.915	58.48881
975.087	-2.6342
975.259	7.90283
975.43	-0.52684
975.602	-55.31017
975.773	24.76332
975.945	85.8951
976.116	20.54805
976.288	39.51749
976.459	88.00344
976.63	-8.95613
976.802	56.38079
976.973	58.48881
977.145	12.11781
977.316	-46.88306
977.487	47.94895
977.659	64.813
977.83	54.2728
978.001	26.87099
978.172	-34.24164
978.344	58.48881
978.515	104.87091
978.686	62.70491
978.857	73.24557
979.028	47.94895
979.2	140.71894
979.371	-34.24164
979.542	28.97868
979.713	64.813
979.884	-23.70644
980.055	115.4138
980.226	-19.49219
980.397	24.76332
980.568	-30.02763
980.739	3.68794
980.91	43.73317
981.081	22.65567
981.252	66.92111
981.423	54.2728
981.594	-40.56246
981.765	7.90283
981.936	20.54805
982.106	14.22533
982.277	96.437
982.448	54.2728
982.619	41.62532
982.79	64.813
982.96	43.73317
983.131	45.84105
983.302	12.11781
983.472	96.437
983.643	24.76332
983.814	92.22017
983.984	71.13739
984.155	-19.49219
984.326	31.08639
984.496	75.35377
984.667	-4.74153
984.837	5.79537
985.008	24.76332
985.178	-27.92059
985.349	-19.49219
985.519	7.90283
985.69	45.84105
985.86	90.11179
986.031	12.11781
986.201	26.87099
986.371	12.11781
986.542	41.62532
986.712	77.46199
986.882	-48.98987
987.053	20.54805
987.223	24.76332
987.393	71.13739
987.563	33.19413
987.734	3.68794
987.904	24.76332
988.074	96.437
988.244	-67.95008
988.414	22.65567
988.585	43.73317
988.755	43.73317
988.925	-89.01455
989.095	41.62532
989.265	41.62532
989.435	18.44046
989.605	73.24557
989.775	96.437
989.945	-11.06339
990.115	7.90283
990.285	45.84105
990.455	24.76332
990.625	37.40968
990.795	3.68794
990.965	-25.81353
991.134	28.97868
991.304	-27.92059
991.474	31.08639
991.644	-2.6342
991.814	16.33288
991.984	12.11781
992.153	-2.6342
992.323	60.59685
992.493	-13.17063
992.662	14.22533
992.832	-11.06339
993.002	64.813
993.171	3.68794
993.341	24.76332
993.511	50.05688
993.68	71.13739
993.85	3.68794
994.019	-6.84884
994.189	71.13739
994.358	-17.38502
994.528	26.87099
994.697	22.65567
994.867	-27.92059
995.036	12.11781
995.206	54.2728
995.375	20.54805
995.544	3.68794
995.714	-34.24164
995.883	35.30189
996.052	-46.88306
996.222	71.13739
996.391	47.94895
996.56	18.44046
996.73	35.30189
996.899	12.11781
997.068	-36.3486
997.237	39.51749
997.406	50.05688
997.576	10.01031
997.745	-25.81353
997.914	-27.92059
998.083	62.70491
998.252	14.22533
998.421	-21.59933
998.59	33.19413
998.759	28.97868
998.928	-0.52684
999.097	-23.70644
999.266	-27.92059
999.435	12.11781
999.604	28.97868
999.773	28.97868
999.942	60.59685
1000.111	104.87091
1000.28	-27.92059
1000.448	10.01031
1000.617	98.54544
1000.786	75.35377
1000.955	39.51749
1001.124	71.13739
1001.292	-17.38502
1001.461	41.62532
1001.63	85.8951
1001.798	54.2728
1001.967	45.84105
1002.136	-63.73688
1002.304	-32.13465
1002.473	31.08639
1002.642	43.73317
1002.81	-11.06339
1002.979	-17.38502
1003.147	5.79537
1003.316	41.62532
1003.484	-34.24164
1003.653	71.13739
1003.821	37.40968
1003.99	47.94895
1004.158	-44.77622
1004.327	73.24557
1004.495	121.73979
1004.663	20.54805
1004.832	-0.52684
1005	54.2728
1005.168	-8.95613
1005.337	50.05688
1005.505	-8.95613
1005.673	-25.81353
1005.842	64.813
1006.01	41.62532
1006.178	-8.95613
1006.346	-95.33338
1006.514	20.54805
1006.683	37.40968
1006.851	-34.24164
1007.019	28.97868
1007.187	-8.95613
1007.355	71.13739
1007.523	-23.70644
1007.691	41.62532
1007.859	62.70491
1008.027	-38.45555
1008.195	-70.05664
1008.363	14.22533
1008.531	14.22533
1008.699	-13.17063
1008.867	24.76332
1009.035	-8.95613
1009.203	-4.74153
1009.37	-55.31017
1009.538	50.05688
1009.706	-19.49219
1009.874	14.22533
1010.042	28.97868
1010.209	-51.09666
1010.377	-17.38502
1010.545	20.54805
1010.713	14.22533
1010.88	43.73317
1011.048	50.05688
1011.216	-2.6342
1011.383	62.70491
1011.551	-32.13465
1011.718	-40.56246
1011.886	-63.73688
1012.054	3.68794
1012.221	-17.38502
1012.389	45.84105
1012.556	-15.27784
1012.724	16.33288
1012.891	37.40968
1013.058	24.76332
1013.226	50.05688
1013.393	-17.38502
1013.561	12.11781
1013.728	20.54805
1013.895	41.62532
1014.063	22.65567
1014.23	45.84105
1014.397	-63.73688
1014.565	-15.27784
1014.732	12.11781
1014.899	62.70491
1015.066	-0.52684
1015.233	12.11781
1015.401	-21.59933
1015.568	20.54805
1015.735	14.22533
1015.902	-122.71228
1016.069	-0.52684
1016.236	66.92111
1016.403	-11.06339
1016.57	-17.38502
1016.737	7.90283
1016.904	75.35377
1017.071	3.68794
1017.238	-55.31017
1017.405	62.70491
1017.572	31.08639
1017.739	24.76332
1017.906	28.97868
1018.073	-70.05664
1018.24	66.92111
1018.407	5.79537
1018.573	12.11781
1018.74	16.33288
1018.907	54.2728
1019.074	-15.27784
1019.241	26.87099
1019.407	7.90283
1019.574	3.68794
1019.741	-61.63024
1019.907	41.62532
1020.074	-0.52684
1020.241	47.94895
1020.407	-19.49219
1020.574	-17.38502
1020.74	5.79537
1020.907	5.79537
1021.073	104.87091
1021.24	20.54805
1021.406	58.48881
1021.573	-34.24164
1021.739	-67.95008
1021.906	-53.20343
1022.072	-17.38502
1022.239	-21.59933
1022.405	3.68794
1022.571	-44.77622
1022.738	28.97868
1022.904	37.40968
1023.07	41.62532
1023.237	22.65567
1023.403	-15.27784
1023.569	33.19413
1023.735	16.33288
1023.902	24.76332
1024.068	-44.77622
1024.234	-13.17063
1024.4	-67.95008
1024.566	-32.13465
1024.732	20.54805
1024.898	79.57023
1025.065	41.62532
1025.231	-4.74153
1025.397	-23.70644
1025.563	77.46199
1025.729	-19.49219
1025.895	-23.70644
1026.061	1.58054
1026.227	-2.6342
1026.392	-89.01455
1026.558	-48.98987
1026.724	-2.6342
1026.89	24.76332
1027.056	79.57023
1027.222	45.84105
1027.388	7.90283
1027.553	-2.6342
1027.719	45.84105
1027.885	20.54805
1028.051	-21.59933
1028.216	10.01031
1028.382	16.33288
1028.548	41.62532
1028.713	-6.84884
1028.879	-4.74153
1029.045	7.90283
1029.21	-38.45555
1029.376	45.84105
1029.541	12.11781
1029.707	33.19413
1029.873	47.94895
1030.038	100.65391
1030.204	31.08639
1030.369	3.68794
1030.534	-19.49219
1030.7	3.68794
1030.865	12.11781
1031.031	-32.13465
1031.196	-4.74153
1031.361	39.51749
1031.527	16.33288
1031.692	-2.6342
1031.857	-59.52357
1032.023	-51.09666
1032.188	-30.02763
1032.353	73.24557
1032.518	-55.31017
1032.684	12.11781
1032.849	7.90283
1033.014	71.13739
1033.179	-38.45555
1033.344	-13.17063
1033.509	-17.38502
1033.674	20.54805
1033.839	39.51749
1034.004	58.48881
1034.17	54.2728
1034.335	73.24557
1034.5	12.11781
1034.664	62.70491
1034.829	-11.06339
1034.994	-42.66935
1035.159	10.01031
1035.324	37.40968
1035.489	3.68794
1035.654	66.92111
1035.819	-30.02763
1035.984	24.76332
1036.148	66.92111
1036.313	52.16483
1036.478	14.22533
1036.643	45.84105
1036.807	56.38079
1036.972	-53.20343
1037.137	79.57023
1037.301	-23.70644
1037.466	-42.66935
1037.631	-8.95613
1037.795	71.13739
1037.96	5.79537
1038.124	-2.6342
1038.289	20.54805
1038.454	-59.52357
1038.618	22.65567
1038.783	3.68794
1038.947	-55.31017
1039.111	28.97868
1039.276	14.22533
1039.44	90.11179
1039.605	16.33288
1039.769	-17.38502
1039.933	-38.45555
1040.098	-67.95008
1040.262	37.40968
1040.426	-2.6342
1040.591	14.22533
1040.755	37.40968
1040.919	16.33288
1041.083	-95.33338
1041.248	-38.45555
1041.412	-13.17063
1041.576	33.19413
1041.74	39.51749
1041.904	22.65567
1042.068	33.19413
1042.232	20.54805
1042.397	47.94895
1042.561	-44.77622
1042.725	5.79537
1042.889	-8.95613
1043.053	-36.3486
1043.217	52.16483
1043.381	28.97868
1043.544	1.58054
1043.708	77.46199
1043.872	45.84105
1044.036	-2.6342
1044.2	45.84105
1044.364	3.68794
1044.528	-6.84884
1044.691	39.51749
1044.855	123.8485
1045.019	14.22533
1045.183	43.73317
1045.346	75.35377
1045.51	28.97868
1045.674	-4.74153
1045.837	33.19413
1046.001	-42.66935
1046.165	-30.02763
1046.328	-36.3486
1046.492	41.62532
1046.655	-0.52684
1046.819	92.22017
1046.983	10.01031
1047.146	5.79537
1047.31	-80.58907
1047.473	-30.02763
1047.636	14.22533
1047.8	41.62532
1047.963	5.79537
1048.127	31.08639
1048.29	3.68794
