Data from mixed_try1_USB4F045381__29__00133.txt Node

Date: Thu Apr 03 20:01:57 EDT 2025
User: mmckonesweet
Spectrometer: USB4F04538
Trigger mode: 4
Integration Time (sec): 2.700000E-3
Scans to average: 1
Electric dark correction enabled: true
Nonlinearity correction enabled: true
Boxcar width: 0
XAxis mode: Wavelengths
Number of Pixels in Spectrum: 3648
>>>>>Begin Spectral Data<<<<<
345.52	18.79172
345.736	18.79172
345.952	18.79172
346.168	-0.17561
346.384	-52.8523
346.6	-17.03383
346.816	23.00695
347.032	10.36155
347.248	29.32996
347.464	41.97663
347.68	16.68414
347.896	-4.39031
348.112	33.54542
348.328	-25.46235
348.544	-54.95905
348.76	-59.17246
348.975	6.14661
349.191	56.73213
349.407	-6.49763
349.623	-4.39031
349.839	67.27246
350.055	41.97663
350.27	23.00695
350.486	4.03918
350.702	84.13817
350.918	39.86879
351.133	14.57659
351.349	37.76098
351.565	14.57659
351.781	-27.56942
351.996	-23.35526
352.212	-8.60492
352.428	39.86879
352.644	48.30027
352.859	39.86879
353.075	27.22227
353.291	23.00695
353.506	27.22227
353.722	35.65319
353.938	10.36155
354.153	-40.21131
354.369	16.68414
354.584	27.22227
354.8	-35.99745
355.016	-2.28298
355.231	-19.141
355.447	-78.13156
355.662	27.22227
355.878	90.46319
356.093	23.00695
356.309	18.79172
356.524	-19.141
356.74	25.11459
356.955	-33.89048
357.171	37.76098
357.386	20.89932
357.602	44.08449
357.817	31.43768
358.033	1.93177
358.248	-10.71218
358.464	23.00695
358.679	14.57659
358.895	-46.53192
359.11	-6.49763
359.325	-2.28298
359.541	-17.03383
359.756	25.11459
359.972	-33.89048
360.187	10.36155
360.402	14.57659
360.618	31.43768
360.833	50.4082
361.048	35.65319
361.264	20.89932
361.479	94.67998
361.694	-4.39031
361.909	50.4082
362.125	-23.35526
362.34	-14.92664
362.555	-10.71218
362.77	6.14661
362.986	31.43768
363.201	23.00695
363.416	-10.71218
363.631	-33.89048
363.847	8.25407
364.062	6.14661
364.277	1.93177
364.492	39.86879
364.707	-12.81942
364.922	-19.141
365.138	14.57659
365.353	33.54542
365.568	10.36155
365.783	50.4082
365.998	27.22227
366.213	-31.78348
366.428	1.93177
366.643	33.54542
366.858	23.00695
367.073	16.68414
367.288	-25.46235
367.503	48.30027
367.718	27.22227
367.933	25.11459
368.148	-27.56942
368.363	56.73213
368.578	35.65319
368.793	60.94819
369.008	-33.89048
369.223	8.25407
369.438	6.14661
369.653	-19.141
369.868	-19.141
370.083	-35.99745
370.298	-38.10439
370.513	-65.49239
370.728	37.76098
370.943	16.68414
371.157	33.54542
371.372	-2.28298
371.587	1.93177
371.802	92.57157
372.017	-8.60492
372.232	-44.42508
372.446	-29.67646
372.661	56.73213
372.876	44.08449
373.091	25.11459
373.306	-12.81942
373.52	-71.81209
373.735	-69.70555
373.95	-76.0251
374.165	25.11459
374.379	37.76098
374.594	39.86879
374.809	-0.17561
375.023	-23.35526
375.238	-21.24814
375.453	10.36155
375.667	77.81336
375.882	-14.92664
376.097	58.84015
376.311	-27.56942
376.526	82.02988
376.741	12.46906
376.955	8.25407
377.17	10.36155
377.384	27.22227
377.599	25.11459
377.813	14.57659
378.028	-42.31821
378.242	-59.17246
378.457	37.76098
378.672	-8.60492
378.886	52.51615
379.101	60.94819
379.315	-21.24814
379.53	1.93177
379.744	-40.21131
379.958	10.36155
380.173	-14.92664
380.387	-21.24814
380.602	-14.92664
380.816	-19.141
381.031	-8.60492
381.245	8.25407
381.459	-59.17246
381.674	39.86879
381.888	-27.56942
382.103	16.68414
382.317	39.86879
382.531	-38.10439
382.746	-23.35526
382.96	-14.92664
383.174	6.14661
383.388	-10.71218
383.603	-27.56942
383.817	16.68414
384.031	33.54542
384.246	-12.81942
384.46	39.86879
384.674	18.79172
384.888	18.79172
385.103	14.57659
385.317	25.11459
385.531	48.30027
385.745	37.76098
385.959	10.36155
386.174	-10.71218
386.388	33.54542
386.602	-14.92664
386.816	33.54542
387.03	109.43943
387.244	44.08449
387.458	23.00695
387.672	-10.71218
387.887	-19.141
388.101	-6.49763
388.315	-10.71218
388.529	58.84015
388.743	-10.71218
388.957	58.84015
389.171	73.59693
389.385	35.65319
389.599	-8.60492
389.813	33.54542
390.027	16.68414
390.241	1.93177
390.455	-19.141
390.669	-23.35526
390.883	101.00532
391.097	35.65319
391.311	-33.89048
391.525	33.54542
391.738	-31.78348
391.952	56.73213
392.166	84.13817
392.38	-27.56942
392.594	-19.141
392.808	-2.28298
393.022	27.22227
393.236	31.43768
393.449	82.02988
393.663	33.54542
393.877	-33.89048
394.091	48.30027
394.305	-14.92664
394.518	-40.21131
394.732	-21.24814
394.946	-25.46235
395.16	-2.28298
395.373	41.97663
395.587	-23.35526
395.801	-90.7698
396.015	54.62413
396.228	16.68414
396.442	56.73213
396.656	-0.17561
396.869	14.57659
397.083	1.93177
397.297	25.11459
397.51	44.08449
397.724	-23.35526
397.938	23.00695
398.151	44.08449
398.365	-52.8523
398.578	39.86879
398.792	33.54542
399.005	-44.42508
399.219	73.59693
399.433	48.30027
399.646	23.00695
399.86	-2.28298
400.073	16.68414
400.287	-17.03383
400.5	39.86879
400.714	29.32996
400.927	-61.27913
401.141	-52.8523
401.354	-23.35526
401.567	-6.49763
401.781	23.00695
401.994	31.43768
402.208	-10.71218
402.421	4.03918
402.635	18.79172
402.848	14.57659
403.061	-10.71218
403.275	48.30027
403.488	33.54542
403.701	52.51615
403.915	79.92161
404.128	41.97663
404.341	50.4082
404.555	-14.92664
404.768	73.59693
404.981	-0.17561
405.195	33.54542
405.408	44.08449
405.621	35.65319
405.834	48.30027
406.048	-19.141
406.261	-67.59898
406.474	10.36155
406.687	29.32996
406.9	25.11459
407.114	44.08449
407.327	69.38059
407.54	6.14661
407.753	39.86879
407.966	18.79172
408.179	20.89932
408.392	23.00695
408.605	-0.17561
408.819	-0.17561
409.032	86.24649
409.245	-4.39031
409.458	25.11459
409.671	-25.46235
409.884	14.57659
410.097	-105.51324
410.31	-14.92664
410.523	-0.17561
410.736	90.46319
410.949	14.57659
411.162	6.14661
411.375	27.22227
411.588	-52.8523
411.801	23.00695
412.014	-8.60492
412.227	-35.99745
412.44	27.22227
412.653	-23.35526
412.865	-73.91861
413.078	52.51615
413.291	41.97663
413.504	23.00695
413.717	12.46906
413.93	-61.27913
414.143	27.22227
414.356	48.30027
414.568	73.59693
414.781	-92.87609
414.994	-17.03383
415.207	46.19237
415.42	-33.89048
415.632	10.36155
415.845	-14.92664
416.058	12.46906
416.271	16.68414
416.483	44.08449
416.696	-2.28298
416.909	10.36155
417.121	27.22227
417.334	23.00695
417.547	14.57659
417.759	35.65319
417.972	31.43768
418.185	6.14661
418.397	29.32996
418.61	88.35483
418.823	-42.31821
419.035	115.76524
419.248	35.65319
419.46	41.97663
419.673	35.65319
419.885	-27.56942
420.098	56.73213
420.311	-35.99745
420.523	27.22227
420.736	50.4082
420.948	31.43768
421.161	105.22233
421.373	-6.49763
421.586	50.4082
421.798	1.93177
422.01	-50.74553
422.223	27.22227
422.435	33.54542
422.648	75.70514
422.86	14.57659
423.073	14.57659
423.285	-17.03383
423.497	41.97663
423.71	65.16435
423.922	14.57659
424.134	56.73213
424.347	73.59693
424.559	39.86879
424.771	73.59693
424.984	8.25407
425.196	-27.56942
425.408	27.22227
425.621	25.11459
425.833	23.00695
426.045	-61.27913
426.257	73.59693
426.47	41.97663
426.682	-19.141
426.894	73.59693
427.106	44.08449
427.318	134.74384
427.531	18.79172
427.743	48.30027
427.955	-10.71218
428.167	31.43768
428.379	-10.71218
428.591	94.67998
428.804	10.36155
429.016	-31.78348
429.228	10.36155
429.44	-8.60492
429.652	39.86879
429.864	31.43768
430.076	39.86879
430.288	25.11459
430.5	73.59693
430.712	1.93177
430.924	27.22227
431.136	-59.17246
431.348	56.73213
431.56	54.62413
431.772	23.00695
431.984	56.73213
432.196	39.86879
432.408	39.86879
432.62	46.19237
432.832	41.97663
433.044	6.14661
433.256	82.02988
433.468	73.59693
433.679	48.30027
433.891	69.38059
434.103	-21.24814
434.315	63.05626
434.527	73.59693
434.739	48.30027
434.95	145.28826
435.162	39.86879
435.374	18.79172
435.586	31.43768
435.798	56.73213
436.009	39.86879
436.221	35.65319
436.433	-73.91861
436.645	-19.141
436.856	48.30027
437.068	-2.28298
437.28	18.79172
437.491	141.07043
437.703	-2.28298
437.915	82.02988
438.126	46.19237
438.338	8.25407
438.55	65.16435
438.761	-6.49763
438.973	41.97663
439.184	48.30027
439.396	-4.39031
439.608	-10.71218
439.819	-23.35526
440.031	20.89932
440.242	63.05626
440.454	39.86879
440.665	109.43943
440.877	23.00695
441.088	6.14661
441.3	39.86879
441.511	18.79172
441.723	82.02988
441.934	90.46319
442.146	25.11459
442.357	52.51615
442.569	10.36155
442.78	6.14661
442.991	14.57659
443.203	65.16435
443.414	41.97663
443.626	35.65319
443.837	50.4082
444.048	35.65319
444.26	-2.28298
444.471	39.86879
444.682	84.13817
444.894	31.43768
445.105	6.14661
445.316	44.08449
445.528	98.89685
445.739	6.14661
445.95	-8.60492
446.161	63.05626
446.373	69.38059
446.584	115.76524
446.795	60.94819
447.006	-10.71218
447.217	16.68414
447.429	23.00695
447.64	-8.60492
447.851	6.14661
448.062	-31.78348
448.273	1.93177
448.484	117.87389
448.695	90.46319
448.907	-42.31821
449.118	1.93177
449.329	31.43768
449.54	-35.99745
449.751	75.70514
449.962	-40.21131
450.173	69.38059
450.384	56.73213
450.595	41.97663
450.806	56.73213
451.017	63.05626
451.228	65.16435
451.439	-40.21131
451.65	-8.60492
451.861	35.65319
452.072	27.22227
452.283	92.57157
452.494	65.16435
452.705	18.79172
452.915	27.22227
453.126	126.30869
453.337	14.57659
453.548	56.73213
453.759	-10.71218
453.97	33.54542
454.181	77.81336
454.391	50.4082
454.602	27.22227
454.813	46.19237
455.024	16.68414
455.235	105.22233
455.445	-0.17561
455.656	6.14661
455.867	-31.78348
456.078	90.46319
456.288	41.97663
456.499	124.19996
456.71	111.54801
456.921	60.94819
457.131	98.89685
457.342	-21.24814
457.553	23.00695
457.763	35.65319
457.974	50.4082
458.184	56.73213
458.395	119.98255
458.606	90.46319
458.816	27.22227
459.027	33.54542
459.237	69.38059
459.448	48.30027
459.659	94.67998
459.869	48.30027
460.08	103.11382
460.29	90.46319
460.501	-0.17561
460.711	145.28826
460.922	141.07043
461.132	82.02988
461.343	82.02988
461.553	41.97663
461.764	73.59693
461.974	73.59693
462.184	92.57157
462.395	109.43943
462.605	23.00695
462.816	14.57659
463.026	84.13817
463.236	151.61516
463.447	69.38059
463.657	77.81336
463.867	75.70514
464.078	75.70514
464.288	103.11382
464.498	130.52622
464.709	111.54801
464.919	90.46319
465.129	44.08449
465.339	107.33087
465.55	77.81336
465.76	109.43943
465.97	151.61516
466.18	141.07043
466.391	115.76524
466.601	109.43943
466.811	217.0041
467.021	168.48784
467.231	98.89685
467.441	119.98255
467.651	157.94226
467.862	187.47118
468.072	117.87389
468.282	200.12766
468.492	73.59693
468.702	82.02988
468.912	141.07043
469.122	160.05133
469.332	143.17933
469.542	204.34665
469.752	191.68993
469.962	124.19996
470.172	162.16043
470.382	208.56572
470.592	238.10143
470.802	204.34665
471.012	208.56572
471.222	244.431
471.432	219.11374
471.642	259.20069
471.852	210.67529
472.062	286.63257
472.272	242.32113
472.482	244.431
472.691	246.5409
472.901	309.84661
473.111	254.98069
473.321	292.96345
473.531	174.81543
473.741	233.8818
473.95	349.94869
474.16	284.52232
474.37	390.05702
474.58	318.28862
474.79	387.9459
474.999	362.61382
475.209	347.8379
475.419	394.2793
475.628	385.8348
475.838	360.50292
476.048	428.0599
476.258	436.5057
476.467	497.74505
476.677	550.54751
476.886	647.72597
477.096	455.50964
477.306	535.76193
477.515	537.87412
477.725	453.39803
477.935	563.22139
478.144	563.22139
478.354	575.89576
478.563	654.06461
478.773	584.34561
478.982	713.23036
479.192	689.98561
479.401	797.76753
479.611	725.90988
479.82	778.74526
480.03	833.70058
480.239	812.56317
480.449	804.10846
480.658	985.91434
480.868	952.08568
481.077	943.62879
481.287	846.38345
481.496	895.00401
481.705	1121.24452
481.915	1040.88944
482.124	981.68566
482.333	1040.88944
482.543	1133.93281
482.752	1163.53942
482.961	1199.49135
483.171	1205.83591
483.38	1303.12252
483.589	1341.19251
483.799	1117.01513
484.008	1375.0329
484.217	1174.11341
484.426	1286.20273
484.636	1315.81245
484.845	1561.15666
485.054	1317.92745
485.263	1487.13043
485.472	1389.83816
485.682	1616.14654
485.891	1476.55518
486.1	1607.68664
486.309	1561.15666
486.518	1669.02012
486.727	1721.89199
486.936	1819.17049
487.146	1888.95155
487.355	1764.188
487.564	1814.94117
487.773	1924.89719
487.982	1859.34812
488.191	1899.52396
488.4	1918.55396
488.609	1990.44082
488.818	2032.72383
489.027	2117.2815
489.236	2026.38155
489.445	2237.7546
489.654	2170.12389
489.863	2364.53715
490.072	2201.82687
490.281	2280.01922
490.49	2482.83489
490.698	2449.03895
490.907	2239.86792
491.116	2706.65741
491.325	2438.47715
491.534	2516.62797
491.743	2364.53715
491.952	2715.10081
492.16	2594.76313
492.369	2567.31208
492.578	2769.97777
492.787	2719.32243
492.996	2795.30254
493.204	3021.02475
493.413	2814.29482
493.622	2854.38595
493.831	2862.82554
494.039	2883.92352
494.248	2862.82554
494.457	3139.091
494.665	3071.6306
494.874	3088.49722
495.083	2942.99019
495.291	3313.98854
495.5	3208.64228
495.709	3166.49211
495.917	3099.03835
496.126	3339.26531
496.335	3250.78583
496.543	3290.81599
496.752	3246.57178
496.96	3516.13177
497.169	3147.5224
497.377	3518.23656
497.586	3377.17579
497.794	3579.26743
498.003	3351.90277
498.211	3478.24245
498.42	3492.97788
498.628	3688.66274
498.837	3543.49259
499.045	3676.04282
499.254	3516.13177
499.462	3856.86167
499.671	3707.59133
499.879	3789.59712
500.087	3953.51869
500.296	4113.11844
500.504	3724.41543
500.713	3966.12298
500.921	3884.18209
501.129	3961.92163
501.338	3764.36772
501.546	4161.39474
501.754	3856.86167
501.962	4027.03335
502.171	4062.7314
502.379	4266.30465
502.587	4052.23259
502.795	4333.41896
503.004	4197.07006
503.212	4215.95452
503.42	4425.66498
503.628	4469.67659
503.837	4176.08531
504.045	4335.51593
504.253	4410.99229
504.461	4381.64372
504.669	4327.12793
504.877	4448.71988
505.085	4415.1846
505.294	4637.25059
505.502	4446.62409
505.71	4737.72635
505.918	4683.30841
506.126	4813.049
506.334	4641.43811
506.542	4840.2416
506.75	4658.18731
506.958	4829.78336
507.166	4737.72635
507.374	4934.34004
507.582	4785.85254
507.79	4988.68685
507.998	5059.73224
508.206	4963.60564
508.414	4856.9736
508.622	5088.97845
508.83	4750.28216
509.037	5245.57702
509.245	4813.049
509.453	5111.95442
509.661	5084.80069
509.869	5239.31559
510.077	5084.80069
510.285	5078.53389
510.492	5272.70743
510.7	5372.84701
510.908	5210.09283
511.116	5197.56738
511.324	5310.2661
511.531	5293.57429
511.739	5324.8702
511.947	5475.01706
512.155	5406.21486
512.362	5518.78695
512.57	5304.00685
512.778	5372.84701
512.985	5256.01226
513.193	5235.14119
513.401	5447.91622
513.608	5535.45846
513.816	5495.86116
514.024	5547.9611
514.231	5541.70988
514.439	5695.8446
514.646	5508.36649
514.854	5808.23974
515.061	5516.7029
515.269	5826.96557
515.477	5845.68949
515.684	5756.21351
515.892	5774.94465
516.099	5818.64321
516.307	5770.78234
516.514	5960.07193
516.722	5831.12661
516.929	6095.15925
517.136	5914.32751
517.344	6138.78159
517.551	5839.4484
517.759	6088.92664
517.966	6230.14721
518.173	6076.46078
518.381	6047.37049
518.588	6286.19
518.796	6076.46078
519.003	6255.05722
519.21	6128.39626
519.418	6400.29852
519.625	6063.99408
519.832	6300.71683
520.039	6309.01736
520.247	6570.29322
520.454	6282.03927
520.661	6671.80115
520.868	6481.16912
521.076	6657.30341
521.283	6425.18555
521.49	6545.42569
521.697	6373.33379
521.904	6777.39364
522.112	6653.16099
522.319	6884.99539
522.526	6756.69393
522.733	6899.47555
522.94	6690.43946
523.147	6798.09107
523.354	6532.99067
523.561	7112.4129
523.768	7002.873
523.975	6996.67074
524.183	6791.88208
524.39	7004.94037
524.597	6992.53579
524.804	6988.40075
525.011	7087.61692
525.218	7093.81622
525.425	6986.3332
525.632	7002.873
525.838	7114.47909
526.045	7042.14926
526.252	7071.08448
526.459	7203.30405
526.666	7087.61692
526.873	7430.34514
527.08	7323.04968
527.287	7465.40975
527.494	7110.34669
527.701	7496.34392
527.907	7327.17752
528.114	7696.26851
528.321	7415.90495
528.528	7768.35727
528.735	7508.71623
528.941	7574.68882
529.148	7376.70478
529.355	7776.59434
529.562	7556.13625
529.768	7793.0675
529.975	7570.56618
530.182	7815.7159
530.388	7823.95106
530.595	8005.0409
530.802	7632.39688
531.008	7976.24179
531.215	7766.29794
531.422	7916.57373
531.628	7935.09325
531.835	7974.18456
532.042	8031.77936
532.248	8111.97422
532.455	8122.2534
532.661	8157.19885
532.868	8171.58648
533.074	8303.08547
533.281	8350.32326
533.487	8155.1434
533.694	8292.81502
533.9	8524.80903
534.107	8163.3651
534.313	8463.24164
534.52	8116.08595
534.726	8452.97874
534.933	8533.01673
535.139	8496.07971
535.345	8403.71013
535.552	8545.3277
535.758	8452.97874
535.965	8797.55459
536.171	8617.12819
536.377	8836.49169
536.584	8569.94761
536.79	8699.15788
536.996	8561.74127
537.203	8725.81116
537.409	8512.49692
537.615	8775.00906
537.821	8965.55254
538.028	8885.66609
538.234	8887.7148
538.44	9198.91419
538.646	8856.98228
538.853	9057.69587
539.059	8885.66609
539.265	8969.64855
539.471	9016.74766
539.677	8943.0232
539.883	9309.37652
540.09	9012.65245
540.296	9184.5914
540.502	9250.06024
540.708	9172.31407
540.914	9389.12472
541.12	9256.19706
541.326	9323.69215
541.532	9370.72351
541.738	9550.59018
541.944	9297.10533
542.15	9613.92288
542.356	9477.02343
542.562	9797.70764
542.768	9444.32043
542.974	9630.26436
543.18	9534.2438
543.386	10038.48615
543.592	9840.57305
543.798	9818.12056
544.004	9597.58041
544.21	9732.37615
544.415	9568.97865
544.621	9863.02373
544.827	9611.88013
545.033	9805.87299
545.239	9742.58522
545.445	9905.87916
545.651	9609.83736
545.856	10109.86485
546.062	9887.51335
546.268	9787.50061
546.474	10030.32747
546.679	9928.32465
546.885	9912.00083
547.091	10199.57375
547.297	9795.66626
547.502	10124.13852
547.708	10152.68381
547.914	10224.03518
548.119	10054.80281
548.325	10187.3423
548.531	10007.88994
548.736	10209.76626
548.942	10177.14904
549.147	10097.62973
549.353	10236.26516
549.559	10535.75015
549.764	10307.59698
549.97	10584.61919
550.175	10594.79933
550.381	10780.02451
550.586	10578.51095
550.792	10702.68993
550.997	10617.19456
551.203	10804.44239
551.408	10545.93179
551.614	10731.18362
551.819	10641.62401
552.025	10936.67682
552.23	10696.58383
552.435	10853.27309
552.641	10796.30328
552.846	10875.65159
553.052	10777.98961
553.257	11089.19573
553.462	11030.22912
553.668	11144.0875
553.873	10873.61724
554.078	10944.81274
554.283	10999.72553
554.489	11292.4601
554.694	11015.99442
554.899	11227.42688
555.105	11036.32954
555.31	11345.29193
555.515	11170.5141
555.72	11534.21279
555.925	11154.25179
556.131	11375.76874
556.336	11135.95588
556.541	11361.54651
556.746	11253.84789
556.951	11574.83015
557.156	11331.06864
557.361	11532.18183
557.567	11777.86234
557.772	11454.9981
557.977	11154.25179
558.182	11483.43581
558.387	11227.42688
558.592	11654.02337
558.797	11599.19877
559.002	11737.263
559.207	11576.86092
559.412	11420.46406
559.617	11418.43255
559.822	11690.56944
560.027	11446.8727
560.232	11800.19049
560.437	11674.3271
560.642	11574.83015
560.847	11635.74924
561.051	11836.72525
561.256	11832.66597
561.461	11909.78659
561.666	11761.62302
561.871	12349.96873
562.076	12124.85088
562.281	12250.60333
562.485	11546.39839
562.69	11895.58106
562.895	11788.01163
563.1	12043.70492
563.305	11686.50891
563.509	12167.44763
563.714	11810.33931
563.919	12191.78716
564.123	12029.50311
564.328	12333.74695
564.533	11733.20288
564.737	12063.99257
564.942	12120.79387
565.147	12181.64582
565.351	12157.30585
565.556	12214.09746
565.761	12189.75891
565.965	12339.83017
566.17	12250.60333
566.374	12181.64582
566.579	12258.71543
566.784	12126.87937
566.988	12100.50838
567.193	12404.71398
567.397	12341.8579
567.602	12575.00169
567.806	12033.56081
568.011	12518.24417
568.215	12684.44893
568.42	12416.87892
568.624	12402.68646
568.828	12570.94774
569.033	12680.39564
569.237	12755.37769
569.442	12696.60865
569.646	12801.98419
569.85	12690.52882
570.055	12777.66812
570.259	12820.2207
570.463	12933.68247
570.668	12706.74159
570.872	12739.16602
571.076	12765.50979
571.281	12775.64175
571.485	12763.48338
571.689	12986.35553
571.893	12866.82312
572.098	13026.87094
572.302	12714.84784
572.506	13156.50713
572.71	12502.02683
572.914	13278.02391
573.119	12988.38135
573.323	13263.84776
573.527	12994.45878
573.731	13255.74702
573.935	13328.65128
574.139	13435.97286
574.343	13030.92237
574.547	13085.61477
574.751	13411.67461
574.955	13405.59996
575.159	13257.77221
575.364	13527.0864
575.568	13227.39385
575.772	13300.30028
575.976	13304.35047
576.18	13587.82465
576.383	13583.77553
576.587	13689.04818
576.791	13215.24223
576.995	13549.35746
577.199	13486.59243
577.403	13322.57614
577.607	13662.73086
577.811	13601.99645
578.015	13569.60351
578.219	13608.07003
578.422	13521.0124
578.626	13802.409
578.83	13628.31507
579.034	13765.97264
579.238	13608.07003
579.442	13954.21724
579.645	13729.5353
579.849	13806.45743
580.053	13927.9049
580.257	14002.79272
580.46	13723.46231
580.664	13956.24124
580.868	13689.04818
581.071	13871.23066
581.275	14039.22339
581.479	14069.5817
581.682	13790.26366
581.886	14091.84413
582.09	14172.79617
582.293	14290.17084
582.497	14041.24729
582.7	14223.38949
582.904	14154.58226
583.107	14348.85585
583.311	13842.89273
583.515	14332.66702
583.718	14156.60603
583.922	14312.43084
584.125	14081.72488
584.329	14251.72122
584.532	14298.26541
584.735	14381.23318
584.939	14057.43844
585.142	14567.39547
585.346	14356.95022
585.549	14496.57423
585.753	14419.68073
585.956	14652.37905
586.159	14539.06716
586.363	14520.85598
586.566	14458.12774
586.769	14737.36084
586.973	14541.09062
587.176	14624.0514
587.379	14593.70012
587.582	14965.99586
587.786	14522.87945
587.989	14672.61296
588.192	14704.98702
588.395	14700.94027
588.599	14502.64469
588.802	14664.51941
589.005	14460.15125
589.208	14822.34116
589.411	14676.65973
589.615	14947.78624
589.818	14972.06572
590.021	14862.80755
590.224	14838.52774
590.427	14921.4834
590.63	14895.18049
590.833	14711.05713
591.036	14804.1312
591.239	15311.97595
591.442	15020.62453
591.645	15222.95182
591.848	15239.138
592.051	15475.86288
592.254	14972.06572
592.457	15194.62602
592.66	15200.69584
592.863	15583.0994
593.066	15485.97946
593.269	15419.21029
593.472	15500.14269
593.675	15601.30957
593.878	15536.56257
594.081	15556.79593
594.284	15532.51591
594.486	15710.57199
594.689	15963.50577
594.892	15469.79294
595.095	15494.07273
595.298	15815.79027
595.5	15457.65307
595.703	15811.74336
595.906	15376.72109
596.109	15785.43856
596.311	15927.08215
596.514	15710.57199
596.717	15330.18549
596.92	16068.73209
597.122	15846.14225
597.325	15615.47308
597.528	15220.92855
597.73	15943.27038
597.933	15902.79997
598.136	16119.32309
598.338	15793.53232
598.541	15967.55287
598.743	15999.92983
598.946	15740.92313
599.148	16014.09487
599.351	15836.02489
599.554	15813.76682
599.756	16062.66124
599.959	16230.62683
600.161	15983.74131
600.363	16137.53609
600.566	16309.55446
600.768	16034.33075
600.971	16271.1022
601.173	16135.51242
601.376	16301.45919
601.578	16372.29381
601.78	16362.17443
601.983	16254.91197
602.185	16509.92221
602.388	16475.51422
602.59	16497.77814
602.792	16256.93574
602.995	16641.48788
603.197	16080.87384
603.399	16584.8123
603.601	16240.74561
603.804	16307.53064
604.006	16538.25865
604.208	16307.53064
604.41	16301.45919
604.613	16738.65021
604.815	16469.44229
605.017	16366.22218
605.219	16688.04416
605.421	16275.14977
605.623	16817.59864
605.826	16738.65021
606.028	16509.92221
606.23	16833.79366
606.432	16659.70541
606.634	16890.47747
606.836	16762.94164
607.038	17042.31917
607.24	16566.59552
607.442	16910.72218
607.644	16675.89893
607.846	16795.33076
608.048	16667.80215
608.25	16928.94263
608.452	16811.52555
608.654	17206.32548
608.856	16854.03765
609.058	17003.85119
609.26	16712.33488
609.462	16777.1118
609.664	16898.57532
609.866	16912.74666
610.067	16943.11424
610.269	16977.53155
610.471	16785.20909
610.673	17007.9004
610.875	17167.8532
611.077	16890.47747
611.278	16777.1118
611.48	16941.08972
611.682	16688.04416
611.884	17052.44249
612.085	16698.16525
612.287	16762.94164
612.489	16973.48242
612.69	17111.15908
612.892	17003.85119
613.094	17123.30763
613.295	16878.33077
613.497	17246.82375
613.699	17194.17623
613.9	17159.7539
614.102	17149.62984
614.304	17096.98589
614.505	16971.45785
614.707	17388.57705
614.908	16793.30642
615.11	17048.39315
615.311	16866.18416
615.513	16882.37966
615.714	16914.77115
615.916	17048.39315
616.117	16845.94002
616.319	17516.16786
616.52	16924.89362
616.722	17135.45629
616.923	17125.3324
617.124	17208.35037
617.326	17107.10958
617.527	17427.05551
617.729	16937.04068
617.93	16991.70361
618.131	17062.56587
618.333	17297.44824
618.534	16977.53155
618.735	17315.67351
618.937	16945.13877
619.138	17026.12201
619.339	17137.48107
619.54	17465.5351
619.742	17321.74866
619.943	17287.32319
620.144	17056.49183
620.345	17123.30763
620.546	17388.57705
620.748	17157.72908
620.949	17080.78814
621.15	17501.99049
621.351	17076.73872
621.552	17493.8892
621.753	17429.08073
621.954	17339.97426
622.155	16700.18948
622.356	17210.37525
622.558	17218.47484
622.759	17370.3508
622.96	17358.2001
623.161	17384.52675
623.362	17250.87364
623.563	17615.41387
623.764	17595.15895
623.965	17645.79686
624.166	17420.97989
624.366	17587.05708
624.567	17198.22596
624.768	17570.85348
624.969	17317.69856
625.17	17741.00172
625.371	17256.9485
625.572	17238.724
625.773	17443.25731
625.973	17410.85392
626.174	17111.15908
626.375	17420.97989
626.576	17445.28255
626.777	17562.75176
626.977	17038.26986
627.178	17599.20991
627.379	17433.13116
627.58	17716.69339
627.78	17860.52474
627.981	17619.46489
628.182	18032.74015
628.382	17994.24273
628.583	17761.25902
628.784	17753.15606
628.984	17056.49183
629.185	17597.18443
629.386	17297.44824
629.586	17984.11204
629.787	17595.15895
629.987	17745.05315
630.188	17704.53941
630.388	17653.89912
630.589	17390.6022
630.79	17548.57387
630.99	17674.15499
631.191	17866.6025
631.391	17801.77465
631.591	17514.14251
631.792	17785.56824
631.992	17969.92923
632.193	17826.08468
632.393	17838.23988
632.594	17726.8218
632.794	17625.54145
632.994	17990.19044
633.195	18140.13453
633.395	17574.90436
633.595	17943.59018
633.796	17564.77719
633.996	18172.55748
634.196	17894.9658
634.397	18032.74015
634.597	17870.65436
634.797	17743.02743
634.997	17888.88789
635.198	17935.48597
635.398	17992.21658
635.598	18065.16003
635.798	17973.98144
635.998	18095.5545
636.199	18010.45201
636.399	18338.73992
636.599	18286.04522
636.799	18081.37031
636.999	17799.74884
637.199	17708.59073
637.399	17785.56824
637.599	17896.99177
637.799	17524.26929
637.999	17992.21658
638.199	17909.1477
638.399	17759.23328
638.599	18375.22235
638.799	18328.60613
638.999	18213.08749
639.199	18369.14186
639.399	18284.01855
639.599	17967.90313
639.799	17892.93982
639.999	18326.57938
640.199	18154.31946
640.399	18778.6388
640.599	17718.71907
640.799	18498.8664
640.998	18342.79346
641.198	18048.94997
641.398	18405.62532
641.598	18359.00779
641.798	18186.74282
641.997	18334.68639
642.197	18020.58293
642.397	18494.81227
642.597	17988.1643
642.796	18545.48999
642.996	18342.79346
643.196	18407.65221
643.395	18184.71633
643.595	18586.0339
643.795	18438.05608
643.994	18699.56513
644.194	18397.51778
644.394	18401.57154
644.593	17854.44701
644.793	18350.9006
644.992	18089.47554
645.192	18316.4457
645.392	18348.87381
645.591	18746.19759
645.791	18592.11562
645.99	18693.48279
646.19	18547.51715
646.389	18448.1909
646.589	18851.63522
646.788	18632.66131
646.987	18423.8675
647.187	18829.33021
647.386	18586.0339
647.586	18950.99979
647.785	18656.98948
647.984	18612.38827
648.184	18804.99802
648.383	18894.21886
648.582	18772.55599
648.782	19103.10717
648.981	18632.66131
649.18	18525.21861
649.38	18577.92499
649.579	18804.99802
649.778	18936.80426
649.977	19068.6275
650.177	18855.69073
650.376	18800.94271
650.575	18965.19552
650.774	19190.32571
650.973	18796.88742
651.173	18644.82533
651.372	18754.3078
651.571	18871.91293
651.77	18754.3078
651.969	18867.85735
652.168	18796.88742
652.367	18835.41335
652.566	18740.11498
652.765	18948.97185
652.964	18959.11161
653.163	19174.09843
653.362	19180.18363
653.561	18934.77635
653.76	19196.41101
653.959	18790.80451
654.158	19297.83807
654.357	19251.18034
654.556	18857.71849
654.755	19062.54297
654.954	19141.64466
655.153	18756.33536
655.352	19017.92423
655.551	19322.18209
655.749	19202.49634
655.948	19032.12089
656.147	19381.01594
656.346	19374.92952
656.545	19445.94009
656.743	19253.20889
656.942	19038.20523
657.141	19326.23949
657.34	19180.18363
657.538	19220.75257
657.737	18906.38594
657.936	19046.31775
658.135	19082.82486
658.333	19293.78079
658.532	19052.40217
658.731	19265.38029
658.929	19009.81194
659.128	19220.75257
659.326	18999.67167
659.525	19756.41764
659.724	19320.1534
659.922	19249.1518
660.121	19030.09278
660.319	19141.64466
660.518	18622.52474
660.716	18760.39049
660.915	18948.97185
661.113	19567.68435
661.312	18973.30745
661.51	19247.12325
661.709	19052.40217
661.907	19411.44861
662.105	19176.12683
662.304	19535.21775
662.502	19543.3343
662.701	19640.7381
662.899	19512.89758
663.097	19474.34575
663.296	19348.55546
663.494	19606.23982
663.692	19458.11385
663.891	19239.00912
664.089	19318.12471
664.287	19541.30515
664.485	19409.41974
664.684	19494.636
664.882	19336.38305
665.08	19468.25875
665.278	19257.26601
665.476	19435.79541
665.675	19026.03658
665.873	19176.12683
666.071	18882.05193
666.269	19101.07892
666.467	18957.08365
666.665	19212.63865
666.863	18924.63683
667.061	19082.82486
667.259	19350.58421
667.457	19443.91115
667.655	18857.71849
667.853	18944.91597
668.051	19419.56414
668.249	19452.02695
668.447	19372.90072
668.645	19279.58044
668.843	18843.52426
669.041	19234.95208
669.239	18752.28024
669.437	18813.10869
669.635	18987.50349
669.833	19113.24847
670.031	18989.53151
670.229	18936.80426
670.426	18973.30745
670.624	19174.09843
670.822	19058.48664
671.02	19397.24658
671.218	19545.36345
671.415	19510.8685
671.613	19468.25875
671.811	19111.2202
672.009	19395.21774
672.206	19677.26701
672.404	19573.77195
672.602	19423.62194
672.799	19261.32314
672.997	19358.69924
673.195	19119.3333
673.392	19299.86671
673.59	19273.49463
673.788	19034.149
673.985	18914.4974
674.183	19184.24045
674.38	18821.21942
674.578	19009.81194
674.775	19291.75215
674.973	19058.48664
675.17	19048.34589
675.368	19385.07358
675.565	18997.64363
675.763	19338.41177
675.96	18940.86011
676.158	19314.06735
676.355	18756.33536
676.553	18983.44746
676.75	18661.04423
676.947	19431.73757
677.145	19314.06735
677.342	19184.24045
677.539	18766.47323
677.737	18882.05193
677.934	18729.97737
678.131	18859.74626
678.329	18886.10756
678.526	18983.44746
678.723	19269.43745
678.92	19561.59678
679.118	19259.29457
679.315	19251.18034
679.512	19165.98489
679.709	19107.16368
679.906	19170.04165
680.104	19188.29729
680.301	18689.42791
680.498	18774.58359
680.695	18819.19173
680.892	19212.63865
681.089	19066.59932
681.286	19005.75582
681.483	18705.64751
681.68	18827.30251
681.877	18859.74626
682.075	18977.36344
682.272	19105.13542
682.469	19210.61018
682.665	18926.66472
682.862	19103.10717
683.059	18630.63399
683.256	18888.13538
683.453	18973.30745
683.65	18632.66131
683.847	18930.72053
684.044	18742.14251
684.241	18571.84335
684.438	18764.44564
684.635	18667.12638
684.831	18884.07974
685.028	18592.11562
685.225	18693.48279
685.422	18162.42521
685.619	18654.96211
685.815	18592.11562
686.012	18713.7574
686.209	18093.52818
686.405	18628.60667
686.602	18450.21787
686.799	18699.56513
686.996	18204.98137
687.192	18308.33882
687.389	18093.52818
687.586	18581.97944
687.782	18648.88003
687.979	18695.51023
688.175	18383.32973
688.372	18109.73887
688.568	18255.64558
688.765	18146.21377
688.962	18474.54186
689.158	18807.02568
689.355	18648.88003
689.551	18652.93475
689.748	18509.00179
689.944	18470.48782
690.14	18172.55748
690.337	18713.7574
690.533	18450.21787
690.73	18705.64751
690.926	18626.57936
691.123	18302.25871
691.319	18288.07189
691.515	18648.88003
691.712	18425.89443
691.908	18081.37031
692.104	18188.76931
692.301	18434.00218
692.497	18600.22463
692.693	18431.97524
692.889	18132.02894
693.086	18389.4103
693.282	17915.22571
693.478	18207.00789
693.674	18053.00246
693.87	18338.73992
694.067	18375.22235
694.263	18527.24573
694.459	17980.05979
694.655	18253.61897
694.851	18150.26661
695.047	18468.46081
695.243	18271.85862
695.439	18048.94997
695.635	18172.55748
695.831	18237.4062
696.027	17935.48597
696.224	18148.24018
696.42	18014.50437
696.615	18265.7787
696.811	17961.82484
697.007	18103.65983
697.203	17929.40786
697.399	18130.00255
697.595	17629.59251
697.791	17793.67142
697.987	17651.87355
698.183	17830.1364
698.379	17637.69466
698.575	17965.87703
698.77	17552.62468
698.966	17856.47292
699.162	17899.01775
699.358	17998.29503
699.554	17862.55066
699.749	18176.61042
699.945	18026.66152
700.141	17896.99177
700.337	17730.87319
700.532	17836.21401
700.728	17809.87794
700.924	17743.02743
701.119	17824.05883
701.315	17668.07819
701.511	17704.53941
701.706	17844.31753
701.902	17607.31187
702.097	17570.85348
702.293	17747.07887
702.489	18002.34734
702.684	17688.33429
702.88	17714.66772
703.075	17657.95027
703.271	17692.38555
703.466	17564.77719
703.662	17580.9807
703.857	17929.40786
704.053	17564.77719
704.248	17443.25731
704.443	17801.77465
704.639	17736.9503
704.834	17911.1737
705.03	17358.2001
705.225	17826.08468
705.42	17670.10379
705.616	17896.99177
705.811	17672.12939
706.006	17728.8475
706.202	17734.92459
706.397	17599.20991
706.592	17659.97584
706.787	17820.00713
706.983	17978.03367
707.178	17692.38555
707.373	17455.40878
707.568	17406.80355
707.763	17309.5984
707.959	17309.5984
708.154	17546.54847
708.349	17449.33303
708.544	17621.49041
708.739	17649.84798
708.934	17585.03162
709.129	17497.93984
709.324	17433.13116
709.519	17589.08254
709.714	17011.94963
709.909	17738.97601
710.104	17402.7532
710.299	17256.9485
710.494	17455.40878
710.689	17570.85348
710.884	17386.5519
711.079	17530.34539
711.274	17283.2732
711.469	17546.54847
711.664	17526.29465
711.859	17560.72634
712.054	17412.87911
712.249	17358.2001
712.443	17372.37592
712.638	17692.38555
712.833	17137.48107
713.028	17534.39614
713.223	17080.78814
713.417	17070.66463
713.612	17020.04811
713.807	17054.46716
714.002	17161.77872
714.196	17425.0303
714.391	16928.94263
714.586	17236.69907
714.78	17200.25084
714.975	17368.32567
715.17	17129.38195
715.364	17086.86227
715.559	17420.97989
715.754	17105.08484
715.948	16730.55314
716.143	16910.72218
716.337	16870.23302
716.532	17491.86389
716.726	17267.07332
716.921	17129.38195
717.115	16963.35963
717.31	16916.79564
717.504	16930.96714
717.699	16963.35963
717.893	17060.54119
718.088	17461.48456
718.282	17360.22521
718.476	16843.91562
718.671	16649.58454
718.865	17032.19592
719.059	16795.33076
719.254	16928.94263
719.448	16603.02926
719.642	16601.00514
719.837	16420.86747
720.031	16738.65021
720.225	16327.76892
720.419	16607.0775
720.614	16489.68214
720.808	16613.14987
721.002	16708.2864
721.196	16534.21056
721.39	16165.86768
721.585	16459.32244
721.779	16277.17357
721.973	16712.33488
722.167	16582.7882
722.361	16671.85053
722.555	16366.22218
722.749	16641.48788
722.943	16564.57144
723.137	16481.58618
723.331	16538.25865
723.525	16592.9087
723.719	16368.24605
723.913	16706.26217
724.107	16315.62593
724.301	16380.38934
724.495	16115.27578
724.689	16420.86747
724.883	16028.25997
725.077	16481.58618
725.271	16242.76937
725.465	16099.08657
725.659	16279.19736
725.853	16301.45919
726.046	15993.85913
726.24	16171.93878
726.434	15769.25107
726.628	16396.5805
726.822	16315.62593
727.015	16590.8846
727.209	15736.8763
727.403	16200.27076
727.596	15955.4116
727.79	16341.93583
727.984	16352.05511
728.177	16358.1267
728.371	16186.10473
728.565	16285.26875
728.758	16129.44141
728.952	16281.22115
729.146	15961.48223
729.339	16103.13387
729.533	16161.82029
729.726	16343.95968
729.92	15890.65895
730.113	15651.89371
730.307	16048.49596
730.5	16161.82029
730.694	16386.46101
730.887	16194.1996
731.081	16297.41157
731.274	16273.12599
731.468	16101.11022
731.661	16032.30716
731.854	15846.14225
732.048	16232.65058
732.241	15825.90757
732.435	16117.29943
732.628	15890.65895
732.821	15884.58846
733.014	16131.46508
733.208	16339.91198
733.401	16046.47235
733.594	16220.5081
733.788	16238.72185
733.981	16103.13387
734.174	16244.79313
734.367	16042.42515
734.56	16001.95341
734.754	16321.69742
734.947	16390.5088
735.14	16285.26875
735.333	16088.96838
735.526	15809.71991
735.719	15633.68336
735.912	15621.54317
736.105	15807.69646
736.298	15908.8705
736.491	15991.83556
736.684	15886.61195
736.877	16145.6308
737.07	15967.55287
737.263	15817.81373
737.456	15823.88411
737.649	15947.31744
737.842	15959.45868
738.035	15550.72592
738.228	16030.28356
738.421	15643.80022
738.614	15787.462
738.807	15815.79027
739	15918.98807
739.192	15914.94104
739.385	16062.66124
739.578	15864.35355
739.771	16018.14203
739.964	15734.85289
740.156	16119.32309
740.349	15876.49448
740.542	15923.03511
740.735	15862.33007
740.927	15979.69419
741.12	15664.03399
741.313	15621.54317
741.505	15823.88411
741.698	15609.403
741.891	15757.1105
742.083	15773.29794
742.276	15613.44972
742.468	15597.26286
742.661	15233.06818
742.854	15346.37176
743.046	15423.25689
743.239	15449.55984
743.431	15674.1509
743.624	15475.86288
743.816	15508.23598
744.009	16050.51956
744.201	15568.93598
744.393	15627.61326
744.586	15524.42259
744.778	15732.82948
744.971	15326.13892
745.163	15253.30092
745.355	15627.61326
745.548	15437.42001
745.74	15411.11709
745.932	15328.16221
746.125	14860.78423
746.317	15135.95117
746.509	15364.58135
746.702	15350.41833
746.894	15320.06908
747.086	15158.20715
747.278	15152.13734
747.471	15376.72109
747.663	15107.62538
747.855	15554.77259
748.047	15346.37176
748.239	15287.69661
748.431	15463.723
748.623	15348.39505
748.815	15113.69519
749.008	15789.48544
749.2	15477.88619
749.392	15378.74438
749.584	14917.43681
749.776	15510.2593
749.968	15324.11564
750.16	15506.21266
750.352	15380.76767
750.544	15490.02609
750.736	15249.25437
750.928	15346.37176
751.12	14990.2753
751.311	14933.62319
751.503	15038.83404
751.695	14915.41351
751.887	14587.62984
752.079	14996.34515
752.271	14749.50097
752.463	14883.04065
752.654	14769.73445
752.846	14858.76092
753.038	14824.36448
753.23	14864.83086
753.421	14883.04065
753.613	14959.92599
753.805	15012.53141
753.997	14844.5977
754.188	14802.10787
754.38	14812.22452
754.572	14575.48923
754.763	14773.78114
754.955	14340.76145
755.146	14775.80448
755.338	14437.89254
755.53	14745.45426
755.721	14878.99403
755.913	14747.47762
756.104	14603.81724
756.296	14794.01453
756.487	14482.40979
756.679	14791.9912
756.87	14144.46334
757.062	14492.52726
757.253	14482.40979
757.445	14516.80903
757.636	14537.0437
757.827	14791.9912
758.019	14583.58297
758.21	14634.16844
758.401	14830.43446
758.593	14802.10787
758.784	14579.5361
758.975	14371.11531
759.167	14332.66702
759.358	14223.38949
759.549	14191.00991
759.74	13903.6162
759.932	13863.13417
760.123	14207.19977
760.314	13929.92895
760.505	14021.00815
760.696	14180.89118
760.888	14251.72122
761.079	14108.03481
761.27	14308.38358
761.461	13867.18242
761.652	14043.2712
761.843	13893.4958
762.034	13786.21518
762.225	13846.94104
762.416	14039.22339
762.607	13964.33725
762.798	14097.91565
762.989	13988.62502
763.18	14201.12858
763.371	14047.31899
763.562	13962.31325
763.753	13680.9506
763.944	14075.6533
764.135	13891.47171
764.326	14318.50171
764.517	14075.6533
764.708	13986.60105
764.899	13767.99691
765.089	13727.51098
765.28	13660.70643
765.471	13490.64189
765.662	13403.57507
765.853	13551.38208
766.043	13247.6462
766.234	13448.12177
766.425	13057.25619
766.615	13460.27055
766.806	13269.92328
766.997	13516.96305
767.187	13344.85149
767.378	13409.64973
767.569	13421.79895
767.759	13425.84866
767.95	13565.55433
768.141	13606.04551
768.331	13154.48171
768.522	13093.71704
768.712	13063.33311
768.903	13601.99645
769.093	13462.29533
769.284	13257.77221
769.474	13105.87032
769.665	13083.58918
769.855	13190.93851
770.046	13454.19618
770.236	12897.21445
770.426	13172.7103
770.617	13055.23054
770.807	12842.50917
770.998	12915.44867
771.188	12943.81218
771.378	12883.03198
771.569	12897.21445
771.759	12866.82312
771.949	12680.39564
772.139	13113.9724
772.33	12502.02683
772.52	12935.70842
772.71	12919.50067
772.9	12878.97979
773.09	12830.35191
773.281	12791.85259
773.471	12844.53537
773.661	12862.77085
773.851	12911.39666
774.041	12708.76816
774.231	12631.75432
774.421	12487.83631
774.611	12392.54879
774.802	12605.40548
774.992	12258.71543
775.182	12449.31758
775.372	12455.39964
775.562	12299.27421
775.752	12390.52124
775.942	12205.98473
776.131	12260.74344
776.321	12212.06929
776.511	12301.30207
776.701	12356.05178
776.891	12477.70003
777.081	12461.48165
777.271	12550.67765
777.461	12684.44893
777.651	12558.78576
777.84	12422.9613
778.03	12187.73065
778.22	12339.83017
778.41	12199.9001
778.599	12331.7192
778.789	12378.35577
778.979	12104.56554
779.169	11966.6047
779.358	11800.19049
779.548	12473.64547
779.738	12003.12728
779.927	12287.10687
780.117	12108.62267
780.307	11956.45907
780.496	12163.39094
780.686	12343.88561
780.875	12031.53196
781.065	12222.21008
781.254	12005.15624
781.444	12076.16478
781.633	12072.10741
781.823	12053.84884
782.012	11992.98238
782.202	12031.53196
782.391	11840.7845
782.581	11844.84371
782.77	11901.6692
782.96	11897.61045
783.149	11270.10612
783.338	11964.57559
783.528	11712.90173
783.717	11901.6692
783.906	11716.96203
784.096	11605.29072
784.285	11641.8407
784.474	11324.9728
784.663	11251.81557
784.853	11318.87687
785.042	11190.84103
785.231	11294.49222
785.42	11369.67356
785.61	11485.46701
785.799	11292.4601
785.988	11394.05377
786.177	11221.32947
786.366	11302.6206
786.555	11150.18611
786.744	10995.65819
786.933	11148.15325
787.122	11322.94083
787.312	10983.45592
787.501	11398.11699
787.69	11036.32954
787.879	11276.20278
788.068	10959.05018
788.257	10820.72004
788.445	10922.43852
788.634	11048.53009
788.823	11068.86346
789.012	11493.59169
789.201	11188.80839
789.39	11203.03669
789.579	10961.08405
789.768	11174.57957
789.957	10954.9824
790.145	11280.26717
790.334	10959.05018
790.523	11156.28461
790.712	11026.16212
790.9	10961.08405
791.089	10688.44219
791.278	10761.70998
791.467	10639.58829
791.655	11056.66357
791.844	10780.02451
792.033	10828.85858
792.221	10507.23985
792.41	10617.19456
792.599	10586.65524
792.787	10653.83807
792.976	10558.14936
793.164	10735.25396
793.353	10283.14222
793.541	10472.61686
793.73	10590.72731
793.918	10537.7865
794.107	10205.6893
794.295	10283.14222
794.484	10128.21659
794.672	10588.69129
794.861	10558.14936
795.049	10887.85746
795.238	10893.96024
795.426	10619.23042
795.614	10393.17357
795.803	10576.47485
795.991	9891.59474
796.179	10122.09947
796.368	10128.21659
796.556	10081.31545
796.744	10342.23794
796.932	10376.87506
797.121	10040.52578
797.309	10311.67259
797.497	10291.29402
797.685	10077.23673
797.874	9920.16286
798.062	9875.26881
798.25	9830.3676
798.438	10183.26504
798.626	9858.94192
798.814	10067.03971
799.002	10054.80281
799.19	10007.88994
799.378	9803.83167
799.566	9969.13012
799.755	10054.80281
799.943	10309.63479
800.131	9989.53067
800.318	9999.73041
800.506	9842.61409
800.694	9924.24379
800.882	9991.57065
801.07	10079.2761
801.258	10085.3941
801.446	10250.53285
801.634	9860.98284
801.822	10189.38091
802.01	10032.36716
802.197	10217.92001
802.385	9979.33058
802.573	9867.10548
802.761	9897.71672
802.949	10052.76327
803.136	9865.06462
803.324	10211.80472
803.512	10085.3941
803.699	10244.41821
803.887	9901.79797
804.075	9948.72811
804.262	9826.28531
804.45	9922.20333
804.638	9885.47263
804.825	10126.17756
805.013	9765.04383
805.201	10018.08904
805.388	9885.47263
805.576	9820.16177
805.763	10366.68807
805.951	10285.18019
806.138	10236.26516
806.326	10301.48347
806.513	9854.86006
806.701	10087.43341
806.888	9824.24415
807.075	10052.76327
807.263	9709.91485
807.45	10140.45045
807.638	9965.04983
807.825	10107.8257
808.012	9785.45916
808.2	10160.83911
808.387	10191.41951
808.574	10115.98222
808.761	9907.91973
808.949	10421.69394
809.136	10081.31545
809.323	10274.9902
809.51	10217.92001
809.698	9989.53067
809.885	9779.33472
810.072	10075.19736
810.259	10038.48615
810.446	10177.14904
810.633	9863.02373
810.82	10156.76149
811.008	9891.59474
811.195	9877.3096
811.382	9854.86006
811.569	9956.88909
811.756	9720.12476
811.943	9948.72811
812.13	9852.8191
812.317	10124.13852
812.504	10219.95842
812.691	10250.53285
812.878	10113.94311
813.064	10313.71037
813.251	9667.02905
813.438	10144.5283
813.625	10014.00944
813.812	10303.52132
813.999	10189.38091
814.186	9916.08188
814.372	9932.40546
814.559	10003.81021
814.746	9905.87916
814.933	9936.48621
815.12	9828.32646
815.306	9885.47263
815.493	9669.07138
815.68	10099.66895
815.866	9854.86006
816.053	10160.83911
816.24	9736.45982
816.426	9826.28531
816.613	9542.41712
816.799	9875.26881
816.986	9746.66874
817.173	9738.50163
817.359	9934.44584
817.546	9832.40872
817.732	9836.49091
817.919	10140.45045
818.105	9836.49091
818.292	9603.70895
818.478	9687.4517
818.665	9648.64733
818.851	9852.8191
819.037	9783.4177
819.224	9683.3673
819.41	9736.45982
819.597	9691.53605
819.783	9769.12702
819.969	9493.37338
820.156	9560.80616
820.342	9524.02679
820.528	9956.88909
820.714	9575.10786
820.901	9838.53199
821.087	9446.36449
821.273	9583.27991
821.459	9834.44982
821.646	9624.13642
821.832	9438.18816
822.018	9703.78872
822.204	9157.98974
822.39	9644.56234
822.576	9548.54694
822.762	9695.62034
822.948	9397.30261
823.134	9485.19853
823.32	9303.241
823.507	9427.96738
823.693	9470.89193
823.879	9575.10786
824.065	9303.241
824.25	9176.40658
824.436	9207.09827
824.622	9389.12472
824.808	9323.69215
824.994	9000.36642
825.18	8994.22316
825.366	9133.43179
825.552	9119.10518
825.738	9248.0146
825.923	9295.06008
826.109	9423.87895
826.295	9515.8529
826.481	9434.09989
826.667	9344.14164
826.852	9464.76029
827.038	9454.54056
827.224	9458.6285
827.409	9409.56896
827.595	9581.23692
827.781	9188.68371
827.966	9601.66612
828.152	8957.3603
828.338	9112.96495
828.523	8852.8843
828.709	9049.50679
828.894	8703.25859
829.08	8994.22316
829.266	8815.99929
829.451	9200.96023
829.637	8828.29494
829.822	8971.69653
830.008	8764.76037
830.193	9160.03612
830.378	8861.08018
830.564	8945.07141
830.749	8723.76102
830.935	8707.35922
831.12	8697.1075
831.305	8934.83018
831.491	8656.096
831.676	8961.45645
831.861	8508.39273
832.047	8613.02593
832.232	8506.34061
832.417	8621.23038
832.602	8588.41076
832.788	8615.07707
832.973	8418.08128
833.158	8635.58747
833.343	8469.39915
833.528	8602.76993
833.714	8329.78636
833.899	8592.51347
834.084	8239.40075
834.269	8249.67375
834.454	8434.50431
834.639	8329.78636
834.824	8446.82076
835.009	8596.61611
835.194	8459.13653
835.379	8846.73721
835.564	8364.69794
835.749	8651.99444
835.934	8781.15806
836.119	8574.05066
836.304	8093.47044
836.489	8438.60987
836.674	7965.95542
836.859	8430.39867
837.044	8537.12046
837.228	8574.05066
837.413	8066.73987
837.598	8598.6674
837.783	8175.69705
837.968	8249.67375
838.152	8157.19885
838.337	8432.4515
838.522	8301.03142
838.707	8625.3325
838.891	8146.92138
839.076	8344.1624
839.261	8085.24601
839.445	8229.12724
839.63	7685.96801
839.815	7891.87845
839.999	7990.64185
840.184	8140.75465
840.368	7768.35727
840.553	8009.15474
840.737	7465.40975
840.922	7805.42149
841.106	7494.28179
841.291	7657.12379
841.475	7638.57889
841.66	7743.64402
841.844	7543.76691
842.029	7444.78426
842.213	7578.81138
842.397	7539.64362
842.582	7640.63952
842.766	7918.63154
842.951	7549.95168
843.135	7700.38856
843.319	7490.15747
843.504	7374.64139
843.688	7632.39688
843.872	7624.15389
844.056	7496.34392
844.241	7655.06333
844.425	7409.71597
844.609	7669.48611
844.793	7397.33743
844.977	7529.33503
845.161	7298.2808
845.346	7529.33503
845.53	7389.08463
845.714	7564.38205
845.898	7310.66563
846.082	7440.65891
846.266	7192.97768
846.45	7190.91234
846.634	6851.89371
846.818	7250.79826
847.002	7184.71618
847.186	7254.92764
847.37	6903.61253
847.554	7164.06088
847.738	6837.4099
847.922	6901.54405
848.106	7104.14793
848.29	7304.47331
848.473	7157.86386
848.657	7190.91234
848.841	6951.18133
849.025	6905.68099
849.209	6847.7556
849.392	6951.18133
849.576	7011.14236
849.76	6959.45294
849.944	7141.33748
850.127	7159.92955
850.311	6926.36432
850.495	7116.54525
850.678	6785.67289
850.862	7242.53924
851.046	7256.99229
851.229	7004.94037
851.413	6936.70514
851.596	6928.43253
851.78	6744.273
851.964	6992.53579
852.147	6814.64737
852.331	6870.51412
852.514	6543.35324
852.698	6796.02143
852.881	6292.41592
853.065	6576.50959
853.248	6329.76704
853.431	6499.82655
853.615	6578.58166
853.798	6537.13577
853.982	6588.94169
854.165	6646.94718
854.348	6572.36537
854.532	6495.68062
854.715	6350.5144
854.898	6655.23221
855.081	6292.41592
855.265	6663.51686
855.448	6315.24251
855.631	6379.55677
855.814	6379.55677
855.997	6479.09596
856.181	6279.96386
856.364	6309.01736
856.547	6124.24196
856.73	6597.2293
856.913	6126.31912
857.096	6497.7536
857.279	6309.01736
857.462	6333.9167
857.645	6309.01736
857.828	6514.33658
858.011	6437.62781
858.194	6358.81268
858.377	6032.82361
858.56	6215.6148
858.743	6014.11879
858.926	6084.77144
859.109	5991.25476
859.292	6109.70118
859.475	5804.07818
859.658	6290.34064
859.841	5656.28179
860.023	6086.84905
860.206	5741.64352
860.389	5729.15403
860.572	5410.38542
860.755	5806.15897
860.937	5389.53169
861.12	5960.07193
861.303	5820.72384
861.486	5866.4916
861.668	5843.60915
861.851	5930.96317
862.034	5533.3746
862.216	5635.45584
862.399	5385.36066
862.581	5558.37932
862.764	5527.12289
862.947	5706.25444
863.129	5460.4248
863.312	5593.79686
863.494	5675.02313
863.677	5622.95914
863.859	5414.55589
864.042	5414.55589
864.224	5345.73121
864.406	5466.67877
864.589	5345.73121
864.771	5306.09329
864.954	5109.86581
865.136	5266.44692
865.318	5149.54542
865.501	5485.43941
865.683	5038.83931
865.865	5500.0297
866.048	5063.91054
866.23	5164.1621
866.412	4948.97341
866.594	5306.09329
866.777	4971.96641
866.959	5180.86549
867.141	4963.60564
867.323	5174.60189
867.505	4940.61162
867.687	4948.97341
867.869	4892.52424
868.052	5130.75086
868.234	4848.60778
868.416	4963.60564
868.598	4796.31317
868.78	5030.48149
868.962	4997.04652
869.144	5088.97845
869.326	4833.96673
869.508	5185.0411
869.69	5099.42242
869.872	5205.91777
870.054	4967.78607
870.236	5308.17971
870.417	5065.99966
870.599	5047.19676
870.781	4737.72635
870.963	4946.88299
871.145	4838.15
871.327	4836.05838
871.508	4478.05865
871.69	4741.91171
871.872	4574.427
872.054	4737.72635
872.235	4438.24071
872.417	4737.72635
872.599	4555.57602
872.78	4737.72635
872.962	4628.87527
873.144	4840.2416
873.325	4605.84131
873.507	4875.79535
873.689	4586.99333
873.87	4913.43329
874.052	4578.61587
874.233	4894.61525
874.415	4628.87527
874.596	4888.34215
874.778	4559.76528
874.959	4614.21761
875.141	4572.33254
875.322	4796.31317
875.503	4838.15
875.685	4896.70623
875.866	4796.31317
876.048	4879.97771
876.229	4545.10247
876.41	4739.81904
876.592	4561.85988
876.773	4798.40523
876.954	4538.81807
877.136	4628.87527
877.317	4381.64372
877.498	4574.427
877.679	4463.38981
877.86	4628.87527
878.042	4553.48135
878.223	4913.43329
878.404	4729.35535
878.585	4898.79719
878.766	4779.57589
878.947	4965.69587
879.128	4815.14087
879.309	4720.98399
879.49	4645.62555
879.672	5024.21288
879.853	4679.12179
880.034	4748.18958
880.215	4833.96673
880.396	4932.24947
880.576	4731.44813
880.757	4923.88695
880.938	4700.05402
881.119	4967.78607
881.3	4559.76528
881.481	4957.33482
881.662	4622.59355
881.843	4754.46725
882.023	4785.85254
882.204	5043.01808
882.385	4806.77323
882.566	4892.52424
882.747	4777.48363
882.927	5080.62285
883.108	4679.12179
883.289	4808.86518
883.469	4850.69927
883.65	4823.50815
883.831	4802.58928
884.011	4905.06994
884.192	4737.72635
884.373	4871.6129
884.553	4754.46725
884.734	4863.24772
884.914	4731.44813
885.095	4896.70623
885.275	4605.84131
885.456	4988.68685
885.636	4800.49726
885.817	5080.62285
885.997	4681.21511
886.178	5091.06729
886.358	4723.07686
886.538	5053.4646
886.719	4702.14712
886.899	4679.12179
887.08	4645.62555
887.26	4873.70414
887.44	4817.23273
887.621	5026.30244
887.801	4779.57589
887.981	4946.88299
888.161	4700.05402
888.342	4861.15637
888.522	4670.74827
888.702	4796.31317
888.882	4681.21511
889.062	4909.25166
889.242	4773.29904
889.423	4898.79719
889.603	4754.46725
889.783	4775.39135
889.963	4884.15998
890.143	4944.79256
890.323	4670.74827
890.503	4932.24947
890.683	4798.40523
890.863	4654.00015
891.043	4674.93507
891.223	4741.91171
891.403	4591.18192
891.583	4622.59355
891.763	4607.93542
891.943	4775.39135
892.122	4620.4996
892.302	4612.12357
892.482	4580.71027
892.662	4808.86518
892.842	4628.87527
893.022	4729.35535
893.201	4475.96317
893.381	4654.00015
893.561	4658.18731
893.741	4530.43857
893.92	4459.19851
894.1	4679.12179
894.28	4266.30465
894.459	4478.05865
894.639	4444.52828
894.819	4429.85698
894.998	4436.14481
895.178	4741.91171
895.357	4390.02946
895.537	4586.99333
895.716	4402.60742
895.896	4616.31163
896.075	4429.85698
896.255	4450.81565
896.434	4436.14481
896.614	4802.58928
896.793	4320.83671
896.973	4545.10247
897.152	4035.43343
897.331	4555.57602
897.511	4343.90358
897.69	4572.33254
897.87	4440.33659
898.049	4421.47289
898.228	4251.62046
898.407	4394.22221
898.587	4119.41598
898.766	4501.10751
898.945	3949.31709
899.124	4085.82695
899.304	3974.52543
899.483	4094.2247
899.662	3886.28352
899.841	4152.99966
900.02	3959.82092
900.199	3951.4179
900.378	3993.42975
900.557	4027.03335
900.737	3982.92755
900.916	4041.73327
901.095	3844.25111
901.274	3852.65822
901.453	3646.59367
901.632	3823.23192
901.811	3615.03689
901.989	3697.07564
902.168	3671.83603
902.347	3724.41543
902.526	3579.26743
902.705	3606.62104
902.884	3459.29559
903.063	3503.50265
903.242	3379.28176
903.42	3478.24245
903.599	3280.28233
903.778	3532.96957
903.957	3425.60869
904.135	3419.29188
904.314	3198.10535
904.493	3516.13177
904.672	3421.3975
904.85	3372.9638
905.029	3242.35766
905.207	3269.74825
905.386	3124.33543
905.565	3160.16902
905.743	3056.87148
905.922	3244.46472
906.1	2972.5192
906.279	3056.87148
906.457	2812.18462
906.636	3115.90332
906.814	2921.89626
906.993	2972.5192
907.171	2795.30254
907.35	2791.08188
907.528	2647.54784
907.707	2837.50609
907.885	2693.99192
908.063	2970.41008
908.242	2723.544
908.42	2753.09351
908.598	2548.30632
908.777	2685.548
908.955	2408.90269
909.133	2803.74369
909.311	2520.8519
909.49	2748.87231
909.668	2630.65757
909.846	2839.61612
910.024	2533.52341
910.202	2664.43731
910.38	2425.80264
910.559	2788.97153
910.737	2493.39553
910.915	2740.42976
911.093	2569.42377
911.271	2634.88022
911.449	2489.17131
911.627	2639.10281
911.805	2541.97086
911.983	2563.08866
912.161	2451.15128
912.339	2677.10388
912.517	2533.52341
912.695	2611.65507
912.872	2482.83489
913.05	2556.75344
913.228	2478.61055
913.406	2449.03895
913.584	2425.80264
913.762	2575.75877
913.939	2465.93727
914.117	2750.98292
914.295	2383.5515
914.473	2824.84561
914.65	2622.21214
914.828	2717.21163
915.006	2693.99192
915.184	2833.28599
915.361	2613.76651
915.539	2601.0977
915.716	2398.33988
915.894	2579.98204
916.072	2402.56503
916.249	2696.10287
916.427	2413.12774
916.604	2546.19451
916.782	2400.45246
916.959	2748.87231
917.137	2305.37622
917.314	2541.97086
917.492	2180.69176
917.669	2372.98808
917.847	2364.53715
918.024	2670.77065
918.201	2170.12389
918.379	2375.10078
918.556	2322.28012
918.733	2417.35274
918.911	2110.94009
919.088	2341.29627
919.265	2163.78307
919.442	2299.03709
919.62	2036.95199
919.797	2258.88736
919.974	2178.5782
920.151	2229.30125
920.328	2096.14319
920.506	2146.87385
920.683	1973.52689
920.86	2034.83791
921.037	1996.78344
921.214	1958.72688
921.391	1878.37901
921.568	2096.14319
921.745	1946.04092
921.922	2275.79292
922.099	1979.86966
922.276	2070.77622
922.453	1969.29835
922.63	2144.76016
922.807	1994.66924
922.984	2013.69681
923.161	1958.72688
923.338	2168.01029
923.514	1948.15526
923.691	2020.03921
923.868	1891.06604
924.045	1891.06604
924.222	1791.6796
924.399	1715.54747
924.575	1814.94117
924.752	1840.31682
924.929	1594.99673
925.105	1759.95847
925.282	1630.95129
925.459	1715.54747
925.635	1614.03157
925.812	1793.79431
925.989	1664.79029
926.165	1823.3998
926.342	1721.89199
926.518	1753.61414
926.695	1489.24548
926.871	1671.13503
927.048	1510.39593
927.224	1561.15666
927.401	1281.9728
927.577	1563.27168
927.754	1404.64346
927.93	1592.88174
928.107	1518.85609
928.283	1516.74105
928.459	1533.66134
928.636	1599.22671
928.812	1349.65257
928.988	1379.26297
929.165	1197.3765
929.341	1552.69659
929.517	1260.82331
929.693	1561.15666
929.87	1324.27245
930.046	1461.74982
930.222	1260.82331
930.398	1307.35249
930.574	1163.53942
930.751	1307.35249
930.927	1188.91714
931.103	1339.07749
931.279	1188.91714
931.455	1197.3765
931.631	977.45701
931.807	1184.68748
931.983	1032.43147
932.159	1163.53942
932.335	994.37177
932.511	1104.32706
932.687	888.66195
932.863	907.68835
933.039	818.90429
933.215	1013.40137
933.391	895.00401
933.566	1007.05811
933.742	962.65695
933.918	869.63621
934.094	725.90988
934.27	920.37296
934.445	833.70058
934.621	776.63172
934.797	630.82344
934.973	685.75944
935.148	645.61311
935.324	668.85521
935.5	575.89576
935.675	620.25976
935.851	548.43524
936.027	673.0812
936.202	597.02077
936.378	649.83884
936.553	554.77208
936.729	514.64087
936.904	508.30483
937.08	470.29135
937.255	472.40309
937.431	328.84154
937.606	360.50292
937.782	343.61636
937.957	309.84661
938.133	309.84661
938.308	267.64093
938.483	259.20069
938.659	326.73092
938.834	288.74285
939.009	292.96345
939.185	276.08147
939.36	284.52232
939.535	124.19996
939.71	261.31072
939.886	278.19166
940.061	210.67529
940.236	187.47118
940.411	191.68993
940.586	195.90876
940.761	195.90876
940.937	185.36184
941.112	235.99161
941.287	191.68993
941.462	136.85268
941.637	324.62032
941.812	214.89448
941.987	227.55252
942.162	174.81543
942.337	130.52622
942.512	187.47118
942.687	219.11374
942.862	77.81336
943.037	191.68993
943.212	132.63502
943.386	103.11382
943.561	179.03394
943.736	191.68993
943.911	109.43943
944.086	162.16043
944.26	128.41744
944.435	90.46319
944.61	162.16043
944.785	157.94226
944.959	113.65661
945.134	242.32113
945.309	151.61516
945.483	98.89685
945.658	134.74384
945.833	117.87389
946.007	147.39721
946.182	160.05133
946.357	117.87389
946.531	141.07043
946.706	170.59702
946.88	134.74384
947.055	109.43943
947.229	124.19996
947.404	67.27246
947.578	101.00532
947.752	109.43943
947.927	77.81336
948.101	155.83321
948.276	115.76524
948.45	122.09124
948.624	204.34665
948.799	151.61516
948.973	149.50617
949.147	124.19996
949.321	119.98255
949.496	174.81543
949.67	124.19996
949.844	179.03394
950.018	168.48784
950.193	107.33087
950.367	132.63502
950.541	166.37868
950.715	130.52622
950.889	94.67998
951.063	168.48784
951.237	67.27246
951.411	183.25252
951.585	145.28826
951.759	90.46319
951.933	187.47118
952.107	65.16435
952.281	204.34665
952.455	149.50617
952.629	168.48784
952.803	166.37868
952.977	136.85268
953.151	208.56572
953.325	208.56572
953.499	157.94226
953.672	162.16043
953.846	145.28826
954.02	141.07043
954.194	111.54801
954.368	160.05133
954.541	153.72418
954.715	145.28826
954.889	170.59702
955.062	181.14322
955.236	117.87389
955.41	141.07043
955.583	185.36184
955.757	138.96154
955.93	217.0041
956.104	126.30869
956.278	223.33309
956.451	160.05133
956.625	141.07043
956.798	183.25252
956.972	117.87389
957.145	166.37868
957.319	117.87389
957.492	162.16043
957.665	128.41744
957.839	168.48784
958.012	204.34665
958.185	174.81543
958.359	263.42077
958.532	136.85268
958.705	149.50617
958.879	200.12766
959.052	170.59702
959.225	141.07043
959.398	111.54801
959.572	126.30869
959.745	126.30869
959.918	141.07043
960.091	187.47118
960.264	179.03394
960.438	94.67998
960.611	149.50617
960.784	195.90876
960.957	90.46319
961.13	113.65661
961.303	98.89685
961.476	195.90876
961.649	191.68993
961.822	90.46319
961.995	141.07043
962.168	204.34665
962.341	124.19996
962.514	92.57157
962.686	183.25252
962.859	174.81543
963.032	174.81543
963.205	98.89685
963.378	143.17933
963.551	164.26954
963.723	141.07043
963.896	115.76524
964.069	107.33087
964.242	143.17933
964.414	151.61516
964.587	107.33087
964.76	117.87389
964.932	132.63502
965.105	84.13817
965.278	103.11382
965.45	128.41744
965.623	138.96154
965.795	101.00532
965.968	153.72418
966.14	157.94226
966.313	119.98255
966.485	107.33087
966.658	115.76524
966.83	115.76524
967.003	94.67998
967.175	67.27246
967.348	126.30869
967.52	183.25252
967.692	174.81543
967.865	113.65661
968.037	124.19996
968.209	141.07043
968.382	60.94819
968.554	96.7884
968.726	65.16435
968.898	101.00532
969.071	132.63502
969.243	162.16043
969.415	183.25252
969.587	115.76524
969.759	23.00695
969.932	141.07043
970.104	101.00532
970.276	86.24649
970.448	119.98255
970.62	130.52622
970.792	84.13817
970.964	109.43943
971.136	96.7884
971.308	90.46319
971.48	155.83321
971.652	58.84015
971.824	69.38059
971.996	136.85268
972.168	65.16435
972.339	153.72418
972.511	23.00695
972.683	164.26954
972.855	126.30869
973.027	82.02988
973.199	48.30027
973.37	109.43943
973.542	151.61516
973.714	98.89685
973.886	77.81336
974.057	124.19996
974.229	35.65319
974.401	90.46319
974.572	73.59693
974.744	111.54801
974.915	134.74384
975.087	48.30027
975.259	90.46319
975.43	77.81336
975.602	103.11382
975.773	141.07043
975.945	119.98255
976.116	124.19996
976.288	16.68414
976.459	65.16435
976.63	82.02988
976.802	143.17933
976.973	138.96154
977.145	75.70514
977.316	69.38059
977.487	52.51615
977.659	60.94819
977.83	65.16435
978.001	56.73213
978.172	73.59693
978.344	31.43768
978.515	90.46319
978.686	46.19237
978.857	58.84015
979.028	105.22233
979.2	117.87389
979.371	98.89685
979.542	128.41744
979.713	63.05626
979.884	90.46319
980.055	63.05626
980.226	33.54542
980.397	98.89685
980.568	77.81336
980.739	69.38059
980.91	109.43943
981.081	48.30027
981.252	103.11382
981.423	67.27246
981.594	65.16435
981.765	63.05626
981.936	86.24649
982.106	82.02988
982.277	138.96154
982.448	48.30027
982.619	90.46319
982.79	86.24649
982.96	52.51615
983.131	115.76524
983.302	109.43943
983.472	82.02988
983.643	39.86879
983.814	84.13817
983.984	92.57157
984.155	86.24649
984.326	88.35483
984.496	94.67998
984.667	33.54542
984.837	52.51615
985.008	48.30027
985.178	67.27246
985.349	39.86879
985.519	52.51615
985.69	73.59693
985.86	101.00532
986.031	39.86879
986.201	101.00532
986.371	52.51615
986.542	16.68414
986.712	73.59693
986.882	63.05626
987.053	33.54542
987.223	31.43768
987.393	23.00695
987.563	107.33087
987.734	105.22233
987.904	-23.35526
988.074	44.08449
988.244	69.38059
988.414	-4.39031
988.585	16.68414
988.755	98.89685
988.925	46.19237
989.095	-27.56942
989.265	65.16435
989.435	90.46319
989.605	4.03918
989.775	65.16435
989.945	84.13817
990.115	63.05626
990.285	27.22227
990.455	-12.81942
990.625	65.16435
990.795	77.81336
990.965	25.11459
991.134	10.36155
991.304	-6.49763
991.474	-14.92664
991.644	122.09124
991.814	75.70514
991.984	117.87389
992.153	39.86879
992.323	52.51615
992.493	18.79172
992.662	73.59693
992.832	84.13817
993.002	20.89932
993.171	46.19237
993.341	33.54542
993.511	60.94819
993.68	50.4082
993.85	-61.27913
994.019	73.59693
994.189	67.27246
994.358	39.86879
994.528	65.16435
994.697	52.51615
994.867	10.36155
995.036	35.65319
995.206	79.92161
995.375	-8.60492
995.544	44.08449
995.714	29.32996
995.883	33.54542
996.052	41.97663
996.222	41.97663
996.391	25.11459
996.56	75.70514
996.73	48.30027
996.899	58.84015
997.068	136.85268
997.237	65.16435
997.406	44.08449
997.576	69.38059
997.745	50.4082
997.914	84.13817
998.083	44.08449
998.252	-2.28298
998.421	44.08449
998.59	69.38059
998.759	115.76524
998.928	67.27246
999.097	65.16435
999.266	58.84015
999.435	84.13817
999.604	35.65319
999.773	20.89932
999.942	18.79172
1000.111	60.94819
1000.28	10.36155
1000.448	-4.39031
1000.617	82.02988
1000.786	52.51615
1000.955	16.68414
1001.124	48.30027
1001.292	109.43943
1001.461	113.65661
1001.63	67.27246
1001.798	-19.141
1001.967	-2.28298
1002.136	25.11459
1002.304	6.14661
1002.473	25.11459
1002.642	65.16435
1002.81	25.11459
1002.979	41.97663
1003.147	35.65319
1003.316	41.97663
1003.484	39.86879
1003.653	6.14661
1003.821	63.05626
1003.99	-2.28298
1004.158	-14.92664
1004.327	23.00695
1004.495	88.35483
1004.663	-0.17561
1004.832	-69.70555
1005	35.65319
1005.168	60.94819
1005.337	-31.78348
1005.505	31.43768
1005.673	50.4082
1005.842	84.13817
1006.01	-2.28298
1006.178	-19.141
1006.346	-23.35526
1006.514	84.13817
1006.683	14.57659
1006.851	84.13817
1007.019	-65.49239
1007.187	18.79172
1007.355	16.68414
1007.523	6.14661
1007.691	31.43768
1007.859	52.51615
1008.027	-14.92664
1008.195	52.51615
1008.363	27.22227
1008.531	23.00695
1008.699	27.22227
1008.867	27.22227
1009.035	84.13817
1009.203	6.14661
1009.37	-40.21131
1009.538	60.94819
1009.706	90.46319
1009.874	48.30027
1010.042	107.33087
1010.209	69.38059
1010.377	16.68414
1010.545	-23.35526
1010.713	14.57659
1010.88	29.32996
1011.048	77.81336
1011.216	31.43768
1011.383	-14.92664
1011.551	-69.70555
1011.718	50.4082
1011.886	41.97663
1012.054	39.86879
1012.221	1.93177
1012.389	48.30027
1012.556	-23.35526
1012.724	50.4082
1012.891	50.4082
1013.058	33.54542
1013.226	-17.03383
1013.393	6.14661
1013.561	14.57659
1013.728	65.16435
1013.895	52.51615
1014.063	82.02988
1014.23	31.43768
1014.397	82.02988
1014.565	73.59693
1014.732	23.00695
1014.899	48.30027
1015.066	56.73213
1015.233	37.76098
1015.401	31.43768
1015.568	-42.31821
1015.735	4.03918
1015.902	50.4082
1016.069	69.38059
1016.236	14.57659
1016.403	60.94819
1016.57	-6.49763
1016.737	20.89932
1016.904	14.57659
1017.071	84.13817
1017.238	-40.21131
1017.405	6.14661
1017.572	63.05626
1017.739	56.73213
1017.906	65.16435
1018.073	29.32996
1018.24	-8.60492
1018.407	-2.28298
1018.573	48.30027
1018.74	-10.71218
1018.907	-8.60492
1019.074	54.62413
1019.241	65.16435
1019.407	14.57659
1019.574	67.27246
1019.741	-33.89048
1019.907	46.19237
1020.074	4.03918
1020.241	-0.17561
1020.407	31.43768
1020.574	94.67998
1020.74	10.36155
1020.907	31.43768
1021.073	101.00532
1021.24	-27.56942
1021.406	67.27246
1021.573	41.97663
1021.739	-17.03383
1021.906	39.86879
1022.072	-44.42508
1022.239	10.36155
1022.405	-19.141
1022.571	50.4082
1022.738	52.51615
1022.904	41.97663
1023.07	1.93177
1023.237	1.93177
1023.403	31.43768
1023.569	-21.24814
1023.735	71.48875
1023.902	-10.71218
1024.068	18.79172
1024.234	8.25407
1024.4	-38.10439
1024.566	52.51615
1024.732	-10.71218
1024.898	31.43768
1025.065	23.00695
1025.231	23.00695
1025.397	60.94819
1025.563	35.65319
1025.729	56.73213
1025.895	-10.71218
1026.061	-44.42508
1026.227	-10.71218
1026.392	-35.99745
1026.558	-35.99745
1026.724	4.03918
1026.89	73.59693
1027.056	82.02988
1027.222	-19.141
1027.388	23.00695
1027.553	-8.60492
1027.719	54.62413
1027.885	23.00695
1028.051	18.79172
1028.216	-8.60492
1028.382	23.00695
1028.548	98.89685
1028.713	-52.8523
1028.879	52.51615
1029.045	31.43768
1029.21	-35.99745
1029.376	58.84015
1029.541	31.43768
1029.707	69.38059
1029.873	-35.99745
1030.038	98.89685
1030.204	90.46319
1030.369	25.11459
1030.534	-17.03383
1030.7	29.32996
1030.865	20.89932
1031.031	-21.24814
1031.196	92.57157
1031.361	8.25407
1031.527	44.08449
1031.692	-27.56942
1031.857	6.14661
1032.023	31.43768
1032.188	23.00695
1032.353	-19.141
1032.518	10.36155
1032.684	58.84015
1032.849	35.65319
1033.014	58.84015
1033.179	-103.40711
1033.344	-10.71218
1033.509	8.25407
1033.674	48.30027
1033.839	31.43768
1034.004	48.30027
1034.17	-61.27913
1034.335	6.14661
1034.5	29.32996
1034.664	-0.17561
1034.829	31.43768
1034.994	39.86879
1035.159	77.81336
1035.324	-12.81942
1035.489	-57.06577
1035.654	8.25407
1035.819	-31.78348
1035.984	14.57659
1036.148	56.73213
1036.313	-17.03383
1036.478	-19.141
1036.643	65.16435
1036.807	35.65319
1036.972	6.14661
1037.137	29.32996
1037.301	1.93177
1037.466	-25.46235
1037.631	-17.03383
1037.795	1.93177
1037.96	27.22227
1038.124	35.65319
1038.289	-2.28298
1038.454	-2.28298
1038.618	46.19237
1038.783	41.97663
1038.947	31.43768
1039.111	8.25407
1039.276	44.08449
1039.44	-59.17246
1039.605	-27.56942
1039.769	35.65319
1039.933	-0.17561
1040.098	-44.42508
1040.262	109.43943
1040.426	18.79172
1040.591	23.00695
1040.755	-29.67646
1040.919	18.79172
1041.083	-21.24814
1041.248	31.43768
1041.412	33.54542
1041.576	-8.60492
1041.74	-6.49763
1041.904	48.30027
1042.068	41.97663
1042.232	48.30027
1042.397	23.00695
1042.561	39.86879
1042.725	-61.27913
1042.889	-27.56942
1043.053	-2.28298
1043.217	1.93177
1043.381	-10.71218
1043.544	-38.10439
1043.708	-52.8523
1043.872	65.16435
1044.036	-2.28298
1044.2	73.59693
1044.364	-52.8523
1044.528	35.65319
1044.691	-14.92664
1044.855	-38.10439
1045.019	73.59693
1045.183	-8.60492
1045.346	31.43768
1045.51	-44.42508
1045.674	-19.141
1045.837	1.93177
1046.001	-12.81942
1046.165	14.57659
1046.328	6.14661
1046.492	6.14661
1046.655	107.33087
1046.819	10.36155
1046.983	-10.71218
1047.146	1.93177
1047.31	-19.141
1047.473	98.89685
1047.636	14.57659
1047.8	31.43768
1047.963	44.08449
1048.127	16.68414
1048.29	23.00695
