Data from mixed_try1_USB4F045381__0__00104.txt Node

Date: Thu Apr 03 19:58:34 EDT 2025
User: mmckonesweet
Spectrometer: USB4F04538
Trigger mode: 4
Integration Time (sec): 2.700000E-3
Scans to average: 1
Electric dark correction enabled: true
Nonlinearity correction enabled: true
Boxcar width: 0
XAxis mode: Wavelengths
Number of Pixels in Spectrum: 3648
>>>>>Begin Spectral Data<<<<<
345.52	-62.68356
345.736	-62.68356
345.952	-62.68356
346.168	13.17157
346.384	-22.65289
346.6	11.06405
346.816	70.08331
347.032	2.63424
347.248	19.49425
347.464	-39.50901
347.68	27.92483
347.896	11.06405
348.112	-47.93647
348.328	-1.58052
348.544	21.60186
348.76	-52.15005
348.975	-22.65289
349.191	-24.75999
349.407	23.70949
349.623	6.8491
349.839	2.63424
350.055	19.49425
350.27	-12.11701
350.486	36.35578
350.702	4.74166
350.918	-5.79519
351.133	-33.18815
351.349	-28.97412
351.565	27.92483
351.781	36.35578
351.996	-3.68787
352.212	-24.75999
352.428	-1.58052
352.644	76.40788
352.859	-39.50901
353.075	32.14026
353.291	-69.00336
353.506	2.63424
353.722	4.74166
353.938	-26.86706
354.153	19.49425
354.369	11.06405
354.584	19.49425
354.8	-31.08114
355.016	-37.40208
355.231	-12.11701
355.447	19.49425
355.662	-5.79519
355.878	-26.86706
356.093	11.06405
356.309	-18.43861
356.524	49.00291
356.74	74.29967
356.955	-12.11701
357.171	84.84094
357.386	4.74166
357.602	76.40788
357.817	-1.58052
358.033	-1.58052
358.248	19.49425
358.464	-39.50901
358.679	-5.79519
358.895	13.17157
359.11	-31.08114
359.325	70.08331
359.541	-35.29512
359.756	-3.68787
359.972	19.49425
360.187	89.05761
360.402	-47.93647
360.618	13.17157
360.833	19.49425
361.048	-43.72279
361.264	-3.68787
361.479	86.94927
361.694	25.81715
361.909	6.8491
362.125	2.63424
362.34	70.08331
362.555	-5.79519
362.77	-28.97412
362.986	13.17157
363.201	40.5714
363.416	-22.65289
363.631	19.49425
363.847	-14.22423
364.062	-7.90249
364.277	74.29967
364.492	46.895
364.707	19.49425
364.922	-64.79019
365.138	2.63424
365.353	19.49425
365.568	-10.00976
365.783	-1.58052
365.998	65.86705
366.213	63.75895
366.428	6.8491
366.643	63.75895
366.858	-22.65289
367.073	-12.11701
367.288	2.63424
367.503	70.08331
367.718	55.32679
367.933	27.92483
368.148	2.63424
368.363	57.4348
368.578	-28.97412
368.793	89.05761
369.008	-50.04327
369.223	-52.15005
369.438	36.35578
369.653	-14.22423
369.868	-100.5989
370.083	-45.82964
370.298	21.60186
370.513	-5.79519
370.728	30.03253
370.943	19.49425
371.157	-20.54576
371.372	23.70949
371.587	-22.65289
371.802	-37.40208
372.017	21.60186
372.232	-45.82964
372.446	38.46358
372.661	55.32679
372.876	-69.00336
373.091	-31.08114
373.306	2.63424
373.52	53.21881
373.735	49.00291
373.95	44.78711
374.165	15.2791
374.379	95.38278
374.594	11.06405
374.809	-41.61591
375.023	40.5714
375.238	8.95656
375.453	-47.93647
375.667	-14.22423
375.882	23.70949
376.097	51.11085
376.311	-18.43861
376.526	-28.97412
376.741	44.78711
376.955	15.2791
377.17	-14.22423
377.384	-1.58052
377.599	6.8491
377.813	-5.79519
378.028	-28.97412
378.242	61.65088
378.457	-64.79019
378.672	-20.54576
378.886	11.06405
379.101	-31.08114
379.315	23.70949
379.53	23.70949
379.744	15.2791
379.958	11.06405
380.173	49.00291
380.387	34.24801
380.602	-73.21644
380.816	44.78711
381.031	-28.97412
381.245	78.51611
381.459	-10.00976
381.674	2.63424
381.888	23.70949
382.103	-22.65289
382.317	46.895
382.531	61.65088
382.746	-14.22423
382.96	61.65088
383.174	-18.43861
383.388	17.38667
383.603	-1.58052
383.817	19.49425
384.031	44.78711
384.246	2.63424
384.46	27.92483
384.674	38.46358
384.888	-14.22423
385.103	36.35578
385.317	65.86705
385.531	32.14026
385.745	61.65088
385.959	-22.65289
386.174	-39.50901
386.388	13.17157
386.602	61.65088
386.816	44.78711
387.03	40.5714
387.244	55.32679
387.458	-77.42941
387.672	36.35578
387.887	80.62436
388.101	61.65088
388.315	21.60186
388.529	17.38667
388.743	30.03253
388.957	44.78711
389.171	15.2791
389.385	27.92483
389.599	-10.00976
389.813	70.08331
390.027	46.895
390.241	25.81715
390.455	-54.2568
390.669	8.95656
390.883	89.05761
391.097	-1.58052
391.311	15.2791
391.525	36.35578
391.738	97.49122
391.952	17.38667
392.166	4.74166
392.38	4.74166
392.594	-3.68787
392.808	13.17157
393.022	-54.2568
393.236	61.65088
393.449	-7.90249
393.663	61.65088
393.877	32.14026
394.091	-14.22423
394.305	78.51611
394.518	-35.29512
394.732	6.8491
394.946	8.95656
395.16	-31.08114
395.373	38.46358
395.587	59.54283
395.801	27.92483
396.015	40.5714
396.228	-54.2568
396.442	86.94927
396.656	27.92483
396.869	63.75895
397.083	11.06405
397.297	-64.79019
397.51	-18.43861
397.724	44.78711
397.938	82.73264
398.151	97.49122
398.365	30.03253
398.578	-5.79519
398.792	30.03253
399.005	78.51611
399.219	53.21881
399.433	19.49425
399.646	23.70949
399.86	36.35578
400.073	44.78711
400.287	-43.72279
400.5	46.895
400.714	11.06405
400.927	27.92483
401.141	4.74166
401.354	44.78711
401.567	-5.79519
401.781	21.60186
401.994	-14.22423
402.208	59.54283
402.421	27.92483
402.635	2.63424
402.848	32.14026
403.061	27.92483
403.275	38.46358
403.488	72.19148
403.701	27.92483
403.915	44.78711
404.128	51.11085
404.341	44.78711
404.555	-31.08114
404.768	38.46358
404.981	103.81665
405.195	-22.65289
405.408	-1.58052
405.621	42.67924
405.834	76.40788
406.048	19.49425
406.261	19.49425
406.474	19.49425
406.687	-20.54576
406.9	-26.86706
407.114	44.78711
407.327	27.92483
407.54	15.2791
407.753	19.49425
407.966	80.62436
408.179	25.81715
408.392	27.92483
408.605	-3.68787
408.819	65.86705
409.032	36.35578
409.245	11.06405
409.458	-12.11701
409.671	95.38278
409.884	30.03253
410.097	-22.65289
410.31	27.92483
410.523	63.75895
410.736	4.74166
410.949	53.21881
411.162	57.4348
411.375	59.54283
411.588	-37.40208
411.801	27.92483
412.014	95.38278
412.227	2.63424
412.44	-20.54576
412.653	23.70949
412.865	89.05761
413.078	82.73264
413.291	6.8491
413.504	72.19148
413.717	103.81665
413.93	53.21881
414.143	59.54283
414.356	55.32679
414.568	67.97517
414.781	36.35578
414.994	53.21881
415.207	105.92518
415.42	91.16598
415.632	103.81665
415.845	49.00291
416.058	32.14026
416.271	122.79415
416.483	27.92483
416.696	124.90287
416.909	49.00291
417.121	57.4348
417.334	11.06405
417.547	95.38278
417.759	42.67924
417.972	95.38278
418.185	40.5714
418.397	13.17157
418.61	67.97517
418.823	63.75895
419.035	4.74166
419.248	19.49425
419.46	105.92518
419.673	95.38278
419.885	40.5714
420.098	74.29967
420.311	40.5714
420.523	129.12037
420.736	57.4348
420.948	70.08331
421.161	55.32679
421.373	67.97517
421.586	76.40788
421.798	86.94927
422.01	57.4348
422.223	36.35578
422.435	99.59967
422.648	65.86705
422.86	82.73264
423.073	101.70815
423.285	99.59967
423.497	122.79415
423.71	21.60186
423.922	97.49122
424.134	86.94927
424.347	97.49122
424.559	124.90287
424.771	78.51611
424.984	49.00291
425.196	156.53622
425.408	53.21881
425.621	171.30008
425.833	40.5714
426.045	120.68545
426.257	122.79415
426.47	156.53622
426.682	131.22915
426.894	141.77339
427.106	103.81665
427.318	78.51611
427.531	124.90287
427.743	131.22915
427.955	131.22915
428.167	129.12037
428.379	154.42718
428.591	112.25088
428.804	103.81665
429.016	99.59967
429.228	105.92518
429.44	158.64528
429.652	179.73703
429.864	143.8823
430.076	188.1743
430.288	205.04983
430.5	192.39306
430.712	213.48807
430.924	154.42718
431.136	198.72135
431.348	228.25576
431.56	173.40929
431.772	141.77339
431.984	137.55563
432.196	183.95562
432.408	287.336
432.62	131.22915
432.832	179.73703
433.044	156.53622
433.256	196.6119
433.468	215.59768
433.679	255.68401
433.891	211.37848
434.103	202.94032
434.315	314.77108
434.527	194.50247
434.739	245.1343
434.95	249.35413
435.162	255.68401
435.374	196.6119
435.586	281.00526
435.798	238.8047
436.009	238.8047
436.221	188.1743
436.433	274.6747
436.645	316.8816
436.856	232.47528
437.068	217.70731
437.28	323.21326
437.491	281.00526
437.703	297.88759
437.915	333.76638
438.126	289.44628
438.338	283.11549
438.55	289.44628
438.761	342.2092
438.973	308.43963
439.184	253.57403
439.396	344.31995
439.608	348.54149
439.819	394.98302
440.031	283.11549
440.242	340.09847
440.454	247.24421
440.665	359.09566
440.877	443.54405
441.088	399.20538
441.3	337.98775
441.511	378.09425
441.723	304.21876
441.934	367.53931
442.146	483.66592
442.357	456.21352
442.569	409.76156
442.78	437.20952
442.991	378.09425
443.203	504.78487
443.414	392.87187
443.626	504.78487
443.837	420.31815
444.048	504.78487
444.26	432.98659
444.471	447.76714
444.682	470.99526
444.894	509.00883
445.105	496.33711
445.316	578.71235
445.528	394.98302
445.739	445.65559
445.95	437.20952
446.161	536.46599
446.373	536.46599
446.584	445.65559
446.795	492.11332
447.006	544.91483
447.217	542.8026
447.429	542.8026
447.64	519.56899
447.851	498.44903
448.062	580.82481
448.273	582.93728
448.484	639.97888
448.695	563.92551
448.907	487.88959
449.118	534.35382
449.329	604.06272
449.54	610.4006
449.751	570.26265
449.962	629.41493
450.173	525.90526
450.384	620.96399
450.595	692.80309
450.806	737.18088
451.017	616.7386
451.228	631.5277
451.439	747.74772
451.65	711.82155
451.861	688.57688
452.072	669.55954
452.283	770.99567
452.494	923.1918
452.705	732.95422
452.915	866.113
453.126	821.7226
453.337	893.59466
453.548	838.63277
453.759	959.13317
453.97	876.6827
454.181	1062.73964
454.391	861.88518
454.602	931.6484
454.813	1007.76292
455.024	1007.76292
455.235	978.16178
455.445	1033.1363
455.656	1037.36528
455.867	1092.34404
456.078	1069.08335
456.288	1003.53411
456.499	1149.44094
456.71	1088.11478
456.921	1007.76292
457.131	1157.90001
457.342	1193.85176
457.553	1174.81834
457.763	1079.65631
457.974	1458.22473
458.184	1134.63772
458.395	1367.27778
458.606	1174.81834
458.816	1519.56111
459.027	1413.80866
459.237	1418.03876
459.448	1481.4903
459.659	1498.41068
459.869	1485.72039
460.08	1576.66675
460.29	1728.94142
460.501	1669.72509
460.711	1673.9549
460.922	1633.77123
461.132	1862.16753
461.343	1566.0917
461.553	1618.9665
461.764	1781.8109
461.974	1714.13757
462.184	1659.1505
462.395	1718.36726
462.605	1957.31734
462.816	1811.41673
463.026	1982.68866
463.236	1923.48759
463.447	2086.27838
463.657	2077.8227
463.867	2217.32542
464.078	2232.11905
464.288	2251.13879
464.498	2430.73166
464.709	2293.40225
464.919	2206.75828
465.129	2458.1923
465.339	2462.41685
465.55	2369.46688
465.76	2270.1578
465.97	2530.00359
466.18	2557.45736
466.391	2979.54948
466.601	2513.10799
466.811	2774.90219
467.021	2730.57984
467.231	2903.61368
467.441	2806.55736
467.651	3118.71405
467.862	2992.20357
468.072	3264.1299
468.282	3150.33281
468.492	3059.6828
468.702	3392.61918
468.912	3542.08955
469.122	3358.9233
469.332	3584.17729
469.542	3483.15436
469.752	3723.01347
469.962	3582.07308
470.172	3760.86341
470.382	3840.74805
470.592	4057.1321
470.802	3783.99083
471.012	3968.92383
471.222	4166.29171
471.432	4208.26106
471.642	4080.22826
471.852	4499.71069
472.062	4407.49864
472.272	4409.59484
472.482	4610.72753
472.691	4732.14572
472.901	4541.61116
473.111	4583.50276
473.321	5001.92282
473.531	5054.16102
473.741	5026.99896
473.95	5306.78876
474.16	5070.87419
474.37	5277.57658
474.58	5306.78876
474.79	5527.81753
474.999	5456.95028
475.209	5461.11969
475.419	5444.44147
475.628	5915.0207
475.838	5788.12468
476.048	6102.08412
476.258	5852.62379
476.467	6342.90731
476.677	6390.61933
476.886	6614.49396
477.096	6519.17301
477.306	6666.27833
477.515	6444.53982
477.725	6691.12973
477.935	6780.15343
478.144	6877.4101
478.354	6747.03328
478.563	7098.63775
478.773	7030.43614
478.982	7255.61586
479.192	7451.65967
479.401	7329.92936
479.611	7595.98779
479.82	7464.03478
480.03	7618.65838
480.239	7793.75385
480.449	7888.44831
480.658	8139.38425
480.868	8079.76288
481.077	8053.03057
481.287	7917.25967
481.496	8264.73994
481.705	8357.16847
481.915	8679.33676
482.124	8751.09473
482.333	8455.71556
482.543	8853.5673
482.752	8892.49505
482.961	8947.80233
483.171	9308.01308
483.38	8935.51294
483.589	9132.06739
483.799	9326.41884
484.008	9588.04683
484.217	9557.40088
484.426	9684.04804
484.636	9610.51828
484.845	9706.51146
485.054	9865.74491
485.263	10094.23099
485.472	10057.52216
485.682	10114.62282
485.891	10077.91652
486.1	10132.97426
486.309	10373.47943
486.518	10566.97287
486.727	10585.29788
486.936	10919.04836
487.146	10874.29536
487.355	10687.08523
487.564	10742.03775
487.773	11173.22442
487.982	11008.53793
488.191	11390.66771
488.4	11329.71402
488.609	11553.16802
488.818	11384.57274
489.027	11833.34252
489.236	11670.94321
489.445	11839.43142
489.654	11865.81578
489.863	12263.44743
490.072	12271.55935
490.281	12113.35594
490.49	12125.52704
490.698	12310.08941
490.907	12334.42287
491.116	12490.53929
491.325	12482.43031
491.534	12780.36995
491.743	12393.22464
491.952	12950.56524
492.16	12812.79107
492.369	12806.71222
492.578	13120.72408
492.787	13181.48689
492.996	13104.51996
493.204	13335.4014
493.413	13307.05059
493.622	13543.95846
493.831	13414.37445
494.039	13689.72298
494.248	13406.27493
494.457	13829.39828
494.665	13807.13216
494.874	13867.85713
495.083	13922.50745
495.291	14088.47105
495.5	14207.87434
495.709	14406.19043
495.917	14159.3044
496.126	14268.58517
496.335	14511.4131
496.543	14628.77269
496.752	14379.88413
496.96	14903.94814
497.169	14699.59136
497.377	14871.57523
497.586	14572.11683
497.794	15142.69541
498.003	14849.31878
498.211	15134.60233
498.42	14954.53055
498.628	15345.02291
498.837	15320.7435
499.045	15349.06948
499.254	15201.37026
499.462	15691.01248
499.671	15905.49798
499.879	15832.65245
500.087	15656.61493
500.296	15990.48652
500.504	16097.73748
500.713	15826.58206
500.921	15921.6861
501.129	16211.06399
501.338	16022.86373
501.546	16350.70587
501.754	16251.53902
501.962	16207.01652
502.171	16336.5389
502.379	16498.45281
502.587	16215.11146
502.795	16591.5593
503.004	16488.33281
503.212	16802.07857
503.42	16783.85954
503.628	16848.63923
503.837	16897.22568
504.045	17040.9694
504.253	17152.32959
504.461	17213.07511
504.669	16834.46845
504.877	17024.77225
505.085	17057.16672
505.294	17227.24944
505.502	17172.57781
505.71	17500.64027
505.918	17075.38892
506.126	17340.64928
506.334	17421.65496
506.542	17816.63072
506.75	17778.14037
506.958	17834.86343
507.166	17579.6304
507.374	17984.78742
507.582	17901.71906
507.79	18106.36162
507.998	18057.73039
508.206	18191.4713
508.414	17958.44803
508.622	18175.25944
508.83	17940.21342
509.037	18388.05906
509.245	18234.02857
509.453	18481.29862
509.661	18456.97448
509.869	18459.00147
510.077	18390.08592
510.285	18611.03675
510.492	18345.49584
510.7	18625.22782
510.908	18963.84354
511.116	18716.46071
511.324	18761.06635
511.531	18704.29586
511.739	18992.23554
511.947	19075.38812
512.155	18827.97841
512.362	19032.79693
512.57	18722.54318
512.778	19207.22941
512.985	19193.03028
513.193	19209.25787
513.401	19503.42857
513.608	19391.83634
513.816	19144.3491
514.024	19523.71942
514.231	19468.93508
514.439	20002.70485
514.646	19655.62009
514.854	19619.09198
515.061	19470.96408
515.269	19736.79851
515.477	19550.09814
515.684	19901.20538
515.892	20047.36796
516.099	20295.0821
516.307	20112.3361
516.514	20100.15425
516.722	20025.03615
516.929	20014.8855
517.136	19992.55443
517.344	19840.31073
517.551	20226.04072
517.759	20041.27741
517.966	19982.40412
518.173	20297.1128
518.381	20423.02455
518.588	20437.2414
518.796	20670.83336
519.003	20918.7041
519.21	20402.71511
519.418	20711.46367
519.625	20544.88996
519.832	21363.80561
520.039	21203.22141
520.247	21186.96112
520.454	21483.75193
520.661	21414.62862
520.868	21398.36499
521.076	21335.34582
521.283	21404.46382
521.49	21473.58645
521.697	21315.01788
521.904	21373.97001
522.112	21337.37863
522.319	22083.68822
522.526	21683.0153
522.733	21634.21261
522.94	21380.0687
523.147	21343.47711
523.354	21680.98181
523.561	22095.89378
523.768	22195.57754
523.975	22205.74986
524.183	21774.5264
524.39	22289.16633
524.597	22529.27728
524.804	22118.27099
525.011	22093.85951
525.218	22097.92805
525.425	22521.1371
525.632	22120.3053
525.838	22441.77339
526.045	22508.92695
526.252	22685.98674
526.459	22777.57981
526.666	22643.24572
526.873	23058.50847
527.08	22738.90632
527.287	23017.7902
527.494	22462.12254
527.701	23382.26526
527.907	22987.25237
528.114	23030.00554
528.321	22885.46507
528.528	23498.34864
528.735	23431.14124
528.941	23587.96373
529.148	23074.79615
529.355	23649.06831
529.562	23526.86188
529.768	23805.91574
529.975	23724.43436
530.182	23378.19235
530.388	23490.2021
530.595	23791.65616
530.802	23418.92207
531.008	24241.91895
531.215	24264.33375
531.422	24323.42887
531.628	24270.44693
531.835	23807.95284
532.042	24241.91895
532.248	24779.96074
532.455	24751.42384
532.661	24741.23221
532.868	24527.22206
533.074	24969.53911
533.281	24486.46136
533.487	24480.34734
533.694	24256.18287
533.9	25365.06676
534.107	24676.00718
534.313	25173.40901
534.52	25169.33139
534.726	25063.31647
534.933	25148.94344
535.139	25269.23551
535.345	25165.25378
535.552	25489.45038
535.758	25318.17003
535.965	25377.30087
536.171	25756.59462
536.377	25640.35214
536.584	25732.122
536.79	25707.64965
536.996	25756.59462
537.203	25358.94973
537.409	25426.23807
537.615	25766.79163
537.821	25754.55523
538.028	26111.47768
538.234	26015.61306
538.44	25938.10837
538.646	25642.39142
538.853	25944.22707
539.059	25982.97919
539.265	26050.28704
539.471	26531.6945
539.677	26497.0138
539.883	26237.94327
540.09	26327.697
540.296	26862.20338
540.502	26670.42181
540.708	26348.09602
540.914	27051.95726
541.12	26756.10983
541.326	27413.13424
541.532	27204.9933
541.738	26962.17971
541.944	26786.71333
542.15	27270.29096
542.356	26837.7199
542.562	27490.68035
542.768	26949.93753
542.974	27213.15543
543.18	27519.25043
543.386	27843.74154
543.592	27707.00261
543.798	27949.87089
544.004	27807.00519
544.21	27929.46116
544.415	27792.71893
544.621	27907.01059
544.827	27323.3463
545.033	27778.43274
545.239	27937.62504
545.445	28600.99935
545.651	28015.18279
545.856	28637.7434
546.062	28043.75711
546.268	28388.70711
546.474	27915.17441
546.679	27676.39014
546.885	27766.18747
547.091	27884.56015
547.297	28170.30317
547.502	28288.68881
547.708	28102.94748
547.914	28137.64572
548.119	28894.96124
548.325	28543.84262
548.531	28260.11263
548.736	28188.67312
548.942	28396.87198
549.147	28476.48039
549.353	28539.76003
549.559	28839.84174
549.764	29156.2788
549.97	28609.16467
550.175	29086.86467
550.381	29621.79307
550.586	28774.51591
550.792	29732.05454
550.997	29166.48686
551.203	28870.46359
551.408	29015.41019
551.614	29221.61085
551.819	29505.40936
552.025	29830.06741
552.23	29762.68329
552.435	29331.8611
552.641	29930.12483
552.846	29917.87276
553.052	30122.07931
553.257	29881.11678
553.462	30056.73197
553.668	29825.98349
553.873	29983.21762
554.078	30120.03719
554.283	30089.40549
554.489	30499.89242
554.694	30160.87985
554.899	30111.86871
555.105	30689.83617
555.31	30326.29747
555.515	30032.22702
555.72	30493.76539
555.925	30236.44002
556.131	30334.46645
556.336	30503.97712
556.541	30730.68577
556.746	31071.80132
556.951	31141.25488
557.156	30550.95148
557.361	30642.8598
557.567	30581.58729
557.772	30892.04694
557.977	31286.2959
558.182	30975.79476
558.387	31055.45955
558.592	31057.50226
558.797	31122.86995
559.002	30949.24032
559.207	31173.93951
559.412	31077.9295
559.617	30973.7521
559.822	31539.62608
560.027	31175.98231
560.232	30783.79104
560.437	30814.42911
560.642	31137.16933
560.847	31286.2959
561.051	31096.31414
561.256	31039.11787
561.461	31842.02208
561.666	31406.82892
561.871	31895.1498
562.076	31725.55415
562.281	31786.85233
562.485	31094.2714
562.69	31525.32451
562.895	31423.17281
563.1	31899.2366
563.305	31361.88375
563.509	32058.62777
563.714	31294.46745
563.919	31723.51091
564.123	31893.1064
564.328	31905.36681
564.533	31772.54927
564.737	31135.12656
564.942	31889.01961
565.147	32281.38708
565.351	32107.6736
565.556	31788.89563
565.761	32244.59944
565.965	31676.51677
566.17	32087.2377
566.374	32436.72036
566.579	32540.96436
566.784	32312.04397
566.988	32401.97366
567.193	32132.19696
567.397	32375.40308
567.602	32622.72856
567.806	32201.68139
568.011	32565.49323
568.215	33002.98341
568.42	32577.75779
568.624	32694.27534
568.828	32855.77764
569.033	32708.58505
569.237	32992.76035
569.442	32927.33432
569.646	32254.81816
569.85	33101.12822
570.055	33144.06855
570.259	33219.7283
570.463	33328.11258
570.668	32900.75575
570.872	33242.22249
571.076	33731.04918
571.281	33467.18374
571.485	33266.76199
571.689	33121.57584
571.893	32872.13317
572.098	33166.56159
572.302	33436.50509
572.506	33612.40547
572.71	32827.15584
572.914	33291.30191
573.119	33387.42065
573.323	33477.41011
573.527	33921.3115
573.731	33567.4055
573.935	34031.80007
574.139	33753.55181
574.343	33853.79571
574.547	33802.64986
574.751	34578.26417
574.955	34076.8169
575.159	33710.59259
575.364	33949.9557
575.568	33827.1996
575.772	33767.87188
575.976	33489.68186
576.18	33632.86051
576.383	34148.43822
576.587	34101.37228
576.791	34109.55752
576.995	33890.62204
577.199	33966.32412
577.403	33960.18594
577.607	34602.83098
577.811	34586.45304
578.015	34074.77064
578.219	33653.31587
578.422	33972.46234
578.626	34404.26616
578.83	34357.1893
579.034	34561.88664
579.238	34101.37228
579.442	34893.58462
579.645	34572.12257
579.849	34783.00605
580.053	34840.34148
580.257	34869.01049
580.46	34952.97476
580.664	35600.38175
580.868	34881.29747
581.071	35090.20115
581.275	34873.10613
581.479	35793.06307
581.682	35385.20761
581.886	35165.99187
582.09	35231.54586
582.293	35485.61515
582.497	35184.42843
582.7	35499.96009
582.904	36030.90721
583.107	35065.62176
583.311	35243.83778
583.515	35362.66881
583.718	34875.15396
583.922	35237.6918
584.125	35297.10481
584.329	35229.49722
584.532	35458.97523
584.735	36603.28952
584.939	35786.91292
585.142	36258.57226
585.346	35702.86589
585.549	35463.07362
585.753	35799.21326
585.956	36564.29469
586.159	36125.24605
586.363	36168.31791
586.566	35914.02603
586.769	35946.83291
586.973	35694.66666
587.176	36305.75532
587.379	36147.80717
587.582	36219.59736
587.786	36357.04493
587.989	36178.5735
588.192	35952.98436
588.395	36683.3389
588.599	36878.37319
588.802	36675.12825
589.005	36523.25
589.208	37094.00916
589.411	36662.81247
589.615	36590.97511
589.818	36728.49937
590.021	36354.99327
590.224	36379.61358
590.427	36482.20787
590.63	36989.2621
590.833	36939.97566
591.036	36911.22707
591.239	37790.75454
591.442	36966.67198
591.645	37533.74123
591.848	37268.62878
592.051	37235.75521
592.254	37389.86632
592.457	37465.90987
592.66	37539.90813
592.863	37533.74123
593.066	37603.63681
593.269	37663.26068
593.472	37819.5477
593.675	38167.24815
593.878	37465.90987
594.081	37476.18682
594.284	37581.02256
594.486	37901.82253
594.689	38373.10089
594.892	37650.92417
595.095	37644.75602
595.298	37558.40924
595.5	37794.86775
595.703	37905.93661
595.906	38041.71963
596.109	38089.0464
596.311	37947.07921
596.514	37805.15092
596.717	37749.62417
596.92	38296.92537
597.122	38068.46901
597.325	37646.81206
597.528	37661.20458
597.73	38163.13197
597.933	38399.86808
598.136	38688.2249
598.338	38336.04105
598.541	38752.0992
598.743	38830.40876
598.946	38914.91566
599.148	38904.6091
599.351	38228.99499
599.554	38844.83566
599.756	38710.88897
599.959	38525.4878
600.161	38012.91418
600.363	38496.65414
600.566	38947.89823
600.768	39158.21917
600.971	38931.40665
601.173	38651.14061
601.376	39026.24151
601.578	38721.19118
601.78	39119.0342
601.983	39170.5941
602.185	38999.43832
602.388	39314.99411
602.59	39232.47396
602.792	39125.22107
602.995	38898.42528
603.197	38916.977
603.399	38947.89823
603.601	38700.58698
603.804	39061.29425
604.006	39112.84742
604.208	39061.29425
604.41	38745.91743
604.613	38766.52365
604.815	39104.59851
605.017	39523.42799
605.219	39050.98433
605.421	38541.96496
605.623	39432.6126
605.826	39290.23642
606.028	38886.05789
606.23	39447.0592
606.432	39360.38691
606.634	39855.89789
606.836	39263.41718
607.038	39471.82595
607.24	39288.17334
607.442	39789.79561
607.644	39645.23388
607.846	39746.42177
608.048	40027.40088
608.25	39703.05251
608.452	40343.7385
608.654	39686.53208
608.856	39261.35423
609.058	39562.64976
609.26	39378.95806
609.462	39700.98742
609.664	39814.58271
609.866	39515.17124
610.067	39467.69806
610.269	39981.93515
610.471	39548.19921
610.673	40149.35726
610.875	40025.33415
611.077	40015.00063
611.278	39816.64837
611.48	39698.92234
611.682	40006.734
611.884	40563.0512
612.085	39746.42177
612.287	39851.76619
612.489	39940.60713
612.69	40151.42464
612.892	39806.32018
613.094	39713.37811
613.295	39053.0463
613.497	39616.32758
613.699	39674.14219
613.9	39946.80607
614.102	40008.80064
614.304	39723.70397
614.505	39317.05732
614.707	39265.48014
614.908	39368.64065
615.11	39942.67343
615.311	39731.96485
615.513	39034.48896
615.714	39203.5956
615.916	39490.40196
616.117	39502.78642
616.319	40070.8048
616.52	38873.69083
616.722	39172.65662
616.923	39649.36352
617.124	39988.13472
617.326	39754.6831
617.527	39845.5687
617.729	39564.71416
617.93	39942.67343
618.131	40041.86833
618.333	40325.12335
618.534	40161.7617
618.735	40097.67626
618.937	39422.2939
619.138	39905.48164
619.339	39903.41553
619.54	40196.90973
619.742	40480.27699
619.943	40066.67089
620.144	40178.30156
620.345	40163.82914
620.546	39740.22589
620.748	40068.73784
620.949	39263.41718
621.15	40174.16653
621.351	39754.6831
621.552	39672.07724
621.753	40306.50909
621.954	39938.54084
622.155	39575.03634
622.356	39911.68004
622.558	40081.13976
622.759	39847.63452
622.96	40668.61442
623.161	40430.62104
623.362	40389.24597
623.563	40772.13644
623.764	40170.03154
623.965	40623.07374
624.166	40873.6158
624.366	40112.14626
624.567	39581.22977
624.768	39963.33702
624.969	39558.52098
625.17	39907.54776
625.371	39760.87921
625.572	39630.78048
625.773	40006.734
625.973	40633.42341
626.174	40294.10007
626.375	40420.27686
626.576	40091.475
626.777	40046.00198
626.977	40062.53703
627.178	40705.87906
627.379	40602.37524
627.58	40492.69198
627.78	40573.39923
627.981	40544.42544
628.182	40558.91206
628.382	40954.40491
628.583	40724.51277
628.784	39994.33439
628.984	39496.59415
629.185	40143.15518
629.386	39971.60275
629.586	40753.50037
629.787	40523.73121
629.987	40666.54427
630.188	39990.20127
630.388	40203.11265
630.589	39888.95305
630.79	40703.80871
630.99	40180.36909
631.191	40401.65803
631.391	40459.58623
631.591	40474.06964
631.792	40842.54775
631.992	40999.98606
632.193	41072.51317
632.393	40660.33389
632.594	41087.02032
632.794	40399.58932
632.994	40472.00055
633.195	40598.23567
633.395	40424.4145
633.595	40236.19654
633.796	41028.99518
633.996	40925.40166
634.196	41145.05469
634.397	41481.00818
634.597	40935.7597
634.797	41111.89106
634.997	40960.62019
635.198	41076.65801
635.398	40503.03811
635.598	41089.09282
635.798	40861.18827
635.998	41076.65801
636.199	41271.51884
636.399	41165.78349
636.599	41145.05469
636.799	41128.4725
636.999	40621.00384
637.199	41362.76644
637.399	41080.8029
637.599	40838.40554
637.799	40678.96534
637.999	41120.18168
638.199	40770.06572
638.399	40625.14365
638.599	40573.39923
638.799	40828.05022
638.999	40929.54484
639.199	41186.51348
639.399	40950.26145
639.599	40819.76617
639.799	40498.89962
639.999	40970.97922
640.199	40637.56336
640.399	41246.63715
640.599	39868.29326
640.799	41481.00818
640.998	41058.0066
641.198	41271.51884
641.398	40964.76377
641.598	41408.39895
641.798	40935.7597
641.997	40753.50037
642.197	40391.31462
642.397	41076.65801
642.597	40960.62019
642.796	40705.87906
642.996	40830.12126
643.196	41335.80451
643.395	41277.73953
643.595	41790.28321
643.795	41827.66381
643.994	41454.03731
644.194	41447.81355
644.394	41422.91961
644.593	40999.98606
644.793	41688.54524
644.992	41151.2732
645.192	41028.99518
645.392	41138.83628
645.591	40832.19231
645.791	41074.58559
645.99	41089.09282
646.19	41259.07778
646.389	41914.90087
646.589	41337.87843
646.788	41553.63226
646.987	42014.62737
647.187	42033.3293
647.386	41603.44026
647.586	42382.62054
647.785	41931.51995
647.984	41657.40688
648.184	41684.3933
648.383	41549.48191
648.582	41844.2787
648.782	42191.29755
648.981	41590.9876
649.18	41806.89632
649.38	41991.77082
649.579	41852.58644
649.778	41659.48268
649.977	42162.19264
650.177	41991.77082
650.376	41570.23415
650.575	41379.35941
650.774	41970.99347
650.973	41383.50777
651.173	41410.4733
651.372	41286.03395
651.571	41815.20316
651.77	41429.14294
651.969	41902.43709
652.168	41624.19567
652.367	41736.29611
652.566	41066.296
652.765	40985.48235
652.964	40987.55427
653.163	41435.36637
653.362	41711.3818
653.561	41578.53538
653.76	42031.25126
653.959	41661.5585
654.158	41711.3818
654.357	41674.01366
654.556	41732.1436
654.755	42068.65797
654.954	41539.10625
655.153	41310.91837
655.352	41935.67484
655.551	41844.2787
655.749	41856.74039
655.948	41844.2787
656.147	41817.27991
656.346	41505.90619
656.545	42164.27148
656.743	42268.22967
656.942	41825.587
657.141	42291.10474
657.34	42326.46018
657.538	42151.79863
657.737	41877.51087
657.936	42769.75905
658.135	42251.59422
658.333	42424.22685
658.532	41879.58798
658.731	42767.67646
658.929	42415.90517
659.128	41921.13293
659.326	41750.83027
659.525	42064.50146
659.724	42037.48543
659.922	42185.06057
660.121	41420.8452
660.319	41379.35941
660.518	41584.76144
660.716	42099.83335
660.915	42594.86668
661.113	42686.46548
661.312	41626.27128
661.51	42079.04944
661.709	41659.48268
661.907	41427.06848
662.105	41008.27414
662.304	41773.67091
662.502	41584.76144
662.701	42108.14726
662.899	41811.04972
663.097	41921.13293
663.296	42311.90161
663.494	41661.5585
663.692	41647.02804
663.891	41686.46926
664.089	41416.6964
664.287	41767.44149
664.485	41796.51303
664.684	42522.02196
664.882	42128.93293
665.08	41887.89657
665.278	41769.51795
665.476	42110.22577
665.675	42453.35432
665.873	42182.98161
666.071	41512.13096
666.269	41570.23415
666.467	42014.62737
666.665	42599.02971
666.863	42062.42323
667.061	42135.16888
667.259	42166.35033
667.457	42268.22967
667.655	41433.29188
667.853	40662.404
668.051	41012.41826
668.249	41178.22134
668.447	41047.64512
668.645	40977.19478
668.843	41657.40688
669.041	41555.70745
669.239	40844.61888
669.437	41273.59239
669.635	41686.46926
669.833	41174.07534
670.031	40865.33073
670.229	40937.83135
670.426	40784.561
670.624	41211.39103
670.822	40898.47211
671.02	41163.71056
671.218	41640.80088
671.415	41510.05603
671.613	41089.09282
671.811	41617.96892
672.009	41653.2553
672.206	41613.81781
672.404	41937.75231
672.602	42126.85431
672.799	41412.54765
672.997	41588.9122
673.195	42095.67646
673.392	41279.81312
673.59	41642.87659
673.788	40902.61499
673.985	40861.18827
674.183	41203.09832
674.38	41784.05351
674.578	41929.44252
674.775	41792.35981
674.973	41875.43376
675.17	41690.62123
675.368	40991.69815
675.565	41089.09282
675.763	40811.4823
675.96	40579.60819
676.158	41070.44077
676.355	40902.61499
676.553	41943.98478
676.75	41337.87843
676.947	40981.33854
677.145	40656.19369
677.342	40772.13644
677.539	41028.99518
677.737	41358.61832
677.934	41290.18124
678.131	41344.10027
678.329	40840.47664
678.526	41412.54765
678.723	41676.08956
678.92	41366.91461
679.118	41464.41048
679.315	40888.11511
679.512	40857.04585
679.709	41097.38292
679.906	40830.12126
680.104	40981.33854
680.301	40565.12078
680.498	40196.90973
680.695	40211.38337
680.892	40689.31654
681.089	40678.96534
681.286	40600.30545
681.483	39905.48164
681.68	40513.38452
681.877	40910.90089
682.075	40629.28351
682.272	40397.52063
682.469	41041.42837
682.665	40550.63392
682.862	40414.07048
683.059	40503.03811
683.256	39649.36352
683.453	39643.16908
683.65	39812.51706
683.847	39909.61389
684.044	39692.72716
684.241	39265.48014
684.438	39779.46809
684.635	39682.40207
684.831	40184.50419
685.028	39546.13488
685.225	39511.04293
685.422	39123.15877
685.619	39170.5941
685.815	39234.53677
686.012	39284.04722
686.209	38774.76639
686.405	39063.35626
686.602	38834.53068
686.799	38393.6909
686.996	39168.53159
687.192	39067.48031
687.389	39236.5996
687.586	39172.65662
687.782	39372.76759
687.979	39527.55643
688.175	39003.56179
688.372	39317.05732
688.568	39298.48883
688.765	38768.58432
688.962	39141.71981
689.158	38783.00928
689.355	39057.17026
689.551	38964.39042
689.748	39182.96937
689.944	39145.84459
690.14	38881.9355
690.337	38636.71974
690.533	39114.90967
690.73	38815.98231
690.926	39717.50842
691.123	38379.2778
691.319	38558.44269
691.515	38906.6704
691.712	38379.2778
691.908	38266.04677
692.104	38233.11171
692.301	38453.4069
692.497	38208.41186
692.693	38313.39475
692.889	38609.93929
693.086	39201.53294
693.282	39734.03009
693.478	39026.24151
693.674	38288.69088
693.87	38303.10132
694.067	38515.18987
694.263	38725.31213
694.459	38807.73883
694.655	38824.22594
694.851	38513.13031
695.047	38101.39324
695.243	37977.93831
695.439	38228.99499
695.635	38140.49356
695.831	37893.59446
696.027	37541.96378
696.224	38000.56948
696.42	38084.93086
696.615	38323.68839
696.811	38146.66757
697.007	38000.56948
697.203	37521.40764
697.399	37492.63033
697.595	37371.37079
697.791	37414.52797
697.987	37708.49697
698.183	37984.11035
698.379	37595.41334
698.575	37864.79726
698.77	37494.6858
698.966	37206.99237
699.162	37593.35749
699.358	37718.77847
699.554	37811.32092
699.749	37840.1152
699.945	37632.41993
700.141	37751.68061
700.337	37609.80449
700.532	38006.74179
700.728	37720.8348
700.924	37638.58794
701.119	37256.30097
701.315	36989.2621
701.511	36771.61009
701.706	37492.63033
701.902	37626.25199
702.097	37463.85451
702.293	37533.74123
702.489	37457.68845
702.684	37202.88351
702.88	37977.93831
703.075	37640.64396
703.271	37488.51941
703.466	37504.96328
703.662	37562.52069
703.857	37439.19069
704.053	37285.06626
704.248	37548.13077
704.443	38033.48934
704.639	37827.7746
704.834	37626.25199
705.03	37581.02256
705.225	36837.30829
705.42	36352.94162
705.616	36687.44427
705.811	36504.78073
706.006	37289.17571
706.202	36570.45161
706.397	36890.69319
706.592	36937.92214
706.787	36675.12825
706.983	36699.76052
707.178	37219.31913
707.373	36512.98923
707.568	36119.09314
707.763	36262.67501
707.959	36350.88998
708.154	36547.8765
708.349	36313.9614
708.544	36818.82997
708.739	36406.28659
708.934	36564.29469
709.129	36133.45001
709.324	36309.85835
709.519	36617.65663
709.714	36753.13371
709.909	37502.90777
710.104	36108.8384
710.299	36061.66852
710.494	36365.25163
710.689	36432.96065
710.884	36065.77012
711.079	36147.80717
711.274	36100.63472
711.469	37044.71415
711.664	36205.23874
711.859	35996.04596
712.054	35928.37886
712.249	35657.77122
712.443	35614.72873
712.638	35475.36892
712.833	35309.39768
713.028	35379.06061
713.223	35325.78844
713.417	36100.63472
713.612	36586.87036
713.807	36845.52105
714.002	36194.98276
714.196	35870.96919
714.391	35678.26848
714.586	35735.66364
714.78	36402.18298
714.975	36307.80683
715.17	36055.51615
715.364	36461.68776
715.559	35864.81842
715.754	35266.37343
715.948	35352.4241
716.143	35168.04036
716.337	35225.39996
716.532	35266.37343
716.726	35231.54586
716.921	35795.11313
717.115	35438.48356
717.31	35834.06529
717.504	36010.40039
717.699	35873.01946
717.893	35286.8609
718.088	35401.59985
718.282	35129.1199
718.476	34744.10182
718.671	34328.53484
718.865	34826.0073
719.059	34400.17243
719.254	34232.34323
719.448	34387.89136
719.642	34441.11037
719.837	34162.76302
720.031	33729.00351
720.225	33994.9694
720.419	34285.55456
720.614	34201.64554
720.808	34981.64723
721.002	34631.493
721.196	34529.13235
721.39	34371.51682
721.585	34561.88664
721.779	34375.61043
721.973	34301.9278
722.167	34095.23338
722.361	34111.60384
722.555	34480.00289
722.749	34422.6881
722.943	33994.9694
723.137	33546.95148
723.331	33735.14054
723.525	33739.23191
723.719	33718.77519
723.913	34113.65016
724.107	33559.22386
724.301	34281.46129
724.495	33548.99687
724.689	33577.63264
724.883	33704.45568
725.077	34342.86197
725.271	34477.95587
725.465	34037.93862
725.659	33964.27806
725.853	33483.54597
726.046	33878.34647
726.24	33506.04436
726.434	33448.77647
726.628	34066.58565
726.822	33473.31956
727.015	34267.13496
727.209	33330.15764
727.403	33690.13632
727.596	33790.37516
727.79	33798.55828
727.984	34060.44694
728.177	34027.70771
728.371	34430.87574
728.565	33596.04167
728.758	33964.27806
728.952	34197.55258
729.146	34001.10777
729.339	34175.04156
729.533	33819.0163
729.726	33749.46039
729.92	33700.36442
730.113	34078.86316
730.307	33669.68039
730.5	33683.99951
730.694	33718.77519
730.887	33356.74375
731.081	33747.41469
731.274	33604.22355
731.468	33195.18958
731.661	33254.49219
731.854	33099.08347
732.048	33285.16689
732.241	33289.2569
732.435	33548.99687
732.628	33313.79721
732.821	33025.47438
733.014	33152.24779
733.208	33346.51826
733.401	33340.38301
733.594	32898.71127
733.788	33109.30724
733.981	33270.85195
734.174	33520.36171
734.367	33393.55611
734.56	33430.36944
734.754	33628.76948
734.947	33675.81713
735.14	33229.95289
735.333	33436.50509
735.526	33148.15816
735.719	33252.44723
735.912	32884.39993
736.105	33094.99399
736.298	32890.53334
736.491	32823.06705
736.684	33215.63849
736.877	33207.45889
737.07	33101.12822
737.263	32816.93389
737.456	32968.22527
737.649	32788.31276
737.842	33172.69611
738.035	32704.49655
738.228	32030.01822
738.421	32485.77563
738.614	32714.71782
738.807	33583.76895
739	33084.77032
739.192	33180.87551
739.385	33189.05496
739.578	33608.3145
739.771	33450.82171
739.964	33229.95289
740.156	32833.28904
740.349	32937.55696
740.542	33448.77647
740.735	33011.16191
740.927	32958.00243
741.12	32534.8322
741.313	32990.71575
741.505	33338.33793
741.698	33039.78699
741.891	32465.33577
742.083	32604.33129
742.276	32908.93372
742.468	32545.05249
742.661	32359.05214
742.854	31901.28
743.046	31886.97622
743.239	32220.07473
743.431	32733.11625
743.624	31868.58578
743.816	32023.88766
744.009	32786.26842
744.201	32220.07473
744.393	32256.86191
744.586	31938.06157
744.778	31895.1498
744.971	31921.71413
745.163	31707.16501
745.355	32083.15054
745.548	32557.31691
745.74	32387.66638
745.932	31737.81366
746.125	31792.98223
746.317	31821.58868
746.509	31478.33421
746.702	31778.67914
746.894	31611.13518
747.086	31541.66917
747.278	31607.04889
747.471	31321.02518
747.663	31284.25301
747.855	31560.05704
748.047	31737.81366
748.239	31743.94343
748.431	31288.33878
748.623	31576.40192
748.815	31235.22423
749.008	31388.44216
749.2	31733.72715
749.392	31674.47357
749.584	31065.67314
749.776	31903.3234
749.968	31513.06608
750.16	31823.63202
750.352	31476.29117
750.544	31145.34044
750.736	30704.13347
750.928	31506.93689
751.12	31079.97224
751.311	31227.05286
751.503	31208.66735
751.695	30800.13131
751.887	30305.87512
752.079	30579.5449
752.271	30489.68071
752.463	30726.60078
752.654	30491.72305
752.846	31063.63042
753.038	30728.64328
753.23	30522.35831
753.421	30610.18098
753.613	30399.81895
753.805	30687.79371
753.997	30350.80446
754.188	30597.92651
754.38	30387.56526
754.572	30483.55369
754.763	30787.8761
754.955	30132.28994
755.146	29740.22219
755.338	29938.2929
755.53	29727.97073
755.721	29985.25966
755.913	30620.39308
756.104	30589.75689
756.296	30847.11006
756.487	30387.56526
756.679	30514.18888
756.87	29774.93486
757.062	29903.57872
757.253	29952.58707
757.445	29787.18647
757.636	29832.10937
757.827	29536.03632
758.019	30038.35324
758.21	29305.31909
758.401	29252.23561
758.593	28921.50053
758.784	28872.50506
758.975	28658.15691
759.167	29256.31893
759.358	29250.19395
759.549	29278.77726
759.74	29164.44525
759.932	29315.52754
760.123	28962.33055
760.314	28807.17869
760.505	28888.83682
760.696	28207.04315
760.888	28488.72799
761.079	28066.20852
761.27	28178.46758
761.461	28466.2741
761.652	29086.86467
761.843	28982.74571
762.034	29368.61186
762.225	28454.02657
762.416	28637.7434
762.607	28596.9167
762.798	28731.64641
762.989	28694.90149
763.18	28260.11263
763.371	27670.26768
763.562	27892.72393
763.753	28256.03034
763.944	28468.31535
764.135	27941.70698
764.326	28382.58346
764.517	27998.85471
764.708	28153.97441
764.899	27962.11678
765.089	27911.0925
765.28	27774.35097
765.471	27223.35813
765.662	27294.77793
765.853	27517.2097
766.043	27490.68035
766.234	27782.5145
766.425	27141.73748
766.615	27292.73734
766.806	27498.84321
766.997	27217.23651
767.187	27496.80249
767.378	27484.55823
767.569	27553.94299
767.759	27666.18604
767.95	27778.43274
768.141	27329.46813
768.331	27392.72768
768.522	27278.45326
768.712	27239.68251
768.903	27519.25043
769.093	27166.22345
769.284	27027.47221
769.474	26807.11585
769.665	26809.15611
769.855	27021.35098
770.046	26784.67309
770.236	26388.89455
770.426	26541.8948
770.617	26911.17095
770.807	27523.33189
770.998	27796.80072
771.188	27231.52031
771.378	26988.70462
771.569	26680.62262
771.759	26688.7833
771.949	26513.33407
772.139	26896.88866
772.33	26335.85658
772.52	26282.81973
772.71	26603.09737
772.9	26188.98807
773.09	25980.93958
773.281	26095.16002
773.471	26568.41574
773.661	26501.09386
773.851	26350.13593
774.041	25821.85629
774.231	25821.85629
774.421	25530.23356
774.611	25558.78226
774.802	25391.5741
774.992	25493.52866
775.182	25854.48784
775.372	26113.51739
775.562	25672.98097
775.752	25589.37059
775.942	25155.0598
776.131	25375.26185
776.321	25132.63324
776.511	25652.58789
776.701	25326.3259
776.891	25593.44907
777.081	25350.79372
777.271	25713.76771
777.461	25544.50786
777.651	25248.84649
777.84	25356.91072
778.03	25452.74622
778.22	25305.93628
778.41	25136.71077
778.599	24932.84494
778.789	24936.92203
778.979	24916.53666
779.169	24637.28101
779.358	24604.67019
779.548	24653.58665
779.738	24072.79967
779.927	24148.18786
780.117	24188.9398
780.307	24164.48851
780.496	24659.70131
780.686	24996.04092
780.875	24258.22059
781.065	23977.0418
781.254	24146.15029
781.444	23801.84156
781.633	23695.917
781.823	24154.30058
782.012	24223.5798
782.202	24072.79967
782.391	24276.56014
782.581	24241.91895
782.77	23954.63128
782.96	24064.64983
783.149	23630.73665
783.338	24025.93866
783.528	24068.72474
783.717	23820.17547
783.906	23928.14657
784.096	23506.49522
784.285	23302.84569
784.474	23064.61633
784.663	23333.39111
784.853	22818.2901
785.042	22867.14425
785.231	23123.66047
785.42	23313.02741
785.61	23170.49054
785.799	23323.20922
785.988	23400.59354
786.177	22598.47108
786.366	23174.5628
786.555	22877.32245
786.744	22628.99906
786.933	22468.22735
787.122	22569.97902
787.312	22574.04927
787.501	22669.70426
787.69	22714.48161
787.879	22804.04134
788.068	22197.612
788.257	22297.30486
788.445	22171.16436
788.634	22669.70426
788.823	22264.75111
789.012	22618.82298
789.201	22405.14583
789.39	22551.66306
789.579	22337.99836
789.768	22708.37551
789.957	22095.89378
790.145	22549.62797
790.334	22211.85329
790.523	22234.23283
790.712	22435.66871
790.9	22561.83856
791.089	22126.40826
791.278	21910.79079
791.467	22045.03819
791.655	22561.83856
791.844	22038.93568
792.033	22342.06779
792.221	21632.17921
792.41	21756.22355
792.599	21199.15631
792.787	21264.19979
792.976	21512.2158
793.164	21544.74689
793.353	21668.78095
793.541	21619.97892
793.73	21666.74748
793.918	21837.57195
794.107	21701.31689
794.295	21859.94385
794.484	21861.97768
794.672	21687.08229
794.861	21664.71402
795.049	21447.15666
795.238	21280.4613
795.426	22085.72247
795.614	21786.72848
795.803	22045.03819
795.991	21567.11261
796.179	21323.14901
796.368	21172.73359
796.556	20963.40864
796.744	20782.57073
796.932	21207.28652
797.121	20587.54641
797.309	21294.69034
797.497	21048.75921
797.685	21046.72697
797.874	20993.89016
798.062	20955.2804
798.25	20894.32064
798.438	21004.05087
798.626	20804.91971
798.814	21317.05065
799.002	21556.94631
799.19	20823.20561
799.378	21034.53361
799.566	20953.24834
799.755	20847.58734
799.943	21109.72832
800.131	20973.56905
800.318	21319.08343
800.506	21142.24668
800.694	21004.05087
800.882	20955.2804
801.07	20782.57073
801.258	20642.39312
801.446	20581.45252
801.634	20400.68419
801.822	20514.42219
802.01	20502.23535
802.197	20532.70274
802.385	20453.48949
802.573	20465.67573
802.761	20295.0821
802.949	20685.05378
803.136	20349.91254
803.324	20408.8079
803.512	20546.92118
803.699	20492.07976
803.887	20806.95146
804.075	20902.44839
804.262	20668.80188
804.45	20741.9375
804.638	20492.07976
804.825	20561.13982
805.013	20008.79516
805.201	20197.61333
805.388	20055.48874
805.576	20559.10857
805.763	20670.83336
805.951	20613.95371
806.138	20792.72929
806.326	20703.33748
806.513	20571.29612
806.701	20488.01756
806.888	20490.04866
807.075	20664.73895
807.263	20297.1128
807.45	20427.08648
807.638	19994.58451
807.825	20132.63953
808.012	19785.50879
808.2	20136.70027
808.387	20404.74603
808.574	20530.67155
808.761	20406.77696
808.949	20662.70749
809.136	20500.20422
809.323	20831.33279
809.51	20506.29761
809.698	20479.8932
809.885	20412.86977
810.072	20459.58259
810.259	20408.8079
810.446	20293.0514
810.633	20412.86977
810.82	20534.73393
811.008	20463.64468
811.195	20394.59145
811.382	19925.56429
811.569	20349.91254
811.756	20000.67476
811.943	20106.24515
812.13	20384.43697
812.317	20394.59145
812.504	20163.09546
812.691	20301.17422
812.878	20262.59143
813.064	20323.51231
813.251	20183.39994
813.438	20585.51511
813.625	20248.37711
813.812	20496.14199
813.999	21048.75921
814.186	20754.1273
814.372	20648.48739
814.559	21138.18182
814.746	20459.58259
814.933	20185.43041
815.12	20366.15918
815.306	20364.12833
815.493	20418.96262
815.68	20894.32064
815.866	20398.65327
816.053	20691.14831
816.24	20540.82754
816.426	20303.20493
816.613	19795.65707
816.799	20378.34434
816.986	20362.09749
817.173	20179.33901
817.359	19765.21255
817.546	20085.94227
817.732	20124.51811
817.919	20313.35857
818.105	19621.12129
818.292	19712.44428
818.478	19937.74398
818.665	19556.18564
818.851	19385.74985
819.037	19491.25426
819.224	19669.82583
819.41	19933.68407
819.597	19304.60024
819.783	19588.65293
819.969	19401.98057
820.156	19535.89412
820.342	19525.74852
820.528	19692.14955
820.714	19651.56134
820.901	19686.06121
821.087	19669.82583
821.273	19789.56809
821.459	19651.56134
821.646	19974.28394
821.832	19789.56809
822.018	19830.162
822.204	19337.05929
822.39	19550.09814
822.576	19209.25787
822.762	19201.14404
822.948	19168.6894
823.134	19280.25664
823.32	18898.95048
823.507	19229.54272
823.693	19148.40578
823.879	18874.61665
824.065	18734.70824
824.25	18789.45276
824.436	18785.39751
824.622	19320.82963
824.808	19389.80751
824.994	19296.48564
825.18	18801.6186
825.366	19264.0279
825.552	19241.71382
825.738	19166.66102
825.923	18811.75691
826.109	18815.81226
826.295	18744.8459
826.481	18921.25701
826.667	19097.69851
826.852	19217.37176
827.038	18740.79082
827.224	19261.99933
827.409	19117.98111
827.595	19241.71382
827.781	18929.36859
827.966	19207.22941
828.152	18619.14591
828.338	18448.86655
828.523	18345.49584
828.709	18345.49584
828.894	18096.22994
829.08	18381.97849
829.266	18128.65163
829.451	18375.89797
829.637	18167.15359
829.822	17891.58918
830.008	17859.17413
830.193	18061.78291
830.378	18150.94208
830.564	18400.22028
830.749	18333.33522
830.935	18035.44177
831.12	18015.17976
831.305	18098.25627
831.491	18154.99494
831.676	17804.47574
831.861	17976.68293
832.047	17814.60489
832.232	17415.57936
832.417	17146.25518
832.602	17320.39862
832.788	17561.40148
832.973	17674.83019
833.158	18144.86282
833.343	17703.18898
833.528	17768.01153
833.714	17535.07127
833.899	17875.38154
834.084	17869.30374
834.269	18096.22994
834.454	17632.29322
834.639	17547.22361
834.824	17494.56431
835.009	17557.35064
835.194	17806.50156
835.379	17964.5263
835.564	17437.85669
835.749	17863.22596
835.934	17650.52317
836.119	17956.42195
836.304	17697.11204
836.489	17535.07127
836.674	17431.78102
836.859	17524.94441
837.044	17271.79827
837.228	17194.85118
837.413	17198.90092
837.598	17294.07322
837.783	17085.51246
837.968	17373.05097
838.152	17085.51246
838.337	17207.00044
838.522	17032.8708
838.707	16876.98114
838.891	16498.45281
839.076	16468.09297
839.261	16478.21287
839.445	17075.38892
839.63	16830.41968
839.815	16737.30069
839.999	16281.89575
840.184	16698.83999
840.368	16271.77679
840.553	16170.58965
840.737	16117.97398
840.922	16474.1649
841.106	16069.40663
841.291	16411.4225
841.475	16536.90929
841.66	16387.13564
841.844	16510.59688
842.029	16512.6209
842.213	16793.9812
842.397	16287.96715
842.582	16014.76939
842.766	16105.83206
842.951	15988.46295
843.135	16014.76939
843.319	15547.35369
843.504	15691.01248
843.688	15909.545
843.872	16215.11146
844.056	16012.74581
844.241	16069.40663
844.425	15988.46295
844.609	15877.16898
844.793	16014.76939
844.977	15931.80371
845.161	15124.48597
845.346	15830.62898
845.53	15164.95139
845.714	15686.9657
845.898	15529.14369
846.082	15695.05927
846.266	15466.42075
846.45	15446.18766
846.634	15191.2539
846.818	15324.79007
847.002	15258.02189
847.186	15436.07114
847.37	15446.18766
847.554	15553.4237
847.738	15391.55856
847.922	15579.72716
848.106	15693.03587
848.29	15759.8084
848.473	15486.6539
848.657	15114.36961
848.841	14988.92644
849.025	14901.92483
849.209	14616.63222
849.392	14624.72587
849.576	14400.11977
849.76	14669.24065
849.944	14610.56198
850.127	15009.15927
850.311	14729.94186
850.495	15033.43863
850.678	15094.13689
850.862	15003.08943
851.046	14564.02307
851.229	14580.21058
851.413	14173.47075
851.596	14493.20175
851.78	14313.10538
851.964	14436.54352
852.147	14264.53783
852.331	14402.14332
852.514	14197.7557
852.698	14305.01086
852.881	14254.41946
853.065	14232.15888
853.248	14307.0345
853.431	14590.32774
853.615	14193.70823
853.798	14497.24873
853.982	14307.0345
854.165	14207.87434
854.348	14031.80239
854.532	14076.32792
854.715	14165.3757
854.898	13989.29967
855.081	13586.47494
855.265	14264.53783
855.448	13995.37156
855.631	14116.80471
855.814	13825.34992
855.997	13884.05002
856.181	13647.21013
856.364	13707.94233
856.547	13381.97599
856.73	13479.16837
856.913	12920.176
857.096	13377.92611
857.279	12946.51341
857.462	13076.16201
857.645	12936.38374
857.828	13450.82151
858.011	13527.76129
858.194	13641.13675
858.377	13203.76556
858.56	13349.5765
858.743	12916.12401
858.926	12833.05354
859.109	13017.41752
859.292	12924.22796
859.475	12867.49849
859.658	12859.39394
859.841	12879.65516
860.023	12952.59115
860.206	12816.8436
860.389	12938.40969
860.572	12968.79823
860.755	12879.65516
860.937	12539.19098
861.12	12634.45671
861.303	12593.91977
861.486	12245.1952
861.668	12125.52704
861.851	12206.6608
862.034	12192.46324
862.216	12060.61135
862.399	12107.27029
862.581	12316.17287
862.764	12281.69909
862.947	12449.99337
863.129	12235.05482
863.312	11971.33925
863.494	12143.78318
863.677	12362.81065
863.859	12054.5251
864.042	12099.15599
864.224	12082.927
864.406	11983.51362
864.589	11786.6584
864.771	11995.68771
864.954	11664.85214
865.136	11768.38947
865.318	11798.8373
865.501	11792.74789
865.683	11654.70017
865.865	11679.06451
866.048	11358.16019
866.23	11502.39325
866.412	11203.71421
866.594	11449.58118
866.777	11331.74595
866.959	11510.51761
867.141	11504.42435
867.323	11670.94321
867.505	11431.29857
867.687	10925.15062
867.869	11154.9294
868.052	11187.45328
868.234	10866.15785
868.416	11232.16924
868.598	11382.54107
868.78	11488.17525
868.962	11672.97355
869.144	11764.32961
869.326	11656.73058
869.508	11622.21238
869.69	11484.11288
869.872	11607.99823
870.054	11646.57844
870.236	11687.18567
870.417	11305.33002
870.599	11557.22975
870.781	11128.50175
870.963	11224.03944
871.145	11020.73938
871.327	11183.38794
871.508	10990.23501
871.69	11410.98363
871.872	11226.0719
872.054	11114.27072
872.235	11114.27072
872.417	10923.11655
872.599	10937.35482
872.78	11244.36363
872.962	11049.20789
873.144	10874.29536
873.325	10727.79164
873.507	11043.10767
873.689	10678.94337
873.87	10866.15785
874.052	10605.65781
874.233	10807.15538
874.415	10858.02016
874.596	11285.00891
874.778	10831.57139
874.959	11295.16959
875.141	10815.29424
875.322	10935.32082
875.503	10823.4329
875.685	11116.30376
875.866	10463.11186
876.048	10772.56315
876.229	10402.00158
876.41	10528.2834
876.592	10536.42893
876.773	10591.40599
876.954	10452.92762
877.136	10994.30241
877.317	11158.99503
877.498	11156.96222
877.679	10756.28327
877.86	11203.71421
878.042	10931.25277
878.223	11039.04081
878.404	10988.2013
878.585	10837.67512
878.766	10463.11186
878.947	10927.18468
879.128	10475.33252
879.309	10770.5282
879.49	10849.88229
879.672	10866.15785
879.853	10943.45677
880.034	11089.87346
880.215	10951.59254
880.396	11093.93978
880.576	10941.4228
880.757	11356.12839
880.938	11067.50793
881.119	11291.10535
881.3	10939.38882
881.481	11404.88896
881.662	11110.20462
881.843	11077.67424
882.023	11230.1368
882.204	11348.00107
882.385	11152.89657
882.566	11274.84797
882.747	11325.65012
882.927	11463.80045
883.108	11158.99503
883.289	11163.06062
883.469	10762.38831
883.65	11004.4707
883.831	10957.69426
884.011	10975.99878
884.192	11022.77292
884.373	11091.90662
884.553	10809.19011
884.734	11022.77292
884.914	10880.39837
885.095	10699.29766
885.275	10703.36837
885.456	11020.73938
885.636	11002.43706
885.817	11374.41427
885.997	11248.42834
886.178	11124.43579
886.358	10902.77519
886.538	11201.68163
886.719	11057.34135
886.899	11122.4028
887.08	11150.86372
887.26	11628.30401
887.44	11020.73938
887.621	11321.58618
887.801	10908.87771
887.981	11085.8071
888.161	10951.59254
888.342	11152.89657
888.522	11337.8417
888.702	11323.61816
888.882	11337.8417
889.062	11280.94457
889.242	11012.60513
889.423	11323.61816
889.603	11061.40802
889.783	11339.87359
889.963	11130.53471
890.143	11169.15893
890.323	10817.32892
890.503	11130.53471
890.683	10931.25277
890.863	11280.94457
891.043	11299.2338
891.223	11439.42427
891.403	11207.77934
891.583	11268.75129
891.763	10864.12345
891.943	11065.47464
892.122	10786.80742
892.302	11187.45328
892.482	10691.15609
892.662	10827.50217
892.842	10837.67512
893.022	11004.4707
893.201	10819.36359
893.381	10807.15538
893.561	10805.12064
893.741	11045.14109
893.92	10727.79164
894.1	10975.99878
894.28	10890.56982
894.459	10862.08903
894.639	10809.19011
894.819	10910.91187
894.998	10644.33828
895.178	10980.06633
895.357	10809.19011
895.537	10855.98571
895.716	10898.70678
895.896	10973.96499
896.075	10845.81328
896.255	10870.22663
896.434	10589.36996
896.614	10827.50217
896.793	10550.68312
896.973	10906.84355
897.152	10391.81539
897.331	10910.91187
897.511	10819.36359
897.69	10687.08523
897.87	10742.03775
898.049	10672.83685
898.228	10685.04979
898.407	10422.37297
898.587	10442.74306
898.766	10693.1915
898.945	10406.07596
899.124	10719.65074
899.304	10440.70611
899.483	10560.86431
899.662	10687.08523
899.841	10554.75563
900.02	10198.21473
900.199	10383.66621
900.378	9994.2906
900.557	10181.90594
900.737	10067.71952
900.916	10389.77811
901.095	9971.85028
901.274	10147.24683
901.453	10112.5837
901.632	9800.42945
901.811	9628.90261
901.989	9939.20668
902.168	9733.05676
902.347	9814.71851
902.526	9381.62809
902.705	9598.26136
902.884	9684.04804
903.063	10014.68938
903.242	10063.64062
903.42	9890.23428
903.599	9573.74583
903.778	9526.75137
903.957	9522.66449
904.135	9512.44704
904.314	9226.19339
904.493	9492.01093
904.672	9400.02852
904.85	9630.94523
905.029	9508.35994
905.207	9912.68101
905.386	9549.22802
905.565	9924.92394
905.743	9794.30534
905.922	9814.71851
906.1	9516.53407
906.279	9577.83191
906.457	9244.60516
906.636	9667.70983
906.814	9136.16057
906.993	9113.64721
907.171	9121.83413
907.35	8972.37919
907.528	9007.19207
907.707	9127.97414
907.885	8759.29421
908.063	8902.73812
908.242	8845.37116
908.42	8931.41634
908.598	8742.89496
908.777	8925.2713
908.955	8800.28723
909.133	8902.73812
909.311	8853.5673
909.49	8935.51294
909.668	8578.83746
909.846	8775.69229
910.024	8646.52558
910.202	8562.42514
910.38	8344.84695
910.559	8418.7656
910.737	8295.55385
910.915	8669.08378
911.093	8404.39449
911.271	8798.23775
911.449	8699.84134
911.627	8541.90805
911.805	7954.29692
911.983	8394.12883
912.161	8133.2173
912.339	8250.3586
912.517	8455.71556
912.695	8260.63109
912.872	8102.37987
913.05	8320.2018
913.228	8361.27548
913.406	8320.2018
913.584	8293.49973
913.762	8065.36898
913.939	7929.60616
914.117	7929.60616
914.295	7750.50911
914.473	7713.43483
914.65	7641.32639
914.828	7690.77497
915.006	7789.6357
915.184	7587.7433
915.361	7402.1514
915.539	7544.45411
915.716	7385.64586
915.894	7558.88489
916.072	7690.77497
916.249	7424.84424
916.427	7422.78136
916.604	7734.0325
916.782	7377.39257
916.959	7666.05221
917.137	7298.96886
917.314	7550.63886
917.492	7232.90326
917.669	7385.64586
917.847	7294.84042
918.024	7121.36621
918.201	7018.03322
918.379	7418.65554
918.556	6836.03043
918.733	6939.46259
918.911	6715.97781
919.088	6728.40062
919.265	6604.13535
919.442	6898.09653
919.62	6521.24573
919.797	6815.33719
919.974	6610.35058
920.151	6689.05891
920.328	6438.31902
920.506	6881.54757
920.683	6475.64064
920.86	6515.02751
921.037	6187.23871
921.214	6280.65567
921.391	6154.01235
921.568	6280.65567
921.745	6380.2482
921.922	6351.20594
922.099	5973.23866
922.276	6259.90044
922.453	6309.70905
922.63	6297.25816
922.807	6129.08863
922.984	6351.20594
923.161	6251.5977
923.338	6251.5977
923.514	6168.54962
923.691	5946.21119
923.868	5867.18497
924.045	5504.89287
924.222	5544.48823
924.399	5661.14084
924.575	5484.04979
924.752	5910.86156
924.929	5429.84679
925.105	5727.76626
925.282	5340.1685
925.459	5469.45824
925.635	5488.2186
925.812	5815.17545
925.989	5285.92338
926.165	5636.15008
926.342	5352.68435
926.518	5588.24162
926.695	5442.35658
926.871	5369.37085
927.048	5219.13846
927.224	5300.52939
927.401	4993.56337
927.577	5085.49699
927.754	5162.77009
927.93	5204.52607
928.107	4951.76059
928.283	4993.56337
928.459	5052.07176
928.636	5196.17562
928.812	4928.76513
928.988	5018.64061
929.165	4719.58873
929.341	4809.56249
929.517	4813.74629
929.693	4761.4422
929.87	4342.50566
930.046	4866.03616
930.222	4365.57008
930.398	4604.44522
930.574	4361.37674
930.751	4612.82158
930.927	4239.7325
931.103	4612.82158
931.279	3971.02445
931.455	4441.03521
931.631	3897.49081
931.807	4338.31185
931.983	4105.4212
932.159	4206.16279
932.335	3886.98399
932.511	4029.83341
932.687	3603.11434
932.863	4004.63154
933.039	3518.93815
933.215	4019.33299
933.391	3424.20497
933.566	3760.86341
933.742	3649.39851
933.918	3685.15728
934.094	3449.47071
934.27	3632.56896
934.445	3382.0897
934.621	3668.33031
934.797	3141.9015
934.973	3468.41833
935.148	3116.60601
935.324	3255.70214
935.5	2996.42148
935.675	2969.00399
935.851	2783.34387
936.027	2977.44041
936.202	2546.89845
936.378	2546.89845
936.553	2394.81888
936.729	2542.67481
936.904	2453.9677
937.08	2437.06889
937.255	2132.78245
937.431	2217.32542
937.606	1855.82383
937.782	1872.74027
937.957	1735.28588
938.133	1731.05625
938.308	1654.92065
938.483	1767.00769
938.659	1464.56989
938.834	1676.06981
939.009	1468.79999
939.185	1439.18926
939.36	1303.82752
939.535	1286.90772
939.71	1206.54086
939.886	1269.98806
940.061	1052.16689
940.236	1269.98806
940.411	1126.17884
940.586	1231.91943
940.761	1007.76292
940.937	1240.37905
941.112	880.91064
941.287	1073.31252
941.462	821.7226
941.637	950.67619
941.812	893.59466
941.987	834.40517
942.162	836.51897
942.337	821.7226
942.512	732.95422
942.687	910.50712
942.862	735.06755
943.037	775.2227
943.212	680.12461
943.386	749.86112
943.561	595.61239
943.736	749.86112
943.911	534.35382
944.086	722.38775
944.26	661.10768
944.435	718.16124
944.61	591.3873
944.785	777.33623
944.959	561.81316
945.134	631.5277
945.309	470.99526
945.483	741.40759
945.658	623.07671
945.833	709.70835
946.007	557.58849
946.182	576.59991
946.357	597.72496
946.531	661.10768
946.706	593.49984
946.88	646.31739
947.055	690.68998
947.229	716.048
947.404	680.12461
947.578	798.47207
947.752	652.65602
947.927	631.5277
948.101	620.96399
948.276	654.76892
948.45	711.82155
948.624	631.5277
948.799	637.86606
948.973	741.40759
949.147	637.86606
949.321	832.29139
949.496	699.14248
949.67	703.36879
949.844	553.36388
950.018	671.67253
950.193	597.72496
950.367	697.02933
950.541	682.23766
950.715	817.49515
950.889	616.7386
951.063	781.56332
951.237	639.97888
951.411	785.79045
951.585	703.36879
951.759	770.99567
951.933	639.97888
952.107	832.29139
952.281	821.7226
952.455	838.63277
952.629	768.88217
952.803	952.79042
952.977	804.81301
953.151	828.06384
953.325	758.31482
953.499	718.16124
953.672	601.95012
953.846	728.7276
954.02	770.99567
954.194	688.57688
954.368	663.22063
954.541	838.63277
954.715	699.14248
954.889	779.44977
955.062	815.38144
955.236	927.42009
955.41	908.39304
955.583	1045.82331
955.757	739.29423
955.93	929.53424
956.104	847.08807
956.278	893.59466
956.451	697.02933
956.625	720.27449
956.798	618.85129
956.972	585.04977
957.145	623.07671
957.319	671.67253
957.492	716.048
957.665	857.65739
957.839	796.35845
958.012	817.49515
958.185	680.12461
958.359	840.74658
958.532	678.01157
958.705	699.14248
958.879	663.22063
959.052	804.81301
959.225	737.18088
959.398	813.26773
959.572	754.08795
959.745	830.17761
959.918	739.29423
960.091	851.31577
960.264	798.47207
960.438	673.78553
960.611	576.59991
960.784	825.95009
960.957	631.5277
961.13	678.01157
961.303	699.14248
961.476	785.79045
961.649	747.74772
961.822	724.50103
961.995	652.65602
962.168	798.47207
962.341	637.86606
962.514	616.7386
962.686	618.85129
962.859	661.10768
963.032	544.91483
963.205	707.59515
963.378	492.11332
963.551	770.99567
963.723	547.02707
963.896	654.76892
964.069	758.31482
964.242	722.38775
964.414	688.57688
964.587	671.67253
964.76	559.70082
964.932	606.17534
965.105	494.22521
965.278	606.17534
965.45	502.6729
965.623	523.79316
965.795	610.4006
965.968	675.89855
966.14	601.95012
966.313	722.38775
966.485	627.30218
966.658	540.69038
966.83	424.5409
967.003	703.36879
967.175	601.95012
967.348	671.67253
967.52	568.15026
967.692	578.71235
967.865	509.00883
968.037	542.8026
968.209	407.65029
968.382	441.43252
968.554	517.45693
968.726	540.69038
968.898	445.65559
969.071	580.82481
969.243	601.95012
969.415	466.77183
969.587	335.87706
969.759	470.99526
969.932	454.1019
970.104	354.87394
970.276	361.20655
970.448	399.20538
970.62	449.87871
970.792	492.11332
970.964	479.44231
971.136	525.90526
971.308	490.00145
971.48	587.16227
971.652	504.78487
971.824	538.57818
971.996	367.53931
972.168	392.87187
972.339	420.31815
972.511	513.23285
972.683	441.43252
972.855	487.88959
973.027	375.98323
973.199	386.5385
973.37	359.09566
973.542	373.87222
973.714	392.87187
973.886	375.98323
974.057	325.32385
974.229	392.87187
974.401	369.65026
974.572	403.4278
974.744	342.2092
974.915	354.87394
975.087	329.54508
975.259	409.76156
975.43	264.12413
975.602	394.98302
975.773	342.2092
975.945	348.54149
976.116	272.56455
976.288	409.76156
976.459	409.76156
976.63	378.09425
976.802	314.77108
976.973	344.31995
977.145	323.21326
977.316	295.77723
977.487	192.39306
977.659	335.87706
977.83	333.76638
978.001	350.65229
978.172	348.54149
978.344	304.21876
978.515	215.59768
978.686	264.12413
978.857	312.66058
979.028	281.00526
979.2	259.90403
979.371	316.8816
979.542	245.1343
979.713	352.76311
979.884	213.48807
980.055	289.44628
980.226	230.36551
980.397	221.92663
980.568	162.86346
980.739	257.79401
980.91	236.69488
981.081	323.21326
981.252	240.91455
981.423	198.72135
981.594	262.01407
981.765	202.94032
981.936	266.2342
982.106	221.92663
982.277	205.04983
982.448	306.32919
982.619	186.06495
982.79	164.97259
982.96	154.42718
983.131	179.73703
983.302	221.92663
983.472	213.48807
983.643	188.1743
983.814	266.2342
983.984	192.39306
984.155	226.14603
984.326	205.04983
984.496	200.83082
984.667	181.84631
984.837	207.15936
985.008	171.30008
985.178	141.77339
985.349	190.28367
985.519	200.83082
985.69	105.92518
985.86	139.6645
986.031	238.8047
986.201	145.99124
986.371	133.33796
986.542	228.25576
986.712	86.94927
986.882	120.68545
987.053	139.6645
987.223	179.73703
987.393	118.57677
987.563	205.04983
987.734	82.73264
987.904	137.55563
988.074	89.05761
988.244	93.27437
988.414	194.50247
988.585	175.51851
988.755	114.35949
988.925	145.99124
989.095	124.90287
989.265	103.81665
989.435	135.44678
989.605	141.77339
989.775	141.77339
989.945	145.99124
990.115	95.38278
990.285	160.75436
990.455	112.25088
990.625	139.6645
990.795	70.08331
990.965	133.33796
991.134	112.25088
991.304	175.51851
991.474	209.26891
991.644	139.6645
991.814	93.27437
991.984	99.59967
992.153	154.42718
992.323	240.91455
992.493	70.08331
992.662	57.4348
992.832	78.51611
993.002	74.29967
993.171	122.79415
993.341	145.99124
993.511	82.73264
993.68	171.30008
993.85	120.68545
994.019	27.92483
994.189	167.08173
994.358	70.08331
994.528	34.24801
994.697	86.94927
994.867	158.64528
995.036	93.27437
995.206	63.75895
995.375	74.29967
995.544	127.01161
995.714	150.20917
995.883	103.81665
996.052	78.51611
996.222	78.51611
996.391	137.55563
996.56	114.35949
996.73	53.21881
996.899	67.97517
997.068	103.81665
997.237	44.78711
997.406	57.4348
997.576	145.99124
997.745	173.40929
997.914	91.16598
998.083	40.5714
998.252	76.40788
998.421	80.62436
998.59	105.92518
998.759	114.35949
998.928	99.59967
999.097	-18.43861
999.266	72.19148
999.435	110.14229
999.604	108.03372
999.773	78.51611
999.942	76.40788
1000.111	99.59967
1000.28	74.29967
1000.448	76.40788
1000.617	89.05761
1000.786	97.49122
1000.955	11.06405
1001.124	59.54283
1001.292	61.65088
1001.461	36.35578
1001.63	99.59967
1001.798	112.25088
1001.967	72.19148
1002.136	84.84094
1002.304	78.51611
1002.473	40.5714
1002.642	13.17157
1002.81	89.05761
1002.979	171.30008
1003.147	78.51611
1003.316	44.78711
1003.484	116.46812
1003.653	57.4348
1003.821	114.35949
1003.99	82.73264
1004.158	57.4348
1004.327	80.62436
1004.495	42.67924
1004.663	-5.79519
1004.832	49.00291
1005	72.19148
1005.168	21.60186
1005.337	44.78711
1005.505	36.35578
1005.673	72.19148
1005.842	-5.79519
1006.01	11.06405
1006.178	95.38278
1006.346	-3.68787
1006.514	6.8491
1006.683	46.895
1006.851	46.895
1007.019	120.68545
1007.187	40.5714
1007.355	78.51611
1007.523	36.35578
1007.691	72.19148
1007.859	27.92483
1008.027	36.35578
1008.195	55.32679
1008.363	-16.33143
1008.531	95.38278
1008.699	23.70949
1008.867	19.49425
1009.035	78.51611
1009.203	80.62436
1009.37	70.08331
1009.538	40.5714
1009.706	101.70815
1009.874	108.03372
1010.042	120.68545
1010.209	46.895
1010.377	63.75895
1010.545	36.35578
1010.713	34.24801
1010.88	27.92483
1011.048	2.63424
1011.216	-1.58052
1011.383	80.62436
1011.551	6.8491
1011.718	93.27437
1011.886	46.895
1012.054	46.895
1012.221	11.06405
1012.389	72.19148
1012.556	15.2791
1012.724	11.06405
1012.891	-81.64228
1013.058	70.08331
1013.226	49.00291
1013.393	61.65088
1013.561	4.74166
1013.728	19.49425
1013.895	65.86705
1014.063	40.5714
1014.23	-22.65289
1014.397	65.86705
1014.565	51.11085
1014.732	27.92483
1014.899	53.21881
1015.066	63.75895
1015.233	13.17157
1015.401	-28.97412
1015.568	27.92483
1015.735	-18.43861
1015.902	11.06405
1016.069	93.27437
1016.236	4.74166
1016.403	-14.22423
1016.57	36.35578
1016.737	86.94927
1016.904	44.78711
1017.071	27.92483
1017.238	23.70949
1017.405	21.60186
1017.572	63.75895
1017.739	30.03253
1017.906	55.32679
1018.073	-69.00336
1018.24	36.35578
1018.407	99.59967
1018.573	19.49425
1018.74	53.21881
1018.907	-12.11701
1019.074	-22.65289
1019.241	11.06405
1019.407	120.68545
1019.574	11.06405
1019.741	-39.50901
1019.907	13.17157
1020.074	-5.79519
1020.241	8.95656
1020.407	32.14026
1020.574	-54.2568
1020.74	27.92483
1020.907	27.92483
1021.073	19.49425
1021.24	-14.22423
1021.406	63.75895
1021.573	-5.79519
1021.739	72.19148
1021.906	4.74166
1022.072	36.35578
1022.239	-1.58052
1022.405	101.70815
1022.571	80.62436
1022.738	55.32679
1022.904	15.2791
1023.07	2.63424
1023.237	-50.04327
1023.403	55.32679
1023.569	-47.93647
1023.735	11.06405
1023.902	-12.11701
1024.068	63.75895
1024.234	36.35578
1024.4	44.78711
1024.566	13.17157
1024.732	78.51611
1024.898	-87.96139
1025.065	-52.15005
1025.231	13.17157
1025.397	-22.65289
1025.563	8.95656
1025.729	11.06405
1025.895	27.92483
1026.061	-56.36353
1026.227	-39.50901
1026.392	21.60186
1026.558	36.35578
1026.724	6.8491
1026.89	74.29967
1027.056	-35.29512
1027.222	6.8491
1027.388	8.95656
1027.553	57.4348
1027.719	46.895
1027.885	2.63424
1028.051	-14.22423
1028.216	91.16598
1028.382	38.46358
1028.548	-10.00976
1028.713	-62.68356
1028.879	-56.36353
1029.045	-1.58052
1029.21	27.92483
1029.376	-37.40208
1029.541	-47.93647
1029.707	13.17157
1029.873	-26.86706
1030.038	19.49425
1030.204	76.40788
1030.369	38.46358
1030.534	-10.00976
1030.7	-58.47023
1030.865	-58.47023
1031.031	61.65088
1031.196	19.49425
1031.361	63.75895
1031.527	49.00291
1031.692	42.67924
1031.857	21.60186
1032.023	57.4348
1032.188	8.95656
1032.353	-20.54576
1032.518	112.25088
1032.684	55.32679
1032.849	-10.00976
1033.014	57.4348
1033.179	53.21881
1033.344	36.35578
1033.509	-22.65289
1033.674	4.74166
1033.839	-22.65289
1034.004	38.46358
1034.17	32.14026
1034.335	78.51611
1034.5	57.4348
1034.664	36.35578
1034.829	17.38667
1034.994	6.8491
1035.159	19.49425
1035.324	74.29967
1035.489	86.94927
1035.654	6.8491
1035.819	-22.65289
1035.984	-1.58052
1036.148	23.70949
1036.313	70.08331
1036.478	-37.40208
1036.643	44.78711
1036.807	19.49425
1036.972	-16.33143
1037.137	-5.79519
1037.301	70.08331
1037.466	112.25088
1037.631	27.92483
1037.795	-39.50901
1037.96	-5.79519
1038.124	-10.00976
1038.289	36.35578
1038.454	2.63424
1038.618	-26.86706
1038.783	-56.36353
1038.947	86.94927
1039.111	-22.65289
1039.276	4.74166
1039.44	23.70949
1039.605	-24.75999
1039.769	-3.68787
1039.933	-1.58052
1040.098	44.78711
1040.262	11.06405
1040.426	11.06405
1040.591	-24.75999
1040.755	112.25088
1040.919	-22.65289
1041.083	11.06405
1041.248	44.78711
1041.412	-16.33143
1041.576	78.51611
1041.74	-1.58052
1041.904	27.92483
1042.068	-47.93647
1042.232	25.81715
1042.397	61.65088
1042.561	59.54283
1042.725	-5.79519
1042.889	-3.68787
1043.053	27.92483
1043.217	36.35578
1043.381	44.78711
1043.544	23.70949
1043.708	-50.04327
1043.872	49.00291
1044.036	57.4348
1044.2	40.5714
1044.364	70.08331
1044.528	-18.43861
1044.691	36.35578
1044.855	2.63424
1045.019	-18.43861
1045.183	-10.00976
1045.346	-56.36353
1045.51	-5.79519
1045.674	55.32679
1045.837	-1.58052
1046.001	-14.22423
1046.165	-12.11701
1046.328	44.78711
1046.492	67.97517
1046.655	23.70949
1046.819	-37.40208
1046.983	-1.58052
1047.146	-37.40208
1047.31	59.54283
1047.473	4.74166
1047.636	-7.90249
1047.8	23.70949
1047.963	-3.68787
1048.127	2.63424
1048.29	-3.68787
