Data from mixed_try1_USB4F045381__22__00126.txt Node

Date: Thu Apr 03 20:01:15 EDT 2025
User: mmckonesweet
Spectrometer: USB4F04538
Trigger mode: 4
Integration Time (sec): 2.700000E-3
Scans to average: 1
Electric dark correction enabled: true
Nonlinearity correction enabled: true
Boxcar width: 0
XAxis mode: Wavelengths
Number of Pixels in Spectrum: 3648
>>>>>Begin Spectral Data<<<<<
345.52	22.12877
345.736	22.12877
345.952	22.12877
346.168	-55.83685
346.384	-30.55439
346.6	47.42198
346.816	11.59093
347.032	-9.48295
347.248	70.61035
347.464	-53.73012
347.68	-47.40976
347.896	-22.12611
348.112	-11.5902
348.328	20.02115
348.544	34.77495
348.76	-3.16104
348.975	-36.87534
349.191	-55.83685
349.407	36.88273
349.623	-45.30293
349.839	-20.01897
350.055	20.02115
350.27	34.77495
350.486	7.37596
350.702	-28.44736
350.918	7.37596
351.133	28.45175
351.349	-36.87534
351.565	62.17789
351.781	20.02115
351.996	41.09836
352.212	13.69845
352.428	22.12877
352.644	-28.44736
352.859	-20.01897
353.075	13.69845
353.291	17.91356
353.506	-47.40976
353.722	-47.40976
353.938	-1.05368
354.153	87.47635
354.369	-11.5902
354.584	22.12877
354.8	-22.12611
355.016	-13.69743
355.231	-72.68981
355.447	-7.37567
355.662	34.77495
355.878	20.02115
356.093	30.55946
356.309	-5.26836
356.524	-1.05368
356.74	-1.05368
356.955	-60.05024
357.171	36.88273
357.386	26.34407
357.602	28.45175
357.817	-28.44736
358.033	3.16109
358.248	-28.44736
358.464	36.88273
358.679	-47.40976
358.895	1.05369
359.11	-41.08919
359.325	-30.55439
359.541	-5.26836
359.756	-20.01897
359.972	-34.76838
360.187	-22.12611
360.402	17.91356
360.618	22.12877
360.833	-28.44736
361.048	-64.26353
361.264	-24.23321
361.479	-22.12611
361.694	5.26851
361.909	-13.69743
362.125	7.37596
362.34	3.16109
362.555	28.45175
362.77	-5.26836
362.986	-22.12611
363.201	28.45175
363.416	-17.91182
363.631	5.26851
363.847	3.16109
364.062	119.10394
364.277	38.99053
364.492	15.80599
364.707	-5.26836
364.922	11.59093
365.138	-64.26353
365.353	22.12877
365.568	-5.26836
365.783	49.5299
365.998	68.5022
366.213	-20.01897
366.428	36.88273
366.643	-28.44736
366.858	-41.08919
367.073	-24.23321
367.288	-26.3403
367.503	-20.01897
367.718	49.5299
367.933	-28.44736
368.148	15.80599
368.363	20.02115
368.578	17.91356
368.793	-47.40976
369.008	106.45231
369.223	24.2364
369.438	-43.19607
369.653	15.80599
369.868	-64.26353
370.083	45.31408
370.298	22.12877
370.513	-15.80464
370.728	-1.05368
370.943	-26.3403
371.157	-9.48295
371.372	-66.37014
371.587	-9.48295
371.802	-64.26353
372.017	87.47635
372.232	-28.44736
372.446	-20.01897
372.661	36.88273
372.876	-45.30293
373.091	13.69845
373.306	13.69845
373.52	-43.19607
373.735	-26.3403
373.95	70.61035
374.165	11.59093
374.379	49.5299
374.594	-30.55439
374.809	-3.16104
375.023	-64.26353
375.238	41.09836
375.453	-3.16104
375.667	-13.69743
375.882	53.7458
376.097	24.2364
376.311	3.16109
376.526	-3.16104
376.741	-41.08919
376.955	3.16109
377.17	26.34407
377.384	-38.98228
377.599	15.80599
377.813	-62.1569
378.028	5.26851
378.242	28.45175
378.457	22.12877
378.672	5.26851
378.886	-79.00925
379.101	-55.83685
379.315	-3.16104
379.53	64.28597
379.744	32.66719
379.958	5.26851
380.173	-64.26353
380.387	53.7458
380.602	53.7458
380.816	-30.55439
381.031	-74.79631
381.245	11.59093
381.459	-11.5902
381.674	7.37596
381.888	-26.3403
382.103	30.55946
382.317	-57.94356
382.531	-43.19607
382.746	-28.44736
382.96	24.2364
383.174	-28.44736
383.388	30.55946
383.603	55.85379
383.817	38.99053
384.031	-1.05368
384.246	11.59093
384.46	-13.69743
384.674	5.26851
384.888	-20.01897
385.103	26.34407
385.317	13.69845
385.531	13.69845
385.745	28.45175
385.959	49.5299
386.174	-3.16104
386.388	83.25972
386.602	70.61035
386.816	-38.98228
387.03	-3.16104
387.244	22.12877
387.458	-7.37567
387.672	83.25972
387.887	20.02115
388.101	-28.44736
388.315	1.05369
388.529	-22.12611
388.743	-30.55439
388.957	22.12877
389.171	-17.91182
389.385	-13.69743
389.599	-11.5902
389.813	15.80599
390.027	15.80599
390.241	3.16109
390.455	3.16109
390.669	20.02115
390.883	57.9618
391.097	15.80599
391.311	9.48343
391.525	11.59093
391.738	43.20621
391.952	20.02115
392.166	-45.30293
392.38	5.26851
392.594	79.04317
392.808	-9.48295
393.022	47.42198
393.236	-17.91182
393.449	-47.40976
393.663	-5.26836
393.877	-26.3403
394.091	-5.26836
394.305	26.34407
394.518	20.02115
394.732	32.66719
394.946	3.16109
395.16	-22.12611
395.373	20.02115
395.587	-5.26836
395.801	-13.69743
396.015	-47.40976
396.228	-32.6614
396.442	13.69845
396.656	45.31408
396.869	-43.19607
397.083	-30.55439
397.297	49.5299
397.51	70.61035
397.724	38.99053
397.938	-38.98228
398.151	7.37596
398.365	20.02115
398.578	57.9618
398.792	53.7458
399.005	64.28597
399.219	-47.40976
399.433	112.77803
399.646	13.69845
399.86	-28.44736
400.073	-17.91182
400.287	15.80599
400.5	-70.58328
400.714	-26.3403
400.927	-13.69743
401.141	36.88273
401.354	83.25972
401.567	-79.00925
401.781	45.31408
401.994	-38.98228
402.208	62.17789
402.421	5.26851
402.635	11.59093
402.848	45.31408
403.061	15.80599
403.275	49.5299
403.488	30.55946
403.701	-5.26836
403.915	15.80599
404.128	34.77495
404.341	-13.69743
404.555	-22.12611
404.768	-38.98228
404.981	-30.55439
405.195	-30.55439
405.408	-26.3403
405.621	55.85379
405.834	11.59093
406.048	30.55946
406.261	-22.12611
406.474	11.59093
406.687	-13.69743
406.9	28.45175
407.114	-5.26836
407.327	7.37596
407.54	70.61035
407.753	-55.83685
407.966	1.05369
408.179	20.02115
408.392	-7.37567
408.605	22.12877
408.819	9.48343
409.032	30.55946
409.245	38.99053
409.458	24.2364
409.671	-38.98228
409.884	1.05369
410.097	53.7458
410.31	-20.01897
410.523	-3.16104
410.736	55.85379
410.949	-3.16104
411.162	-9.48295
411.375	-3.16104
411.588	-62.1569
411.801	-30.55439
412.014	28.45175
412.227	28.45175
412.44	-13.69743
412.653	53.7458
412.865	74.82672
413.078	-22.12611
413.291	53.7458
413.504	-22.12611
413.717	5.26851
413.93	-55.83685
414.143	-9.48295
414.356	-3.16104
414.568	11.59093
414.781	36.88273
414.994	106.45231
415.207	-22.12611
415.42	-32.6614
415.632	-1.05368
415.845	-62.1569
416.058	28.45175
416.271	7.37596
416.483	-9.48295
416.696	-1.05368
416.909	5.26851
417.121	-13.69743
417.334	-85.32845
417.547	38.99053
417.759	-30.55439
417.972	-11.5902
418.185	15.80599
418.397	-43.19607
418.61	-32.6614
418.823	-76.90279
419.035	26.34407
419.248	28.45175
419.46	-5.26836
419.673	45.31408
419.885	20.02115
420.098	-47.40976
420.311	3.16109
420.523	-30.55439
420.736	98.01833
420.948	-20.01897
421.161	7.37596
421.373	-30.55439
421.586	-30.55439
421.798	-22.12611
422.01	-30.55439
422.223	-32.6614
422.435	28.45175
422.648	-20.01897
422.86	36.88273
423.073	62.17789
423.285	95.90989
423.497	36.88273
423.71	-9.48295
423.922	51.63784
424.134	36.88273
424.347	-11.5902
424.559	47.42198
424.771	34.77495
424.984	-66.37014
425.196	-11.5902
425.408	11.59093
425.621	20.02115
425.833	62.17789
426.045	11.59093
426.257	13.69845
426.47	7.37596
426.682	-38.98228
426.894	-11.5902
427.106	-30.55439
427.318	-22.12611
427.531	-32.6614
427.743	55.85379
427.955	-20.01897
428.167	-15.80464
428.379	123.32132
428.591	24.2364
428.804	7.37596
429.016	70.61035
429.228	45.31408
429.44	-22.12611
429.652	13.69845
429.864	53.7458
430.076	-1.05368
430.288	3.16109
430.5	-22.12611
430.712	-43.19607
430.924	-62.1569
431.136	36.88273
431.348	-34.76838
431.56	55.85379
431.772	87.47635
431.984	34.77495
432.196	13.69845
432.408	-1.05368
432.62	79.04317
432.832	30.55946
433.044	5.26851
433.256	-51.62336
433.468	7.37596
433.679	13.69845
433.891	-20.01897
434.103	20.02115
434.315	20.02115
434.527	28.45175
434.739	3.16109
434.95	-5.26836
435.162	3.16109
435.374	55.85379
435.586	36.88273
435.798	43.20621
436.009	7.37596
436.221	32.66719
436.433	-68.47672
436.645	45.31408
436.856	-38.98228
437.068	-20.01897
437.28	91.69308
437.491	49.5299
437.703	74.82672
437.915	-5.26836
438.126	41.09836
438.338	-22.12611
438.55	-30.55439
438.761	-26.3403
438.973	-34.76838
439.184	72.71852
439.396	32.66719
439.608	60.06984
439.819	7.37596
440.031	-38.98228
440.242	34.77495
440.454	7.37596
440.665	30.55946
440.877	83.25972
441.088	20.02115
441.3	20.02115
441.511	32.66719
441.723	28.45175
441.934	36.88273
442.146	45.31408
442.357	-38.98228
442.569	36.88273
442.78	53.7458
442.991	102.23527
443.203	43.20621
443.414	13.69845
443.626	26.34407
443.837	28.45175
444.048	1.05369
444.26	104.34378
444.471	-5.26836
444.682	-13.69743
444.894	7.37596
445.105	7.37596
445.316	49.5299
445.528	-13.69743
445.739	-22.12611
445.95	26.34407
446.161	9.48343
446.373	-1.05368
446.584	62.17789
446.795	7.37596
447.006	22.12877
447.217	-47.40976
447.429	-5.26836
447.64	95.90989
447.851	-60.05024
448.062	-97.96616
448.273	45.31408
448.484	1.05369
448.695	32.66719
448.907	-41.08919
449.118	-60.05024
449.329	30.55946
449.54	-30.55439
449.751	74.82672
449.962	70.61035
450.173	-36.87534
450.384	64.28597
450.595	93.80147
450.806	3.16109
451.017	-26.3403
451.228	9.48343
451.439	34.77495
451.65	13.69845
451.861	11.59093
452.072	-5.26836
452.283	72.71852
452.494	11.59093
452.705	41.09836
452.915	3.16109
453.126	41.09836
453.337	-22.12611
453.548	17.91356
453.759	57.9618
453.97	-5.26836
454.181	41.09836
454.391	45.31408
454.602	24.2364
454.813	34.77495
455.024	28.45175
455.235	20.02115
455.445	7.37596
455.656	20.02115
455.867	-3.16104
456.078	72.71852
456.288	-5.26836
456.499	38.99053
456.71	53.7458
456.921	53.7458
457.131	47.42198
457.342	-47.40976
457.553	-17.91182
457.763	-76.90279
457.974	121.21262
458.184	13.69845
458.395	22.12877
458.606	-26.3403
458.816	36.88273
459.027	91.69308
459.237	49.5299
459.448	119.10394
459.659	26.34407
459.869	-26.3403
460.08	7.37596
460.29	135.97399
460.501	53.7458
460.711	49.5299
460.922	28.45175
461.132	22.12877
461.343	93.80147
461.553	98.01833
461.764	47.42198
461.974	45.31408
462.184	74.82672
462.395	20.02115
462.605	36.88273
462.816	55.85379
463.026	3.16109
463.236	-32.6614
463.447	28.45175
463.657	3.16109
463.867	123.32132
464.078	89.5847
464.288	87.47635
464.498	5.26851
464.709	-22.12611
464.919	142.30062
465.129	-13.69743
465.339	49.5299
465.55	38.99053
465.76	-38.98228
465.97	98.01833
466.18	87.47635
466.391	70.61035
466.601	20.02115
466.811	70.61035
467.021	-45.30293
467.231	72.71852
467.441	89.5847
467.651	-13.69743
467.862	47.42198
468.072	98.01833
468.282	70.61035
468.492	150.73642
468.702	38.99053
468.912	51.63784
469.122	-13.69743
469.332	95.90989
469.542	70.61035
469.752	62.17789
469.962	95.90989
470.172	171.82738
470.382	163.39074
470.592	129.64756
470.802	121.21262
471.012	70.61035
471.222	68.5022
471.432	76.93493
471.642	148.62743
471.852	125.43005
472.062	112.77803
472.272	70.61035
472.482	161.28164
472.691	159.17255
472.901	123.32132
473.111	119.10394
473.321	121.21262
473.531	95.90989
473.741	131.75635
473.95	171.82738
474.16	100.12679
474.37	131.75635
474.58	133.86516
474.79	108.56086
474.999	171.82738
475.209	112.77803
475.419	205.57721
475.628	159.17255
475.838	184.48295
476.048	157.06349
476.258	207.68674
476.467	205.57721
476.677	235.11252
476.886	266.76173
477.096	146.51847
477.306	157.06349
477.515	330.07274
477.725	159.17255
477.935	214.01547
478.144	323.7409
478.354	254.10153
478.563	344.84764
478.773	281.53282
478.982	256.21151
479.192	349.06919
479.401	351.18
479.611	281.53282
479.82	315.29871
480.03	247.77168
480.239	323.7409
480.449	365.95611
480.658	380.73305
480.868	382.84411
481.077	513.76086
481.287	372.28898
481.496	412.40067
481.705	365.95611
481.915	425.06875
482.124	416.6233
482.333	410.28938
482.543	484.19387
482.752	418.73464
482.961	469.41147
483.171	674.31378
483.38	536.99404
483.589	536.99404
483.799	536.99404
484.008	564.4536
484.217	465.18806
484.426	545.44289
484.636	663.74887
484.845	765.18357
485.054	629.94312
485.263	727.14263
485.472	638.39427
485.682	788.43243
485.891	771.52405
486.1	839.16122
486.309	744.0493
486.518	786.31885
486.727	839.16122
486.936	915.26385
487.146	872.98328
487.355	936.4053
487.564	784.20528
487.773	917.37796
487.982	904.69341
488.191	961.776
488.4	822.25103
488.609	940.63367
488.818	995.60516
489.027	1061.15372
489.236	1035.77941
489.445	1204.95472
489.654	1101.33129
489.863	1012.52036
490.072	1160.54348
490.281	1130.93695
490.49	1152.08439
490.698	1185.92113
490.907	1162.65826
491.116	1291.6664
491.325	1236.67796
491.534	1287.43646
491.743	1287.43646
491.952	1331.85121
492.16	1348.77131
492.369	1342.42626
492.578	1431.25782
492.787	1549.7003
492.996	1340.31125
493.204	1496.8244
493.413	1484.13411
493.622	1646.98964
493.831	1524.31994
494.039	1638.52987
494.248	1543.35523
494.457	1716.78113
494.665	1640.64482
494.874	1725.24048
495.083	1651.21952
495.291	1854.2379
495.5	1756.96254
495.709	1862.69617
495.917	1710.43658
496.126	1938.81688
496.335	1854.2379
496.543	1896.52846
496.752	1959.96023
496.96	1970.53168
497.169	2036.07112
497.377	2171.35682
497.586	1909.21522
497.794	1981.10297
498.003	2040.29926
498.211	2137.53834
498.42	2091.03465
498.628	2198.83278
498.837	2116.40076
499.045	2217.85377
499.254	2133.31088
499.462	2446.04647
499.671	2317.1738
499.879	2386.89654
500.087	2260.12008
500.296	2458.72037
500.504	2355.20573
500.713	2386.89654
500.921	2226.30731
501.129	2490.40338
501.338	2213.62694
501.546	2745.88226
501.754	2336.19016
501.962	2606.55238
502.171	2490.40338
502.379	2623.44378
502.587	2456.60808
502.795	2653.00182
503.004	2583.32544
503.212	2672.00212
503.42	2574.87891
503.628	2899.92187
503.837	2629.77785
504.045	2834.51686
504.253	2572.76725
504.461	2880.93473
504.669	2672.00212
504.877	2967.42214
505.085	2874.60542
505.294	2980.07675
505.502	2859.83655
505.71	2961.09463
505.918	2895.7026
506.126	3201.44209
506.334	3041.23301
506.542	3108.7007
506.75	2887.2639
506.958	3174.0445
507.166	2980.07675
507.374	3222.51527
507.582	2961.09463
507.79	3289.9382
507.998	3034.9071
508.206	3289.9382
508.414	3091.83529
508.622	3258.33585
508.83	3138.21272
509.037	3359.44984
509.245	3066.53527
509.453	3382.61618
509.661	3403.67466
509.869	3508.94027
510.077	3146.64414
510.285	3477.36531
510.492	3348.91898
510.7	3466.83942
510.908	3395.25148
511.116	3445.78629
511.324	3433.15355
511.531	3668.85617
511.739	3536.30191
511.947	3645.71715
512.155	3538.40652
512.362	3654.13161
512.57	3668.85617
512.778	3677.26979
512.985	3597.32818
513.193	3795.02808
513.401	3736.15652
513.608	3847.57896
513.816	3879.10354
514.024	3862.29099
514.231	3740.36214
514.439	3824.45809
514.646	3946.34092
514.854	3990.45418
515.061	3723.53921
515.269	3816.04991
515.477	4015.65772
515.684	4080.75314
515.892	3799.2326
516.099	3866.49425
516.307	3887.50934
516.514	4261.23523
516.722	4181.50657
516.929	4074.45445
517.136	4219.2766
517.344	4288.50375
517.551	3998.85569
517.759	4328.3512
517.966	4212.98208
518.173	4366.09424
518.381	4068.15558
518.588	4204.58908
518.796	4141.63078
519.003	4563.08172
519.21	4261.23523
519.418	4378.67369
519.625	4252.84418
519.832	4609.15697
520.039	4504.42493
520.247	4676.15621
520.454	4558.89252
520.661	4623.81501
520.868	4387.05955
521.076	4824.72834
521.283	4424.79163
521.49	4795.44147
521.697	4592.40358
521.904	4726.39053
522.112	4502.32973
522.319	4826.82009
522.526	4801.71761
522.733	4895.83499
522.94	4747.31767
523.147	4680.3429
523.354	4745.22506
523.561	4904.19874
523.768	4793.34938
523.975	5067.21831
524.183	4839.37011
524.39	5073.48548
524.597	4881.19755
524.804	5177.9077
525.011	5029.61086
525.218	5086.01922
525.425	5182.08338
525.632	5081.8414
525.838	5125.70385
526.045	5288.53168
526.252	5152.85167
526.459	5271.83793
526.666	5198.78517
526.873	5324.00094
527.08	5219.66031
527.287	5319.82844
527.494	5098.55211
527.701	5647.08395
527.907	5374.06365
528.114	5424.11285
528.321	5436.62303
528.528	5265.57739
528.735	5649.16652
528.941	5611.67666
529.148	5432.45307
529.355	5574.17916
529.562	5572.09575
529.768	5586.67918
529.975	5361.54924
530.182	5869.78506
530.388	5449.13237
530.595	5946.73098
530.802	5844.82268
531.008	6112.99027
531.215	5878.10509
531.422	6034.0359
531.628	5886.42475
531.835	5928.01738
532.042	5817.77628
532.248	6110.91295
532.455	5934.25546
532.661	6054.81666
532.868	6108.83562
533.074	6243.81353
533.281	5996.6246
533.487	6088.06098
533.694	5988.30994
533.9	6330.97737
534.107	6002.86034
534.313	6270.79723
534.52	6040.27037
534.726	6380.76677
534.933	6351.72459
535.139	6384.91528
535.345	6260.41935
535.552	6277.02367
535.758	6274.94821
535.965	6492.74386
536.171	6484.45159
536.377	6699.93047
536.584	6422.24768
536.79	6590.15032
536.996	6633.65585
537.203	6770.3215
537.409	6486.52469
537.615	6778.60105
537.821	6563.21322
538.028	6768.25155
538.234	6527.98189
538.44	6693.71822
538.646	6664.72501
538.853	7022.68441
539.059	6766.18158
539.265	6875.85853
539.471	6846.89348
539.677	6939.97961
539.883	6658.5116
540.09	6838.61693
540.296	6836.54774
540.502	7107.41952
540.708	6749.621
540.914	7144.60844
541.12	6987.53927
541.326	7099.15434
541.532	7064.02331
541.738	7183.85559
541.944	7030.95291
542.15	7330.44533
542.356	7037.15405
542.562	7171.46262
542.768	6993.74183
542.974	7371.71823
543.18	7311.86967
543.386	7716.00966
543.592	7565.58454
543.798	7309.8056
544.004	7315.99775
544.21	7584.13623
544.415	7278.84189
544.621	7553.21578
544.827	7313.93372
545.033	7573.82995
545.239	7608.86912
545.445	7742.78587
545.651	7417.10834
545.856	7718.06949
546.062	7497.54682
546.268	7612.99097
546.474	7493.42257
546.679	7555.27729
546.885	7695.41015
547.091	7722.1891
547.297	7528.47595
547.502	7695.41015
547.708	7812.7992
547.914	7678.92903
548.119	7753.08346
548.325	7942.4663
548.531	7709.83003
548.736	7995.9559
548.942	7812.7992
549.147	7942.4663
549.353	8137.84253
549.559	7995.9559
549.764	8014.46832
549.97	7956.86871
550.175	8135.78688
550.381	8209.77747
550.586	7866.32256
550.792	8515.74602
550.997	8148.12044
551.203	8166.61943
551.408	8211.8324
551.614	8082.33312
551.819	8156.34242
552.025	8443.91277
552.23	8152.23147
552.435	8310.44566
552.641	8464.43894
552.846	8425.43758
553.052	8480.8585
553.257	8482.91086
553.462	8788.50248
553.668	8743.40745
553.873	8536.26552
554.078	8669.59644
554.283	8587.55601
554.489	8786.4529
554.694	8601.91525
554.899	8909.39587
555.105	9017.94208
555.31	8960.6031
555.515	8587.55601
555.72	8940.12154
555.925	8591.65875
556.131	8983.13077
556.336	8745.45742
556.541	8893.00721
556.746	8878.6662
556.951	8870.47094
557.156	8755.70697
557.361	8989.27431
557.567	9081.40854
557.772	9050.70105
557.977	8798.75012
558.182	9077.31443
558.387	9013.8469
558.592	9206.24577
558.797	9001.56092
559.002	9103.92488
559.207	9105.97172
559.412	9423.02719
559.617	8989.27431
559.822	9153.04424
560.027	9073.22025
560.232	9153.04424
560.437	9161.22984
560.642	9150.99779
560.847	9296.25315
561.051	9185.785
561.256	9324.88508
561.461	9504.78368
561.666	9320.795
561.871	9437.33644
562.076	9341.24472
562.281	9580.38567
562.485	9355.55855
562.69	9345.33447
562.895	9316.70486
563.1	9308.52437
563.305	9371.91622
563.509	9664.13571
563.714	9553.82528
563.919	9611.02898
564.123	9474.12802
564.328	9461.86474
564.533	9547.69558
564.737	9766.23477
564.942	9529.30563
565.147	9741.73447
565.351	9745.81801
565.556	9537.4791
565.761	9807.06375
565.965	9655.96613
566.17	9717.23199
566.374	9807.06375
566.579	9847.88673
566.784	9713.14803
566.988	10013.15952
567.193	9929.5149
567.397	9735.60906
567.602	10072.30821
567.806	9717.23199
568.011	10011.1197
568.215	10070.2688
568.42	10005.00014
568.624	10043.75517
568.828	9953.99877
569.033	9735.60906
569.237	10263.95066
569.442	10170.18345
569.646	10011.1197
569.85	10068.22938
570.055	10257.83629
570.259	10106.97605
570.463	10247.64539
570.668	10084.54439
570.872	9992.76063
571.076	10143.67875
571.281	10435.10443
571.485	10117.1717
571.689	10184.45424
571.893	10141.63983
572.098	10270.06492
572.302	10011.1197
572.506	10538.97437
572.71	10235.41587
572.914	10561.37336
573.119	10640.77579
573.323	10321.01232
573.527	10268.02685
573.731	10630.59705
573.935	10565.44574
574.139	10669.27466
574.343	10589.87897
574.547	10846.32191
574.751	10834.11462
574.955	10781.21153
575.159	10683.52319
575.364	10642.81151
575.568	10581.73476
575.772	10567.48191
575.976	10736.44113
576.18	10775.10681
576.383	10779.17663
576.587	11090.38175
576.791	10893.11264
576.995	10756.79202
577.199	10872.76959
577.403	10795.45545
577.607	10726.26524
577.811	10679.45224
578.015	10681.48772
578.219	10990.74344
578.422	10990.74344
578.626	11303.80597
578.83	11047.68284
579.034	11283.48479
579.238	10825.9762
579.442	11232.67735
579.645	11110.71288
579.849	11169.66712
580.053	11192.02674
580.257	11045.64944
580.46	11025.31482
580.664	11149.33908
580.868	11328.19006
581.071	11454.15172
581.275	11212.35256
581.479	11346.47718
581.682	11389.14398
581.886	11750.62733
582.09	11326.15811
582.293	11403.36527
582.497	11525.24262
582.7	11720.17641
582.904	11535.39752
583.107	11297.70972
583.311	11244.87172
583.515	11464.30828
583.718	11456.18305
583.922	11608.50589
584.125	11671.45079
584.329	11561.79915
584.532	11645.0556
584.735	11817.6125
584.939	11496.80766
585.142	11752.65733
585.346	11616.6283
585.549	11614.59771
585.753	11602.41398
585.956	11835.87957
586.159	11981.99184
586.363	11858.20505
586.566	11819.64221
586.769	11837.9092
586.973	11707.99548
587.176	12117.92014
587.379	11876.47061
587.582	12184.85727
587.786	12030.68661
587.989	12117.92014
588.192	11906.91169
588.395	12126.03416
588.599	11781.0763
588.802	12026.62888
589.005	11856.17551
589.208	12203.11144
589.411	12150.37552
589.615	12357.23459
589.818	12304.51284
590.021	12178.77241
590.224	12042.85959
590.427	12561.99519
590.63	12444.4181
590.833	12444.4181
591.036	12302.48499
591.239	12592.39959
591.442	12199.05501
591.645	12523.48094
591.848	12661.31109
592.051	12940.94211
592.254	12519.42667
592.457	12612.66841
592.66	12517.39953
592.863	12770.74465
593.066	12612.66841
593.269	12663.33779
593.472	12442.39072
593.675	12788.98195
593.878	12493.07332
594.081	12754.53334
594.284	12517.39953
594.486	12870.03115
594.689	12766.69186
594.892	12596.4534
595.095	12596.4534
595.298	12774.79742
595.5	12823.42893
595.703	13291.35604
595.906	12997.66629
596.109	12997.66629
596.311	12841.66493
596.514	12805.19249
596.717	12843.69112
596.92	13080.7196
597.122	13021.97543
597.325	12892.31815
597.528	12979.43395
597.73	13100.97527
597.933	12967.27883
598.136	13196.17062
598.338	13044.25819
598.541	13313.6321
598.743	13352.10775
598.946	13350.08275
599.148	13236.67623
599.351	12859.90048
599.554	13260.97876
599.756	13469.55077
599.959	13327.80752
600.161	13499.92186
600.363	13220.4742
600.566	13382.48222
600.768	13425.00497
600.971	13641.64287
601.173	13354.13274
601.376	13738.81342
601.578	13437.15401
601.78	13536.36606
601.983	13179.96787
602.185	13439.17884
602.388	13273.12979
602.59	13734.7648
602.792	13441.20366
602.995	13505.99597
603.197	13163.76483
603.399	13572.8091
603.601	13265.02912
603.804	13678.0827
604.006	13578.88283
604.208	13275.15494
604.41	13196.17062
604.613	13572.8091
604.815	13337.93269
605.017	13783.34751
605.219	13222.49947
605.421	13957.42191
605.623	14056.59515
605.826	14020.16485
606.028	13840.02517
606.23	13566.73534
606.432	13706.42406
606.634	14309.56403
606.836	13858.24251
607.038	14244.80697
607.24	13730.71616
607.442	13815.73502
607.644	13821.8076
607.846	14032.30837
608.048	13659.86292
608.25	13894.67651
608.452	13757.03209
608.654	13870.38728
608.856	13886.58015
609.058	13894.67651
609.26	13799.54136
609.462	14339.91828
609.664	14149.69145
609.866	14263.02008
610.067	13838.00101
610.269	14088.97701
610.471	13933.13367
610.673	14103.14389
610.875	13981.70979
611.077	13979.68581
611.278	13783.34751
611.48	13902.77284
611.682	13757.03209
611.884	14228.6174
612.085	13949.32588
612.287	14273.13841
612.489	13981.70979
612.69	14327.77663
612.892	14076.83388
613.094	14303.49314
613.295	14218.49886
613.497	14467.40216
613.699	14224.56999
613.9	14354.08347
614.102	14008.02124
614.304	14212.42771
614.505	14107.19155
614.707	14250.87802
614.908	14171.95293
615.11	14410.74341
615.311	14157.78657
615.513	14127.42972
615.714	14374.31931
615.916	14439.07293
616.117	13884.55605
616.319	14068.73842
616.52	14046.4757
616.722	14163.85788
616.923	14319.68216
617.124	14285.28035
617.326	14139.57252
617.527	14287.304
617.729	14186.1192
617.93	14256.94906
618.131	13925.03751
618.333	14481.56667
618.534	14437.0494
618.735	14675.81665
618.937	14277.18573
619.138	14471.44917
619.339	14374.31931
619.54	14602.97415
619.742	14370.27215
619.943	14250.87802
620.144	14315.63491
620.345	14515.96592
620.546	14388.4843
620.748	14439.07293
620.949	14799.24148
621.15	14787.10146
621.351	14503.82505
621.552	14720.33089
621.753	14400.62566
621.954	14485.61366
622.155	14046.4757
622.356	14635.34876
622.558	14558.45859
622.759	14793.17147
622.96	14469.42566
623.161	14592.85703
623.362	14611.06783
623.563	14774.96142
623.764	14374.31931
623.965	14813.4048
624.166	14609.04441
624.366	14580.71644
624.567	14303.49314
624.768	14617.13808
624.969	14325.75301
625.17	14424.90821
625.371	14515.96592
625.572	14651.53597
625.773	14558.45859
625.973	14598.92731
626.174	14629.27854
626.375	14969.1994
626.576	14890.29083
626.777	14880.1743
626.977	14507.87201
627.178	14857.91787
627.379	14416.81405
627.58	14655.58276
627.78	14639.39557
627.981	15042.03756
628.182	15021.80478
628.382	14908.50057
628.583	14880.1743
628.784	14888.26753
628.984	14659.62955
629.185	14738.54113
629.386	14594.88045
629.586	14928.73355
629.787	14845.77797
629.987	14894.33744
630.188	14797.21814
630.388	14613.09125
630.589	14801.26481
630.79	14975.26926
630.99	14526.08327
631.191	14495.73111
631.391	14772.93808
631.591	15001.57197
631.792	14692.0037
631.992	14967.17611
632.193	15129.03833
632.393	15090.59617
632.594	14853.87124
632.794	15054.17723
632.994	15292.92341
633.195	15037.99101
633.395	15046.08412
633.595	15240.31825
633.796	15290.90013
633.996	15187.71318
634.196	14993.47883
634.397	15458.83334
634.597	14861.9645
634.797	15082.50307
634.997	14914.57047
635.198	15114.87543
635.398	15021.80478
635.598	15400.15757
635.798	15011.68838
635.998	14876.12768
636.199	14916.59377
636.399	15365.7616
636.599	15098.68926
636.799	15296.96996
636.999	14959.08295
637.199	15092.61944
637.399	14886.24422
637.599	14829.59141
637.799	15050.13067
637.999	15325.29589
638.199	15159.38739
638.399	15574.16295
638.599	15424.43715
638.799	15580.23299
638.999	15163.43393
639.199	15177.59683
639.399	15436.57696
639.599	15410.27405
639.799	15232.22515
639.999	15218.06225
640.199	14977.29255
640.399	15432.53036
640.599	14772.93808
640.799	15796.73611
640.998	15163.43393
641.198	15452.76341
641.398	15430.50705
641.598	15717.82252
641.798	15772.45484
641.997	15675.33121
642.197	15557.97621
642.397	15776.50171
642.597	15845.29913
642.796	15410.27405
642.996	15292.92341
643.196	15754.24398
643.395	15388.0178
643.595	15642.95715
643.795	15574.16295
643.994	15762.33769
644.194	15363.73831
644.394	15808.87681
644.593	15683.42476
644.793	15614.63002
644.992	15513.4629
645.192	15651.05064
645.392	15689.49494
645.591	15780.54858
645.791	15673.30783
645.99	15628.79356
646.19	15398.13427
646.389	15780.54858
646.589	15717.82252
646.788	15916.12142
646.987	15545.83619
647.187	15889.81583
647.386	15812.92371
647.586	16146.81128
647.785	16013.25171
647.984	16247.99742
648.184	15976.82748
648.383	16158.9534
648.582	15982.89816
648.782	16120.50356
648.981	15875.65136
649.18	16158.9534
649.38	16126.57455
649.579	16527.2951
649.778	15982.89816
649.977	16041.58198
650.177	15847.32261
650.376	16063.84168
650.575	15818.99408
650.774	15899.93334
650.973	16197.40382
651.173	15780.54858
651.372	15736.03321
651.571	16114.43259
651.77	15715.79912
651.969	16057.77083
652.168	15634.86366
652.367	15867.55741
652.566	15867.55741
652.765	16045.62918
652.964	16049.67639
653.163	15673.30783
653.362	16003.13382
653.561	15812.92371
653.76	16140.74024
653.959	16126.57455
654.158	16049.67639
654.357	15986.94528
654.556	15837.20525
654.755	16357.28342
654.954	15883.74533
655.153	16031.46399
655.352	16250.02119
655.551	16163.00078
655.749	16312.75885
655.948	16183.23781
656.147	16215.61739
656.346	16195.3801
656.545	16140.74024
656.743	16438.23958
656.942	16061.81806
657.141	16418.00025
657.34	16375.49828
657.538	16418.00025
657.737	16409.90457
657.936	16654.81365
658.135	16215.61739
658.333	16551.58367
658.532	15788.64234
658.731	16274.30653
658.929	16108.36163
659.128	16353.23569
659.326	16199.42755
659.525	16521.223
659.724	16401.80892
659.922	16503.00683
660.121	16405.85674
660.319	16274.30653
660.518	15974.80393
660.716	16314.78267
660.915	16278.35411
661.113	16211.56992
661.312	16472.64692
661.51	16543.48745
661.709	16484.79083
661.907	16500.98282
662.105	16193.35638
662.304	16383.59383
662.502	16341.09256
662.701	16579.92074
662.899	16300.61594
663.097	16701.37028
663.296	16484.79083
663.494	16646.71697
663.692	16118.4799
663.891	16290.4969
664.089	16515.15092
664.287	16689.22495
664.485	16245.97366
664.684	16751.97671
664.882	16745.90386
665.08	16622.42715
665.278	16428.11989
665.476	16521.223
665.675	16063.84168
665.873	16339.06871
666.071	16434.1917
666.269	15988.96884
666.467	16367.40277
666.665	16705.41874
666.863	16320.85416
667.061	16187.28523
667.259	16371.45052
667.457	16539.43935
667.655	16175.14298
667.853	16316.8065
668.051	16345.14026
668.249	16484.79083
668.447	16511.10288
668.645	16237.87862
668.843	16266.21139
669.041	16450.38328
669.239	16276.33032
669.437	16535.39125
669.635	16442.28747
669.833	16531.34317
670.031	16270.25895
670.229	16608.25824
670.426	16339.06871
670.624	16539.43935
670.822	16596.11354
671.02	16505.03084
671.218	16531.34317
671.415	16664.93455
671.613	16389.66551
671.811	16146.81128
672.009	16476.69488
672.206	16553.60773
672.404	16420.02417
672.602	16377.52217
672.799	16555.6318
672.997	16679.10391
673.195	16503.00683
673.392	16561.704
673.59	16407.88065
673.788	16507.05485
673.985	16381.56994
674.183	16693.27338
674.38	16581.94483
674.578	16652.78948
674.775	16444.31142
674.973	16523.24703
675.17	16507.05485
675.368	16474.6709
675.565	16167.04817
675.763	16420.02417
675.96	16341.09256
676.158	16569.80031
676.355	16231.80735
676.553	16624.45129
676.75	15964.68618
676.947	16614.33061
677.145	16533.36721
677.342	16583.96893
677.539	16312.75885
677.737	16403.83283
677.934	16316.8065
678.131	16468.59897
678.329	16173.11927
678.526	16434.1917
678.723	16274.30653
678.92	16699.34605
679.118	16268.23517
679.315	16741.85531
679.512	16314.78267
679.709	16531.34317
679.906	15903.98035
680.104	16310.73502
680.301	16215.61739
680.498	16041.58198
680.695	16039.55838
680.892	16379.54605
681.089	16120.50356
681.286	16349.18798
681.483	16395.73721
681.68	16195.3801
681.877	16573.84847
682.075	16472.64692
682.272	16094.19611
682.469	16460.50309
682.665	15920.16846
682.862	16126.57455
683.059	15986.94528
683.256	16067.88892
683.453	15640.93377
683.65	16037.53478
683.847	16229.7836
684.044	16037.53478
684.241	15912.07439
684.438	16086.10156
684.635	15786.6189
684.831	16252.04496
685.028	16136.69289
685.225	16136.69289
685.422	15738.05663
685.619	15873.62787
685.815	16142.76392
686.012	16250.02119
686.209	16035.51118
686.405	16365.3789
686.602	15839.22872
686.799	15944.45077
686.996	16215.61739
687.192	15845.29913
687.389	15620.7001
687.586	15612.60665
687.782	15626.77019
687.979	15954.56846
688.175	15960.63908
688.372	16005.1574
688.568	16033.48759
688.765	15774.47827
688.962	16069.91254
689.158	15883.74533
689.355	15729.96297
689.551	15837.20525
689.748	15954.56846
689.944	15762.33769
690.14	15681.40137
690.337	15525.60286
690.533	15770.43141
690.73	15895.88633
690.926	15997.06311
691.123	15746.1503
691.319	15667.23767
691.515	15653.07402
691.712	15507.39293
691.908	15740.08004
692.104	15420.39055
692.301	15717.82252
692.497	15695.56512
692.693	15827.08792
692.889	15776.50171
693.086	15616.65338
693.282	15796.73611
693.478	15899.93334
693.674	15622.72346
693.87	16003.13382
694.067	15924.2155
694.263	15665.21429
694.459	15404.20416
694.655	15754.24398
694.851	15523.57954
695.047	15772.45484
695.243	15618.67674
695.439	15908.02737
695.635	15375.87805
695.831	15632.84029
696.027	15519.53288
696.224	15519.53288
696.42	15298.99324
696.615	15778.52514
696.811	15525.60286
697.007	15663.19091
697.203	15398.13427
697.399	15309.10964
697.595	15216.03898
697.791	15161.41066
697.987	15005.61853
698.183	15420.39055
698.379	15361.71502
698.575	15555.95287
698.77	15485.13641
698.966	15274.71391
699.162	15357.66845
699.358	15559.99955
699.554	15353.62187
699.749	15559.99955
699.945	15082.50307
700.141	15209.96916
700.337	15416.34395
700.532	15825.06446
700.728	15106.78235
700.924	15535.71952
701.119	15604.51322
701.315	15489.18304
701.511	15171.52702
701.706	15576.1863
701.902	15027.87462
702.097	15163.43393
702.293	15127.01506
702.489	15169.50374
702.684	14969.1994
702.88	15321.24932
703.075	14965.15282
703.271	15584.27969
703.466	15278.76047
703.662	15412.29735
703.857	15408.25075
704.053	15450.7401
704.248	15040.01429
704.443	15179.6201
704.639	14979.31583
704.834	15282.80702
705.03	14912.54717
705.225	15238.29497
705.42	15157.36412
705.616	15244.36479
705.811	15017.75822
706.006	15207.94589
706.202	15025.85134
706.397	14793.17147
706.592	14967.17611
706.787	15462.87996
706.983	14987.40898
707.178	15406.22746
707.373	15359.69173
707.568	15110.82889
707.763	15017.75822
707.959	15424.43715
708.154	15454.78672
708.349	15408.25075
708.544	15339.45887
708.739	15307.08636
708.934	15288.87685
709.129	15426.46045
709.324	15191.75972
709.519	15173.55029
709.714	15102.7358
709.909	15228.17861
710.104	14776.98477
710.299	15082.50307
710.494	15282.80702
710.689	15254.48116
710.884	15195.80626
711.079	15094.64271
711.274	14801.26481
711.469	15056.2005
711.664	15155.34085
711.859	15317.20276
712.054	14953.01308
712.249	15068.34015
712.443	14710.21406
712.638	14888.26753
712.833	14426.93174
713.028	14821.49811
713.223	14785.07813
713.417	14936.82674
713.612	14582.73987
713.807	14924.68696
714.002	14934.80344
714.196	14955.03637
714.391	14983.36241
714.586	14863.98781
714.78	14776.98477
714.975	14920.64036
715.17	14983.36241
715.364	15114.87543
715.559	14876.12768
715.754	14995.50212
715.948	14839.70801
716.143	14837.68469
716.337	14841.73133
716.532	14934.80344
716.726	14548.34134
716.921	14726.40098
717.115	14578.69301
717.31	14866.01113
717.504	14768.89139
717.699	14744.6112
717.893	14799.24148
718.088	14833.63805
718.282	14698.07383
718.476	14712.23742
718.671	14248.85434
718.865	14683.91018
719.059	14509.89549
719.254	14477.51967
719.448	14437.0494
719.642	14552.38824
719.837	14194.21416
720.031	14617.13808
720.225	14155.76279
720.419	14331.82385
720.614	14226.5937
720.808	14394.55498
721.002	14129.45352
721.196	14522.03633
721.39	14315.63491
721.585	14489.66065
721.779	14558.45859
721.973	14443.11998
722.167	13979.68581
722.361	14204.33282
722.555	14008.02124
722.749	13864.31491
722.943	14016.11699
723.137	14099.09622
723.331	14173.97669
723.525	14323.7294
723.719	14115.28685
723.913	14439.07293
724.107	14240.75959
724.301	14354.08347
724.495	13870.38728
724.689	14105.16772
724.883	13805.61401
725.077	14046.4757
725.271	13989.80566
725.465	14072.78616
725.659	14082.90546
725.853	14038.3801
726.046	13807.63822
726.24	13692.25346
726.434	13615.32454
726.628	14008.02124
726.822	13831.9285
727.015	14224.56999
727.209	13819.78341
727.403	13601.1529
727.596	13985.75773
727.79	14258.97274
727.984	14171.95293
728.177	14196.2379
728.371	14074.81002
728.565	14285.28035
728.758	14028.26054
728.952	13985.75773
729.146	13742.86204
729.339	14325.75301
729.533	14232.6648
729.726	14127.42972
729.92	13829.90433
730.113	14060.64292
730.307	13868.36316
730.5	13868.36316
730.694	13724.64318
730.887	13880.50784
731.081	13987.7817
731.274	14192.19042
731.468	13993.85359
731.661	14113.26303
731.854	13852.17009
732.048	14005.9973
732.241	13868.36316
732.435	13969.5659
732.628	13746.91064
732.821	14093.0247
733.014	13943.25382
733.208	13868.36316
733.401	13987.7817
733.594	13856.21837
733.788	13892.65243
733.981	14165.88165
734.174	14145.64389
734.367	13669.98505
734.56	13955.39791
734.754	13920.98941
734.947	14113.26303
735.14	13925.03751
735.333	14107.19155
735.526	14058.61904
735.719	13945.27784
735.912	14178.0242
736.105	14078.85774
736.298	14058.61904
736.491	14048.4996
736.684	13959.44592
736.877	13945.27784
737.07	13724.64318
737.263	13597.10382
737.456	13649.7407
737.649	13759.05637
737.842	13852.17009
738.035	13797.51714
738.228	13625.44704
738.421	13799.54136
738.614	13767.15347
738.807	13611.27552
739	13736.78911
739.192	13329.83256
739.385	13706.42406
739.578	13781.32326
739.771	14044.4518
739.964	13811.68663
740.156	14119.33448
740.349	13499.92186
740.542	13692.25346
740.735	13791.44446
740.927	13597.10382
741.12	13497.89715
741.313	13742.86204
741.505	13700.35096
741.698	13534.34142
741.891	13394.63176
742.083	13635.56946
742.276	13582.93196
742.468	13524.21813
742.661	13289.33092
742.854	13240.7267
743.046	13252.87799
743.239	13303.50668
743.431	13319.7073
743.624	13439.17884
743.816	13633.54498
744.009	13568.75993
744.201	13346.03275
744.393	13593.05474
744.586	13281.23038
744.778	13611.27552
744.971	13505.99597
745.163	13607.22648
745.355	13520.16878
745.548	13457.4021
745.74	13536.36606
745.932	13781.32326
746.125	13659.86292
746.317	13619.37355
746.509	13366.28262
746.702	13637.59393
746.894	13224.52474
747.086	13368.30758
747.278	13293.38116
747.471	13475.62506
747.663	13339.95771
747.855	13179.96787
748.047	13329.83256
748.239	13765.1292
748.431	13212.37308
748.623	13623.42255
748.815	13402.73137
749.008	13582.93196
749.2	13746.91064
749.392	13730.71616
749.584	13471.57554
749.776	13678.0827
749.968	13167.81562
750.16	13410.83091
750.352	13273.12979
750.544	13416.90553
750.736	12963.22709
750.928	13341.98273
751.12	13003.74364
751.311	13200.22126
751.503	13275.15494
751.695	13435.12918
751.887	12961.2012
752.079	13281.23038
752.271	12892.31815
752.463	12870.03115
752.654	12894.34421
752.846	12900.42235
753.038	12803.1662
753.23	13427.02982
753.421	13246.80236
753.613	13001.71786
753.805	13028.05261
753.997	12724.13613
754.188	12821.40269
754.38	12888.26601
754.572	13121.23046
754.763	13275.15494
754.955	12847.74349
755.146	12977.40811
755.338	13015.89821
755.53	12859.90048
755.721	12916.63051
755.913	13048.30954
756.104	12651.17748
756.296	12766.69186
756.487	12667.39118
756.679	12663.33779
756.87	12912.5785
757.062	12724.13613
757.253	12914.60451
757.445	12620.77576
757.636	12663.33779
757.827	12764.66545
758.019	12495.10054
758.21	12484.96438
758.401	12363.31756
758.593	12472.80077
758.784	12158.48907
758.975	12162.54579
759.167	12241.64609
759.358	12387.64886
759.549	12580.238
759.74	12274.0943
759.932	12608.61469
760.123	12411.97918
760.314	12347.09615
760.505	12377.51094
760.696	12103.7203
760.888	12428.19885
761.079	12559.96818
761.27	12324.79099
761.461	12109.80599
761.652	12351.15155
761.843	11947.49694
762.034	12365.34521
762.225	12474.82806
762.416	12628.88302
762.607	12365.34521
762.798	12531.58939
762.989	12284.23399
763.18	12099.66313
763.371	11886.61784
763.562	11925.17546
763.753	11852.11639
763.944	12044.88839
764.135	12168.63083
764.326	12124.00567
764.517	11841.96844
764.708	12160.51743
764.899	11890.67668
765.089	12113.86308
765.28	11925.17546
765.471	12109.80599
765.662	11671.45079
765.853	11612.56711
766.043	11600.38333
766.234	11689.7235
766.425	11529.30461
766.615	12020.54224
766.806	11638.96419
766.997	12126.03416
767.187	11772.95677
767.378	12046.91718
767.569	11537.42847
767.759	11850.08681
767.95	11555.70661
768.141	11500.86991
768.331	11728.29685
768.522	11630.84217
768.712	11766.86703
768.903	11841.96844
769.093	11496.80766
769.284	11502.90102
769.474	11476.49583
769.665	11494.77652
769.855	11332.25394
770.046	11409.45997
770.236	11358.66814
770.426	11362.73171
770.617	11395.23888
770.807	11405.39685
770.998	11273.32381
771.188	11594.29131
771.378	11253.00109
771.569	11378.98561
771.759	11287.54911
771.949	11192.02674
772.139	11651.14693
772.33	11273.32381
772.52	11289.58125
772.71	11291.61338
772.9	11015.1471
773.09	11334.28586
773.281	10986.67601
773.471	11299.74182
773.661	11002.94547
773.851	11047.68284
774.041	10707.94787
774.231	10842.25286
774.421	10966.33817
774.611	10972.43964
774.802	10988.70973
774.992	10783.24641
775.182	10642.81151
775.372	10626.52546
775.562	10748.65181
775.752	11129.00999
775.942	10968.37201
776.131	10893.11264
776.321	10834.11462
776.511	10976.50723
776.701	10663.16796
776.891	10736.44113
777.081	10858.52877
777.271	10543.04703
777.461	10665.20354
777.651	10638.74007
777.84	10435.10443
778.03	10455.47371
778.22	10646.8829
778.41	10659.09677
778.599	10764.93205
778.789	10486.02522
778.979	10726.26524
779.169	10608.20272
779.358	10518.61033
779.548	10437.14141
779.738	10416.77096
779.927	10518.61033
780.117	10141.63983
780.307	10282.29306
780.496	10420.84516
780.686	10532.86529
780.875	10249.6836
781.065	10455.47371
781.254	10321.01232
781.444	10504.35474
781.633	10549.15592
781.823	10475.8417
782.012	10304.71006
782.202	10223.18586
782.391	10011.1197
782.581	10219.10908
782.77	10007.04
782.96	10086.5837
783.149	10096.78005
783.338	10280.25507
783.528	10422.88223
783.717	10339.35134
783.906	10390.28743
784.096	10198.72436
784.285	10174.26089
784.474	9994.80058
784.663	9974.4004
784.853	10147.75655
785.042	9856.05061
785.231	9905.02892
785.42	9841.76366
785.61	9802.98112
785.799	9825.43483
785.988	9945.83771
786.177	9584.47165
786.366	9807.06375
786.555	9602.85777
786.744	9416.89441
786.933	9455.73288
787.122	9539.52243
787.312	9592.64342
787.501	9629.41327
787.69	9406.67279
787.879	9821.35247
788.068	9517.04494
788.257	9465.95256
788.445	9275.79977
788.634	9702.93786
788.823	9423.02719
789.012	9615.11448
789.201	9343.28961
789.39	9455.73288
789.579	9472.08418
789.768	9539.52243
789.957	9682.51637
790.145	9843.8047
790.334	9349.42415
790.523	9384.18378
790.712	9390.31734
790.9	9531.34902
791.089	9226.70485
791.278	9537.4791
791.467	9515.00144
791.655	9798.89843
791.844	9253.29913
792.033	9412.80581
792.221	8985.17863
792.41	9212.38367
792.599	9089.59654
792.787	9218.52142
792.976	9234.88801
793.164	9243.0709
793.353	8968.79522
793.541	9087.54956
793.73	9032.27468
793.918	9277.84518
794.107	9038.41696
794.295	8907.34735
794.484	9062.98451
794.672	9441.42465
794.861	9087.54956
795.049	9028.17974
795.238	8979.03499
795.426	8974.93913
795.614	8927.83175
795.803	9060.93731
795.991	9013.8469
796.179	8761.85649
796.368	9024.08473
796.556	8747.50737
796.744	8562.93805
796.932	8796.70063
797.121	8649.08913
797.309	8716.75623
797.497	8849.98153
797.685	8999.51319
797.874	8595.7614
798.062	8825.39186
798.25	8448.01816
798.438	8833.58871
798.626	8583.45321
798.814	8794.65112
799.002	8626.52894
799.19	8737.25745
799.378	8509.5898
799.566	8686.00095
799.755	8587.55601
799.943	8587.55601
800.131	8907.34735
800.318	8751.60721
800.506	8622.42684
800.694	8794.65112
800.882	8493.17237
801.07	8862.27539
801.258	8579.35033
801.446	8768.00584
801.634	8745.45742
801.822	8829.49032
802.01	8747.50737
802.197	8905.29881
802.385	8359.73536
802.573	8702.40428
802.761	8472.64888
802.949	8751.60721
803.136	8337.14564
803.324	8532.16177
803.512	8370.00264
803.699	8521.90207
803.887	8534.21366
804.075	8768.00584
804.262	8530.10987
804.45	8587.55601
804.638	8591.65875
804.825	8692.15234
805.013	8495.22462
805.201	8696.25317
805.388	8530.10987
805.576	8753.6571
805.763	8735.20741
805.951	8763.90629
806.138	8497.27684
806.326	8610.12011
806.513	8205.66756
806.701	8382.32273
806.888	8441.86005
807.075	8671.64707
807.263	8808.99731
807.45	8720.85662
807.638	8546.52456
807.825	8860.22646
808.012	8558.83479
808.2	8854.07955
808.387	8854.07955
808.574	8739.30747
808.761	8583.45321
808.949	8755.70697
809.136	8587.55601
809.323	8780.30404
809.51	8710.60551
809.698	8925.78339
809.885	8546.52456
810.072	8802.84905
810.259	8841.78526
810.446	8827.4411
810.633	8495.22462
810.82	8690.1019
811.008	8688.05143
811.195	8532.16177
811.382	8523.95405
811.569	8710.60551
811.756	8571.14434
811.943	8784.4033
812.13	8694.20277
812.317	8784.4033
812.504	8772.10531
812.691	9079.36149
812.878	8667.54579
813.064	8929.88009
813.251	8655.24152
813.438	8636.78385
813.625	8698.30356
813.812	8825.39186
813.999	8540.36919
814.186	8536.26552
814.372	8503.43341
814.559	8679.8494
814.746	8538.31737
814.933	8821.29333
815.12	8792.60159
815.306	8581.40178
815.493	8597.8127
815.68	8622.42684
815.866	8671.64707
816.053	8948.31437
816.24	8564.98965
816.426	8712.65577
816.613	8458.28129
816.799	8770.05558
816.986	8501.38124
817.173	8523.95405
817.359	8406.96083
817.546	8647.03829
817.732	8386.42927
817.919	8731.10727
818.105	8521.90207
818.292	8616.27356
818.478	8614.22243
818.665	8772.10531
818.851	8634.7329
819.037	8644.98744
819.224	8484.9632
819.41	8521.90207
819.597	8353.57476
819.783	8610.12011
819.969	8275.52531
820.156	8554.73146
820.342	8427.49046
820.528	8735.20741
820.714	8404.90776
820.901	8474.70131
821.087	8246.76312
821.273	8343.30671
821.459	8154.28695
821.646	8484.9632
821.832	8330.9844
822.018	8546.52456
822.204	8226.21633
822.39	8259.09025
822.576	8166.61943
822.762	8398.74844
822.948	8195.39243
823.134	8400.80157
823.32	8086.44543
823.507	8226.21633
823.693	8096.72585
823.879	8162.50869
824.065	8133.73122
824.25	8263.19913
824.436	8250.87224
824.622	8349.4676
824.808	8308.39168
824.994	8396.69529
825.18	8275.52531
825.366	8456.22871
825.552	8078.22073
825.738	8497.27684
825.923	8098.78188
826.109	8287.85079
826.295	7847.79683
826.481	8261.1447
826.667	8004.18384
826.852	8197.4475
827.038	7835.44541
827.224	8004.18384
827.409	8121.39682
827.595	8160.45328
827.781	7868.38087
827.966	8242.65392
828.152	7971.27011
828.338	7946.58138
828.523	7798.38667
828.709	7666.5673
828.894	7783.97311
829.08	7602.68619
829.266	7623.29523
829.451	7849.85533
829.637	7559.40026
829.822	7701.59022
830.008	7373.78164
830.193	7514.04296
830.378	7522.29051
830.564	7958.92611
830.749	7594.44197
830.935	7693.35008
831.12	7262.32589
831.305	7602.68619
831.491	7468.67525
831.676	7767.49922
831.861	7530.53772
832.047	7617.11274
832.232	7464.5504
832.417	7639.78093
832.602	7377.90841
832.788	7445.98748
832.973	7402.66717
833.158	7437.73673
833.343	7121.88274
833.528	7338.70061
833.714	7361.40082
833.899	7487.23603
834.084	7412.9824
834.269	7610.93006
834.454	7328.38146
834.639	7229.28965
834.824	7115.68435
835.009	7309.8056
835.194	7229.28965
835.379	7532.59947
835.564	6973.06586
835.749	7406.79333
835.934	7241.6789
836.119	7493.42257
836.304	7012.34828
836.489	7247.87323
836.674	7026.8187
836.859	7254.06736
837.044	6981.33652
837.228	7322.1897
837.413	7167.33145
837.598	7198.31304
837.783	6958.59133
837.968	7239.61408
838.152	6923.43432
838.337	7123.94882
838.522	7030.95291
838.707	7237.54924
838.891	6774.46132
839.076	6933.77529
839.261	6869.65211
839.445	6863.44548
839.63	6496.88986
839.815	6826.20142
839.999	6552.85176
840.184	6935.84342
840.368	6890.33939
840.553	7074.35664
840.737	6604.6533
840.922	6770.3215
841.106	6857.23865
841.291	6751.69115
841.475	6625.36987
841.66	6691.64743
841.844	6521.7639
842.029	6844.82437
842.213	6519.69119
842.397	6496.88986
842.582	6310.22782
842.766	6376.61817
842.951	6214.74974
843.135	6588.07838
843.319	6389.0637
843.504	6393.21202
843.688	6229.28221
843.872	6581.8624
844.056	6538.34474
844.241	6378.69248
844.425	6623.29832
844.609	6430.54274
844.793	6270.79723
844.977	6476.15894
845.161	6293.62649
845.346	6498.96282
845.53	6301.92734
845.714	6268.7217
845.898	5982.0737
846.082	6029.87946
846.266	6241.7377
846.45	6337.20178
846.634	6081.82813
846.818	6393.21202
847.002	6139.99317
847.186	6247.96513
847.37	5921.77909
847.554	6210.5974
847.738	6293.62649
847.922	6455.4257
848.106	6272.87273
848.29	6370.39509
848.473	6233.43414
848.657	6206.44496
848.841	6077.67278
849.025	6148.30096
849.209	5882.26497
849.392	5903.06293
849.576	5946.73098
849.76	6042.34848
849.944	5667.90859
850.127	5992.46731
850.311	5711.63264
850.495	6142.07016
850.678	5996.6246
850.862	6335.127
851.046	5948.81016
851.229	6023.64464
851.413	5834.42069
851.596	5886.42475
851.78	5622.09128
851.964	5873.94512
852.147	5555.42755
852.331	5928.01738
852.514	5436.62303
852.698	5582.5126
852.881	5436.62303
853.065	5744.93921
853.248	5547.09289
853.431	5686.64874
853.615	5669.99092
853.798	5769.91518
853.982	5532.50632
854.165	5553.34392
854.348	5457.47146
854.532	5692.89503
854.715	5526.25458
854.898	5765.75275
855.081	5605.42761
855.265	5638.75344
855.448	5444.96269
855.631	5469.97939
855.814	5430.36805
855.997	5582.5126
856.181	5346.94802
856.364	5553.34392
856.547	5319.82844
856.73	5480.40201
856.913	5223.83505
857.096	5444.96269
857.279	5096.46335
857.462	5401.17531
857.645	5246.79449
857.828	5336.51788
858.011	5179.99556
858.194	5336.51788
858.377	5040.05813
858.56	5230.097
858.743	4937.65007
858.926	5086.01922
859.109	4908.38048
859.292	5246.79449
859.475	5146.58714
859.658	4927.19716
859.841	4887.47087
860.023	4981.54601
860.206	4713.83317
860.389	5086.01922
860.572	4621.72107
860.755	4854.01075
860.937	4801.71761
861.12	4851.9193
861.303	4701.27499
861.486	4881.19755
861.668	4533.7555
861.851	4600.78045
862.034	4661.50209
862.216	4648.94054
862.399	4271.72355
862.581	4542.13486
862.764	4512.80554
862.947	4667.78256
863.129	4418.50344
863.312	4828.91182
863.494	4636.37818
863.677	5010.80433
863.859	4625.90893
864.042	4797.53354
864.224	4382.86667
864.406	4600.78045
864.589	4527.47074
864.771	4621.72107
864.954	4470.89899
865.136	4864.46767
865.318	4516.99571
865.501	4516.99571
865.683	4575.64876
865.865	4516.99571
866.048	4196.19574
866.23	4366.09424
866.412	4324.1571
866.594	4416.40734
866.777	4198.2941
866.959	4546.32441
867.141	4340.933
867.323	4525.37578
867.505	4399.6377
867.687	4326.25416
867.869	4248.64854
868.052	4441.55917
868.234	4101.74741
868.416	4326.25416
868.598	4141.63078
868.78	4191.99894
868.962	4240.25698
869.144	4284.30883
869.326	4005.1566
869.508	4114.34298
869.69	4435.27151
869.872	4391.25236
870.054	4084.95216
870.236	4374.48063
870.417	4248.64854
870.599	4118.54133
870.781	3961.04634
870.963	4158.42152
871.145	4057.65704
871.327	4248.64854
871.508	3996.75534
871.69	3954.74414
871.872	3990.45418
872.054	4217.17845
872.235	3841.27351
872.417	3927.43249
872.599	3742.46492
872.78	4093.34995
872.962	3952.64336
873.144	4160.52026
873.325	3961.04634
873.507	4124.83871
873.689	4141.63078
873.87	4175.2109
874.052	3937.93737
874.233	4114.34298
874.415	3891.71212
874.596	4122.7396
874.778	3891.71212
874.959	3958.94562
875.141	3832.86596
875.322	3992.55459
875.503	3727.74506
875.685	3912.72481
875.866	3696.19931
876.048	3841.27351
876.229	3628.88734
876.41	3803.43705
876.592	3626.78352
876.773	3912.72481
876.954	3725.64214
877.136	4126.93779
877.317	3961.04634
877.498	4051.35767
877.679	3940.03829
877.86	3906.42121
878.042	3866.49425
878.223	3973.65019
878.404	3797.13035
878.585	4173.1123
878.766	3769.79928
878.947	4105.94602
879.128	3734.05369
879.309	3954.74414
879.49	3849.68074
879.672	4133.23491
879.853	4066.05591
880.034	4183.60509
880.215	3946.34092
880.396	4179.40804
880.576	3887.50934
880.757	3933.73548
880.938	3660.44225
881.119	3965.2477
881.3	3883.30648
881.481	3979.95184
881.662	3746.67042
881.843	4034.55843
882.023	3898.01614
882.204	4091.25054
882.385	3879.10354
882.566	3834.96788
882.747	3752.97853
882.927	4108.04529
883.108	3698.3025
883.289	3933.73548
883.469	3654.13161
883.65	3967.34835
883.831	3849.68074
884.011	4196.19574
884.192	4034.55843
884.373	4003.05632
884.553	3778.20919
884.734	3906.42121
884.914	3660.44225
885.095	4021.95814
885.275	3679.37315
885.456	4185.70358
885.636	4007.25687
885.817	4103.84673
885.997	4047.15798
886.178	4143.7297
886.358	3967.34835
886.538	4168.91504
886.719	3900.11744
886.899	4068.15558
887.08	4076.55404
887.26	4133.23491
887.44	3851.7825
887.621	4131.13589
887.801	3784.51642
887.981	4133.23491
888.161	3752.97853
888.342	4177.30948
888.522	3933.73548
888.702	4185.70358
888.882	4030.35842
889.062	3950.54257
889.242	3820.25404
889.423	3967.34835
889.603	3824.45809
889.783	4278.01628
889.963	3782.41403
890.143	4240.25698
890.323	4030.35842
890.503	4294.79597
890.683	4030.35842
890.863	4072.35485
891.043	3658.33872
891.223	4059.75679
891.403	3906.42121
891.583	4221.37474
891.763	3929.53351
891.943	4166.81638
892.122	3767.69676
892.302	3971.5496
892.482	3752.97853
892.662	4013.55754
892.842	3937.93737
893.022	3973.65019
893.201	3588.91169
893.381	3948.44175
893.561	3643.61349
893.741	3956.84489
893.92	3584.70334
894.1	3828.66206
894.28	3511.04512
894.459	3828.66206
894.639	3763.49165
894.819	3916.9271
894.998	3811.8457
895.178	3696.19931
895.357	3553.1383
895.537	3866.49425
895.716	3532.09263
895.896	3717.23029
896.075	3551.03381
896.255	3750.87584
896.434	3475.26017
896.614	3586.80752
896.793	3348.91898
896.973	3708.81813
897.152	3361.55596
897.331	3601.53631
897.511	3382.61618
897.69	3504.73051
897.87	3336.28138
898.049	3601.53631
898.228	3315.21733
898.407	3529.98796
898.587	3201.44209
898.766	3384.72211
898.945	3022.25486
899.124	3399.4631
899.304	3292.04489
899.483	3458.41838
899.662	3144.53631
899.841	3327.85597
900.02	3150.85976
900.199	3441.57544
900.378	3224.62249
900.557	3294.15156
900.737	3471.04983
900.916	3237.2655
901.095	2996.94872
901.274	3121.34909
901.453	2948.43921
901.632	3186.68988
901.811	2929.45509
901.989	3188.79739
902.168	2800.75414
902.347	3180.36726
902.526	2813.41558
902.705	3024.3636
902.884	2927.34567
903.063	2897.81224
903.242	2726.88604
903.42	3053.88442
903.599	2551.65
903.778	2750.1035
903.957	2684.66842
904.135	2971.6404
904.314	2606.55238
904.493	2847.17695
904.672	2621.3324
904.85	2726.88604
905.029	2595.99486
905.207	2707.88875
905.386	2488.29126
905.565	2602.32941
905.743	2467.16941
905.922	2526.30774
906.1	2431.25977
906.279	2627.66651
906.457	2473.50608
906.636	2718.44293
906.814	2353.09293
906.993	2513.63599
907.171	2103.71784
907.35	2331.96437
907.528	2057.21151
907.707	2291.81743
907.885	2048.75544
908.063	2260.12008
908.242	2006.47344
908.42	2145.99315
908.598	2059.32551
908.777	2044.52736
908.955	1974.76022
909.133	2033.95705
909.311	1907.10077
909.49	2048.75544
909.668	2074.12331
909.846	2285.47813
910.024	1983.21721
910.202	2069.8954
910.38	1833.09188
910.559	2000.13091
910.737	2014.93006
910.915	2222.08056
911.093	1924.01619
911.271	2243.21398
911.449	2006.47344
911.627	2141.76576
911.805	1932.47376
911.983	2143.87946
912.161	2103.71784
912.339	2291.81743
912.517	2238.98737
912.695	2369.99506
912.872	1945.15995
913.05	2213.62694
913.228	1993.78832
913.406	2241.10068
913.584	2059.32551
913.762	2253.78036
913.939	2078.35119
914.117	2192.4923
914.295	2048.75544
914.473	2255.89361
914.65	2165.01601
914.828	2323.51267
915.006	2000.13091
915.184	2236.87405
915.361	1955.73161
915.539	2175.58398
915.716	2040.29926
915.894	2091.03465
916.072	1932.47376
916.249	2120.62833
916.427	1957.84592
916.604	2217.85377
916.782	1843.66495
916.959	2074.12331
917.137	1786.56903
917.314	2110.05933
917.492	1807.71604
917.669	1896.52846
917.847	1754.84776
918.024	1926.13059
918.201	1801.37199
918.379	1921.90178
918.556	1685.05812
918.733	1824.63334
918.911	1685.05812
919.088	1608.92038
919.265	1600.46045
919.442	1655.44938
919.62	1577.1955
919.797	1871.15437
919.974	1659.67923
920.151	1742.15901
920.328	1661.79415
920.506	1843.66495
920.683	1816.17473
920.86	1830.97725
921.037	1594.11548
921.214	1892.2995
921.391	1543.35523
921.568	1782.33958
921.745	1710.43658
921.922	1750.61819
922.099	1608.92038
922.276	1756.96254
922.453	1399.5321
922.63	1625.84014
922.807	1376.26667
922.984	1528.55001
923.161	1380.49674
923.338	1649.10458
923.514	1448.17823
923.691	1469.32875
923.868	1355.11638
924.045	1365.69151
924.222	1348.77131
924.399	1287.43646
924.575	1249.36744
924.752	1382.61177
924.929	1327.6212
925.105	1386.84185
925.282	1190.15079
925.459	1300.1263
925.635	1234.56305
925.812	1465.09865
925.989	1300.1263
926.165	1452.40834
926.342	1223.98858
926.518	1355.11638
926.695	1145.74011
926.871	1306.47125
927.048	1035.77941
927.224	1133.05168
927.401	1010.40594
927.577	1219.75881
927.754	1097.10198
927.93	1118.2487
928.107	1196.49531
928.283	1173.23224
928.459	1143.62536
928.636	1204.95472
928.812	932.17695
928.988	1128.82223
929.165	847.61653
929.341	1158.4287
929.517	915.26385
929.693	1027.32149
929.87	845.50269
930.046	1069.612
930.222	807.4551
930.398	923.72034
930.574	731.36923
930.751	875.09723
930.927	815.90986
931.103	982.91902
931.279	815.90986
931.455	881.43914
931.631	703.89708
931.807	885.66711
931.983	870.86934
932.159	887.78111
932.335	729.25593
932.511	858.18586
932.687	777.86462
932.863	923.72034
933.039	706.01026
933.215	737.70922
933.391	610.92877
933.566	680.65288
933.742	659.52298
933.918	706.01026
934.094	596.14053
934.27	653.18424
934.445	515.8729
934.621	653.18424
934.797	632.05589
934.973	469.41147
935.148	408.17811
935.324	534.88186
935.5	410.28938
935.675	458.85306
935.851	391.28851
936.027	441.9604
936.202	365.95611
936.378	427.18015
936.553	416.6233
936.729	389.17739
936.904	283.64305
937.08	243.55189
937.255	241.44201
937.431	289.97385
937.606	205.57721
937.782	292.08415
937.957	180.26435
938.133	247.77168
938.308	146.51847
938.483	167.60902
938.659	173.93659
938.834	190.81102
939.009	173.93659
939.185	237.22233
939.36	161.28164
939.535	266.76173
939.71	74.82672
939.886	133.86516
940.061	140.19172
940.236	138.08285
940.411	171.82738
940.586	100.12679
940.761	121.21262
940.937	146.51847
941.112	114.88664
941.287	142.30062
941.462	138.08285
941.637	159.17255
941.812	81.15143
941.987	163.39074
942.162	108.56086
942.337	38.99053
942.512	150.73642
942.687	104.34378
942.862	110.66943
943.037	79.04317
943.212	121.21262
943.386	129.64756
943.561	125.43005
943.736	129.64756
943.911	53.7458
944.086	142.30062
944.26	121.21262
944.435	20.02115
944.61	91.69308
944.785	116.99528
944.959	38.99053
945.134	125.43005
945.309	114.88664
945.483	55.85379
945.658	85.36802
945.833	154.95444
946.007	100.12679
946.182	5.26851
946.357	57.9618
946.531	89.5847
946.706	114.88664
946.88	72.71852
947.055	74.82672
947.229	45.31408
947.404	163.39074
947.578	60.06984
947.752	74.82672
947.927	138.08285
948.101	197.13926
948.276	64.28597
948.45	70.61035
948.624	22.12877
948.799	133.86516
948.973	47.42198
949.147	30.55946
949.321	32.66719
949.496	38.99053
949.67	62.17789
949.844	140.19172
950.018	41.09836
950.193	116.99528
950.367	157.06349
950.541	55.85379
950.715	62.17789
950.889	66.39408
951.063	146.51847
951.237	121.21262
951.411	22.12877
951.585	62.17789
951.759	142.30062
951.933	43.20621
952.107	121.21262
952.281	57.9618
952.455	184.48295
952.629	218.23472
952.803	176.04582
952.977	72.71852
953.151	148.62743
953.325	83.25972
953.499	57.9618
953.672	74.82672
953.846	138.08285
954.02	127.53879
954.194	140.19172
954.368	91.69308
954.541	138.08285
954.715	60.06984
954.889	79.04317
955.062	95.90989
955.236	24.2364
955.41	127.53879
955.583	34.77495
955.757	146.51847
955.93	112.77803
956.104	32.66719
956.278	146.51847
956.451	165.49987
956.625	138.08285
956.798	154.95444
956.972	87.47635
957.145	157.06349
957.319	142.30062
957.492	106.45231
957.665	83.25972
957.839	154.95444
958.012	49.5299
958.185	95.90989
958.359	89.5847
958.532	165.49987
958.705	150.73642
958.879	154.95444
959.052	106.45231
959.225	123.32132
959.398	129.64756
959.572	24.2364
959.745	192.92041
959.918	129.64756
960.091	125.43005
960.264	121.21262
960.438	81.15143
960.611	95.90989
960.784	70.61035
960.957	133.86516
961.13	110.66943
961.303	91.69308
961.476	70.61035
961.649	72.71852
961.822	53.7458
961.995	57.9618
962.168	72.71852
962.341	112.77803
962.514	129.64756
962.686	81.15143
962.859	47.42198
963.032	112.77803
963.205	108.56086
963.378	135.97399
963.551	20.02115
963.723	87.47635
963.896	62.17789
964.069	188.70164
964.242	55.85379
964.414	106.45231
964.587	186.59229
964.76	72.71852
964.932	79.04317
965.105	95.90989
965.278	57.9618
965.45	79.04317
965.623	76.93493
965.795	47.42198
965.968	102.23527
966.14	15.80599
966.313	79.04317
966.485	70.61035
966.658	89.5847
966.83	95.90989
967.003	49.5299
967.175	121.21262
967.348	104.34378
967.52	138.08285
967.692	165.49987
967.865	95.90989
968.037	93.80147
968.209	123.32132
968.382	7.37596
968.554	142.30062
968.726	74.82672
968.898	110.66943
969.071	121.21262
969.243	108.56086
969.415	22.12877
969.587	22.12877
969.759	36.88273
969.932	64.28597
970.104	133.86516
970.276	15.80599
970.448	51.63784
970.62	89.5847
970.792	89.5847
970.964	45.31408
971.136	110.66943
971.308	62.17789
971.48	104.34378
971.652	104.34378
971.824	79.04317
971.996	85.36802
972.168	70.61035
972.339	13.69845
972.511	-26.3403
972.683	110.66943
972.855	72.71852
973.027	72.71852
973.199	83.25972
973.37	87.47635
973.542	95.90989
973.714	125.43005
973.886	32.66719
974.057	55.85379
974.229	104.34378
974.401	146.51847
974.572	28.45175
974.744	110.66943
974.915	45.31408
975.087	95.90989
975.259	112.77803
975.43	81.15143
975.602	49.5299
975.773	79.04317
975.945	55.85379
976.116	66.39408
976.288	-36.87534
976.459	116.99528
976.63	-45.30293
976.802	87.47635
976.973	89.5847
977.145	38.99053
977.316	-9.48295
977.487	70.61035
977.659	53.7458
977.83	53.7458
978.001	45.31408
978.172	81.15143
978.344	72.71852
978.515	36.88273
978.686	66.39408
978.857	74.82672
979.028	83.25972
979.2	-1.05368
979.371	79.04317
979.542	5.26851
979.713	45.31408
979.884	74.82672
980.055	-24.23321
980.226	66.39408
980.397	70.61035
980.568	3.16109
980.739	11.59093
980.91	55.85379
981.081	22.12877
981.252	79.04317
981.423	15.80599
981.594	30.55946
981.765	-1.05368
981.936	89.5847
982.106	108.56086
982.277	22.12877
982.448	89.5847
982.619	70.61035
982.79	24.2364
982.96	72.71852
983.131	28.45175
983.302	3.16109
983.472	93.80147
983.643	62.17789
983.814	-13.69743
983.984	-79.00925
984.155	22.12877
984.326	53.7458
984.496	15.80599
984.667	62.17789
984.837	3.16109
985.008	74.82672
985.178	55.85379
985.349	30.55946
985.519	32.66719
985.69	64.28597
985.86	45.31408
986.031	55.85379
986.201	22.12877
986.371	28.45175
986.542	112.77803
986.712	-34.76838
986.882	91.69308
987.053	123.32132
987.223	15.80599
987.393	47.42198
987.563	22.12877
987.734	15.80599
987.904	83.25972
988.074	7.37596
988.244	62.17789
988.414	-24.23321
988.585	38.99053
988.755	83.25972
988.925	83.25972
989.095	74.82672
989.265	11.59093
989.435	51.63784
989.605	72.71852
989.775	20.02115
989.945	51.63784
990.115	15.80599
990.285	83.25972
990.455	-3.16104
990.625	57.9618
990.795	74.82672
990.965	62.17789
991.134	-1.05368
991.304	24.2364
991.474	11.59093
991.644	-13.69743
991.814	38.99053
991.984	-13.69743
992.153	66.39408
992.323	66.39408
992.493	57.9618
992.662	-13.69743
992.832	-55.83685
993.002	121.21262
993.171	-5.26836
993.341	47.42198
993.511	87.47635
993.68	79.04317
993.85	-7.37567
994.019	-13.69743
994.189	68.5022
994.358	15.80599
994.528	60.06984
994.697	-5.26836
994.867	41.09836
995.036	-13.69743
995.206	-9.48295
995.375	-30.55439
995.544	9.48343
995.714	-11.5902
995.883	57.9618
996.052	3.16109
996.222	53.7458
996.391	34.77495
996.56	70.61035
996.73	87.47635
996.899	11.59093
997.068	-28.44736
997.237	30.55946
997.406	-34.76838
997.576	3.16109
997.745	66.39408
997.914	-3.16104
998.083	-24.23321
998.252	15.80599
998.421	57.9618
998.59	3.16109
998.759	-38.98228
998.928	30.55946
999.097	9.48343
999.266	13.69845
999.435	-55.83685
999.604	-17.91182
999.773	-47.40976
999.942	20.02115
1000.111	-28.44736
1000.28	30.55946
1000.448	38.99053
1000.617	-13.69743
1000.786	41.09836
1000.955	53.7458
1001.124	-34.76838
1001.292	24.2364
1001.461	-5.26836
1001.63	70.61035
1001.798	51.63784
1001.967	-38.98228
1002.136	30.55946
1002.304	74.82672
1002.473	62.17789
1002.642	66.39408
1002.81	-20.01897
1002.979	121.21262
1003.147	24.2364
1003.316	32.66719
1003.484	36.88273
1003.653	-5.26836
1003.821	36.88273
1003.99	36.88273
1004.158	-30.55439
1004.327	17.91356
1004.495	36.88273
1004.663	26.34407
1004.832	-9.48295
1005	15.80599
1005.168	32.66719
1005.337	70.61035
1005.505	3.16109
1005.673	5.26851
1005.842	-17.91182
1006.01	-9.48295
1006.178	-3.16104
1006.346	36.88273
1006.514	-38.98228
1006.683	11.59093
1006.851	-15.80464
1007.019	79.04317
1007.187	22.12877
1007.355	-17.91182
1007.523	-26.3403
1007.691	-22.12611
1007.859	-26.3403
1008.027	32.66719
1008.195	15.80599
1008.363	45.31408
1008.531	-87.4348
1008.699	-3.16104
1008.867	30.55946
1009.035	32.66719
1009.203	11.59093
1009.37	41.09836
1009.538	81.15143
1009.706	60.06984
1009.874	-26.3403
1010.042	15.80599
1010.209	-38.98228
1010.377	81.15143
1010.545	3.16109
1010.713	-30.55439
1010.88	3.16109
1011.048	28.45175
1011.216	-13.69743
1011.383	11.59093
1011.551	3.16109
1011.718	-70.58328
1011.886	-47.40976
1012.054	70.61035
1012.221	22.12877
1012.389	79.04317
1012.556	79.04317
1012.724	70.61035
1012.891	-22.12611
1013.058	-43.19607
1013.226	-26.3403
1013.393	-47.40976
1013.561	45.31408
1013.728	-11.5902
1013.895	13.69845
1014.063	64.28597
1014.23	28.45175
1014.397	76.93493
1014.565	34.77495
1014.732	-53.73012
1014.899	-47.40976
1015.066	28.45175
1015.233	-24.23321
1015.401	11.59093
1015.568	34.77495
1015.735	-17.91182
1015.902	-41.08919
1016.069	32.66719
1016.236	-30.55439
1016.403	-102.17852
1016.57	-55.83685
1016.737	11.59093
1016.904	-36.87534
1017.071	1.05369
1017.238	68.5022
1017.405	55.85379
1017.572	-38.98228
1017.739	-38.98228
1017.906	15.80599
1018.073	45.31408
1018.24	79.04317
1018.407	-45.30293
1018.573	-17.91182
1018.74	62.17789
1018.907	3.16109
1019.074	11.59093
1019.241	7.37596
1019.407	5.26851
1019.574	-11.5902
1019.741	-70.58328
1019.907	-5.26836
1020.074	11.59093
1020.241	11.59093
1020.407	-5.26836
1020.574	17.91356
1020.74	49.5299
1020.907	22.12877
1021.073	20.02115
1021.24	45.31408
1021.406	-5.26836
1021.573	38.99053
1021.739	62.17789
1021.906	-36.87534
1022.072	3.16109
1022.239	11.59093
1022.405	-17.91182
1022.571	-20.01897
1022.738	-36.87534
1022.904	15.80599
1023.07	-55.83685
1023.237	-45.30293
1023.403	-17.91182
1023.569	-7.37567
1023.735	-38.98228
1023.902	32.66719
1024.068	-5.26836
1024.234	13.69845
1024.4	-38.98228
1024.566	11.59093
1024.732	15.80599
1024.898	-13.69743
1025.065	-13.69743
1025.231	-38.98228
1025.397	-3.16104
1025.563	-9.48295
1025.729	-114.81498
1025.895	38.99053
1026.061	47.42198
1026.227	66.39408
1026.392	-3.16104
1026.558	24.2364
1026.724	11.59093
1026.89	32.66719
1027.056	-24.23321
1027.222	30.55946
1027.388	-5.26836
1027.553	-1.05368
1027.719	45.31408
1027.885	24.2364
1028.051	-3.16104
1028.216	-20.01897
1028.382	32.66719
1028.548	1.05369
1028.713	-13.69743
1028.879	-45.30293
1029.045	17.91356
1029.21	-20.01897
1029.376	5.26851
1029.541	-45.30293
1029.707	64.28597
1029.873	-28.44736
1030.038	15.80599
1030.204	47.42198
1030.369	11.59093
1030.534	15.80599
1030.7	-36.87534
1030.865	3.16109
1031.031	15.80599
1031.196	5.26851
1031.361	20.02115
1031.527	62.17789
1031.692	-7.37567
1031.857	7.37596
1032.023	20.02115
1032.188	43.20621
1032.353	-9.48295
1032.518	30.55946
1032.684	47.42198
1032.849	70.61035
1033.014	57.9618
1033.179	20.02115
1033.344	20.02115
1033.509	-5.26836
1033.674	-3.16104
1033.839	-43.19607
1034.004	-5.26836
1034.17	11.59093
1034.335	-5.26836
1034.5	64.28597
1034.664	38.99053
1034.829	-45.30293
1034.994	89.5847
1035.159	20.02115
1035.324	-76.90279
1035.489	24.2364
1035.654	7.37596
1035.819	-20.01897
1035.984	41.09836
1036.148	5.26851
1036.313	-64.26353
1036.478	-51.62336
1036.643	30.55946
1036.807	-43.19607
1036.972	-7.37567
1037.137	-20.01897
1037.301	-22.12611
1037.466	20.02115
1037.631	20.02115
1037.795	3.16109
1037.96	13.69845
1038.124	-72.68981
1038.289	36.88273
1038.454	-68.47672
1038.618	7.37596
1038.783	-5.26836
1038.947	45.31408
1039.111	-22.12611
1039.276	38.99053
1039.44	-68.47672
1039.605	32.66719
1039.769	-11.5902
1039.933	3.16109
1040.098	1.05369
1040.262	11.59093
1040.426	64.28597
1040.591	20.02115
1040.755	-38.98228
1040.919	49.5299
1041.083	-11.5902
1041.248	-3.16104
1041.412	-106.39078
1041.576	24.2364
1041.74	-70.58328
1041.904	70.61035
1042.068	-43.19607
1042.232	-26.3403
1042.397	49.5299
1042.561	3.16109
1042.725	-57.94356
1042.889	7.37596
1043.053	-22.12611
1043.217	70.61035
1043.381	-30.55439
1043.544	-47.40976
1043.708	-20.01897
1043.872	-49.51657
1044.036	38.99053
1044.2	28.45175
1044.364	-28.44736
1044.528	7.37596
1044.691	5.26851
1044.855	15.80599
1045.019	-26.3403
1045.183	-13.69743
1045.346	68.5022
1045.51	-72.68981
1045.674	22.12877
1045.837	-62.1569
1046.001	3.16109
1046.165	22.12877
1046.328	5.26851
1046.492	68.5022
1046.655	-20.01897
1046.819	43.20621
1046.983	-3.16104
1047.146	-30.55439
1047.31	-38.98228
1047.473	-60.05024
1047.636	45.31408
1047.8	26.34407
1047.963	-11.5902
1048.127	-3.16104
1048.29	28.45175
