Data from mixed_try1_USB4F045381__7__00111.txt Node

Date: Thu Apr 03 19:59:08 EDT 2025
User: mmckonesweet
Spectrometer: USB4F04538
Trigger mode: 4
Integration Time (sec): 2.700000E-3
Scans to average: 1
Electric dark correction enabled: true
Nonlinearity correction enabled: true
Boxcar width: 0
XAxis mode: Wavelengths
Number of Pixels in Spectrum: 3648
>>>>>Begin Spectral Data<<<<<
345.52	43.55752
345.736	43.55752
345.952	43.55752
346.168	-34.41722
346.384	22.48004
346.6	-17.56062
346.816	-9.13173
347.032	26.69535
347.248	-2.80981
347.464	18.26482
347.68	-32.31023
347.896	39.34183
348.112	-15.45344
348.328	-11.23899
348.544	-15.45344
348.76	-28.09618
348.975	47.77329
349.191	22.48004
349.407	-11.23899
349.623	-23.88203
349.839	89.9361
350.055	58.31314
350.27	7.72721
350.486	-34.41722
350.702	5.61975
350.918	58.31314
351.133	14.04971
351.349	96.26129
351.565	-53.37899
351.781	-15.45344
351.996	-59.69913
352.212	51.98916
352.428	35.12624
352.644	-9.13173
352.859	30.91075
353.075	22.48004
353.291	33.01848
353.506	22.48004
353.722	43.55752
353.938	-21.77492
354.153	9.83468
354.369	14.04971
354.584	1.40492
354.8	14.04971
355.016	5.61975
355.231	-36.52418
355.447	30.91075
355.662	22.48004
355.878	64.63732
356.093	-7.02445
356.309	-34.41722
356.524	18.26482
356.74	35.12624
356.955	-9.13173
357.171	14.04971
357.386	-78.65817
357.602	45.6654
357.817	83.6111
358.033	26.69535
358.248	81.50281
358.464	-23.88203
358.679	35.12624
358.895	16.15725
359.11	-34.41722
359.325	14.04971
359.541	39.34183
359.756	-34.41722
359.972	-19.66778
360.187	41.44967
360.402	24.58768
360.618	16.15725
360.833	-44.95179
361.048	-19.66778
361.264	-9.13173
361.479	-32.31023
361.694	-53.37899
361.909	-17.56062
362.125	9.83468
362.34	7.72721
362.555	132.10782
362.77	22.48004
362.986	73.06989
363.201	-15.45344
363.416	18.26482
363.631	77.2863
363.847	39.34183
364.062	-17.56062
364.277	22.48004
364.492	14.04971
364.707	22.48004
364.922	-0.70246
365.138	18.26482
365.353	64.63732
365.568	73.06989
365.783	-2.80981
365.998	-17.56062
366.213	16.15725
366.428	-51.27223
366.643	64.63732
366.858	-25.98912
367.073	56.20513
367.288	106.80373
367.503	-40.73804
367.718	18.26482
367.933	24.58768
368.148	-70.23219
368.363	-17.56062
368.578	-36.52418
368.793	-0.70246
369.008	73.06989
369.223	64.63732
369.438	18.26482
369.653	66.74543
369.868	-53.37899
370.083	68.85356
370.298	24.58768
370.513	24.58768
370.728	-2.80981
370.943	-15.45344
371.157	14.04971
371.372	-4.91714
371.587	56.20513
371.802	3.51233
372.017	81.50281
372.232	14.04971
372.446	-36.52418
372.661	24.58768
372.876	-53.37899
373.091	30.91075
373.306	7.72721
373.52	26.69535
373.735	14.04971
373.95	-9.13173
374.165	51.98916
374.379	-53.37899
374.594	43.55752
374.809	-7.02445
375.023	47.77329
375.238	68.85356
375.453	-25.98912
375.667	68.85356
375.882	89.9361
376.097	-32.31023
376.311	7.72721
376.526	7.72721
376.741	64.63732
376.955	-15.45344
377.17	-47.05863
377.384	14.04971
377.599	-19.66778
377.813	62.52924
378.028	-36.52418
378.242	30.91075
378.457	39.34183
378.672	-17.56062
378.886	-2.80981
379.101	-2.80981
379.315	18.26482
379.53	-47.05863
379.744	-28.09618
379.958	-17.56062
380.173	39.34183
380.387	-28.09618
380.602	-4.91714
380.816	39.34183
381.031	-15.45344
381.245	-25.98912
381.459	-9.13173
381.674	-63.91243
381.888	-42.84492
382.103	43.55752
382.317	37.23403
382.531	56.20513
382.746	79.39455
382.96	47.77329
383.174	-42.84492
383.388	22.48004
383.603	5.61975
383.817	-0.70246
384.031	-0.70246
384.246	33.01848
384.46	-21.77492
384.674	26.69535
384.888	5.61975
385.103	-9.13173
385.317	-13.34623
385.531	68.85356
385.745	-51.27223
385.959	26.69535
386.174	35.12624
386.388	-4.91714
386.602	-44.95179
386.816	51.98916
387.03	45.6654
387.244	64.63732
387.458	35.12624
387.672	26.69535
387.887	41.44967
388.101	62.52924
388.315	-9.13173
388.529	-9.13173
388.743	75.17808
388.957	5.61975
389.171	60.42118
389.385	-44.95179
389.599	68.85356
389.813	7.72721
390.027	14.04971
390.241	-9.13173
390.455	60.42118
390.669	-44.95179
390.883	-4.91714
391.097	47.77329
391.311	64.63732
391.525	79.39455
391.738	-30.20322
391.952	-9.13173
392.166	-9.13173
392.38	5.61975
392.594	-11.23899
392.808	-44.95179
393.022	-82.87101
393.236	49.88122
393.449	81.50281
393.663	39.34183
393.877	-2.80981
394.091	-21.77492
394.305	-7.02445
394.518	28.80304
394.732	18.26482
394.946	56.20513
395.16	24.58768
395.373	16.15725
395.587	75.17808
395.801	-0.70246
396.015	16.15725
396.228	51.98916
396.442	-7.02445
396.656	14.04971
396.869	75.17808
397.083	56.20513
397.297	-0.70246
397.51	115.23808
397.724	11.94218
397.938	-53.37899
398.151	5.61975
398.365	-40.73804
398.578	11.94218
398.792	51.98916
399.005	5.61975
399.219	-0.70246
399.433	9.83468
399.646	26.69535
399.86	-11.23899
400.073	-59.69913
400.287	-23.88203
400.5	39.34183
400.714	-11.23899
400.927	24.58768
401.141	5.61975
401.354	-7.02445
401.567	-17.56062
401.781	-57.59244
401.994	-32.31023
402.208	24.58768
402.421	-19.66778
402.635	-28.09618
402.848	73.06989
403.061	22.48004
403.275	37.23403
403.488	-32.31023
403.701	54.09713
403.915	-13.34623
404.128	56.20513
404.341	18.26482
404.555	58.31314
404.768	100.4782
404.981	22.48004
405.195	30.91075
405.408	56.20513
405.621	-9.13173
405.834	-2.80981
406.048	35.12624
406.261	-42.84492
406.474	-28.09618
406.687	5.61975
406.9	-76.55171
407.114	-2.80981
407.327	-11.23899
407.54	-53.37899
407.753	3.51233
407.966	-0.70246
408.179	37.23403
408.392	-7.02445
408.605	85.71941
408.819	-15.45344
409.032	66.74543
409.245	5.61975
409.458	-42.84492
409.671	56.20513
409.884	-15.45344
410.097	26.69535
410.31	33.01848
410.523	-40.73804
410.736	41.44967
410.949	58.31314
411.162	16.15725
411.375	-15.45344
411.588	14.04971
411.801	47.77329
412.014	26.69535
412.227	-7.02445
412.44	94.15287
412.653	66.74543
412.865	-2.80981
413.078	81.50281
413.291	-17.56062
413.504	-30.20322
413.717	66.74543
413.93	-9.13173
414.143	14.04971
414.356	-40.73804
414.568	-15.45344
414.781	-11.23899
414.994	7.72721
415.207	7.72721
415.42	-32.31023
415.632	83.6111
415.845	24.58768
416.058	-19.66778
416.271	60.42118
416.483	-19.66778
416.696	18.26482
416.909	-36.52418
417.121	-28.09618
417.334	5.61975
417.547	18.26482
417.759	83.6111
417.972	73.06989
418.185	16.15725
418.397	22.48004
418.61	-9.13173
418.823	51.98916
419.035	115.23808
419.248	5.61975
419.46	9.83468
419.673	-28.09618
419.885	-11.23899
420.098	-68.12563
420.311	-19.66778
420.523	-19.66778
420.736	14.04971
420.948	60.42118
421.161	47.77329
421.373	7.72721
421.586	-11.23899
421.798	-30.20322
422.01	18.26482
422.223	16.15725
422.435	16.15725
422.648	43.55752
422.86	-66.01904
423.073	1.40492
423.285	-2.80981
423.497	35.12624
423.71	64.63732
423.922	22.48004
424.134	-2.80981
424.347	49.88122
424.559	14.04971
424.771	125.7815
424.984	35.12624
425.196	-51.27223
425.408	43.55752
425.621	22.48004
425.833	-2.80981
426.045	39.34183
426.257	41.44967
426.47	-15.45344
426.682	-7.02445
426.894	47.77329
427.106	41.44967
427.318	5.61975
427.531	18.26482
427.743	79.39455
427.955	39.34183
428.167	33.01848
428.379	30.91075
428.591	22.48004
428.804	-9.13173
429.016	-51.27223
429.228	14.04971
429.44	60.42118
429.652	1.40492
429.864	68.85356
430.076	1.40492
430.288	-19.66778
430.5	43.55752
430.712	26.69535
430.924	30.91075
431.136	5.61975
431.348	16.15725
431.56	30.91075
431.772	14.04971
431.984	54.09713
432.196	-9.13173
432.408	64.63732
432.62	1.40492
432.832	35.12624
433.044	-15.45344
433.256	7.72721
433.468	26.69535
433.679	43.55752
433.891	54.09713
434.103	-13.34623
434.315	9.83468
434.527	1.40492
434.739	60.42118
434.95	-36.52418
435.162	18.26482
435.374	18.26482
435.586	7.72721
435.798	-0.70246
436.009	30.91075
436.221	56.20513
436.433	54.09713
436.645	-34.41722
436.856	41.44967
437.068	22.48004
437.28	68.85356
437.491	-36.52418
437.703	75.17808
437.915	-4.91714
438.126	1.40492
438.338	108.91229
438.55	-32.31023
438.761	-32.31023
438.973	106.80373
439.184	56.20513
439.396	-11.23899
439.608	30.91075
439.819	30.91075
440.031	92.04447
440.242	35.12624
440.454	24.58768
440.665	70.96171
440.877	58.31314
441.088	83.6111
441.3	5.61975
441.511	5.61975
441.723	98.36974
441.934	24.58768
442.146	3.51233
442.357	35.12624
442.569	73.06989
442.78	-2.80981
442.991	-19.66778
443.203	-23.88203
443.414	-2.80981
443.626	-17.56062
443.837	-13.34623
444.048	49.88122
444.26	33.01848
444.471	9.83468
444.682	9.83468
444.894	60.42118
445.105	39.34183
445.316	5.61975
445.528	18.26482
445.739	-2.80981
445.95	24.58768
446.161	9.83468
446.373	-0.70246
446.584	-4.91714
446.795	22.48004
447.006	-28.09618
447.217	16.15725
447.429	18.26482
447.64	119.45538
447.851	1.40492
448.062	3.51233
448.273	33.01848
448.484	33.01848
448.695	-38.63112
448.907	7.72721
449.118	43.55752
449.329	7.72721
449.54	108.91229
449.751	26.69535
449.962	5.61975
450.173	-25.98912
450.384	22.48004
450.595	-28.09618
450.806	41.44967
451.017	73.06989
451.228	-32.31023
451.439	-2.80981
451.65	3.51233
451.861	-30.20322
452.072	5.61975
452.283	5.61975
452.494	24.58768
452.705	47.77329
452.915	16.15725
453.126	5.61975
453.337	18.26482
453.548	-7.02445
453.759	5.61975
453.97	-36.52418
454.181	18.26482
454.391	22.48004
454.602	-15.45344
454.813	30.91075
455.024	7.72721
455.235	-7.02445
455.445	24.58768
455.656	70.96171
455.867	14.04971
456.078	14.04971
456.288	106.80373
456.499	56.20513
456.71	-36.52418
456.921	37.23403
457.131	-51.27223
457.342	-0.70246
457.553	81.50281
457.763	-68.12563
457.974	35.12624
458.184	49.88122
458.395	56.20513
458.606	28.80304
458.816	9.83468
459.027	-7.02445
459.237	22.48004
459.448	-36.52418
459.659	30.91075
459.869	-9.13173
460.08	16.15725
460.29	26.69535
460.501	35.12624
460.711	14.04971
460.922	-34.41722
461.132	16.15725
461.343	-17.56062
461.553	30.91075
461.764	-36.52418
461.974	54.09713
462.184	-17.56062
462.395	39.34183
462.605	35.12624
462.816	-0.70246
463.026	62.52924
463.236	62.52924
463.447	18.26482
463.657	47.77329
463.867	68.85356
464.078	-38.63112
464.288	-9.13173
464.498	5.61975
464.709	-30.20322
464.919	7.72721
465.129	-23.88203
465.339	9.83468
465.55	-25.98912
465.76	83.6111
465.97	3.51233
466.18	-19.66778
466.391	-44.95179
466.601	-57.59244
466.811	47.77329
467.021	35.12624
467.231	73.06989
467.441	33.01848
467.651	33.01848
467.862	22.48004
468.072	47.77329
468.282	-2.80981
468.492	39.34183
468.702	73.06989
468.912	-7.02445
469.122	22.48004
469.332	22.48004
469.542	-2.80981
469.752	-21.77492
469.962	41.44967
470.172	51.98916
470.382	-36.52418
470.592	26.69535
470.802	30.91075
471.012	-0.70246
471.222	-2.80981
471.432	-72.33872
471.642	58.31314
471.852	-19.66778
472.062	30.91075
472.272	-28.09618
472.482	47.77329
472.691	18.26482
472.901	30.91075
473.111	47.77329
473.321	49.88122
473.531	39.34183
473.741	102.58669
473.95	102.58669
474.16	22.48004
474.37	-11.23899
474.58	14.04971
474.79	24.58768
474.999	33.01848
475.209	33.01848
475.419	94.15287
475.628	-47.05863
475.838	18.26482
476.048	-32.31023
476.258	-2.80981
476.467	115.23808
476.677	56.20513
476.886	98.36974
477.096	3.51233
477.306	14.04971
477.515	41.44967
477.725	1.40492
477.935	-21.77492
478.144	-19.66778
478.354	-36.52418
478.563	56.20513
478.773	37.23403
478.982	24.58768
479.192	26.69535
479.401	16.15725
479.611	16.15725
479.82	66.74543
480.03	43.55752
480.239	94.15287
480.449	56.20513
480.658	24.58768
480.868	-19.66778
481.077	-2.80981
481.287	30.91075
481.496	33.01848
481.705	-59.69913
481.915	-11.23899
482.124	24.58768
482.333	83.6111
482.543	-7.02445
482.752	60.42118
482.961	58.31314
483.171	-13.34623
483.38	-36.52418
483.589	-19.66778
483.799	56.20513
484.008	60.42118
484.217	-19.66778
484.426	-19.66778
484.636	-7.02445
484.845	-25.98912
485.054	14.04971
485.263	41.44967
485.472	7.72721
485.682	-55.48573
485.891	18.26482
486.1	18.26482
486.309	5.61975
486.518	77.2863
486.727	70.96171
486.936	16.15725
487.146	77.2863
487.355	58.31314
487.564	9.83468
487.773	9.83468
487.982	51.98916
488.191	-21.77492
488.4	47.77329
488.609	18.26482
488.818	68.85356
489.027	64.63732
489.236	47.77329
489.445	30.91075
489.654	-0.70246
489.863	66.74543
490.072	-7.02445
490.281	41.44967
490.49	75.17808
490.698	39.34183
490.907	47.77329
491.116	81.50281
491.325	26.69535
491.534	-17.56062
491.743	81.50281
491.952	-7.02445
492.16	43.55752
492.369	14.04971
492.578	35.12624
492.787	51.98916
492.996	11.94218
493.204	41.44967
493.413	-25.98912
493.622	-2.80981
493.831	-36.52418
494.039	49.88122
494.248	83.6111
494.457	60.42118
494.665	16.15725
494.874	1.40492
495.083	1.40492
495.291	-0.70246
495.5	14.04971
495.709	49.88122
495.917	-2.80981
496.126	47.77329
496.335	39.34183
496.543	111.02086
496.752	30.91075
496.96	54.09713
497.169	43.55752
497.377	-0.70246
497.586	-42.84492
497.794	28.80304
498.003	14.04971
498.211	5.61975
498.42	-7.02445
498.628	20.37242
498.837	49.88122
499.045	20.37242
499.254	-42.84492
499.462	45.6654
499.671	56.20513
499.879	54.09713
500.087	45.6654
500.296	41.44967
500.504	47.77329
500.713	-38.63112
500.921	41.44967
501.129	1.40492
501.338	58.31314
501.546	26.69535
501.754	51.98916
501.962	43.55752
502.171	-30.20322
502.379	11.94218
502.587	16.15725
502.795	-19.66778
503.004	83.6111
503.212	7.72721
503.42	-28.09618
503.628	22.48004
503.837	28.80304
504.045	75.17808
504.253	123.67278
504.461	22.48004
504.669	64.63732
504.877	-2.80981
505.085	64.63732
505.294	-36.52418
505.502	11.94218
505.71	5.61975
505.918	81.50281
506.126	11.94218
506.334	73.06989
506.542	66.74543
506.75	24.58768
506.958	73.06989
507.166	-40.73804
507.374	35.12624
507.582	35.12624
507.79	-17.56062
507.998	56.20513
508.206	18.26482
508.414	-2.80981
508.622	43.55752
508.83	49.88122
509.037	-13.34623
509.245	66.74543
509.453	68.85356
509.661	7.72721
509.869	-42.84492
510.077	60.42118
510.285	92.04447
510.492	33.01848
510.7	30.91075
510.908	85.71941
511.116	39.34183
511.324	16.15725
511.531	5.61975
511.739	92.04447
511.947	5.61975
512.155	47.77329
512.362	9.83468
512.57	41.44967
512.778	89.9361
512.985	7.72721
513.193	30.91075
513.401	56.20513
513.608	14.04971
513.816	66.74543
514.024	-0.70246
514.231	56.20513
514.439	-9.13173
514.646	39.34183
514.854	51.98916
515.061	5.61975
515.269	43.55752
515.477	83.6111
515.684	35.12624
515.892	5.61975
516.099	5.61975
516.307	7.72721
516.514	47.77329
516.722	58.31314
516.929	20.37242
517.136	43.55752
517.344	56.20513
517.551	51.98916
517.759	64.63732
517.966	77.2863
518.173	51.98916
518.381	30.91075
518.588	73.06989
518.796	47.77329
519.003	123.67278
519.21	66.74543
519.418	77.2863
519.625	9.83468
519.832	30.91075
520.039	-2.80981
520.247	81.50281
520.454	-15.45344
520.661	22.48004
520.868	16.15725
521.076	35.12624
521.283	14.04971
521.49	5.61975
521.697	37.23403
521.904	37.23403
522.112	73.06989
522.319	5.61975
522.526	47.77329
522.733	-15.45344
522.94	-28.09618
523.147	1.40492
523.354	81.50281
523.561	30.91075
523.768	85.71941
523.975	26.69535
524.183	1.40492
524.39	47.77329
524.597	28.80304
524.804	-19.66778
525.011	47.77329
525.218	39.34183
525.425	11.94218
525.632	5.61975
525.838	60.42118
526.045	24.58768
526.252	58.31314
526.459	22.48004
526.666	75.17808
526.873	47.77329
527.08	28.80304
527.287	73.06989
527.494	83.6111
527.701	49.88122
527.907	58.31314
528.114	83.6111
528.321	39.34183
528.528	151.08791
528.735	43.55752
528.941	26.69535
529.148	24.58768
529.355	-13.34623
529.562	70.96171
529.768	39.34183
529.975	140.5432
530.182	39.34183
530.388	43.55752
530.595	60.42118
530.802	132.10782
531.008	83.6111
531.215	-11.23899
531.422	22.48004
531.628	24.58768
531.835	47.77329
532.042	16.15725
532.248	89.9361
532.455	16.15725
532.661	58.31314
532.868	94.15287
533.074	39.34183
533.281	43.55752
533.487	16.15725
533.694	66.74543
533.9	56.20513
534.107	96.26129
534.313	39.34183
534.52	92.04447
534.726	94.15287
534.933	96.26129
535.139	14.04971
535.345	92.04447
535.552	14.04971
535.758	-4.91714
535.965	102.58669
536.171	18.26482
536.377	22.48004
536.584	64.63732
536.79	81.50281
536.996	83.6111
537.203	58.31314
537.409	28.80304
537.615	119.45538
537.821	24.58768
538.028	66.74543
538.234	54.09713
538.44	-0.70246
538.646	9.83468
538.853	30.91075
539.059	14.04971
539.265	81.50281
539.471	43.55752
539.677	14.04971
539.883	73.06989
540.09	77.2863
540.296	96.26129
540.502	30.91075
540.708	33.01848
540.914	98.36974
541.12	30.91075
541.326	28.80304
541.532	100.4782
541.738	75.17808
541.944	66.74543
542.15	51.98916
542.356	47.77329
542.562	83.6111
542.768	66.74543
542.974	129.99903
543.18	22.48004
543.386	68.85356
543.592	24.58768
543.798	16.15725
544.004	98.36974
544.21	47.77329
544.415	-17.56062
544.621	119.45538
544.827	28.80304
545.033	39.34183
545.239	51.98916
545.445	16.15725
545.651	87.82774
545.856	18.26482
546.062	64.63732
546.268	102.58669
546.474	39.34183
546.679	98.36974
546.885	16.15725
547.091	174.28813
547.297	115.23808
547.502	64.63732
547.708	66.74543
547.914	81.50281
548.119	142.6521
548.325	75.17808
548.531	30.91075
548.736	9.83468
548.942	47.77329
549.147	77.2863
549.353	81.50281
549.559	64.63732
549.764	75.17808
549.97	100.4782
550.175	144.76102
550.381	37.23403
550.586	165.85139
550.792	49.88122
550.997	89.9361
551.203	89.9361
551.408	89.9361
551.614	60.42118
551.819	68.85356
552.025	117.34672
552.23	81.50281
552.435	106.80373
552.641	165.85139
552.846	85.71941
553.052	79.39455
553.257	64.63732
553.462	49.88122
553.668	102.58669
553.873	113.12946
554.078	43.55752
554.283	102.58669
554.489	14.04971
554.694	75.17808
554.899	92.04447
555.105	51.98916
555.31	148.97893
555.515	104.6952
555.72	167.96055
555.925	85.71941
556.131	81.50281
556.336	108.91229
556.541	129.99903
556.746	117.34672
556.951	89.9361
557.156	104.6952
557.361	176.39736
557.567	106.80373
557.772	73.06989
557.977	134.21663
558.182	174.28813
558.387	30.91075
558.592	92.04447
558.797	56.20513
559.002	127.89025
559.207	92.04447
559.412	132.10782
559.617	98.36974
559.822	153.19692
560.027	134.21663
560.232	81.50281
560.437	73.06989
560.642	60.42118
560.847	117.34672
561.051	100.4782
561.256	117.34672
561.461	136.32547
561.666	115.23808
561.871	157.41499
562.076	140.5432
562.281	165.85139
562.485	127.89025
562.69	47.77329
562.895	132.10782
563.1	83.6111
563.305	123.67278
563.509	140.5432
563.714	117.34672
563.919	127.89025
564.123	165.85139
564.328	111.02086
564.533	142.6521
564.737	182.72519
564.942	115.23808
565.147	157.41499
565.351	125.7815
565.556	81.50281
565.761	123.67278
565.965	140.5432
566.17	111.02086
566.374	119.45538
566.579	157.41499
566.784	167.96055
566.988	92.04447
567.193	184.83451
567.397	119.45538
567.602	81.50281
567.806	136.32547
568.011	174.28813
568.215	106.80373
568.42	174.28813
568.624	58.31314
568.828	121.56407
569.033	157.41499
569.237	161.63315
569.442	161.63315
569.646	182.72519
569.85	104.6952
570.055	111.02086
570.259	203.81928
570.463	81.50281
570.668	170.06972
570.872	125.7815
571.076	180.61589
571.281	159.52406
571.485	134.21663
571.689	132.10782
571.893	115.23808
572.098	186.94385
572.302	123.67278
572.506	159.52406
572.71	144.76102
572.914	170.06972
573.119	144.76102
573.323	89.9361
573.527	134.21663
573.731	140.5432
573.935	98.36974
574.139	186.94385
574.343	193.27198
574.547	136.32547
574.751	174.28813
574.955	193.27198
575.159	189.0532
575.364	203.81928
575.568	246.01343
575.772	108.91229
575.976	144.76102
576.18	142.6521
576.383	170.06972
576.587	161.63315
576.791	186.94385
576.995	214.36707
577.199	227.02509
577.403	237.57397
577.607	208.03833
577.811	243.90353
578.015	140.5432
578.219	182.72519
578.422	132.10782
578.626	260.78321
578.83	151.08791
579.034	216.47669
579.238	123.67278
579.442	174.28813
579.645	233.35436
579.849	212.25747
580.053	176.39736
580.257	182.72519
580.46	216.47669
580.664	237.57397
580.868	250.23327
581.071	233.35436
581.275	205.9288
581.479	165.85139
581.682	157.41499
581.886	159.52406
582.09	227.02509
582.293	233.35436
582.497	250.23327
582.7	224.91537
582.904	212.25747
583.107	246.01343
583.311	243.90353
583.515	292.43587
583.718	132.10782
583.922	256.56318
584.125	189.0532
584.329	296.65654
584.532	229.13482
584.735	201.70978
584.939	174.28813
585.142	246.01343
585.346	144.76102
585.549	246.01343
585.753	191.16258
585.956	241.79366
586.159	165.85139
586.363	227.02509
586.566	165.85139
586.769	233.35436
586.973	248.12334
587.176	212.25747
587.379	305.0981
587.582	246.01343
587.786	233.35436
587.989	176.39736
588.192	241.79366
588.395	254.45319
588.599	224.91537
588.802	277.66411
589.005	279.77431
589.208	302.98769
589.411	262.89326
589.615	300.87729
589.818	267.11341
590.021	309.31899
590.224	178.50662
590.427	248.12334
590.63	292.43587
590.833	267.11341
591.036	256.56318
591.239	338.86722
591.442	224.91537
591.645	317.76099
591.848	229.13482
592.051	267.11341
592.254	235.46415
592.457	351.5318
592.66	283.99475
592.863	385.30703
593.066	283.99475
593.269	313.53995
593.472	224.91537
593.675	433.86636
593.878	288.21528
594.081	387.41813
594.284	330.42451
594.486	260.78321
594.689	313.53995
594.892	362.08609
595.095	328.31388
595.298	389.52924
595.5	313.53995
595.703	421.19789
595.906	347.3102
596.109	334.64583
596.311	387.41813
596.514	351.5318
596.717	370.52983
596.92	368.41887
597.122	395.86267
597.325	454.98174
597.528	353.64262
597.73	336.75651
597.933	334.64583
598.136	351.5318
598.338	296.65654
598.541	345.19943
598.743	391.64037
598.946	330.42451
599.148	376.86282
599.351	410.64126
599.554	305.0981
599.756	469.76342
599.959	378.97385
600.161	330.42451
600.363	378.97385
600.566	395.86267
600.768	357.86432
600.971	404.30748
601.173	364.197
601.376	465.54001
601.578	427.53205
601.78	488.76953
601.983	395.86267
602.185	359.9752
602.388	435.97783
602.59	461.31665
602.792	368.41887
602.995	423.30926
603.197	410.64126
603.399	520.44902
603.601	357.86432
603.804	387.41813
604.006	395.86267
604.208	351.5318
604.41	378.97385
604.613	435.97783
604.815	376.86282
605.017	463.42832
605.219	503.55289
605.421	478.21043
605.623	397.97385
605.826	423.30926
606.028	459.205
606.23	446.5354
606.432	353.64262
606.634	537.34607
606.836	326.20327
607.038	539.45826
607.24	478.21043
607.442	514.11286
607.644	444.42385
607.846	562.6933
608.048	457.09336
608.25	473.9869
608.452	389.52924
608.654	497.21707
608.856	397.97385
609.058	520.44902
609.26	410.64126
609.462	571.14282
609.664	463.42832
609.866	518.33696
610.067	488.76953
610.269	490.88139
610.471	446.5354
610.673	435.97783
610.875	463.42832
611.077	537.34607
611.278	531.00957
611.48	381.08489
611.682	520.44902
611.884	516.2249
612.085	478.21043
612.287	501.44093
612.489	562.6933
612.69	505.66485
612.892	482.43403
613.094	514.11286
613.295	537.34607
613.497	564.80566
613.699	547.90718
613.9	501.44093
614.102	547.90718
614.304	575.36765
614.505	478.21043
614.707	571.14282
614.908	514.11286
615.11	607.0556
615.311	539.45826
615.513	524.6732
615.714	509.88883
615.916	583.81748
616.117	554.24401
616.319	640.85922
616.52	539.45826
616.722	621.84429
616.923	435.97783
617.124	575.36765
617.326	520.44902
617.527	571.14282
617.729	541.57047
617.93	621.84429
618.131	573.25523
618.333	573.25523
618.534	520.44902
618.735	727.49485
618.937	585.92998
619.138	569.03042
619.339	556.35631
619.54	670.43995
619.742	571.14282
619.943	666.21399
620.144	512.00084
620.345	630.29525
620.546	674.66595
620.748	651.4235
620.949	571.14282
621.15	657.76221
621.351	573.25523
621.552	731.72145
621.753	602.83037
621.954	621.84429
622.155	588.04248
622.356	723.26828
622.558	558.46863
622.759	604.94298
622.96	533.12172
623.161	604.94298
623.362	545.79493
623.563	566.91803
623.764	638.7464
623.965	649.31062
624.166	700.02295
624.366	723.26828
624.567	602.83037
624.768	733.83477
624.969	588.04248
625.17	729.60814
625.371	700.02295
625.572	649.31062
625.773	579.59254
625.973	769.7628
626.174	590.155
626.375	744.40153
626.576	596.49263
626.777	693.68355
626.977	723.26828
627.178	754.96854
627.379	562.6933
627.58	697.90981
627.78	672.55294
627.981	786.67111
628.182	765.53582
628.382	716.92852
628.583	647.19775
628.784	835.28592
628.984	691.57044
629.185	655.64929
629.386	640.85922
629.586	719.04176
629.787	668.32696
629.987	824.71707
630.188	723.26828
630.388	710.58885
630.589	731.72145
630.79	776.10334
630.99	727.49485
631.191	841.62734
631.391	727.49485
631.591	795.1255
631.792	691.57044
631.992	856.42429
632.193	659.87514
632.393	928.30098
632.594	812.03474
632.794	896.58954
632.994	767.6493
633.195	748.6283
633.395	759.19542
633.595	824.71707
633.796	723.26828
633.996	780.33042
634.196	685.23117
634.397	799.35276
634.597	833.17213
634.797	886.01945
634.997	710.58885
635.198	786.67111
635.398	685.23117
635.598	818.37586
635.798	843.74116
635.998	917.73031
636.199	729.60814
636.399	864.87988
636.599	828.94458
636.799	917.73031
636.999	799.35276
637.199	839.51352
637.399	854.31041
637.599	856.42429
637.799	843.74116
637.999	917.73031
638.199	814.14844
638.399	877.56352
638.599	801.4664
638.799	888.13345
638.999	833.17213
639.199	924.07269
639.399	864.87988
639.599	970.58551
639.799	793.01189
639.999	926.18683
640.199	733.83477
640.399	983.27141
640.599	761.30888
640.799	981.15708
640.998	892.36148
641.198	905.04575
641.398	839.51352
641.598	883.90545
641.798	850.08269
641.997	930.41514
642.197	989.61445
642.397	964.24265
642.597	875.44956
642.796	905.04575
642.996	824.71707
643.196	932.52931
643.395	930.41514
643.595	945.21445
643.795	928.30098
643.994	1010.75834
644.194	921.95856
644.394	1091.1105
644.593	921.95856
644.793	1017.10163
644.992	985.38575
645.192	934.64348
645.392	1025.55943
645.591	1025.55943
645.791	909.27391
645.99	1048.81888
646.19	947.32867
646.389	1021.33052
646.589	852.19655
646.788	1027.6739
646.987	1057.27703
647.187	1072.07901
647.386	972.69981
647.586	1234.91554
647.785	1048.81888
647.984	1061.50614
648.184	926.18683
648.383	1184.15878
648.582	968.47122
648.782	1069.96443
648.981	960.01411
649.18	1099.56908
649.38	1061.50614
649.579	1099.56908
649.778	1112.25708
649.977	1272.98424
650.177	1019.21607
650.376	1118.60115
650.575	1038.24632
650.774	1230.68574
650.973	1012.87276
651.173	1120.71585
651.372	1080.5374
651.571	1179.92914
651.77	976.92843
651.969	1215.88153
652.168	1088.99587
652.367	1120.71585
652.566	1044.58984
652.765	1201.07748
652.964	1057.27703
653.163	1232.80063
653.362	1031.90285
653.561	1393.53948
653.76	1167.24031
653.959	1116.48645
654.158	1163.01073
654.357	1264.52445
654.556	1129.17468
654.755	1143.97782
654.954	1040.36082
655.153	1277.21415
655.352	1112.25708
655.551	1285.67399
655.749	1122.83055
655.948	1277.21415
656.147	1179.92914
656.346	1363.92898
656.545	1105.91306
656.743	1289.90392
656.942	1095.33978
657.141	1334.31872
657.34	1036.13182
657.538	1220.11129
657.737	1027.6739
657.936	1308.93873
658.135	1108.02773
658.333	1228.57084
658.532	1095.33978
658.731	1241.26026
658.929	1198.96263
659.128	1179.92914
659.326	1082.65201
659.525	1251.83485
659.724	1179.92914
659.922	1315.28371
660.121	1146.09257
660.319	1289.90392
660.518	1095.33978
660.716	1306.82375
660.915	1182.04396
661.113	1308.93873
661.312	1317.3987
661.51	1425.26517
661.709	1279.3291
661.907	1463.33611
662.105	1327.9737
662.304	1334.31872
662.502	1258.17964
662.701	1412.57488
662.899	1256.06471
663.097	1478.14147
663.296	1374.50414
663.494	1393.53948
663.692	1298.36382
663.891	1363.92898
664.089	1351.23884
664.287	1492.94681
664.485	1247.60501
664.684	1535.24762
664.882	1245.49009
665.08	1391.42444
665.278	1243.37517
665.476	1427.38022
665.675	1222.22617
665.873	1347.0088
666.071	1205.3072
666.269	1368.15904
666.467	1393.53948
666.665	1376.61917
666.863	1203.19234
667.061	1380.84924
667.259	1258.17964
667.457	1473.91137
667.655	1366.04401
667.853	1524.67245
668.051	1215.88153
668.249	1408.34479
668.447	1234.91554
668.645	1266.6394
668.843	1256.06471
669.041	1298.36382
669.239	1186.2736
669.437	1437.95548
669.635	1154.55162
669.833	1484.48662
670.031	1217.99641
670.229	1399.88461
670.426	1163.01073
670.624	1340.66375
670.822	1251.83485
671.02	1558.51289
671.218	1357.58391
671.415	1450.64579
671.613	1287.78895
671.811	1463.33611
672.009	1344.89378
672.206	1410.45983
672.404	1484.48662
672.602	1391.42444
672.799	1347.0088
672.997	1577.548
673.195	1247.60501
673.392	1380.84924
673.59	1353.35386
673.788	1442.18558
673.985	1298.36382
674.183	1427.38022
674.38	1315.28371
674.578	1524.67245
674.775	1344.89378
674.973	1492.94681
675.17	1366.04401
675.368	1471.79631
675.565	1410.45983
675.763	1476.02642
675.96	1275.09919
676.158	1444.30064
676.355	1408.34479
676.553	1554.28285
676.75	1300.4788
676.947	1621.96271
677.145	1492.94681
677.342	1476.02642
677.539	1382.96428
677.737	1537.36265
677.934	1399.88461
678.131	1611.38785
678.329	1418.92003
678.526	1501.40699
678.723	1349.12382
678.92	1535.24762
679.118	1306.82375
679.315	1507.75213
679.512	1222.22617
679.709	1554.28285
679.906	1395.65452
680.104	1621.96271
680.301	1380.84924
680.498	1611.38785
680.695	1399.88461
680.892	1427.38022
681.089	1406.22974
681.286	1488.71671
681.483	1437.95548
681.68	1514.09725
681.877	1454.8759
682.075	1503.52204
682.272	1452.76085
682.469	1566.97295
682.665	1490.83176
682.862	1376.61917
683.059	1366.04401
683.256	1401.99965
683.453	1357.58391
683.65	1461.22106
683.847	1226.45595
684.044	1459.106
684.241	1418.92003
684.438	1550.05281
684.635	1366.04401
684.831	1554.28285
685.028	1296.24884
685.225	1594.46798
685.422	1349.12382
685.619	1602.92793
685.815	1391.42444
686.012	1558.51289
686.209	1492.94681
686.405	1695.98501
686.602	1401.99965
686.799	1484.48662
686.996	1442.18558
687.192	1404.1147
687.389	1425.26517
687.586	1425.26517
687.782	1421.03508
687.979	1564.85794
688.175	1165.12552
688.372	1511.98221
688.568	1471.79631
688.765	1535.24762
688.962	1509.86717
689.158	1638.88236
689.355	1406.22974
689.551	1602.92793
689.748	1452.76085
689.944	1586.008
690.14	1366.04401
690.337	1507.75213
690.533	1327.9737
690.73	1488.71671
690.926	1285.67399
691.123	1556.39787
691.319	1300.4788
691.515	1528.90252
691.712	1378.73421
691.908	1533.13258
692.104	1262.40951
692.301	1433.72538
692.497	1308.93873
692.693	1596.58297
692.889	1514.09725
693.086	1454.8759
693.282	1495.06186
693.478	1547.93778
693.674	1372.38911
693.87	1569.08797
694.067	1385.07932
694.263	1621.96271
694.459	1306.82375
694.655	1613.50283
694.851	1450.64579
695.047	1581.778
695.243	1571.20298
695.439	1456.99095
695.635	1526.78748
695.831	1433.72538
696.027	1325.8587
696.224	1480.25652
696.42	1412.57488
696.615	1704.44448
696.811	1395.65452
697.007	1619.84774
697.203	1336.43373
697.399	1569.08797
697.595	1427.38022
697.791	1539.47768
697.987	1471.79631
698.183	1539.47768
698.379	1431.61033
698.575	1653.68694
698.77	1344.89378
698.966	1573.31798
699.162	1484.48662
699.358	1461.22106
699.554	1478.14147
699.749	1577.548
699.945	1450.64579
700.141	1566.97295
700.337	1560.62791
700.532	1628.3076
700.728	1338.54874
700.924	1630.42255
701.119	1471.79631
701.315	1486.60167
701.511	1323.74369
701.706	1691.75525
701.902	1450.64579
702.097	1543.70773
702.293	1380.84924
702.489	1535.24762
702.684	1408.34479
702.88	1638.88236
703.075	1347.0088
703.271	1539.47768
703.466	1366.04401
703.662	1607.1579
703.857	1511.98221
704.053	1695.98501
704.248	1465.45116
704.443	1588.123
704.639	1408.34479
704.834	1499.29195
705.03	1518.32733
705.225	1533.13258
705.42	1442.18558
705.616	1478.14147
705.811	1469.68126
706.006	1621.96271
706.202	1323.74369
706.397	1486.60167
706.592	1399.88461
706.787	1520.44237
706.983	1511.98221
707.178	1698.09988
707.373	1382.96428
707.568	1607.1579
707.763	1391.42444
707.959	1594.46798
708.154	1467.56621
708.349	1552.16783
708.544	1404.1147
708.739	1433.72538
708.934	1425.26517
709.129	1632.53751
709.324	1302.59378
709.519	1600.81295
709.714	1522.55741
709.909	1619.84774
710.104	1503.52204
710.299	1507.75213
710.494	1484.48662
710.689	1602.92793
710.884	1444.30064
711.079	1569.08797
711.274	1272.98424
711.469	1679.06591
711.664	1552.16783
711.859	1634.65246
712.054	1463.33611
712.249	1505.63708
712.443	1302.59378
712.638	1687.52549
712.833	1509.86717
713.028	1564.85794
713.223	1342.77877
713.417	1528.90252
713.612	1467.56621
713.807	1670.6063
714.002	1478.14147
714.196	1619.84774
714.391	1368.15904
714.586	1488.71671
714.78	1404.1147
714.975	1522.55741
715.17	1412.57488
715.364	1609.27288
715.559	1509.86717
715.754	1528.90252
715.948	1357.58391
716.143	1503.52204
716.337	1336.43373
716.532	1583.893
716.726	1463.33611
716.921	1640.99731
717.115	1442.18558
717.31	1645.22719
717.504	1501.40699
717.699	1564.85794
717.893	1194.73294
718.088	1497.1769
718.282	1408.34479
718.476	1505.63708
718.671	1357.58391
718.865	1478.14147
719.059	1374.50414
719.254	1495.06186
719.448	1380.84924
719.642	1607.1579
719.837	1334.31872
720.031	1577.548
720.225	1315.28371
720.419	1444.30064
720.614	1306.82375
720.808	1478.14147
721.002	1391.42444
721.196	1490.83176
721.39	1315.28371
721.585	1531.01755
721.779	1230.68574
721.973	1516.21229
722.167	1256.06471
722.361	1499.29195
722.555	1302.59378
722.749	1509.86717
722.943	1385.07932
723.137	1497.1769
723.331	1357.58391
723.525	1442.18558
723.719	1382.96428
723.913	1573.31798
724.107	1334.31872
724.301	1488.71671
724.495	1427.38022
724.689	1518.32733
724.883	1509.86717
725.077	1535.24762
725.271	1543.70773
725.465	1594.46798
725.659	1450.64579
725.853	1607.1579
726.046	1425.26517
726.24	1459.106
726.434	1353.35386
726.628	1562.74293
726.822	1188.38843
727.015	1554.28285
727.209	1317.3987
727.403	1435.84043
727.596	1389.3094
727.79	1486.60167
727.984	1442.18558
728.177	1463.33611
728.371	1492.94681
728.565	1683.29571
728.758	1315.28371
728.952	1547.93778
729.146	1638.88236
729.339	1609.27288
729.533	1526.78748
729.726	1535.24762
729.92	1325.8587
730.113	1503.52204
730.307	1560.62791
730.5	1670.6063
730.694	1393.53948
730.887	1607.1579
731.081	1344.89378
731.274	1509.86717
731.468	1340.66375
731.661	1497.1769
731.854	1317.3987
732.048	1437.95548
732.241	1444.30064
732.435	1520.44237
732.628	1416.80498
732.821	1376.61917
733.014	1433.72538
733.208	1501.40699
733.401	1425.26517
733.594	1482.37157
733.788	1444.30064
733.981	1560.62791
734.174	1577.548
734.367	1476.02642
734.56	1435.84043
734.754	1459.106
734.947	1450.64579
735.14	1448.53074
735.333	1446.41569
735.526	1444.30064
735.719	1503.52204
735.912	1501.40699
736.105	1471.79631
736.298	1399.88461
736.491	1289.90392
736.684	1526.78748
736.877	1425.26517
737.07	1528.90252
737.263	1452.76085
737.456	1670.6063
737.649	1577.548
737.842	1556.39787
738.035	1505.63708
738.228	1516.21229
738.421	1471.79631
738.614	1632.53751
738.807	1562.74293
739	1437.95548
739.192	1294.13387
739.385	1679.06591
739.578	1486.60167
739.771	1657.91679
739.964	1450.64579
740.156	1562.74293
740.349	1340.66375
740.542	1571.20298
740.735	1511.98221
740.927	1535.24762
741.12	1461.22106
741.313	1416.80498
741.505	1490.83176
741.698	1480.25652
741.891	1433.72538
742.083	1524.67245
742.276	1418.92003
742.468	1539.47768
742.661	1372.38911
742.854	1461.22106
743.046	1382.96428
743.239	1478.14147
743.431	1355.46888
743.624	1488.71671
743.816	1497.1769
744.009	1492.94681
744.201	1437.95548
744.393	1435.84043
744.586	1543.70773
744.778	1490.83176
744.971	1450.64579
745.163	1590.238
745.355	1376.61917
745.548	1482.37157
745.74	1336.43373
745.932	1556.39787
746.125	1391.42444
746.317	1533.13258
746.509	1535.24762
746.702	1670.6063
746.894	1505.63708
747.086	1492.94681
747.278	1435.84043
747.471	1444.30064
747.663	1344.89378
747.855	1423.15012
748.047	1334.31872
748.239	1467.56621
748.431	1351.23884
748.623	1514.09725
748.815	1374.50414
749.008	1564.85794
749.2	1408.34479
749.392	1552.16783
749.584	1484.48662
749.776	1495.06186
749.968	1319.5137
750.16	1353.35386
750.352	1372.38911
750.544	1535.24762
750.736	1448.53074
750.928	1385.07932
751.12	1511.98221
751.311	1416.80498
751.503	1459.106
751.695	1543.70773
751.887	1463.33611
752.079	1524.67245
752.271	1421.03508
752.463	1473.91137
752.654	1484.48662
752.846	1558.51289
753.038	1336.43373
753.23	1507.75213
753.421	1370.27407
753.613	1308.93873
753.805	1488.71671
753.997	1507.75213
754.188	1370.27407
754.38	1537.36265
754.572	1213.76666
754.763	1442.18558
754.955	1410.45983
755.146	1473.91137
755.338	1450.64579
755.53	1456.99095
755.721	1418.92003
755.913	1338.54874
756.104	1435.84043
756.296	1342.77877
756.487	1300.4788
756.679	1382.96428
756.87	1433.72538
757.062	1446.41569
757.253	1382.96428
757.445	1427.38022
757.636	1404.1147
757.827	1556.39787
758.019	1268.75434
758.21	1366.04401
758.401	1232.80063
758.593	1220.11129
758.784	1260.29458
758.975	1182.04396
759.167	1179.92914
759.358	1440.07053
759.549	1234.91554
759.74	1334.31872
759.932	1163.01073
760.123	1401.99965
760.314	1154.55162
760.505	1247.60501
760.696	1281.44406
760.888	1298.36382
761.079	1205.3072
761.27	1302.59378
761.461	1182.04396
761.652	1304.70876
761.843	1351.23884
762.034	1448.53074
762.225	1205.3072
762.416	1399.88461
762.607	1112.25708
762.798	1308.93873
762.989	1283.55902
763.18	1385.07932
763.371	1196.84779
763.562	1410.45983
763.753	1245.49009
763.944	1292.01889
764.135	1317.3987
764.326	1323.74369
764.517	1182.04396
764.708	1351.23884
764.899	1163.01073
765.089	1232.80063
765.28	1264.52445
765.471	1249.71993
765.662	1099.56908
765.853	1308.93873
766.043	1095.33978
766.234	1179.92914
766.425	1078.42279
766.615	1272.98424
766.806	1179.92914
766.997	1300.4788
767.187	1122.83055
767.378	1224.34106
767.569	1110.1424
767.759	1289.90392
767.95	1281.44406
768.141	1177.81432
768.331	1163.01073
768.522	1067.84985
768.712	1154.55162
768.903	1251.83485
769.093	1188.38843
769.284	1247.60501
769.474	1247.60501
769.665	1105.91306
769.855	1171.4699
770.046	1080.5374
770.236	1120.71585
770.426	1086.88125
770.617	1129.17468
770.807	1163.01073
770.998	1163.01073
771.188	1046.70436
771.378	1184.15878
771.569	1133.40413
771.759	983.27141
771.949	1116.48645
772.139	1061.50614
772.33	1063.6207
772.52	1046.70436
772.71	1207.42206
772.9	1017.10163
773.09	1146.09257
773.281	1053.04795
773.471	1093.22514
773.661	1131.2894
773.851	1230.68574
774.041	940.98604
774.231	1169.3551
774.421	1044.58984
774.611	1046.70436
774.802	1053.04795
774.992	1192.6181
775.182	1019.21607
775.372	995.95755
775.562	1002.30071
775.752	962.12838
775.942	955.7856
776.131	1078.42279
776.321	993.84318
776.511	1171.4699
776.701	913.50209
776.891	1027.6739
777.081	960.01411
777.271	1012.87276
777.461	1027.6739
777.651	1069.96443
777.84	1097.45443
778.03	947.32867
778.22	1076.30819
778.41	1069.96443
778.599	1004.41511
778.789	1031.90285
778.979	1002.30071
779.169	892.36148
779.358	877.56352
779.548	945.21445
779.738	974.81412
779.927	915.6162
780.117	862.76597
780.307	1027.6739
780.496	987.5001
780.686	1129.17468
780.875	932.52931
781.065	1040.36082
781.254	883.90545
781.444	1086.88125
781.633	968.47122
781.823	1031.90285
782.012	968.47122
782.202	968.47122
782.391	951.55712
782.581	858.53818
782.77	841.62734
782.96	993.84318
783.149	826.83082
783.338	968.47122
783.528	953.67136
783.717	1044.58984
783.906	862.76597
784.096	1008.64392
784.285	890.24746
784.474	909.27391
784.663	757.08198
784.853	875.44956
785.042	818.37586
785.231	869.10773
785.42	816.26215
785.61	902.93169
785.799	905.04575
785.988	862.76597
786.177	769.7628
786.366	847.96884
786.555	833.17213
786.744	921.95856
786.933	852.19655
787.122	947.32867
787.312	854.31041
787.501	1023.44497
787.69	875.44956
787.879	886.01945
788.068	858.53818
788.257	835.28592
788.445	824.71707
788.634	930.41514
788.823	716.92852
789.012	921.95856
789.201	773.98982
789.39	936.75766
789.579	807.80738
789.768	807.80738
789.957	744.40153
790.145	881.79147
790.334	883.90545
790.523	902.93169
790.712	750.74171
790.9	757.08198
791.089	712.70206
791.278	748.6283
791.467	681.00505
791.655	731.72145
791.844	862.76597
792.033	797.23912
792.221	752.85512
792.41	886.01945
792.599	723.26828
792.787	877.56352
792.976	776.10334
793.164	714.81528
793.353	657.76221
793.541	765.53582
793.73	706.36246
793.918	847.96884
794.107	727.49485
794.295	672.55294
794.484	750.74171
794.672	824.71707
794.861	685.23117
795.049	900.81763
795.238	735.9481
795.426	708.47565
795.614	702.13611
795.803	769.7628
795.991	757.08198
796.179	795.1255
796.368	702.13611
796.556	782.44397
796.744	638.7464
796.932	706.36246
797.121	719.04176
797.309	833.17213
797.497	733.83477
797.685	845.85499
797.874	604.94298
798.062	704.24928
798.25	731.72145
798.438	759.19542
798.626	719.04176
798.814	786.67111
799.002	761.30888
799.19	807.80738
799.378	731.72145
799.566	795.1255
799.755	649.31062
799.943	708.47565
800.131	799.35276
800.318	799.35276
800.506	725.38156
800.694	773.98982
800.882	640.85922
801.07	765.53582
801.258	592.26753
801.446	613.39353
801.634	626.06974
801.822	782.44397
802.01	727.49485
802.197	697.90981
802.385	617.61889
802.573	687.34425
802.761	664.10102
802.949	706.36246
803.136	731.72145
803.324	672.55294
803.512	647.19775
803.699	761.30888
803.887	757.08198
804.075	655.64929
804.262	748.6283
804.45	807.80738
804.638	545.79493
804.825	782.44397
805.013	657.76221
805.201	731.72145
805.388	676.77897
805.576	824.71707
805.763	706.36246
805.951	828.94458
806.138	638.7464
806.326	651.4235
806.513	706.36246
806.701	782.44397
806.888	750.74171
807.075	816.26215
807.263	651.4235
807.45	710.58885
807.638	748.6283
807.825	681.00505
808.012	685.23117
808.2	746.51491
808.387	740.1748
808.574	778.21687
808.761	778.21687
808.949	877.56352
809.136	674.66595
809.323	854.31041
809.51	664.10102
809.698	752.85512
809.885	763.42234
810.072	951.55712
810.259	714.81528
810.446	816.26215
810.633	719.04176
810.82	788.78469
811.008	812.03474
811.195	719.04176
811.382	697.90981
811.569	812.03474
811.756	708.47565
811.943	828.94458
812.13	752.85512
812.317	740.1748
812.504	691.57044
812.691	820.48959
812.878	723.26828
813.064	733.83477
813.251	681.00505
813.438	784.55754
813.625	788.78469
813.812	816.26215
813.999	706.36246
814.186	782.44397
814.372	757.08198
814.559	780.33042
814.746	740.1748
814.933	706.36246
815.12	733.83477
815.306	835.28592
815.493	634.5208
815.68	735.9481
815.866	697.90981
816.053	727.49485
816.24	733.83477
816.426	765.53582
816.613	748.6283
816.799	773.98982
816.986	790.89829
817.173	886.01945
817.359	619.73158
817.546	773.98982
817.732	672.55294
817.919	759.19542
818.105	784.55754
818.292	752.85512
818.478	668.32696
818.665	697.90981
818.851	685.23117
819.037	702.13611
819.224	799.35276
819.41	723.26828
819.597	683.11811
819.783	801.4664
819.969	649.31062
820.156	841.62734
820.342	757.08198
820.528	860.65207
820.714	683.11811
820.901	744.40153
821.087	740.1748
821.273	757.08198
821.459	778.21687
821.646	801.4664
821.832	689.45734
822.018	735.9481
822.204	588.04248
822.39	795.1255
822.576	681.00505
822.762	778.21687
822.948	723.26828
823.134	790.89829
823.32	672.55294
823.507	767.6493
823.693	619.73158
823.879	695.79667
824.065	674.66595
824.25	702.13611
824.436	655.64929
824.622	790.89829
824.808	592.26753
824.994	564.80566
825.18	642.97205
825.366	708.47565
825.552	664.10102
825.738	674.66595
825.923	683.11811
826.109	742.28816
826.295	607.0556
826.481	795.1255
826.667	735.9481
826.852	681.00505
827.038	702.13611
827.224	704.24928
827.409	714.81528
827.595	790.89829
827.781	689.45734
827.966	719.04176
828.152	714.81528
828.338	738.06144
828.523	619.73158
828.709	744.40153
828.894	617.61889
829.08	647.19775
829.266	604.94298
829.451	672.55294
829.637	547.90718
829.822	634.5208
830.008	554.24401
830.193	628.18249
830.378	600.71778
830.564	573.25523
830.749	564.80566
830.935	613.39353
831.12	484.54585
831.305	647.19775
831.491	556.35631
831.676	666.21399
831.861	596.49263
832.047	623.95701
832.232	615.5062
832.417	566.91803
832.602	590.155
832.788	579.59254
832.973	592.26753
833.158	697.90981
833.343	556.35631
833.528	520.44902
833.714	522.5611
833.899	689.45734
834.084	562.6933
834.269	642.97205
834.454	452.87013
834.639	520.44902
834.824	651.4235
835.009	592.26753
835.194	604.94298
835.379	632.40802
835.564	497.21707
835.749	655.64929
835.934	556.35631
836.119	672.55294
836.304	524.6732
836.489	687.34425
836.674	520.44902
836.859	562.6933
837.044	528.89743
837.228	588.04248
837.413	556.35631
837.598	613.39353
837.783	531.00957
837.968	520.44902
838.152	668.32696
838.337	531.00957
838.522	588.04248
838.707	604.94298
838.891	524.6732
839.076	480.32222
839.261	516.2249
839.445	613.39353
839.63	395.86267
839.815	520.44902
839.999	478.21043
840.184	613.39353
840.368	461.31665
840.553	547.90718
840.737	541.57047
840.922	541.57047
841.106	556.35631
841.291	564.80566
841.475	435.97783
841.66	507.77683
841.844	431.75491
842.029	545.79493
842.213	484.54585
842.397	495.10517
842.582	444.42385
842.766	545.79493
842.951	471.87515
843.135	482.43403
843.319	414.86386
843.504	516.2249
843.688	473.9869
843.872	400.08505
844.056	404.30748
844.241	566.91803
844.425	450.75854
844.609	478.21043
844.793	476.09866
844.977	547.90718
845.161	463.42832
845.346	448.64696
845.53	425.42065
845.714	520.44902
845.898	372.64081
846.082	478.21043
846.266	435.97783
846.45	438.08931
846.634	321.98209
846.818	410.64126
847.002	404.30748
847.186	518.33696
847.37	452.87013
847.554	533.12172
847.738	397.97385
847.922	438.08931
848.106	372.64081
848.29	410.64126
848.473	389.52924
848.657	385.30703
848.841	423.30926
849.025	571.14282
849.209	505.66485
849.392	440.20081
849.576	393.75151
849.76	421.19789
849.944	351.5318
850.127	410.64126
850.311	353.64262
850.495	478.21043
850.678	389.52924
850.862	435.97783
851.046	313.53995
851.229	393.75151
851.413	364.197
851.596	326.20327
851.78	397.97385
851.964	359.9752
852.147	336.75651
852.331	512.00084
852.514	292.43587
852.698	345.19943
852.881	317.76099
853.065	410.64126
853.248	328.31388
853.431	473.9869
853.615	305.0981
853.798	435.97783
853.982	319.87153
854.165	387.41813
854.348	254.45319
854.532	353.64262
854.715	336.75651
854.898	454.98174
855.081	334.64583
855.265	334.64583
855.448	227.02509
855.631	351.5318
855.814	359.9752
855.997	385.30703
856.181	376.86282
856.364	393.75151
856.547	355.75346
856.73	321.98209
856.913	267.11341
857.096	319.87153
857.279	296.65654
857.462	229.13482
857.645	300.87729
857.828	317.76099
858.011	351.5318
858.194	313.53995
858.377	307.20854
858.56	368.41887
858.743	334.64583
858.926	406.41873
859.109	321.98209
859.292	277.66411
859.475	298.76691
859.658	237.57397
859.841	283.99475
860.023	317.76099
860.206	258.67319
860.389	317.76099
860.572	313.53995
860.755	334.64583
860.937	307.20854
861.12	256.56318
861.303	277.66411
861.486	288.21528
861.668	385.30703
861.851	250.23327
862.034	258.67319
862.216	286.10501
862.399	243.90353
862.581	248.12334
862.764	260.78321
862.947	300.87729
863.129	309.31899
863.312	286.10501
863.494	227.02509
863.677	283.99475
863.859	328.31388
864.042	254.45319
864.224	275.55393
864.406	258.67319
864.589	267.11341
864.771	317.76099
864.954	283.99475
865.136	262.89326
865.318	246.01343
865.501	309.31899
865.683	195.3814
865.865	275.55393
866.048	243.90353
866.23	311.42946
866.412	239.6838
866.594	250.23327
866.777	210.14789
866.959	254.45319
867.141	210.14789
867.323	227.02509
867.505	218.58633
867.687	184.83451
867.869	222.80567
868.052	250.23327
868.234	205.9288
868.416	330.42451
868.598	241.79366
868.78	271.33363
868.962	288.21528
869.144	250.23327
869.326	258.67319
869.508	170.06972
869.69	216.47669
869.872	227.02509
870.054	250.23327
870.236	241.79366
870.417	235.46415
870.599	216.47669
870.781	159.52406
870.963	233.35436
871.145	165.85139
871.327	165.85139
871.508	212.25747
871.69	235.46415
871.872	199.6003
872.054	267.11341
872.235	199.6003
872.417	248.12334
872.599	208.03833
872.78	176.39736
872.962	199.6003
873.144	132.10782
873.325	216.47669
873.507	275.55393
873.689	203.81928
873.87	265.00332
874.052	170.06972
874.233	170.06972
874.415	186.94385
874.596	199.6003
874.778	195.3814
874.959	243.90353
875.141	203.81928
875.322	290.32557
875.503	271.33363
875.685	353.64262
875.866	184.83451
876.048	286.10501
876.229	184.83451
876.41	243.90353
876.592	178.50662
876.773	201.70978
876.954	229.13482
877.136	214.36707
877.317	157.41499
877.498	216.47669
877.679	224.91537
877.86	218.58633
878.042	178.50662
878.223	203.81928
878.404	229.13482
878.585	165.85139
878.766	159.52406
878.947	174.28813
879.128	191.16258
879.309	222.80567
879.49	235.46415
879.672	186.94385
879.853	252.34322
880.034	186.94385
880.215	243.90353
880.396	252.34322
880.576	218.58633
880.757	165.85139
880.938	246.01343
881.119	275.55393
881.3	271.33363
881.481	212.25747
881.662	186.94385
881.843	229.13482
882.023	220.69599
882.204	210.14789
882.385	176.39736
882.566	208.03833
882.747	235.46415
882.927	224.91537
883.108	250.23327
883.289	224.91537
883.469	184.83451
883.65	214.36707
883.831	279.77431
884.011	292.43587
884.192	161.63315
884.373	321.98209
884.553	218.58633
884.734	288.21528
884.914	216.47669
885.095	252.34322
885.275	267.11341
885.456	199.6003
885.636	216.47669
885.817	292.43587
885.997	258.67319
886.178	258.67319
886.358	233.35436
886.538	250.23327
886.719	233.35436
886.899	172.17891
887.08	275.55393
887.26	256.56318
887.44	252.34322
887.621	199.6003
887.801	203.81928
887.981	214.36707
888.161	216.47669
888.342	132.10782
888.522	115.23808
888.702	345.19943
888.882	155.30595
889.062	224.91537
889.242	248.12334
889.423	243.90353
889.603	233.35436
889.783	258.67319
889.963	267.11341
890.143	288.21528
890.323	241.79366
890.503	218.58633
890.683	227.02509
890.863	296.65654
891.043	199.6003
891.223	241.79366
891.403	176.39736
891.583	271.33363
891.763	155.30595
891.943	199.6003
892.122	281.88452
892.302	246.01343
892.482	277.66411
892.662	214.36707
892.842	170.06972
893.022	237.57397
893.201	157.41499
893.381	210.14789
893.561	186.94385
893.741	275.55393
893.92	248.12334
894.1	243.90353
894.28	212.25747
894.459	182.72519
894.639	182.72519
894.819	148.97893
894.998	218.58633
895.178	252.34322
895.357	250.23327
895.537	222.80567
895.716	184.83451
895.896	267.11341
896.075	193.27198
896.255	283.99475
896.434	193.27198
896.614	256.56318
896.793	229.13482
896.973	163.74226
897.152	153.19692
897.331	197.49084
897.511	186.94385
897.69	250.23327
897.87	229.13482
898.049	241.79366
898.228	180.61589
898.407	184.83451
898.587	157.41499
898.766	224.91537
898.945	182.72519
899.124	227.02509
899.304	159.52406
899.483	172.17891
899.662	199.6003
899.841	144.76102
900.02	155.30595
900.199	129.99903
900.378	148.97893
900.557	176.39736
900.737	163.74226
900.916	119.45538
901.095	161.63315
901.274	159.52406
901.453	111.02086
901.632	165.85139
901.811	157.41499
901.989	123.67278
902.168	45.6654
902.347	172.17891
902.526	195.3814
902.705	68.85356
902.884	165.85139
903.063	216.47669
903.242	123.67278
903.42	127.89025
903.599	111.02086
903.778	176.39736
903.957	195.3814
904.135	136.32547
904.314	123.67278
904.493	172.17891
904.672	134.21663
904.85	98.36974
905.029	115.23808
905.207	115.23808
905.386	161.63315
905.565	129.99903
905.743	165.85139
905.922	233.35436
906.1	136.32547
906.279	195.3814
906.457	108.91229
906.636	129.99903
906.814	94.15287
906.993	148.97893
907.171	176.39736
907.35	140.5432
907.528	47.77329
907.707	174.28813
907.885	148.97893
908.063	129.99903
908.242	111.02086
908.42	26.69535
908.598	100.4782
908.777	119.45538
908.955	100.4782
909.133	146.86997
909.311	56.20513
909.49	113.12946
909.668	51.98916
909.846	85.71941
910.024	119.45538
910.202	142.6521
910.38	117.34672
910.559	102.58669
910.737	115.23808
910.915	113.12946
911.093	121.56407
911.271	100.4782
911.449	94.15287
911.627	106.80373
911.805	108.91229
911.983	153.19692
912.161	106.80373
912.339	136.32547
912.517	151.08791
912.695	144.76102
912.872	184.83451
913.05	203.81928
913.228	73.06989
913.406	106.80373
913.584	89.9361
913.762	144.76102
913.939	68.85356
914.117	148.97893
914.295	66.74543
914.473	102.58669
914.65	94.15287
914.828	167.96055
915.006	104.6952
915.184	165.85139
915.361	94.15287
915.539	153.19692
915.716	151.08791
915.894	148.97893
916.072	92.04447
916.249	73.06989
916.427	132.10782
916.604	132.10782
916.782	117.34672
916.959	167.96055
917.137	218.58633
917.314	159.52406
917.492	119.45538
917.669	111.02086
917.847	151.08791
918.024	123.67278
918.201	193.27198
918.379	111.02086
918.556	83.6111
918.733	41.44967
918.911	68.85356
919.088	136.32547
919.265	60.42118
919.442	111.02086
919.62	98.36974
919.797	132.10782
919.974	127.89025
920.151	20.37242
920.328	136.32547
920.506	136.32547
920.683	79.39455
920.86	79.39455
921.037	68.85356
921.214	96.26129
921.391	81.50281
921.568	100.4782
921.745	35.12624
921.922	136.32547
922.099	148.97893
922.276	142.6521
922.453	39.34183
922.63	108.91229
922.807	83.6111
922.984	108.91229
923.161	58.31314
923.338	89.9361
923.514	51.98916
923.691	49.88122
923.868	64.63732
924.045	92.04447
924.222	167.96055
924.399	92.04447
924.575	33.01848
924.752	-15.45344
924.929	113.12946
925.105	144.76102
925.282	178.50662
925.459	115.23808
925.635	66.74543
925.812	68.85356
925.989	94.15287
926.165	157.41499
926.342	56.20513
926.518	134.21663
926.695	51.98916
926.871	117.34672
927.048	60.42118
927.224	182.72519
927.401	14.04971
927.577	18.26482
927.754	66.74543
927.93	83.6111
928.107	75.17808
928.283	68.85356
928.459	94.15287
928.636	5.61975
928.812	26.69535
928.988	47.77329
929.165	132.10782
929.341	81.50281
929.517	54.09713
929.693	108.91229
929.87	75.17808
930.046	33.01848
930.222	87.82774
930.398	30.91075
930.574	136.32547
930.751	106.80373
930.927	73.06989
931.103	94.15287
931.279	106.80373
931.455	-57.59244
931.631	106.80373
931.807	64.63732
931.983	148.97893
932.159	77.2863
932.335	85.71941
932.511	24.58768
932.687	-2.80981
932.863	104.6952
933.039	89.9361
933.215	47.77329
933.391	83.6111
933.566	125.7815
933.742	51.98916
933.918	26.69535
934.094	83.6111
934.27	108.91229
934.445	47.77329
934.621	43.55752
934.797	-0.70246
934.973	45.6654
935.148	54.09713
935.324	26.69535
935.5	16.15725
935.675	39.34183
935.851	115.23808
936.027	5.61975
936.202	132.10782
936.378	18.26482
936.553	37.23403
936.729	56.20513
936.904	51.98916
937.08	94.15287
937.255	81.50281
937.431	102.58669
937.606	81.50281
937.782	-28.09618
937.957	87.82774
938.133	33.01848
938.308	24.58768
938.483	30.91075
938.659	125.7815
938.834	26.69535
939.009	-32.31023
939.185	7.72721
939.36	75.17808
939.535	73.06989
939.71	-11.23899
939.886	9.83468
940.061	26.69535
940.236	132.10782
940.411	49.88122
940.586	-11.23899
940.761	-2.80981
940.937	24.58768
941.112	30.91075
941.287	30.91075
941.462	1.40492
941.637	64.63732
941.812	73.06989
941.987	14.04971
942.162	111.02086
942.337	96.26129
942.512	47.77329
942.687	-11.23899
942.862	18.26482
943.037	5.61975
943.212	14.04971
943.386	-19.66778
943.561	5.61975
943.736	66.74543
943.911	39.34183
944.086	92.04447
944.26	106.80373
944.435	-0.70246
944.61	26.69535
944.785	41.44967
944.959	-21.77492
945.134	47.77329
945.309	81.50281
945.483	-61.80579
945.658	64.63732
945.833	51.98916
946.007	9.83468
946.182	39.34183
946.357	81.50281
946.531	64.63732
946.706	35.12624
946.88	39.34183
947.055	45.6654
947.229	30.91075
947.404	5.61975
947.578	83.6111
947.752	14.04971
947.927	64.63732
948.101	47.77329
948.276	1.40492
948.45	47.77329
948.624	-59.69913
948.799	5.61975
948.973	9.83468
949.147	-17.56062
949.321	39.34183
949.496	73.06989
949.67	1.40492
949.844	-9.13173
950.018	22.48004
950.193	39.34183
950.367	7.72721
950.541	-11.23899
950.715	54.09713
950.889	1.40492
951.063	56.20513
951.237	51.98916
951.411	24.58768
951.585	66.74543
951.759	7.72721
951.933	140.5432
952.107	18.26482
952.281	24.58768
952.455	20.37242
952.629	43.55752
952.803	37.23403
952.977	111.02086
953.151	24.58768
953.325	43.55752
953.499	77.2863
953.672	-2.80981
953.846	26.69535
954.02	58.31314
954.194	-15.45344
954.368	1.40492
954.541	-21.77492
954.715	-61.80579
954.889	64.63732
955.062	43.55752
955.236	108.91229
955.41	30.91075
955.583	28.80304
955.757	45.6654
955.93	5.61975
956.104	-19.66778
956.278	81.50281
956.451	-44.95179
956.625	77.2863
956.798	64.63732
956.972	47.77329
957.145	119.45538
957.319	5.61975
957.492	106.80373
957.665	73.06989
957.839	-25.98912
958.012	24.58768
958.185	-11.23899
958.359	64.63732
958.532	22.48004
958.705	24.58768
958.879	14.04971
959.052	39.34183
959.225	-23.88203
959.398	-25.98912
959.572	11.94218
959.745	5.61975
959.918	87.82774
960.091	22.48004
960.264	79.39455
960.438	-7.02445
960.611	75.17808
960.784	1.40492
960.957	18.26482
961.13	94.15287
961.303	-2.80981
961.476	108.91229
961.649	26.69535
961.822	66.74543
961.995	64.63732
962.168	5.61975
962.341	49.88122
962.514	11.94218
962.686	-25.98912
962.859	5.61975
963.032	132.10782
963.205	22.48004
963.378	3.51233
963.551	75.17808
963.723	-9.13173
963.896	68.85356
964.069	-11.23899
964.242	-19.66778
964.414	7.72721
964.587	81.50281
964.76	-17.56062
964.932	75.17808
965.105	41.44967
965.278	24.58768
965.45	24.58768
965.623	9.83468
965.795	24.58768
965.968	18.26482
966.14	-7.02445
966.313	16.15725
966.485	73.06989
966.658	-9.13173
966.83	75.17808
967.003	37.23403
967.175	41.44967
967.348	18.26482
967.52	20.37242
967.692	-32.31023
967.865	22.48004
968.037	22.48004
968.209	115.23808
968.382	1.40492
968.554	-25.98912
968.726	30.91075
968.898	30.91075
969.071	51.98916
969.243	26.69535
969.415	64.63732
969.587	30.91075
969.759	-2.80981
969.932	14.04971
970.104	30.91075
970.276	33.01848
970.448	24.58768
970.62	-9.13173
970.792	9.83468
970.964	-11.23899
971.136	41.44967
971.308	37.23403
971.48	49.88122
971.652	-61.80579
971.824	5.61975
971.996	-23.88203
972.168	-11.23899
972.339	45.6654
972.511	7.72721
972.683	64.63732
972.855	14.04971
973.027	56.20513
973.199	47.77329
973.37	5.61975
973.542	26.69535
973.714	7.72721
973.886	9.83468
974.057	47.77329
974.229	43.55752
974.401	14.04971
974.572	-40.73804
974.744	-2.80981
974.915	-25.98912
975.087	41.44967
975.259	106.80373
975.43	33.01848
975.602	-17.56062
975.773	11.94218
975.945	56.20513
976.116	5.61975
976.288	35.12624
976.459	94.15287
976.63	14.04971
976.802	-30.20322
976.973	-42.84492
977.145	-0.70246
977.316	-11.23899
977.487	-7.02445
977.659	62.52924
977.83	-32.31023
978.001	41.44967
978.172	-23.88203
978.344	56.20513
978.515	64.63732
978.686	30.91075
978.857	70.96171
979.028	47.77329
979.2	56.20513
979.371	73.06989
979.542	-0.70246
979.713	-57.59244
979.884	43.55752
980.055	49.88122
980.226	100.4782
980.397	-15.45344
980.568	98.36974
980.739	-17.56062
980.91	24.58768
981.081	35.12624
981.252	43.55752
981.423	56.20513
981.594	14.04971
981.765	30.91075
981.936	106.80373
982.106	11.94218
982.277	51.98916
982.448	-25.98912
982.619	45.6654
982.79	-23.88203
982.96	58.31314
983.131	39.34183
983.302	35.12624
983.472	92.04447
983.643	43.55752
983.814	5.61975
983.984	24.58768
984.155	51.98916
984.326	35.12624
984.496	35.12624
984.667	98.36974
984.837	9.83468
985.008	49.88122
985.178	-9.13173
985.349	75.17808
985.519	41.44967
985.69	47.77329
985.86	5.61975
986.031	68.85356
986.201	39.34183
986.371	66.74543
986.542	14.04971
986.712	39.34183
986.882	47.77329
987.053	66.74543
987.223	70.96171
987.393	-59.69913
987.563	-0.70246
987.734	20.37242
987.904	11.94218
988.074	30.91075
988.244	49.88122
988.414	30.91075
988.585	94.15287
988.755	-36.52418
988.925	-2.80981
989.095	28.80304
989.265	5.61975
989.435	-0.70246
989.605	43.55752
989.775	37.23403
989.945	-32.31023
990.115	33.01848
990.285	35.12624
990.455	30.91075
990.625	-19.66778
990.795	77.2863
990.965	1.40492
991.134	66.74543
991.304	77.2863
991.474	-9.13173
991.644	18.26482
991.814	30.91075
991.984	85.71941
992.153	22.48004
992.323	79.39455
992.493	24.58768
992.662	-23.88203
992.832	94.15287
993.002	-2.80981
993.171	79.39455
993.341	16.15725
993.511	81.50281
993.68	-2.80981
993.85	22.48004
994.019	89.9361
994.189	11.94218
994.358	58.31314
994.528	14.04971
994.697	64.63732
994.867	79.39455
995.036	-7.02445
995.206	14.04971
995.375	-19.66778
995.544	81.50281
995.714	-15.45344
995.883	-57.59244
996.052	35.12624
996.222	73.06989
996.391	5.61975
996.56	-23.88203
996.73	-2.80981
996.899	37.23403
997.068	-15.45344
997.237	-34.41722
997.406	39.34183
997.576	16.15725
997.745	14.04971
997.914	-0.70246
998.083	39.34183
998.252	24.58768
998.421	28.80304
998.59	33.01848
998.759	7.72721
998.928	33.01848
999.097	51.98916
999.266	22.48004
999.435	37.23403
999.604	47.77329
999.773	-28.09618
999.942	-34.41722
1000.111	1.40492
1000.28	-0.70246
1000.448	16.15725
1000.617	39.34183
1000.786	1.40492
1000.955	-36.52418
1001.124	24.58768
1001.292	108.91229
1001.461	-7.02445
1001.63	-11.23899
1001.798	41.44967
1001.967	-28.09618
1002.136	45.6654
1002.304	56.20513
1002.473	89.9361
1002.642	-4.91714
1002.81	20.37242
1002.979	7.72721
1003.147	56.20513
1003.316	28.80304
1003.484	64.63732
1003.653	18.26482
1003.821	39.34183
1003.99	-11.23899
1004.158	64.63732
1004.327	89.9361
1004.495	5.61975
1004.663	33.01848
1004.832	9.83468
1005	-63.91243
1005.168	47.77329
1005.337	-7.02445
1005.505	-53.37899
1005.673	-25.98912
1005.842	-2.80981
1006.01	68.85356
1006.178	62.52924
1006.346	51.98916
1006.514	-9.13173
1006.683	30.91075
1006.851	20.37242
1007.019	1.40492
1007.187	51.98916
1007.355	-36.52418
1007.523	37.23403
1007.691	-4.91714
1007.859	-11.23899
1008.027	-9.13173
1008.195	24.58768
1008.363	100.4782
1008.531	49.88122
1008.699	68.85356
1008.867	77.2863
1009.035	16.15725
1009.203	51.98916
1009.37	51.98916
1009.538	14.04971
1009.706	-11.23899
1009.874	47.77329
1010.042	66.74543
1010.209	-7.02445
1010.377	43.55752
1010.545	-34.41722
1010.713	51.98916
1010.88	-7.02445
1011.048	-19.66778
1011.216	35.12624
1011.383	64.63732
1011.551	75.17808
1011.718	60.42118
1011.886	66.74543
1012.054	33.01848
1012.221	22.48004
1012.389	-13.34623
1012.556	41.44967
1012.724	-17.56062
1012.891	16.15725
1013.058	58.31314
1013.226	51.98916
1013.393	24.58768
1013.561	30.91075
1013.728	5.61975
1013.895	56.20513
1014.063	7.72721
1014.23	-11.23899
1014.397	26.69535
1014.565	3.51233
1014.732	-0.70246
1014.899	-19.66778
1015.066	26.69535
1015.233	-36.52418
1015.401	22.48004
1015.568	35.12624
1015.735	92.04447
1015.902	60.42118
1016.069	24.58768
1016.236	-17.56062
1016.403	-61.80579
1016.57	9.83468
1016.737	35.12624
1016.904	-19.66778
1017.071	56.20513
1017.238	-17.56062
1017.405	58.31314
1017.572	-28.09618
1017.739	51.98916
1017.906	30.91075
1018.073	5.61975
1018.24	-61.80579
1018.407	45.6654
1018.573	-11.23899
1018.74	30.91075
1018.907	14.04971
1019.074	20.37242
1019.241	64.63732
1019.407	-19.66778
1019.574	113.12946
1019.741	-2.80981
1019.907	-34.41722
1020.074	30.91075
1020.241	16.15725
1020.407	41.44967
1020.574	-2.80981
1020.74	-36.52418
1020.907	-40.73804
1021.073	58.31314
1021.24	16.15725
1021.406	-57.59244
1021.573	24.58768
1021.739	5.61975
1021.906	77.2863
1022.072	-25.98912
1022.239	-19.66778
1022.405	54.09713
1022.571	35.12624
1022.738	49.88122
1022.904	18.26482
1023.07	-36.52418
1023.237	24.58768
1023.403	1.40492
1023.569	75.17808
1023.735	-23.88203
1023.902	-7.02445
1024.068	14.04971
1024.234	18.26482
1024.4	92.04447
1024.566	43.55752
1024.732	14.04971
1024.898	16.15725
1025.065	43.55752
1025.231	39.34183
1025.397	-19.66778
1025.563	43.55752
1025.729	-15.45344
1025.895	-36.52418
1026.061	24.58768
1026.227	56.20513
1026.392	-2.80981
1026.558	47.77329
1026.724	-21.77492
1026.89	33.01848
1027.056	56.20513
1027.222	-49.16544
1027.388	89.9361
1027.553	-36.52418
1027.719	43.55752
1027.885	39.34183
1028.051	83.6111
1028.216	22.48004
1028.382	22.48004
1028.548	-25.98912
1028.713	-23.88203
1028.879	111.02086
1029.045	22.48004
1029.21	-19.66778
1029.376	56.20513
1029.541	81.50281
1029.707	-28.09618
1029.873	-11.23899
1030.038	56.20513
1030.204	-19.66778
1030.369	51.98916
1030.534	-42.84492
1030.7	58.31314
1030.865	5.61975
1031.031	39.34183
1031.196	-7.02445
1031.361	81.50281
1031.527	43.55752
1031.692	5.61975
1031.857	41.44967
1032.023	58.31314
1032.188	-9.13173
1032.353	18.26482
1032.518	-28.09618
1032.684	16.15725
1032.849	-25.98912
1033.014	18.26482
1033.179	66.74543
1033.344	89.9361
1033.509	3.51233
1033.674	47.77329
1033.839	68.85356
1034.004	60.42118
1034.17	35.12624
1034.335	106.80373
1034.5	68.85356
1034.664	9.83468
1034.829	-15.45344
1034.994	22.48004
1035.159	7.72721
1035.324	-4.91714
1035.489	-0.70246
1035.654	-2.80981
1035.819	14.04971
1035.984	56.20513
1036.148	26.69535
1036.313	22.48004
1036.478	14.04971
1036.643	41.44967
1036.807	81.50281
1036.972	30.91075
1037.137	43.55752
1037.301	-36.52418
1037.466	-40.73804
1037.631	-4.91714
1037.795	47.77329
1037.96	22.48004
1038.124	33.01848
1038.289	14.04971
1038.454	-19.66778
1038.618	18.26482
1038.783	-17.56062
1038.947	-28.09618
1039.111	-2.80981
1039.276	30.91075
1039.44	-76.55171
1039.605	-36.52418
1039.769	39.34183
1039.933	-42.84492
1040.098	43.55752
1040.262	11.94218
1040.426	11.94218
1040.591	58.31314
1040.755	43.55752
1040.919	56.20513
1041.083	30.91075
1041.248	89.9361
1041.412	-47.05863
1041.576	35.12624
1041.74	18.26482
1041.904	-0.70246
1042.068	56.20513
1042.232	73.06989
1042.397	5.61975
1042.561	7.72721
1042.725	-66.01904
1042.889	18.26482
1043.053	9.83468
1043.217	-25.98912
1043.381	35.12624
1043.544	20.37242
1043.708	22.48004
1043.872	73.06989
1044.036	-19.66778
1044.2	16.15725
1044.364	49.88122
1044.528	-0.70246
1044.691	22.48004
1044.855	-19.66778
1045.019	-9.13173
1045.183	9.83468
1045.346	64.63732
1045.51	-49.16544
1045.674	41.44967
1045.837	-36.52418
1046.001	85.71941
1046.165	66.74543
1046.328	75.17808
1046.492	51.98916
1046.655	111.02086
1046.819	37.23403
1046.983	-87.08375
1047.146	54.09713
1047.31	-19.66778
1047.473	5.61975
1047.636	-9.13173
1047.8	14.04971
1047.963	-0.70246
1048.127	5.61975
1048.29	20.37242
