Data from mixed_try1_USB4F045381__37__00141.txt Node

Date: Thu Apr 03 20:04:56 EDT 2025
User: mmckonesweet
Spectrometer: USB4F04538
Trigger mode: 4
Integration Time (sec): 2.700000E-3
Scans to average: 1
Electric dark correction enabled: true
Nonlinearity correction enabled: true
Boxcar width: 0
XAxis mode: Wavelengths
Number of Pixels in Spectrum: 3648
>>>>>Begin Spectral Data<<<<<
345.52	11.94218
345.736	11.94218
345.952	11.94218
346.168	35.12624
346.384	3.51233
346.6	3.51233
346.816	18.26482
347.032	24.58768
347.248	-13.34623
347.464	28.80304
347.68	-0.70246
347.896	20.37242
348.112	-38.63112
348.328	3.51233
348.544	11.94218
348.76	-21.77492
348.975	-36.52418
349.191	22.48004
349.407	-38.63112
349.623	-17.56062
349.839	28.80304
350.055	-0.70246
350.27	35.12624
350.486	-21.77492
350.702	49.88122
350.918	16.15725
351.133	-11.23899
351.349	24.58768
351.565	-7.02445
351.781	11.94218
351.996	28.80304
352.212	-4.91714
352.428	-30.20322
352.644	-13.34623
352.859	-13.34623
353.075	-36.52418
353.291	-30.20322
353.506	-21.77492
353.722	54.09713
353.938	-0.70246
354.153	11.94218
354.369	5.61975
354.584	-59.69913
354.8	14.04971
355.016	-25.98912
355.231	-44.95179
355.447	-4.91714
355.662	-44.95179
355.878	-25.98912
356.093	-13.34623
356.309	7.72721
356.524	7.72721
356.74	-30.20322
356.955	-4.91714
357.171	11.94218
357.386	-30.20322
357.602	-101.8275
357.817	-19.66778
358.033	22.48004
358.248	20.37242
358.464	3.51233
358.679	-30.20322
358.895	-25.98912
359.11	-28.09618
359.325	45.6654
359.541	-21.77492
359.756	-36.52418
359.972	-9.13173
360.187	-55.48573
360.402	-72.33872
360.618	-30.20322
360.833	-21.77492
361.048	-11.23899
361.264	56.20513
361.479	47.77329
361.694	-38.63112
361.909	-25.98912
362.125	3.51233
362.34	-2.80981
362.555	-78.65817
362.77	33.01848
362.986	-40.73804
363.201	-11.23899
363.416	-30.20322
363.631	-0.70246
363.847	37.23403
364.062	-28.09618
364.277	41.44967
364.492	-0.70246
364.707	11.94218
364.922	-4.91714
365.138	-21.77492
365.353	-19.66778
365.568	30.91075
365.783	-7.02445
365.998	-30.20322
366.213	-59.69913
366.428	-13.34623
366.643	79.39455
366.858	-38.63112
367.073	-34.41722
367.288	-17.56062
367.503	33.01848
367.718	37.23403
367.933	-21.77492
368.148	-4.91714
368.363	-82.87101
368.578	60.42118
368.793	62.52924
369.008	-7.02445
369.223	37.23403
369.438	-38.63112
369.653	5.61975
369.868	-63.91243
370.083	7.72721
370.298	-4.91714
370.513	-28.09618
370.728	60.42118
370.943	-55.48573
371.157	-17.56062
371.372	24.58768
371.587	1.40492
371.802	-47.05863
372.017	-28.09618
372.232	-4.91714
372.446	28.80304
372.661	-25.98912
372.876	14.04971
373.091	-38.63112
373.306	28.80304
373.52	-17.56062
373.735	-49.16544
373.95	96.26129
374.165	-82.87101
374.379	37.23403
374.594	1.40492
374.809	11.94218
375.023	-13.34623
375.238	11.94218
375.453	7.72721
375.667	30.91075
375.882	45.6654
376.097	5.61975
376.311	-38.63112
376.526	11.94218
376.741	5.61975
376.955	7.72721
377.17	14.04971
377.384	-4.91714
377.599	-19.66778
377.813	-11.23899
378.028	3.51233
378.242	33.01848
378.457	-4.91714
378.672	3.51233
378.886	11.94218
379.101	9.83468
379.315	11.94218
379.53	-7.02445
379.744	3.51233
379.958	-55.48573
380.173	16.15725
380.387	-47.05863
380.602	-13.34623
380.816	39.34183
381.031	-17.56062
381.245	-28.09618
381.459	-156.57863
381.674	-17.56062
381.888	30.91075
382.103	37.23403
382.317	-21.77492
382.531	-25.98912
382.746	-21.77492
382.96	-38.63112
383.174	-13.34623
383.388	-30.20322
383.603	-70.23219
383.817	-30.20322
384.031	14.04971
384.246	16.15725
384.46	-11.23899
384.674	-51.27223
384.888	-23.88203
385.103	16.15725
385.317	-4.91714
385.531	-44.95179
385.745	-34.41722
385.959	28.80304
386.174	-30.20322
386.388	113.12946
386.602	16.15725
386.816	5.61975
387.03	-34.41722
387.244	41.44967
387.458	14.04971
387.672	5.61975
387.887	-72.33872
388.101	5.61975
388.315	-34.41722
388.529	11.94218
388.743	39.34183
388.957	-72.33872
389.171	-9.13173
389.385	-61.80579
389.599	-34.41722
389.813	-17.56062
390.027	-4.91714
390.241	-21.77492
390.455	75.17808
390.669	39.34183
390.883	-0.70246
391.097	87.82774
391.311	-4.91714
391.525	41.44967
391.738	-21.77492
391.952	20.37242
392.166	54.09713
392.38	62.52924
392.594	41.44967
392.808	-51.27223
393.022	24.58768
393.236	-25.98912
393.449	-19.66778
393.663	28.80304
393.877	-2.80981
394.091	41.44967
394.305	43.55752
394.518	77.2863
394.732	28.80304
394.946	60.42118
395.16	37.23403
395.373	-11.23899
395.587	5.61975
395.801	28.80304
396.015	-0.70246
396.228	-21.77492
396.442	-9.13173
396.656	37.23403
396.869	-0.70246
397.083	3.51233
397.297	-11.23899
397.51	24.58768
397.724	-84.97739
397.938	16.15725
398.151	-15.45344
398.365	73.06989
398.578	20.37242
398.792	-55.48573
399.005	11.94218
399.219	-19.66778
399.433	-51.27223
399.646	-13.34623
399.86	37.23403
400.073	28.80304
400.287	28.80304
400.5	45.6654
400.714	11.94218
400.927	-13.34623
401.141	-28.09618
401.354	-89.19007
401.567	45.6654
401.781	45.6654
401.994	18.26482
402.208	24.58768
402.421	22.48004
402.635	-4.91714
402.848	56.20513
403.061	-7.02445
403.275	56.20513
403.488	-13.34623
403.701	11.94218
403.915	18.26482
404.128	62.52924
404.341	-47.05863
404.555	3.51233
404.768	28.80304
404.981	-7.02445
405.195	54.09713
405.408	-34.41722
405.621	47.77329
405.834	-106.03976
406.048	30.91075
406.261	11.94218
406.474	11.94218
406.687	-93.40265
406.9	35.12624
407.114	14.04971
407.327	37.23403
407.54	-55.48573
407.753	28.80304
407.966	24.58768
408.179	16.15725
408.392	-61.80579
408.605	5.61975
408.819	-55.48573
409.032	45.6654
409.245	89.9361
409.458	3.51233
409.671	-17.56062
409.884	45.6654
410.097	-17.56062
410.31	-61.80579
410.523	28.80304
410.736	41.44967
410.949	66.74543
411.162	54.09713
411.375	7.72721
411.588	3.51233
411.801	33.01848
412.014	-19.66778
412.227	-23.88203
412.44	24.58768
412.653	-19.66778
412.865	3.51233
413.078	7.72721
413.291	33.01848
413.504	-47.05863
413.717	11.94218
413.93	-30.20322
414.143	-21.77492
414.356	37.23403
414.568	49.88122
414.781	37.23403
414.994	89.9361
415.207	39.34183
415.42	-7.02445
415.632	-15.45344
415.845	-17.56062
416.058	28.80304
416.271	-25.98912
416.483	-23.88203
416.696	77.2863
416.909	28.80304
417.121	30.91075
417.334	16.15725
417.547	-30.20322
417.759	14.04971
417.972	5.61975
418.185	9.83468
418.397	-38.63112
418.61	-7.02445
418.823	20.37242
419.035	73.06989
419.248	37.23403
419.46	-9.13173
419.673	47.77329
419.885	33.01848
420.098	100.4782
420.311	73.06989
420.523	16.15725
420.736	-17.56062
420.948	11.94218
421.161	79.39455
421.373	-4.91714
421.586	28.80304
421.798	1.40492
422.01	54.09713
422.223	9.83468
422.435	64.63732
422.648	5.61975
422.86	11.94218
423.073	30.91075
423.285	11.94218
423.497	7.72721
423.71	66.74543
423.922	-13.34623
424.134	-0.70246
424.347	5.61975
424.559	49.88122
424.771	11.94218
424.984	26.69535
425.196	7.72721
425.408	73.06989
425.621	70.96171
425.833	-61.80579
426.045	-36.52418
426.257	5.61975
426.47	30.91075
426.682	-11.23899
426.894	39.34183
427.106	45.6654
427.318	22.48004
427.531	24.58768
427.743	-47.05863
427.955	-4.91714
428.167	24.58768
428.379	-17.56062
428.591	20.37242
428.804	20.37242
429.016	20.37242
429.228	-4.91714
429.44	9.83468
429.652	-44.95179
429.864	49.88122
430.076	-34.41722
430.288	-34.41722
430.5	22.48004
430.712	-42.84492
430.924	-25.98912
431.136	28.80304
431.348	-17.56062
431.56	3.51233
431.772	62.52924
431.984	22.48004
432.196	22.48004
432.408	39.34183
432.62	-23.88203
432.832	11.94218
433.044	-32.31023
433.256	16.15725
433.468	68.85356
433.679	-4.91714
433.891	37.23403
434.103	37.23403
434.315	20.37242
434.527	87.82774
434.739	79.39455
434.95	9.83468
435.162	83.6111
435.374	-4.91714
435.586	24.58768
435.798	-4.91714
436.009	87.82774
436.221	64.63732
436.433	-38.63112
436.645	30.91075
436.856	18.26482
437.068	-0.70246
437.28	79.39455
437.491	33.01848
437.703	30.91075
437.915	125.7815
438.126	39.34183
438.338	7.72721
438.55	54.09713
438.761	47.77329
438.973	-4.91714
439.184	-4.91714
439.396	9.83468
439.608	58.31314
439.819	28.80304
440.031	60.42118
440.242	68.85356
440.454	113.12946
440.665	-0.70246
440.877	49.88122
441.088	37.23403
441.3	33.01848
441.511	47.77329
441.723	-13.34623
441.934	56.20513
442.146	33.01848
442.357	60.42118
442.569	37.23403
442.78	-28.09618
442.991	24.58768
443.203	58.31314
443.414	11.94218
443.626	39.34183
443.837	28.80304
444.048	79.39455
444.26	3.51233
444.471	87.82774
444.682	62.52924
444.894	28.80304
445.105	28.80304
445.316	5.61975
445.528	35.12624
445.739	3.51233
445.95	73.06989
446.161	28.80304
446.373	79.39455
446.584	-28.09618
446.795	68.85356
447.006	-40.73804
447.217	176.39736
447.429	87.82774
447.64	89.9361
447.851	62.52924
448.062	18.26482
448.273	85.71941
448.484	81.50281
448.695	28.80304
448.907	49.88122
449.118	5.61975
449.329	30.91075
449.54	11.94218
449.751	24.58768
449.962	-13.34623
450.173	47.77329
450.384	60.42118
450.595	37.23403
450.806	113.12946
451.017	68.85356
451.228	64.63732
451.439	64.63732
451.65	85.71941
451.861	45.6654
452.072	87.82774
452.283	39.34183
452.494	96.26129
452.705	20.37242
452.915	45.6654
453.126	-4.91714
453.337	113.12946
453.548	33.01848
453.759	70.96171
453.97	70.96171
454.181	18.26482
454.391	56.20513
454.602	47.77329
454.813	22.48004
455.024	7.72721
455.235	68.85356
455.445	43.55752
455.656	39.34183
455.867	87.82774
456.078	60.42118
456.288	104.6952
456.499	47.77329
456.71	113.12946
456.921	16.15725
457.131	47.77329
457.342	144.76102
457.553	75.17808
457.763	45.6654
457.974	47.77329
458.184	113.12946
458.395	73.06989
458.606	28.80304
458.816	96.26129
459.027	35.12624
459.237	68.85356
459.448	81.50281
459.659	108.91229
459.869	151.08791
460.08	37.23403
460.29	104.6952
460.501	70.96171
460.711	140.5432
460.922	182.72519
461.132	108.91229
461.343	54.09713
461.553	85.71941
461.764	121.56407
461.974	138.43433
462.184	125.7815
462.395	148.97893
462.605	70.96171
462.816	113.12946
463.026	104.6952
463.236	172.17891
463.447	132.10782
463.657	87.82774
463.867	151.08791
464.078	159.52406
464.288	208.03833
464.498	113.12946
464.709	165.85139
464.919	123.67278
465.129	172.17891
465.339	159.52406
465.55	113.12946
465.76	155.30595
465.97	132.10782
466.18	182.72519
466.391	197.49084
466.601	172.17891
466.811	231.24458
467.021	214.36707
467.231	239.6838
467.441	241.79366
467.651	267.11341
467.862	216.47669
468.072	197.49084
468.282	208.03833
468.492	205.9288
468.702	243.90353
468.912	290.32557
469.122	214.36707
469.332	260.78321
469.542	269.22351
469.752	319.87153
469.962	328.31388
470.172	315.65046
470.382	378.97385
470.592	353.64262
470.802	345.19943
471.012	328.31388
471.222	391.64037
471.432	391.64037
471.642	353.64262
471.852	400.08505
472.062	404.30748
472.272	429.64347
472.482	412.75256
472.691	442.31232
472.901	471.87515
473.111	351.5318
473.321	571.14282
473.531	571.14282
473.741	524.6732
473.95	617.61889
474.16	543.68269
474.37	596.49263
474.58	615.5062
474.79	689.45734
474.999	531.00957
475.209	645.0849
475.419	630.29525
475.628	729.60814
475.838	773.98982
476.048	678.89201
476.258	797.23912
476.467	873.33561
476.677	776.10334
476.886	926.18683
477.096	892.36148
477.306	949.44289
477.515	913.50209
477.725	947.32867
477.935	991.72881
478.144	1108.02773
478.354	1059.39158
478.563	1156.66639
478.773	1078.42279
478.982	1131.2894
479.192	1215.88153
479.401	1232.80063
479.611	1211.65179
479.82	1086.88125
480.03	1289.90392
480.239	1495.06186
480.449	1359.69893
480.658	1539.47768
480.868	1516.21229
481.077	1738.28187
481.287	1514.09725
481.496	1550.05281
481.705	1461.22106
481.915	1767.88883
482.124	1577.548
482.333	1932.82616
482.543	1706.55934
482.752	1890.53742
482.961	1890.53742
483.171	1964.54121
483.38	1704.44448
483.589	1964.54121
483.799	2159.0274
484.008	2313.3
484.217	2053.33582
484.426	2252.01931
484.636	2070.24773
484.845	2330.20361
485.054	2171.70908
485.263	2355.55786
485.472	2302.73493
485.682	2469.63369
485.891	2463.29696
486.1	2376.6853
486.309	2488.64328
486.518	2615.35008
486.727	2623.79568
486.936	2615.35008
487.146	2482.30685
487.355	2735.68072
487.564	2710.35143
487.773	2929.80666
487.982	2712.46227
488.191	2889.72522
488.4	2771.56063
488.609	2919.25942
488.818	2809.54686
489.027	3146.99545
489.236	3087.97015
489.445	3277.64885
489.654	3134.34823
489.863	3330.31341
490.072	3176.50337
490.281	3399.81407
490.49	3117.48436
490.698	3425.08229
490.907	3486.13654
491.116	3627.13416
491.325	3433.50446
491.534	3467.19029
491.743	3349.27002
491.952	3782.76443
492.16	3458.76926
492.369	3738.60981
492.578	3700.75619
492.787	3816.40026
492.996	3791.17386
493.204	3913.075
493.413	3875.25078
493.622	3862.64127
493.831	3662.89634
494.039	4116.79203
494.248	3965.59781
494.457	4097.89862
494.665	4001.30607
494.874	4141.9806
495.083	4183.95484
495.291	4399.98708
495.5	4332.89472
495.709	4402.08336
495.917	4404.17961
496.126	4404.17961
496.335	4316.11816
496.543	4334.99169
496.752	4391.60175
496.96	4513.15472
497.169	4387.40896
497.377	4521.53496
497.586	4395.79446
497.794	4630.44567
498.003	4580.18667
498.211	4709.99604
498.42	4483.82112
498.628	4827.16872
498.837	4730.92494
499.045	4910.81978
499.254	4735.11045
499.462	4603.22364
499.671	4994.43416
499.879	5144.84695
500.087	4845.99339
500.296	5113.52087
500.504	4944.26995
500.713	5318.08987
500.921	5128.14036
501.129	5073.83365
501.338	5094.7227
501.546	5203.30831
501.754	5123.96348
501.962	5268.01207
502.171	5253.4035
502.379	5349.38164
502.587	5474.49593
502.795	5547.44017
503.004	5330.60721
503.212	5557.85842
503.42	5357.72522
503.628	5509.92959
503.837	5491.17144
504.045	5618.27266
504.253	5518.26594
504.461	5632.85243
504.669	5564.10909
504.877	5672.42028
505.085	5595.35925
505.294	5890.93107
505.502	5720.3068
505.71	5903.40955
505.918	5728.63362
506.126	6078.01906
506.334	5730.71527
506.542	6019.83436
506.75	5647.43105
506.958	5940.83987
507.166	5841.00869
507.374	6030.22584
507.582	5901.32986
507.79	6210.94343
507.998	6075.94135
508.206	6186.02744
508.414	6071.78587
508.622	6275.29413
508.83	6067.63029
509.037	6293.97237
509.245	6107.10449
509.453	6356.21951
509.661	6329.24833
509.869	6526.25469
510.077	6302.2732
510.285	6227.55222
510.492	6277.36958
510.7	6333.398
510.908	6260.76529
511.116	6401.85406
511.324	6345.84645
511.531	6517.96392
511.739	6273.21865
511.947	6563.5586
512.155	6727.19288
512.362	6565.63081
512.57	6534.5451
512.778	6609.14208
512.985	6691.99256
513.193	6797.57366
513.401	6642.2867
513.608	7014.76009
513.816	6818.26887
514.024	6896.88989
514.231	6733.40402
514.439	6818.26887
514.646	6766.52658
514.854	6803.78246
515.061	6783.08566
515.269	7113.96254
515.477	6766.52658
515.684	7000.28875
515.892	6892.75276
516.099	6969.27502
516.307	6965.13947
516.514	7120.16098
516.722	7262.66998
516.929	7144.95275
517.136	7113.96254
517.344	7124.29317
517.551	7008.55822
517.759	7390.63205
517.966	7409.20021
518.173	7134.62324
518.381	7188.33063
518.588	7570.05084
518.796	7427.76661
519.003	7436.01778
519.21	7289.50772
519.418	7685.45297
519.625	7270.92815
519.832	7572.11218
520.039	7446.33125
520.247	7668.97103
520.454	7592.72439
520.661	7699.87356
520.868	7652.48773
521.076	7879.01514
521.283	7668.97103
521.49	7864.60728
521.697	7767.84244
521.904	7879.01514
522.112	7806.96568
522.319	7856.37376
522.526	7757.54559
522.733	8132.01815
522.94	7891.36393
523.147	8068.28211
523.354	7940.75166
523.561	8146.40749
523.768	8154.62953
523.975	8405.24994
524.183	8078.56343
524.39	8173.12795
524.597	8210.11996
524.804	8255.3237
525.011	8327.21911
525.218	8427.8326
525.425	8364.18457
525.632	8290.24733
525.838	8300.5179
526.045	8242.99636
526.252	8604.30836
526.459	8645.32925
526.666	8300.5179
526.873	8653.53254
527.08	8534.55563
527.287	8628.92179
527.494	8532.50375
527.701	8858.519
527.907	8458.62339
528.114	8688.39318
528.321	8805.24006
528.528	8579.69224
528.735	8669.93821
528.941	8942.51114
529.148	8630.97279
529.355	8969.13656
529.562	8645.32925
529.768	9055.13682
529.975	8751.94886
530.182	8975.28046
530.388	8840.07767
530.595	8883.10517
530.802	8915.88273
531.008	9083.79673
531.215	8942.51114
531.422	9202.49476
531.628	9214.77059
531.835	9073.56144
532.042	9259.7768
532.248	9456.07354
532.455	9214.77059
532.661	9447.89752
532.868	9374.30163
533.074	9327.27093
533.281	9130.87353
533.487	9458.11751
533.694	9423.3679
533.9	9227.04582
534.107	9413.14653
534.313	9570.51097
534.52	9774.7413
534.726	9887.00317
534.933	9478.55628
535.139	9742.07477
535.345	9750.24177
535.552	9913.53123
535.758	9750.24177
535.965	9895.16591
536.171	9997.18051
536.377	9876.7994
536.584	10005.34012
536.79	10160.32941
536.996	9868.63612
537.203	10107.31591
537.409	9935.97612
537.615	10066.52985
537.821	9813.52778
538.028	10174.60067
538.234	10105.27674
538.44	10239.83215
538.646	10093.04143
538.853	10404.8876
539.059	10070.60871
539.265	10313.20092
539.471	10060.41145
539.677	10158.29061
539.883	10241.8704
540.09	10386.5524
540.296	10445.62872
540.502	10421.18467
540.708	10292.82246
540.914	10649.25785
541.12	10331.5404
541.326	10783.58555
541.532	10618.72145
541.738	10814.10733
541.944	10728.63964
542.15	10913.79356
542.356	10746.95591
542.562	10716.42825
542.768	10537.27741
542.974	10736.78032
543.18	10980.91373
543.386	11137.48057
543.592	10954.47392
543.798	11113.08478
544.004	10989.04868
544.21	10923.96408
544.415	11001.25077
544.621	11151.71074
544.827	11170.00591
545.033	11196.43075
545.239	10885.31461
545.445	11123.24988
545.651	11178.13682
545.856	11354.94316
546.062	11306.17671
546.268	11210.65878
546.474	11102.91941
546.679	10885.31461
546.885	11111.05173
547.091	11218.78886
547.297	11098.85319
547.502	11332.59259
547.708	11446.36485
547.914	11245.21045
548.119	11417.92468
548.325	11464.64682
548.531	11094.78692
548.736	11440.27069
548.942	11334.62451
549.147	11237.08091
549.353	11621.02788
549.559	11539.7979
549.764	11566.19927
549.97	11428.0821
550.175	11588.53766
550.381	11976.24285
550.586	11748.93567
550.792	11994.50413
550.997	11671.78918
551.203	11907.24992
551.408	11710.36402
551.614	11852.45465
551.819	11779.38474
552.025	11992.47513
552.23	11913.33791
552.435	11964.06831
552.641	11811.86162
552.846	12219.6749
553.052	11955.95179
553.257	12150.71359
553.462	12288.6278
553.668	12136.5146
553.873	11978.27192
554.078	12394.06945
554.283	12270.37637
554.489	12469.08407
554.694	12248.06828
554.899	12264.29243
555.105	12410.2896
555.31	12396.097
555.515	12387.98679
555.72	12485.30225
555.925	12329.1845
556.131	12485.30225
556.336	12333.24002
556.541	12692.04878
556.746	12600.845
556.951	12742.71236
557.156	12361.62786
557.361	12700.1552
557.567	12708.26152
557.772	12485.30225
557.977	12728.52692
558.182	12600.845
558.387	12450.8381
558.592	12910.89016
558.797	12698.1286
559.002	12716.36775
559.207	12779.1879
559.412	12635.3012
559.617	12469.08407
559.822	12744.73882
560.027	12687.99554
560.232	12771.08238
560.437	12872.39495
560.642	13014.21009
560.847	12760.95036
561.051	13062.8267
561.256	12872.39495
561.461	13014.21009
561.666	13087.13395
561.871	13081.0572
562.076	13010.15858
562.281	13166.1278
562.485	12617.0599
562.69	12993.95233
562.895	12837.95022
563.1	12902.78606
563.305	13089.15952
563.509	13392.94433
563.714	13198.5335
563.919	13311.94454
564.123	13315.99469
564.328	13026.36451
564.533	12947.35755
564.737	13204.60944
564.942	13255.24072
565.147	13449.64038
565.351	13338.27019
565.556	13532.65421
565.761	13194.48285
565.965	13490.13571
566.17	13277.51762
566.374	13536.7035
566.579	13070.92919
566.784	13429.39214
566.988	13538.72815
567.193	13959.78325
567.397	13560.99898
567.602	13360.5452
567.806	13421.29274
568.011	13500.25931
568.215	13763.4423
568.42	14022.5261
568.624	13538.72815
568.828	13662.22475
569.033	13617.68647
569.237	13925.37485
569.442	13801.90295
569.646	13761.41803
569.85	13980.02314
570.055	13844.41085
570.259	13838.33837
570.463	13739.15081
570.668	13870.72463
570.872	13739.15081
571.076	13872.74875
571.281	13761.41803
571.485	13868.70051
571.689	14000.26278
571.893	13880.84519
572.098	13878.82109
572.302	13836.3142
572.506	13977.99916
572.71	14042.76522
572.914	14143.9574
573.119	14200.62265
573.323	14093.36201
573.527	14083.24277
573.731	14336.20834
573.935	13990.14299
574.139	14273.47569
574.343	14089.31432
574.547	14297.7595
574.751	14362.51509
574.955	14455.59835
575.159	14255.26266
575.364	14208.71756
575.568	13959.78325
575.772	14457.62186
575.976	13795.83029
576.18	14214.78872
576.383	14435.36313
576.587	14481.90392
576.791	14313.94856
576.995	14550.70203
577.199	14465.7159
577.403	14601.28797
577.607	14591.17084
577.811	14775.29865
578.015	14605.33481
578.219	14437.38666
578.422	14809.69536
578.626	14566.88961
578.83	14469.76292
579.034	14734.83164
579.238	14402.98647
579.442	14864.32503
579.645	14645.80301
579.849	14991.79276
580.053	14522.37358
580.257	14647.82641
580.46	14852.18514
580.664	14941.21054
580.868	14850.16183
581.071	14856.23178
581.275	15070.70064
581.479	15507.73015
581.682	14874.44159
581.886	14811.71869
582.09	15016.07215
582.293	14920.97758
582.497	14941.21054
582.7	15064.63082
582.904	15179.95731
583.107	15157.70133
583.311	15232.56237
583.515	15432.86757
583.718	15408.58797
583.922	15167.81769
584.125	15119.25919
584.329	15364.07552
584.532	15287.19079
584.735	15523.91676
584.939	15254.81837
585.142	15319.56326
585.346	15192.09693
585.549	15258.86492
585.753	15463.21718
585.956	15590.68697
586.159	15447.03071
586.363	15147.58498
586.566	15390.37831
586.769	15451.07732
586.973	15546.17341
587.176	15536.05674
587.379	15558.31344
587.582	15580.57022
587.786	15475.35705
587.989	15766.72178
588.192	15493.5669
588.395	15716.13635
588.599	15851.7068
588.802	15878.0121
589.005	15378.23855
589.208	16236.19215
589.411	16137.03017
589.615	16183.57509
589.818	15851.7068
590.021	15884.08258
590.224	15851.7068
590.427	15839.56596
590.63	15831.47209
590.833	15934.67037
591.036	15827.42517
591.239	15993.35323
591.442	16096.55702
591.645	16031.80126
591.848	16027.75407
592.051	16114.76986
592.254	16102.62795
592.457	16224.04965
592.66	15855.75376
592.863	15993.35323
593.066	16153.21961
593.269	16220.00216
593.472	16183.57509
593.675	16387.97893
593.878	16155.2433
594.081	16444.64875
594.284	16120.84084
594.486	16774.58141
594.689	16606.57147
594.892	16487.15215
595.095	16151.19593
595.298	16578.234
595.5	16592.40268
595.703	16738.14414
595.906	16472.98425
596.109	16717.90155
596.311	16618.71623
596.514	16477.03221
596.717	16531.68051
596.92	16584.30627
597.122	16863.65363
597.325	16313.09615
597.528	16523.58437
597.73	16707.78034
597.933	16594.42678
598.136	17161.27251
598.338	16979.04998
598.541	17049.91165
598.743	16813.04382
598.946	16756.36268
599.148	16859.60479
599.351	16859.60479
599.554	16916.28952
599.756	16851.50714
599.959	17092.43026
600.161	16920.3385
600.363	16802.92205
600.566	17149.12364
600.768	16966.9026
600.971	17473.12989
601.173	17456.92773
601.376	17410.34762
601.578	17309.09214
601.78	17151.14845
601.983	16918.31401
602.185	17201.7695
602.388	17094.45498
602.59	17215.94371
602.792	16997.27124
602.995	17252.39235
603.197	16855.55596
603.399	16991.19746
603.601	17035.73905
603.804	17011.44348
604.006	16948.6817
604.208	16898.06921
604.41	17149.12364
604.613	17471.10461
604.815	17086.35609
605.017	17367.81939
605.219	17102.55391
605.421	17458.95299
605.623	17367.81939
605.826	17511.61083
606.028	17199.74462
606.23	17568.32169
606.432	17201.7695
606.634	17335.41783
606.836	17236.19284
607.038	17568.32169
607.24	17635.16273
607.442	17207.84414
607.644	17207.84414
607.846	17620.98403
608.048	17740.49529
608.25	17744.54672
608.452	17337.44291
608.654	17898.51126
608.856	17169.37182
609.058	17430.59964
609.26	17764.80409
609.462	17679.72541
609.664	17756.7011
609.866	17774.9329
610.067	17402.2469
610.269	17594.65258
610.471	17303.01705
610.673	17541.99134
610.875	17633.13719
611.077	17793.16497
611.278	17398.19656
611.48	17406.29726
611.682	17128.87575
611.884	17558.19456
612.085	17118.75191
612.287	17793.16497
612.489	17625.03507
612.69	17529.83905
612.892	17801.2682
613.094	17702.00735
613.295	17418.44839
613.497	17853.94054
613.699	17766.82984
613.9	17807.34566
614.102	17562.2454
614.304	17669.59739
614.505	17807.34566
614.707	17973.47491
614.908	17404.27208
615.11	17736.44387
615.311	17446.80148
615.513	17398.19656
615.714	17726.31538
615.916	17985.63164
616.117	17509.58549
616.319	18190.28918
616.52	18101.12691
616.722	18034.25981
616.923	18042.3647
617.124	17920.79725
617.326	17785.06179
617.527	18269.32532
617.729	17922.82327
617.93	17902.56322
618.131	18119.36407
618.333	18139.62793
618.534	17949.16185
618.735	17922.82327
618.937	17582.49979
619.138	17657.44387
619.339	17778.98444
619.54	17787.08758
619.742	17663.52061
619.943	17746.57244
620.144	17635.16273
620.345	18070.73229
620.546	18044.39094
620.748	18326.0727
620.949	17904.58921
621.15	17809.37148
621.351	17855.96644
621.552	17979.55326
621.753	17620.98403
621.954	18056.54841
622.155	17535.91518
622.356	17756.7011
622.558	18095.04792
622.759	18048.44341
622.96	17973.47491
623.161	18139.62793
623.362	17973.47491
623.563	18159.89216
623.764	17594.65258
623.965	17872.17381
624.166	17740.49529
624.366	17764.80409
624.567	17623.00955
624.768	17787.08758
624.969	17618.95852
625.17	18036.28603
625.371	17930.92738
625.572	17918.77123
625.773	17795.19077
625.973	18036.28603
626.174	17746.57244
626.375	17930.92738
626.576	17941.05761
626.777	18163.94505
626.977	17643.26492
627.178	18194.34218
627.379	17971.44881
627.58	17910.6672
627.78	17937.00551
627.981	18137.60153
628.182	18109.23228
628.382	18022.10257
628.583	18093.0216
628.784	18068.70601
628.984	17995.76234
629.185	18245.00591
629.386	18088.96896
629.586	18506.46794
629.787	18340.26
629.987	18180.15675
630.188	18086.94265
630.388	18492.27845
630.589	18107.20593
630.79	18153.81285
630.99	18368.63516
631.191	18202.44822
631.391	18198.39519
631.591	18417.28001
631.792	18026.15497
631.992	18482.14322
632.193	18344.31355
632.393	18283.51189
632.594	18170.02441
632.794	18080.86374
632.994	18366.60834
633.195	18516.6034
633.395	18721.36048
633.595	18780.1595
633.796	18605.79962
633.996	18802.46345
634.196	18648.37319
634.397	18622.01792
634.597	18435.52239
634.797	18496.33257
634.997	17975.50103
635.198	18123.41682
635.398	18202.44822
635.598	18540.9289
635.798	18405.11859
635.998	18058.57466
636.199	18579.44541
636.399	18534.84747
636.599	18425.3877
636.799	18358.50109
636.999	18222.71358
637.199	18127.46957
637.399	18399.03793
637.599	18583.49986
637.799	18626.07253
637.999	18723.38797
638.199	18364.58152
638.399	18583.49986
638.599	18249.0591
638.799	18812.60177
638.999	18964.68852
639.199	18889.65624
639.399	18826.79558
639.599	18780.1595
639.799	18443.63022
639.999	18565.25495
640.199	18684.8662
640.399	18765.96633
640.599	18078.83744
640.799	19130.996
640.998	18845.04506
641.198	19019.44529
641.398	18613.90874
641.598	18607.82689
641.798	18613.90874
641.997	18295.67195
642.197	18478.08916
642.397	18993.08055
642.597	18735.55304
642.796	19064.0641
642.996	18599.71782
643.196	18557.1462
643.395	18751.77335
643.595	18826.79558
643.795	18364.58152
643.994	18739.60809
644.194	18626.07253
644.394	19080.28961
644.593	18648.37319
644.793	19057.9796
644.992	18913.99044
645.192	18810.5741
645.392	18761.91117
645.591	18830.85099
645.791	18739.60809
645.99	18699.05827
646.19	18944.40899
646.389	18589.58156
646.589	19092.45891
646.788	18871.40598
646.987	18930.21355
647.187	19218.21696
647.386	19130.996
647.586	19544.85616
647.785	19088.40246
647.984	19155.33597
648.184	18867.35041
648.383	18895.73974
648.582	19197.93234
648.782	19177.64813
648.981	18804.49111
649.18	18759.8836
649.38	19009.30493
649.579	19297.33091
649.778	19090.43068
649.977	19467.7515
650.177	19005.24881
650.376	19088.40246
650.575	19033.64197
650.774	18855.18379
650.973	18820.7125
651.173	19110.71313
651.372	18818.68481
651.571	18982.94045
651.77	19159.39269
651.969	19293.27363
652.168	18828.82329
652.367	19268.93031
652.566	18808.54643
652.765	19118.82623
652.964	19139.10925
653.163	19246.61612
653.362	19013.36106
653.561	19141.13758
653.76	19161.42105
653.959	19191.84703
654.158	19402.82593
654.357	18984.96847
654.556	18889.65624
654.755	19220.24544
654.954	18991.05253
655.153	19076.2332
655.352	19297.33091
655.551	19329.78972
655.749	19605.7325
655.948	19506.30308
656.147	19343.99079
656.346	19433.25926
656.545	19467.7515
656.743	19191.84703
656.942	19366.30715
657.141	19492.09969
657.34	19431.23034
657.538	19589.49844
657.737	19346.01953
657.936	19648.34818
658.135	19236.47347
658.333	19266.90172
658.532	19173.59133
658.731	19303.41685
658.929	18822.74019
659.128	18942.38106
659.326	19017.41721
659.525	18991.05253
659.724	19337.90459
659.922	19289.21637
660.121	19327.76101
660.319	19256.75887
660.518	18765.96633
660.716	19772.14705
660.915	19402.82593
661.113	19390.65285
661.312	19447.4618
661.51	19498.18683
661.709	19331.81843
661.907	19163.44942
662.105	19337.90459
662.304	19173.59133
662.502	19212.13153
662.701	19492.09969
662.899	19268.93031
663.097	19421.08581
663.296	19238.50199
663.494	19695.02461
663.692	19461.66455
663.891	19392.68169
664.089	19270.95889
664.287	19204.01768
664.485	19120.85451
664.684	19619.93753
664.882	19039.72632
665.08	19343.99079
665.278	19252.70176
665.476	19141.13758
665.675	19402.82593
665.873	19155.33597
666.071	18980.91244
666.269	19047.83885
666.467	18875.46157
666.665	19297.33091
666.863	19072.17682
667.061	18982.94045
667.259	18897.76758
667.457	19388.62402
667.655	19003.22076
667.853	18828.82329
668.051	18857.21155
668.249	19374.42232
668.447	19145.19424
668.645	19220.24544
668.843	18938.3252
669.041	18881.54498
669.239	19433.25926
669.437	19311.53151
669.635	19270.95889
669.833	19313.56018
670.031	19177.64813
670.229	19339.93332
670.426	19003.22076
670.624	19165.4778
670.822	19080.28961
671.02	19181.70494
671.218	19250.67321
671.415	19041.75445
671.613	18877.48936
671.811	18989.0245
672.009	19208.0746
672.206	19603.70323
672.404	19197.93234
672.602	19520.50667
672.799	18913.99044
672.997	19532.68134
673.195	19279.07329
673.392	19104.62836
673.59	18974.82844
673.788	18500.38671
673.985	18739.60809
674.183	18940.35313
674.38	19072.17682
674.578	19126.93939
674.775	18920.07407
674.973	18678.78394
675.17	19143.16591
675.368	18954.54871
675.565	19171.56294
675.763	19045.81071
675.96	18455.79207
676.158	19457.6066
676.355	18869.37819
676.553	19595.58619
676.75	19104.62836
676.947	19035.67008
677.145	18861.26708
677.342	18877.48936
677.539	18830.85099
677.737	19295.30226
677.934	19060.00776
678.131	19204.01768
678.329	19027.55766
678.526	19266.90172
678.723	19252.70176
678.92	19327.76101
679.118	18735.55304
679.315	19159.39269
679.512	19023.50147
679.709	19098.54361
679.906	18326.0727
680.104	18703.11318
680.301	18699.05827
680.498	18565.25495
680.695	18399.03793
680.892	18496.33257
681.089	18532.82033
681.286	19189.8186
681.483	18427.41463
681.68	18767.99391
681.877	19060.00776
682.075	18993.08055
682.272	18544.9832
682.469	18443.63022
682.665	18222.71358
682.862	18271.35196
683.059	18155.83928
683.256	18121.39044
683.453	18283.51189
683.65	18042.3647
683.847	18147.73358
684.044	18117.33771
684.241	18040.33847
684.438	18573.36376
684.635	18484.17026
684.831	18812.60177
685.028	18630.12716
685.225	18502.41378
685.422	18186.2362
685.619	18415.2531
685.815	18097.07425
686.012	18439.5763
686.209	18366.60834
686.405	18573.36376
686.602	18390.93044
686.799	18366.60834
686.996	18285.53855
687.192	18054.52215
687.389	17947.13578
687.586	18147.73358
687.782	18265.27204
687.979	18399.03793
688.175	18232.8464
688.372	18301.75203
688.568	18052.4959
688.765	18060.60093
688.962	18226.7667
689.158	18240.95272
689.355	18192.31568
689.551	17937.00551
689.748	18417.28001
689.944	18451.7381
690.14	18378.76932
690.337	18397.01106
690.533	18228.79326
690.73	18269.32532
690.926	18524.71183
691.123	18068.70601
691.319	17951.18792
691.515	18230.81983
691.712	17920.79725
691.908	17967.3966
692.104	17904.58921
692.301	17918.77123
692.497	17904.58921
692.693	17849.88873
692.889	18068.70601
693.086	18078.83744
693.282	17669.59739
693.478	18007.91929
693.674	17770.88136
693.87	17774.9329
694.067	17764.80409
694.263	17618.95852
694.459	17847.86284
694.655	18070.73229
694.851	17799.24239
695.047	17655.4183
695.243	17499.45883
695.439	17750.6239
695.635	17618.95852
695.831	17774.9329
696.027	17781.01022
696.224	17932.95342
696.42	17819.50067
696.615	17659.46945
696.811	17386.04561
697.007	17647.31603
697.203	17436.67531
697.399	17230.11807
697.595	17493.38287
697.791	17463.00351
697.987	17568.32169
698.183	17799.24239
698.379	17531.86442
698.575	18005.89313
698.77	17365.79427
698.966	18038.31225
699.162	17766.82984
699.358	18030.20738
699.554	18005.89313
699.749	17888.3814
699.945	17722.26401
700.141	17515.66152
700.337	17689.85351
700.532	17791.13917
700.728	17458.95299
700.924	17649.34159
701.119	17367.81939
701.315	17110.65289
701.511	17242.26764
701.706	17566.29626
701.902	17244.29257
702.097	17262.51714
702.293	17552.11833
702.489	17390.09592
702.684	17469.07933
702.88	17497.43351
703.075	17394.14623
703.271	17641.23937
703.466	17384.02046
703.662	17416.4232
703.857	17264.54211
704.053	17428.57442
704.248	17270.61703
704.443	17795.19077
704.639	17708.08431
704.834	17491.35756
705.03	17507.56015
705.225	16993.22205
705.42	16831.26317
705.616	17130.90053
705.811	16930.46101
706.006	17015.49271
706.202	17161.27251
706.397	17394.14623
706.592	17177.47117
706.787	17311.11717
706.983	17205.81926
707.178	17224.04333
707.373	17673.64859
707.568	17130.90053
707.763	16855.55596
707.959	17303.01705
708.154	17276.69198
708.349	17169.37182
708.544	17157.22288
708.739	17132.92531
708.934	16940.58359
709.129	17199.74462
709.324	16991.19746
709.519	16934.51004
709.714	16889.97136
709.909	17226.06824
710.104	16916.28952
710.299	17163.29734
710.494	16808.99511
710.689	16989.17287
710.884	16993.22205
711.079	17300.99203
711.274	17031.68976
711.469	17515.66152
711.664	16918.31401
711.859	17035.73905
712.054	17041.81301
712.249	17114.7024
712.443	17096.47971
712.638	17100.52918
712.833	16507.39219
713.028	16574.18582
713.223	16197.74111
713.417	16493.22414
713.612	16742.19269
713.807	16916.28952
714.002	16762.43556
714.196	16756.36268
714.391	16517.51229
714.586	16839.36073
714.78	16825.19004
714.975	16707.78034
715.17	16179.52767
715.364	16412.2658
715.559	16470.96027
715.754	16438.57691
715.948	16440.60085
716.143	16430.48115
716.337	16402.14624
716.532	16479.05619
716.726	16689.56232
716.921	16586.33037
717.115	16412.2658
717.31	16738.14414
717.504	16592.40268
717.699	16912.24054
717.893	16454.76852
718.088	16588.35447
718.282	16535.72859
718.476	16361.66847
718.671	16027.75407
718.865	16351.54914
719.059	15805.16714
719.254	15983.23542
719.448	15902.2941
719.642	16321.19146
719.837	15888.12958
720.031	15900.27059
720.225	15776.83895
720.419	16266.54868
720.614	15827.42517
720.808	16047.99006
721.002	15693.87896
721.196	15950.85863
721.39	15857.77724
721.585	15916.45868
721.779	15625.08406
721.973	15809.21405
722.167	15740.41728
722.361	15849.68333
722.555	15797.07335
722.749	15948.8351
722.943	15946.81156
723.137	15621.03733
723.331	15463.21718
723.525	15997.40037
723.719	15770.76865
723.913	15857.77724
724.107	15582.59357
724.301	15934.67037
724.495	15841.58943
724.689	15979.1883
724.883	15831.47209
725.077	16009.54181
725.271	15906.34111
725.465	16159.29068
725.659	15580.57022
725.853	15687.80878
726.046	15505.70683
726.24	15349.91251
726.434	15337.7728
726.628	15768.74521
726.822	15833.49556
727.015	15851.7068
727.209	15691.85556
727.403	15683.76199
727.596	15855.75376
727.79	16029.77767
727.984	15853.73028
728.177	15780.88582
728.371	15778.86238
728.565	15517.84677
728.758	15614.96724
728.952	15592.71032
729.146	15368.1221
729.339	15940.74096
729.533	15596.75703
729.726	15740.41728
729.92	15578.54687
730.113	15621.03733
730.307	15797.07335
730.5	15651.38787
730.694	15457.14725
730.887	15633.17752
731.081	15521.89343
731.274	15606.8738
731.468	15669.59829
731.661	15669.59829
731.854	15246.72528
732.048	15461.19386
732.241	15657.458
732.435	15710.06614
732.628	15659.48138
732.821	15562.36012
733.014	15438.93748
733.208	15171.86423
733.401	15228.51582
733.594	15248.74855
733.788	15497.61354
733.981	15772.79208
734.174	15736.37045
734.367	15467.2638
734.56	15447.03071
734.754	15556.2901
734.947	15641.271
735.14	15592.71032
735.333	15321.58654
735.526	15497.61354
735.719	15378.23855
735.912	15044.39806
736.105	15366.09881
736.298	15147.58498
736.491	14987.74619
736.684	14997.86261
736.877	15333.72623
737.07	15196.14348
737.263	15078.79374
737.456	15608.89716
737.649	15347.88923
737.842	15497.61354
738.035	15333.72623
738.228	15084.86356
738.421	15125.329
738.614	15088.9101
738.807	15313.49341
739	15455.12394
739.192	15260.8882
739.385	15275.05113
739.578	15351.9358
739.771	15447.03071
739.964	15220.42273
740.156	15519.8701
740.349	15315.51669
740.542	15511.7768
740.735	15010.00231
740.927	15129.37554
741.12	15275.05113
741.313	15186.02712
741.505	15362.05224
741.698	15194.1202
741.891	15092.95665
742.083	14904.79118
742.276	15165.79442
742.468	15204.23656
742.661	14918.95428
742.854	14983.69962
743.046	14718.64475
743.239	14819.812
743.431	14874.44159
743.624	14641.75621
743.816	14670.08373
744.009	14631.63919
744.201	14827.9053
744.393	14825.88198
744.586	14947.28042
744.778	14728.76157
744.971	14789.46202
745.163	15001.90918
745.355	14935.14066
745.548	14672.10711
745.74	14572.95993
745.932	14874.44159
746.125	14835.99859
746.317	15066.65409
746.509	14613.42848
746.702	14740.90172
746.894	14516.30316
747.086	14443.45723
747.278	14787.43869
747.471	14520.35011
747.663	14237.04948
747.855	14540.58476
748.047	14548.67858
748.239	14807.67203
748.431	14544.63167
748.623	14955.37359
748.815	14868.37166
749.008	14783.39201
749.2	14710.55128
749.392	14439.41018
749.584	14188.48023
749.776	14437.38666
749.968	14445.48076
750.16	14487.9744
750.352	14469.76292
750.544	14744.94843
750.736	14676.15388
750.928	14678.17727
751.12	14439.41018
751.311	14451.55132
751.503	14554.74893
751.695	14394.89224
751.887	14429.29253
752.079	14508.20926
752.271	14073.12347
752.463	14178.36149
752.654	14386.79799
752.846	14453.57483
753.038	14413.10422
753.23	14388.82156
753.421	14445.48076
753.613	14233.00209
753.805	14508.20926
753.997	14063.00411
754.188	14407.03357
754.38	14188.48023
754.572	14052.88469
754.763	14233.00209
754.955	13909.1824
755.146	14210.74128
755.338	13901.08611
755.53	14002.28673
755.721	14103.4812
755.913	13935.49505
756.104	13982.04712
756.296	14026.57394
756.487	13994.19091
756.679	14508.20926
756.87	14178.36149
757.062	14008.35856
757.253	14085.26662
757.445	13973.9512
757.636	14048.83691
757.827	14103.4812
758.019	14040.74132
758.21	14000.26278
758.401	13888.94159
758.593	13812.02399
758.784	13526.58024
758.975	13587.31851
759.167	13698.66399
759.358	13641.98028
759.549	13816.07239
759.74	13581.24483
759.932	13471.913
760.123	13514.43219
760.314	13222.83702
760.505	13259.2911
760.696	12914.94217
760.888	13563.02358
761.079	13573.14653
761.27	13399.01905
761.461	13127.6445
761.652	13581.24483
761.843	13334.22014
762.034	13480.01202
762.225	13301.8191
762.416	13560.99898
762.607	13322.06987
762.798	13253.21552
762.989	13320.04481
763.18	13313.96961
763.371	13463.81392
763.562	13052.69847
763.753	13255.24072
763.944	13241.06424
764.135	13162.077
764.326	13514.43219
764.517	13352.44525
764.708	13014.21009
764.899	12767.02959
765.089	12921.02016
765.28	13107.38946
765.471	13151.94994
765.662	12608.9525
765.853	12661.64887
766.043	12793.37234
766.234	13018.26158
766.425	12827.81912
766.615	12848.08119
766.806	12785.26698
766.997	12631.24762
767.187	12681.91563
767.378	12882.52545
767.569	12906.83812
767.759	13143.8482
767.95	12949.38346
768.141	13070.92919
768.331	12769.05599
768.522	12756.89751
768.712	12694.07539
768.903	12669.75565
769.093	12406.23461
769.284	12511.65593
769.474	12306.87867
769.665	12396.097
769.855	12523.81879
770.046	12846.05501
770.236	12515.71024
770.426	12858.21202
770.617	12444.756
770.807	12562.33303
770.998	12740.68588
771.188	12718.39429
771.378	12325.12896
771.569	12219.6749
771.759	11976.24285
771.949	12097.97264
772.139	12327.15673
772.33	12059.42791
772.52	12203.44948
772.71	12237.92795
772.9	12177.08216
773.09	11860.57285
773.281	12152.74198
773.471	12369.73842
773.661	11941.74756
773.851	12053.34165
774.041	12073.62893
774.231	12073.62893
774.421	11870.72041
774.611	12033.0536
774.802	11675.84984
774.992	11917.39653
775.182	11761.11553
775.372	11803.74261
775.562	11706.30366
775.752	11643.36355
775.942	11720.51476
776.131	11911.30859
776.321	11807.80213
776.511	11931.60144
776.701	11742.84562
776.891	11667.72849
777.081	11704.27347
777.271	11765.17542
777.461	11893.04432
777.651	11931.60144
777.84	11614.93614
778.03	11535.73601
778.22	11700.21306
778.41	11647.42446
778.599	11261.46902
778.789	11192.36551
778.979	11210.65878
779.169	11135.44765
779.358	11300.0805
779.548	11448.39622
779.738	11346.81582
779.927	11371.19736
780.117	11066.32185
780.307	10820.21137
780.496	11096.82006
780.686	11060.22191
780.875	10936.16832
781.065	11218.78886
781.254	11186.26756
781.444	11167.97316
781.633	11072.42168
781.823	11109.01866
782.012	10785.62042
782.202	10966.67715
782.391	10700.14573
782.581	11119.18387
782.77	11033.78771
782.96	11208.62624
783.149	10869.03991
783.338	11037.85463
783.528	10915.82769
783.717	10968.71098
783.906	10940.23631
784.096	10673.68498
784.285	11003.28441
784.474	10862.93671
784.663	10757.1312
784.853	10942.27029
785.042	10875.14301
785.231	10932.10028
785.42	10901.58857
785.61	10980.91373
785.799	11007.35166
785.988	10801.89894
786.177	10724.56922
786.366	10765.27121
786.555	10494.51124
786.744	10518.94974
786.933	10486.36466
787.122	10834.45372
787.312	10518.94974
787.501	10500.62103
787.69	10376.36572
787.879	10561.71273
788.068	10372.29095
788.257	10366.17871
788.445	10144.01857
788.634	10541.35009
788.823	10174.60067
789.012	10421.18467
789.201	10335.6157
789.39	10327.46506
789.579	10166.44575
789.768	10225.56396
789.957	10150.13524
790.145	9980.86061
790.334	10097.11992
790.523	10260.21412
790.712	9984.94068
790.9	10282.63272
791.089	10003.30024
791.278	10319.3142
791.467	10396.73875
791.655	10512.84028
791.844	10156.25178
792.033	10235.75559
792.221	9860.47261
792.41	10107.31591
792.599	9633.83893
792.787	10015.5393
792.976	10001.26034
793.164	9946.17776
793.353	9842.10383
793.541	9993.10062
793.73	10011.45967
793.918	9707.36232
794.107	9811.48653
794.295	9819.65147
794.484	9672.64543
794.672	9768.61662
794.861	9486.73134
795.049	9725.74005
795.238	9337.49573
795.426	9711.44636
795.614	9335.4508
795.803	9496.9498
795.991	9735.94936
796.179	9505.12428
796.368	9478.55628
796.556	9584.81215
796.744	9343.63042
796.932	9735.94936
797.121	9325.22591
797.309	9709.40435
797.497	9505.12428
797.685	9611.36944
797.874	9222.95414
798.062	9325.22591
798.25	8981.4242
798.438	8960.94444
798.626	9323.18089
798.814	9229.09163
799.002	9155.43173
799.19	9586.85511
799.378	9407.01352
799.566	9274.09525
799.755	9398.83594
799.943	9572.55404
800.131	9427.45633
800.318	9572.55404
800.506	9255.68566
800.694	9304.77489
800.882	9270.00435
801.07	9470.38096
801.258	9456.07354
801.446	9390.65809
801.634	9468.3371
801.822	9243.41185
802.01	8934.31811
802.197	9241.36615
802.385	8833.93024
802.573	9069.4672
802.761	9259.7768
802.949	9376.34624
803.136	9098.12542
803.324	9372.25699
803.512	9357.94411
803.699	9435.633
803.887	9382.47999
804.075	9488.77506
804.262	9198.40268
804.45	9460.16146
804.638	9259.7768
804.825	9407.01352
805.013	9329.31592
805.201	9382.47999
805.388	9210.67871
805.576	9392.70258
805.763	9218.8624
805.951	9274.09525
806.138	9167.70991
806.326	9202.49476
806.513	9300.68449
806.701	9145.19945
806.888	9292.50349
807.075	9431.5447
807.263	9173.84877
807.45	9349.76496
807.638	9114.50002
807.825	9161.5709
808.012	9139.05987
808.2	9345.67528
808.387	9380.43542
808.574	9372.25699
808.761	9454.02956
808.949	9357.94411
809.136	9380.43542
809.323	9603.19825
809.51	9333.40586
809.698	9312.9555
809.885	9366.123
810.072	9570.51097
810.259	9415.19084
810.446	9521.47248
810.633	9302.7297
810.82	9357.94411
811.008	9317.04571
811.195	9280.23148
811.382	9026.47349
811.569	9046.94764
811.756	8794.99271
811.943	9267.95887
812.13	8997.80674
812.317	9089.9377
812.504	9272.04981
812.691	9359.98886
812.878	9096.07851
813.064	9345.67528
813.251	9241.36615
813.438	9272.04981
813.625	9182.03368
813.812	9564.38166
813.999	9108.35968
814.186	9312.9555
814.372	9370.21234
814.559	9625.66842
814.746	9102.21917
814.933	9331.3609
815.12	9061.27851
815.306	8973.23251
815.493	9057.18406
815.68	9167.70991
815.866	9034.66336
816.053	9374.30163
816.24	9171.8025
816.426	9173.84877
816.613	9280.23148
816.799	9351.80977
816.986	9063.32571
817.173	9503.08069
817.359	9073.56144
817.546	9490.81877
817.732	8915.88273
817.919	8960.94444
818.105	8977.32839
818.292	9184.07986
818.478	8924.07641
818.665	9139.05987
818.851	9163.61725
819.037	9128.8269
819.224	8940.46291
819.41	9151.33887
819.597	8788.84408
819.783	9251.59446
819.969	8891.29999
820.156	8965.04053
820.342	8876.95887
820.528	9083.79673
820.714	8844.17587
820.901	8999.85448
821.087	9030.56846
821.273	9061.27851
821.459	9036.71079
821.646	9163.61725
821.832	9071.51433
822.018	9010.09291
822.204	8680.19116
822.39	8958.89637
822.576	8776.54633
822.762	8758.09847
822.948	8448.36027
823.134	8866.71468
823.32	8341.59532
823.507	8938.41466
823.693	8345.70263
823.879	8661.73552
824.065	8643.27838
824.25	8760.14831
824.436	8462.7285
824.622	8633.02377
824.808	8786.7945
824.994	8538.65934
825.18	8431.93829
825.366	8598.15458
825.552	8433.9911
825.738	8509.93181
825.923	8409.35605
826.109	8725.29863
826.295	8448.36027
826.481	8768.34746
826.667	8637.12567
826.852	8944.55936
827.038	8542.76297
827.224	8645.32925
827.409	8522.24407
827.595	8821.63488
827.781	8325.16529
827.966	8171.07265
828.152	8267.65033
828.338	8565.33158
828.523	8263.54153
828.709	8407.30301
828.894	8316.94981
829.08	8493.51441
829.266	8390.87794
829.451	8472.99095
829.637	8062.11308
829.822	8154.62953
830.008	7856.37376
830.193	8078.56343
830.378	7786.37544
830.564	8173.12795
830.749	7953.09675
830.935	8004.52667
831.12	7815.20119
831.305	8103.23653
831.491	7979.8419
831.676	8240.94173
831.861	7693.69343
832.047	8148.46303
832.232	7881.07332
832.417	7914.00145
832.602	7699.87356
832.788	7813.14235
832.973	7784.3163
833.158	8101.18055
833.343	7582.41855
833.528	7872.84047
833.714	7679.2724
833.899	8125.85099
834.084	7543.2515
834.269	8074.45096
834.454	7576.23479
834.639	7722.53239
834.824	7683.3928
835.009	7811.08348
835.194	7493.76626
835.379	7701.93356
835.564	7526.7578
835.749	7938.69408
835.934	7590.66326
836.119	7691.63335
836.304	7835.78852
836.489	7763.72376
836.674	7596.84657
836.859	7388.56882
837.044	7396.82164
837.228	7421.57801
837.413	7668.97103
837.598	7691.63335
837.783	7332.85316
837.968	7479.33073
838.152	7258.54077
838.337	7460.7692
838.522	7502.01466
838.707	7623.63869
838.891	7361.74474
839.076	7460.7692
839.261	7147.01858
839.445	7504.07671
839.63	7208.98332
839.815	7235.82852
839.999	6965.13947
840.184	7225.50389
840.368	7175.93795
840.553	7229.63381
840.737	7130.49128
840.922	7254.41147
841.106	7221.37388
841.291	7186.26524
841.475	7089.16676
841.66	7175.93795
841.844	6737.54466
842.029	7041.63252
842.213	6787.22521
842.397	6969.27502
842.582	6843.1001
842.766	7014.76009
842.951	6528.32733
843.135	7064.36777
843.319	6898.95842
843.504	6720.98154
843.688	6501.38125
843.872	6714.77
844.056	6857.58348
844.241	6946.52839
844.425	6816.19945
844.609	6934.11998
844.793	6847.23833
844.977	6700.27559
845.161	6656.78561
845.346	6867.92807
845.53	6816.19945
845.714	6907.23232
845.898	6665.0702
846.082	6725.12246
846.266	6584.27975
846.45	6491.01633
846.634	6642.2867
846.818	6720.98154
847.002	6474.43126
847.186	6646.42936
847.37	6387.3352
847.554	6716.84054
847.738	6418.44565
847.922	6590.49564
848.106	6362.44307
848.29	6451.62435
848.473	6314.72375
848.657	6453.69782
848.841	6221.3241
849.025	6202.63848
849.209	5965.78918
849.392	6163.18481
849.576	6163.18481
849.76	6252.46259
849.944	6385.26098
850.127	6468.21147
850.311	6136.18531
850.495	6362.44307
850.678	6163.18481
850.862	6426.74088
851.046	6459.9181
851.229	6391.48356
851.413	6057.24093
851.596	6260.76529
851.78	6046.85098
851.964	6310.57366
852.147	5874.29179
852.331	6023.99102
852.514	5788.99175
852.698	5886.77139
852.881	5795.23456
853.065	6001.12821
853.248	5886.77139
853.431	5996.97103
853.615	5745.28612
853.798	5755.69317
853.982	5657.84364
854.165	5845.16941
854.348	5680.74927
854.532	5913.80763
854.715	5772.34322
854.898	5915.88717
855.081	5805.63878
855.265	5722.38854
855.448	5749.44901
855.631	5928.36395
855.814	5782.74873
855.997	5949.15668
856.181	5603.69172
856.364	5836.84788
856.547	5801.47716
856.73	5807.71955
856.913	5341.03768
857.096	5553.69119
857.279	5405.69354
857.462	5405.69354
857.645	5534.93749
857.828	5449.47984
858.011	5332.69335
858.194	5430.71555
858.377	5228.35759
858.56	5480.74943
858.743	5288.87945
858.926	5443.22529
859.109	5222.09559
859.292	5411.94936
859.475	5088.45623
859.658	5320.17615
859.841	5121.875
860.023	5591.19286
860.206	5055.03153
860.389	5345.20971
860.572	5063.38826
860.755	5019.51129
860.937	4931.72682
861.12	5174.07992
861.303	5071.74462
861.486	5278.44605
861.668	5186.60693
861.851	5092.6339
862.034	4973.53402
862.216	4822.9852
862.399	4634.63334
862.581	4781.14507
862.764	4613.6941
862.947	5055.03153
863.129	4931.72682
863.312	4975.62414
863.494	4659.75748
863.677	4967.26353
863.859	4739.29587
864.042	5069.65557
864.224	4726.73934
864.406	4862.72489
864.589	4584.37541
864.771	4812.52602
864.954	4638.82092
865.136	4714.182
865.318	4513.15472
865.501	4647.19581
865.683	4580.18667
865.865	4565.52537
866.048	4326.60367
866.23	4680.69178
866.412	4328.70071
866.594	4575.99784
866.777	4475.43929
866.959	4797.88222
867.141	4519.43993
867.323	4709.99604
867.505	4584.37541
867.687	4573.90339
867.869	4169.26482
868.052	4425.14097
868.234	4303.53484
868.416	4640.91468
868.598	4234.31276
868.78	4638.82092
868.962	4362.25036
869.144	4439.81262
869.326	4148.27728
869.508	4418.85279
869.69	4081.10306
869.872	4387.40896
870.054	4217.52814
870.236	4450.29171
870.417	4217.52814
870.599	4500.58371
870.781	4223.82253
870.963	4274.17075
871.145	4097.89862
871.327	4420.94887
871.508	4217.52814
871.69	4684.87838
871.872	4282.56092
872.054	4234.31276
872.235	3921.4795
872.417	4217.52814
872.599	3919.37841
872.78	4326.60367
872.962	4295.14553
873.144	4192.34867
873.325	4013.90757
873.507	4295.14553
873.689	4114.69284
873.87	4399.98708
874.052	4240.60664
874.233	4192.34867
874.415	3873.14924
874.596	4131.48573
874.778	3831.11435
874.959	4099.99797
875.141	3904.67018
875.322	4337.08864
875.503	4030.70842
875.685	4255.29161
875.866	4064.30617
876.048	4211.23356
876.229	4211.23356
876.41	4037.0084
876.592	3879.45379
876.773	4190.25025
876.954	3921.4795
877.136	4402.08336
877.317	4194.44708
877.498	4112.59364
877.679	3898.36635
877.86	4215.42997
878.042	3896.26504
878.223	4219.62629
878.404	3974.00028
878.585	4299.34023
878.766	4030.70842
878.947	4251.09601
879.128	3810.09392
879.309	4110.49441
879.49	3940.38844
879.672	4039.10836
879.853	3795.37846
880.034	4104.19661
880.215	3879.45379
880.396	4114.69284
880.576	3862.64127
880.757	3929.88368
880.938	3934.08564
881.119	4215.42997
881.3	3820.60438
881.481	4282.56092
881.662	4177.65924
881.843	4167.16616
882.023	4276.26832
882.204	4286.75587
882.385	4060.10674
882.566	4125.18855
882.747	3770.1497
882.927	4219.62629
883.108	3862.64127
883.289	4104.19661
883.469	3812.19605
883.65	4016.00775
883.831	3801.6852
884.011	4196.54546
884.192	4399.98708
884.373	4399.98708
884.553	4257.38937
884.734	4475.43929
884.914	4081.10306
885.095	4190.25025
885.275	4146.17841
885.456	4351.76669
885.636	4104.19661
885.817	4391.60175
885.997	4358.05696
886.178	4366.44368
886.358	4240.60664
886.538	4391.60175
886.719	4039.10836
886.899	4399.98708
887.08	4219.62629
887.26	4196.54546
887.44	4217.52814
887.621	4467.05712
887.801	3887.85958
887.981	4135.68374
888.161	4192.34867
888.342	4248.99818
888.522	4108.39517
888.702	4309.8266
888.882	4087.40155
889.062	4416.75669
889.242	4026.50833
889.423	4072.70478
889.603	3807.99177
889.783	4154.57376
889.963	3728.09554
890.143	4221.72442
890.323	4093.69985
890.503	4190.25025
890.683	4039.10836
890.863	4311.92381
891.043	4076.90396
891.223	4311.92381
891.403	3835.31819
891.583	4058.007
891.763	3837.42009
891.943	4257.38937
892.122	3862.64127
892.302	4215.42997
892.482	4005.50665
892.662	4045.40809
892.842	4030.70842
893.022	3776.45715
893.201	3686.03365
893.381	3950.8927
893.561	3654.4822
893.741	4108.39517
893.92	3824.80843
894.1	4064.30617
894.28	3797.48072
894.459	4148.27728
894.639	3847.92926
894.819	3755.43163
894.998	3728.09554
895.178	4064.30617
895.357	3984.50292
895.537	4041.20829
895.716	3725.99263
895.896	3770.1497
896.075	3721.78675
896.255	3862.64127
896.434	3681.82704
896.614	3908.87263
896.793	3578.74137
896.973	3612.40697
897.152	3494.55663
897.331	3761.73949
897.511	3711.27171
897.69	3751.22629
897.87	3803.78741
898.049	3862.64127
898.228	3816.40026
898.407	3761.73949
898.587	3694.44664
898.766	3763.84207
898.945	3515.60557
899.124	3488.24159
899.304	3502.97642
899.483	3681.82704
899.662	3300.82257
899.841	3528.23405
900.02	3239.72379
900.199	3553.48904
900.378	3235.50956
900.557	3427.18786
900.737	3275.54204
900.916	3286.07589
901.095	3014.17119
901.274	3250.25908
901.453	3172.28814
901.632	3193.3636
901.811	3024.71506
901.989	3098.5113
902.168	2969.8828
902.347	3206.00808
902.526	3142.77977
902.705	3239.72379
902.884	2978.31919
903.063	3326.10064
903.242	3058.45285
903.42	3241.83089
903.599	2915.04042
903.778	3031.0412
903.957	2549.89017
904.135	2883.39609
904.314	2758.89757
904.493	2784.22319
904.672	2649.13126
904.85	2701.90791
905.029	2609.01576
905.207	2545.66656
905.386	2454.84783
905.565	2615.35008
905.743	2370.34718
905.922	2670.24288
906.1	2404.14945
906.279	2761.00812
906.457	2484.419
906.636	2733.57002
906.814	2302.73493
906.993	2410.48708
907.171	2440.06144
907.35	2507.65196
907.528	2235.11294
907.707	2351.33225
907.885	2209.75232
908.063	2304.84796
908.242	1981.45535
908.42	2116.75305
908.598	2034.30939
908.777	2262.5855
908.955	2135.7769
909.133	2243.5662
909.311	1930.71177
909.49	2097.72859
909.668	1892.65191
909.846	2142.11804
910.024	1907.45318
910.202	2197.07155
910.38	2036.42347
910.559	2450.6232
910.737	1964.54121
910.915	2285.83032
911.093	2002.59746
911.271	2197.07155
911.449	2015.28241
911.627	2146.34543
911.805	2087.15917
911.983	2380.91067
912.161	2120.98063
912.339	2328.0907
912.517	2013.16827
912.695	2146.34543
912.872	2173.82267
913.05	2423.16206
913.228	2152.68645
913.406	2406.26201
913.584	2243.5662
913.762	2226.65954
913.939	2209.75232
914.117	2279.49093
914.295	1964.54121
914.473	2140.00434
914.65	2044.8797
914.828	2287.94343
915.006	2116.75305
915.184	2296.39577
915.361	1968.76978
915.539	2218.206
915.716	2049.10778
915.894	2127.32194
916.072	1970.88406
916.249	2032.19531
916.427	2034.30939
916.604	2313.3
916.782	1858.81948
916.959	2304.84796
917.137	1951.85535
917.314	1966.6555
917.492	1941.28363
917.669	2146.34543
917.847	1740.39667
918.024	2008.93996
918.201	1846.13198
918.379	1799.60974
918.556	1863.0486
918.733	1873.62133
918.911	1598.69796
919.088	1772.11834
919.265	1516.21229
919.442	1780.57731
919.62	1653.68694
919.797	1844.01738
919.974	1702.32962
920.151	1856.70491
920.328	1695.98501
920.506	1858.81948
920.683	1624.07767
920.86	1626.19264
921.037	1533.13258
921.214	1700.21475
921.391	1499.29195
921.568	1524.67245
921.745	1391.42444
921.922	1719.24844
922.099	1444.30064
922.276	1725.59295
922.453	1476.02642
922.63	1712.90391
922.807	1414.68993
922.984	1617.73277
923.161	1499.29195
923.338	1670.6063
923.514	1471.79631
923.691	1613.50283
923.868	1626.19264
924.045	1520.44237
924.222	1370.27407
924.399	1520.44237
924.575	1279.3291
924.752	1486.60167
924.929	1198.96263
925.105	1387.19436
925.282	1224.34106
925.459	1423.15012
925.635	1275.09919
925.812	1488.71671
925.989	1444.30064
926.165	1516.21229
926.342	1336.43373
926.518	1338.54874
926.695	1207.42206
926.871	1270.86929
927.048	1167.24031
927.224	1116.48645
927.401	1078.42279
927.577	1165.12552
927.754	1019.21607
927.93	1137.63359
928.107	1078.42279
928.283	1302.59378
928.459	1105.91306
928.636	1253.94978
928.812	949.44289
928.988	1302.59378
929.165	1122.83055
929.341	1203.19234
929.517	915.6162
929.693	1129.17468
929.87	816.26215
930.046	1122.83055
930.222	892.36148
930.398	1194.73294
930.574	793.01189
930.751	930.41514
930.927	866.9938
931.103	1000.18632
931.279	951.55712
931.455	960.01411
931.631	731.72145
931.807	966.35693
931.983	818.37586
932.159	866.9938
932.335	657.76221
932.511	864.87988
932.687	714.81528
932.863	822.60332
933.039	689.45734
933.215	858.53818
933.391	799.35276
933.566	805.69371
933.742	619.73158
933.918	752.85512
934.094	471.87515
934.27	638.7464
934.445	509.88883
934.621	600.71778
934.797	473.9869
934.973	556.35631
935.148	425.42065
935.324	528.89743
935.5	480.32222
935.675	465.54001
935.851	408.52999
936.027	480.32222
936.202	324.09267
936.378	484.54585
936.553	383.19595
936.729	490.88139
936.904	302.98769
937.08	402.19626
937.255	326.20327
937.431	359.9752
937.606	340.97794
937.782	252.34322
937.957	298.76691
938.133	260.78321
938.308	182.72519
938.483	288.21528
938.659	260.78321
938.834	167.96055
939.009	167.96055
939.185	214.36707
939.36	189.0532
939.535	197.49084
939.71	157.41499
939.886	182.72519
940.061	121.56407
940.236	191.16258
940.411	106.80373
940.586	98.36974
940.761	62.52924
940.937	127.89025
941.112	106.80373
941.287	62.52924
941.462	132.10782
941.637	96.26129
941.812	62.52924
941.987	87.82774
942.162	58.31314
942.337	129.99903
942.512	79.39455
942.687	11.94218
942.862	113.12946
943.037	30.91075
943.212	191.16258
943.386	64.63732
943.561	54.09713
943.736	92.04447
943.911	92.04447
944.086	146.86997
944.26	98.36974
944.435	148.97893
944.61	37.23403
944.785	94.15287
944.959	151.08791
945.134	16.15725
945.309	184.83451
945.483	96.26129
945.658	70.96171
945.833	113.12946
946.007	81.50281
946.182	75.17808
946.357	100.4782
946.531	113.12946
946.706	41.44967
946.88	92.04447
947.055	172.17891
947.229	100.4782
947.404	79.39455
947.578	94.15287
947.752	35.12624
947.927	106.80373
948.101	138.43433
948.276	146.86997
948.45	167.96055
948.624	100.4782
948.799	77.2863
948.973	119.45538
949.147	54.09713
949.321	79.39455
949.496	77.2863
949.67	45.6654
949.844	89.9361
950.018	113.12946
950.193	129.99903
950.367	20.37242
950.541	127.89025
950.715	98.36974
950.889	123.67278
951.063	136.32547
951.237	129.99903
951.411	62.52924
951.585	136.32547
951.759	140.5432
951.933	182.72519
952.107	92.04447
952.281	87.82774
952.455	165.85139
952.629	163.74226
952.803	208.03833
952.977	159.52406
953.151	56.20513
953.325	89.9361
953.499	167.96055
953.672	96.26129
953.846	132.10782
954.02	123.67278
954.194	163.74226
954.368	108.91229
954.541	157.41499
954.715	58.31314
954.889	121.56407
955.062	89.9361
955.236	106.80373
955.41	132.10782
955.583	146.86997
955.757	165.85139
955.93	167.96055
956.104	165.85139
956.278	62.52924
956.451	106.80373
956.625	104.6952
956.798	96.26129
956.972	172.17891
957.145	45.6654
957.319	174.28813
957.492	132.10782
957.665	117.34672
957.839	182.72519
958.012	146.86997
958.185	155.30595
958.359	96.26129
958.532	123.67278
958.705	155.30595
958.879	132.10782
959.052	125.7815
959.225	79.39455
959.398	138.43433
959.572	87.82774
959.745	151.08791
959.918	140.5432
960.091	157.41499
960.264	87.82774
960.438	92.04447
960.611	123.67278
960.784	83.6111
960.957	104.6952
961.13	104.6952
961.303	121.56407
961.476	106.80373
961.649	125.7815
961.822	144.76102
961.995	142.6521
962.168	144.76102
962.341	-4.91714
962.514	117.34672
962.686	129.99903
962.859	73.06989
963.032	54.09713
963.205	66.74543
963.378	115.23808
963.551	73.06989
963.723	148.97893
963.896	199.6003
964.069	146.86997
964.242	140.5432
964.414	81.50281
964.587	73.06989
964.76	127.89025
964.932	96.26129
965.105	68.85356
965.278	96.26129
965.45	96.26129
965.623	49.88122
965.795	64.63732
965.968	64.63732
966.14	81.50281
966.313	37.23403
966.485	121.56407
966.658	96.26129
966.83	96.26129
967.003	146.86997
967.175	62.52924
967.348	104.6952
967.52	161.63315
967.692	85.71941
967.865	159.52406
968.037	85.71941
968.209	96.26129
968.382	68.85356
968.554	151.08791
968.726	70.96171
968.898	87.82774
969.071	113.12946
969.243	30.91075
969.415	30.91075
969.587	94.15287
969.759	47.77329
969.932	157.41499
970.104	87.82774
970.276	33.01848
970.448	140.5432
970.62	89.9361
970.792	87.82774
970.964	54.09713
971.136	129.99903
971.308	70.96171
971.48	98.36974
971.652	159.52406
971.824	47.77329
971.996	75.17808
972.168	41.44967
972.339	83.6111
972.511	28.80304
972.683	49.88122
972.855	37.23403
973.027	56.20513
973.199	64.63732
973.37	134.21663
973.542	94.15287
973.714	70.96171
973.886	16.15725
974.057	102.58669
974.229	22.48004
974.401	22.48004
974.572	18.26482
974.744	11.94218
974.915	49.88122
975.087	-19.66778
975.259	104.6952
975.43	98.36974
975.602	41.44967
975.773	98.36974
975.945	62.52924
976.116	47.77329
976.288	96.26129
976.459	47.77329
976.63	83.6111
976.802	104.6952
976.973	45.6654
977.145	49.88122
977.316	58.31314
977.487	45.6654
977.659	33.01848
977.83	73.06989
978.001	129.99903
978.172	43.55752
978.344	20.37242
978.515	96.26129
978.686	60.42118
978.857	60.42118
979.028	45.6654
979.2	20.37242
979.371	62.52924
979.542	39.34183
979.713	70.96171
979.884	45.6654
980.055	100.4782
980.226	5.61975
980.397	33.01848
980.568	73.06989
980.739	33.01848
980.91	47.77329
981.081	-0.70246
981.252	45.6654
981.423	106.80373
981.594	58.31314
981.765	39.34183
981.936	5.61975
982.106	113.12946
982.277	64.63732
982.448	-32.31023
982.619	79.39455
982.79	66.74543
982.96	62.52924
983.131	41.44967
983.302	30.91075
983.472	83.6111
983.643	28.80304
983.814	20.37242
983.984	20.37242
984.155	7.72721
984.326	28.80304
984.496	11.94218
984.667	28.80304
984.837	28.80304
985.008	43.55752
985.178	70.96171
985.349	-19.66778
985.519	7.72721
985.69	79.39455
985.86	45.6654
986.031	49.88122
986.201	16.15725
986.371	96.26129
986.542	30.91075
986.712	47.77329
986.882	96.26129
987.053	-9.13173
987.223	14.04971
987.393	75.17808
987.563	79.39455
987.734	-30.20322
987.904	77.2863
988.074	54.09713
988.244	-63.91243
988.414	-21.77492
988.585	56.20513
988.755	35.12624
988.925	83.6111
989.095	30.91075
989.265	49.88122
989.435	49.88122
989.605	45.6654
989.775	-80.7646
989.945	7.72721
990.115	81.50281
990.285	37.23403
990.455	-9.13173
990.625	7.72721
990.795	89.9361
990.965	16.15725
991.134	43.55752
991.304	14.04971
991.474	66.74543
991.644	24.58768
991.814	35.12624
991.984	-28.09618
992.153	45.6654
992.323	26.69535
992.493	45.6654
992.662	39.34183
992.832	28.80304
993.002	56.20513
993.171	85.71941
993.341	-7.02445
993.511	20.37242
993.68	62.52924
993.85	-9.13173
994.019	45.6654
994.189	16.15725
994.358	-25.98912
994.528	-21.77492
994.697	62.52924
994.867	51.98916
995.036	28.80304
995.206	104.6952
995.375	-21.77492
995.544	14.04971
995.714	92.04447
995.883	33.01848
996.052	87.82774
996.222	64.63732
996.391	-11.23899
996.56	54.09713
996.73	30.91075
996.899	54.09713
997.068	92.04447
997.237	11.94218
997.406	60.42118
997.576	5.61975
997.745	-11.23899
997.914	3.51233
998.083	-25.98912
998.252	24.58768
998.421	41.44967
998.59	11.94218
998.759	-34.41722
998.928	33.01848
999.097	5.61975
999.266	49.88122
999.435	-21.77492
999.604	28.80304
999.773	43.55752
999.942	-38.63112
1000.111	96.26129
1000.28	33.01848
1000.448	24.58768
1000.617	-25.98912
1000.786	39.34183
1000.955	11.94218
1001.124	7.72721
1001.292	56.20513
1001.461	87.82774
1001.63	39.34183
1001.798	28.80304
1001.967	11.94218
1002.136	7.72721
1002.304	-59.69913
1002.473	47.77329
1002.642	16.15725
1002.81	-53.37899
1002.979	58.31314
1003.147	14.04971
1003.316	-4.91714
1003.484	-13.34623
1003.653	-21.77492
1003.821	-13.34623
1003.99	33.01848
1004.158	28.80304
1004.327	-30.20322
1004.495	37.23403
1004.663	-36.52418
1004.832	41.44967
1005	14.04971
1005.168	14.04971
1005.337	-53.37899
1005.505	33.01848
1005.673	60.42118
1005.842	-34.41722
1006.01	14.04971
1006.178	30.91075
1006.346	11.94218
1006.514	-63.91243
1006.683	41.44967
1006.851	-11.23899
1007.019	-47.05863
1007.187	-28.09618
1007.355	30.91075
1007.523	-13.34623
1007.691	-13.34623
1007.859	45.6654
1008.027	7.72721
1008.195	-21.77492
1008.363	7.72721
1008.531	24.58768
1008.699	68.85356
1008.867	-21.77492
1009.035	3.51233
1009.203	-13.34623
1009.37	11.94218
1009.538	-68.12563
1009.706	39.34183
1009.874	-34.41722
1010.042	-72.33872
1010.209	-61.80579
1010.377	-25.98912
1010.545	-38.63112
1010.713	102.58669
1010.88	-42.84492
1011.048	54.09713
1011.216	70.96171
1011.383	-4.91714
1011.551	-51.27223
1011.718	11.94218
1011.886	37.23403
1012.054	7.72721
1012.221	30.91075
1012.389	47.77329
1012.556	3.51233
1012.724	106.80373
1012.891	22.48004
1013.058	26.69535
1013.226	45.6654
1013.393	62.52924
1013.561	37.23403
1013.728	39.34183
1013.895	45.6654
1014.063	5.61975
1014.23	45.6654
1014.397	-30.20322
1014.565	70.96171
1014.732	3.51233
1014.899	5.61975
1015.066	28.80304
1015.233	-72.33872
1015.401	37.23403
1015.568	-28.09618
1015.735	3.51233
1015.902	5.61975
1016.069	39.34183
1016.236	47.77329
1016.403	-9.13173
1016.57	-4.91714
1016.737	-44.95179
1016.904	11.94218
1017.071	20.37242
1017.238	-72.33872
1017.405	75.17808
1017.572	-66.01904
1017.739	24.58768
1017.906	1.40492
1018.073	35.12624
1018.24	-4.91714
1018.407	20.37242
1018.573	33.01848
1018.74	11.94218
1018.907	47.77329
1019.074	113.12946
1019.241	28.80304
1019.407	-44.95179
1019.574	-30.20322
1019.741	11.94218
1019.907	9.83468
1020.074	7.72721
1020.241	45.6654
1020.407	-30.20322
1020.574	45.6654
1020.74	54.09713
1020.907	70.96171
1021.073	-13.34623
1021.24	22.48004
1021.406	11.94218
1021.573	-28.09618
1021.739	-19.66778
1021.906	-47.05863
1022.072	-42.84492
1022.239	1.40492
1022.405	39.34183
1022.571	5.61975
1022.738	-34.41722
1022.904	-34.41722
1023.07	3.51233
1023.237	62.52924
1023.403	-13.34623
1023.569	1.40492
1023.735	87.82774
1023.902	-30.20322
1024.068	-30.20322
1024.234	33.01848
1024.4	49.88122
1024.566	30.91075
1024.732	3.51233
1024.898	16.15725
1025.065	-34.41722
1025.231	-63.91243
1025.397	24.58768
1025.563	20.37242
1025.729	-9.13173
1025.895	64.63732
1026.061	-47.05863
1026.227	-53.37899
1026.392	-51.27223
1026.558	87.82774
1026.724	16.15725
1026.89	-36.52418
1027.056	41.44967
1027.222	-40.73804
1027.388	30.91075
1027.553	41.44967
1027.719	33.01848
1027.885	45.6654
1028.051	-11.23899
1028.216	-13.34623
1028.382	-34.41722
1028.548	20.37242
1028.713	28.80304
1028.879	28.80304
1029.045	3.51233
1029.21	1.40492
1029.376	18.26482
1029.541	14.04971
1029.707	-36.52418
1029.873	-63.91243
1030.038	-59.69913
1030.204	-21.77492
1030.369	-15.45344
1030.534	-36.52418
1030.7	-87.08375
1030.865	-30.20322
1031.031	41.44967
1031.196	-19.66778
1031.361	49.88122
1031.527	41.44967
1031.692	-38.63112
1031.857	-13.34623
1032.023	5.61975
1032.188	-21.77492
1032.353	-11.23899
1032.518	5.61975
1032.684	-7.02445
1032.849	-4.91714
1033.014	58.31314
1033.179	54.09713
1033.344	70.96171
1033.509	-17.56062
1033.674	39.34183
1033.839	-4.91714
1034.004	-44.95179
1034.17	20.37242
1034.335	-0.70246
1034.5	-11.23899
1034.664	-44.95179
1034.829	3.51233
1034.994	-2.80981
1035.159	-30.20322
1035.324	-4.91714
1035.489	54.09713
1035.654	20.37242
1035.819	54.09713
1035.984	-28.09618
1036.148	37.23403
1036.313	73.06989
1036.478	-13.34623
1036.643	28.80304
1036.807	-19.66778
1036.972	-13.34623
1037.137	58.31314
1037.301	16.15725
1037.466	1.40492
1037.631	-30.20322
1037.795	-23.88203
1037.96	-38.63112
1038.124	-17.56062
1038.289	62.52924
1038.454	20.37242
1038.618	96.26129
1038.783	20.37242
1038.947	20.37242
1039.111	33.01848
1039.276	-30.20322
1039.44	-21.77492
1039.605	37.23403
1039.769	73.06989
1039.933	28.80304
1040.098	-4.91714
1040.262	20.37242
1040.426	54.09713
1040.591	-30.20322
1040.755	18.26482
1040.919	-32.31023
1041.083	5.61975
1041.248	3.51233
1041.412	62.52924
1041.576	-59.69913
1041.74	-19.66778
1041.904	-0.70246
1042.068	39.34183
1042.232	33.01848
1042.397	-4.91714
1042.561	-61.80579
1042.725	33.01848
1042.889	3.51233
1043.053	62.52924
1043.217	-4.91714
1043.381	33.01848
1043.544	-2.80981
1043.708	3.51233
1043.872	62.52924
1044.036	22.48004
1044.2	22.48004
1044.364	-84.97739
1044.528	-44.95179
1044.691	30.91075
1044.855	-34.41722
1045.019	-17.56062
1045.183	30.91075
1045.346	-9.13173
1045.51	-4.91714
1045.674	-2.80981
1045.837	22.48004
1046.001	-30.20322
1046.165	-15.45344
1046.328	-47.05863
1046.492	62.52924
1046.655	-63.91243
1046.819	14.04971
1046.983	49.88122
1047.146	58.31314
1047.31	22.48004
1047.473	37.23403
1047.636	-21.77492
1047.8	11.94218
1047.963	33.01848
1048.127	5.61975
1048.29	30.91075
