Data from mixed_try1_USB4F045381__31__00135.txt Node

Date: Thu Apr 03 20:02:26 EDT 2025
User: mmckonesweet
Spectrometer: USB4F04538
Trigger mode: 4
Integration Time (sec): 2.700000E-3
Scans to average: 1
Electric dark correction enabled: true
Nonlinearity correction enabled: true
Boxcar width: 0
XAxis mode: Wavelengths
Number of Pixels in Spectrum: 3648
>>>>>Begin Spectral Data<<<<<
345.52	63.4076
345.736	63.4076
345.952	63.4076
346.168	-14.57544
346.384	-6.14641
346.6	-29.32529
346.816	-56.71465
347.032	-10.36097
347.248	63.4076
347.464	-48.28761
347.68	-20.89695
347.896	-37.75323
348.112	71.84011
348.328	-6.14641
348.544	-10.36097
348.76	52.86748
348.975	31.78897
349.191	6.49786
349.407	61.29953
349.623	6.49786
349.839	57.08346
350.055	14.92785
350.27	-69.35446
350.486	-23.00407
350.702	69.73195
350.918	-48.28761
351.133	-1.93175
351.349	40.22009
351.565	48.65159
351.781	-29.32529
351.996	6.49786
352.212	54.97546
352.428	2.283
352.644	23.35822
352.859	-60.92802
353.075	80.27299
353.291	31.78897
353.506	19.14299
353.722	42.32793
353.938	31.78897
354.153	19.14299
354.369	-12.46822
354.584	88.70622
354.8	19.14299
355.016	10.7128
355.231	57.08346
355.447	95.03138
355.662	40.22009
355.878	19.14299
356.093	67.62381
356.309	-25.11117
356.524	-60.92802
356.74	54.97546
356.955	44.4358
357.171	10.7128
357.386	27.57355
357.602	52.86748
357.817	-4.03909
358.033	-6.14641
358.248	76.05651
358.464	-6.14641
358.679	-10.36097
358.895	38.11228
359.11	-16.68263
359.325	-37.75323
359.541	-4.03909
359.756	0.17561
359.972	25.46587
360.187	-31.43231
360.402	82.38126
360.618	33.89672
360.833	2.283
361.048	19.14299
361.264	-25.11117
361.479	54.97546
361.694	36.00449
361.909	46.54368
362.125	78.16474
362.34	44.4358
362.555	46.54368
362.77	-6.14641
362.986	105.57375
363.201	-37.75323
363.416	-35.64629
363.631	2.283
363.847	10.7128
364.062	-23.00407
364.277	-29.32529
364.492	65.5157
364.707	31.78897
364.922	-6.14641
365.138	27.57355
365.353	-14.57544
365.568	23.35822
365.783	65.5157
365.998	19.14299
366.213	44.4358
366.428	-14.57544
366.643	0.17561
366.858	-1.93175
367.073	21.25059
367.288	27.57355
367.503	12.82031
367.718	27.57355
367.933	31.78897
368.148	-14.57544
368.363	48.65159
368.578	19.14299
368.793	-14.57544
369.008	48.65159
369.223	-10.36097
369.438	-48.28761
369.653	-10.36097
369.868	-10.36097
370.083	-65.14129
370.298	-1.93175
370.513	12.82031
370.728	-31.43231
370.943	-56.71465
371.157	38.11228
371.372	36.00449
371.587	-8.2537
371.802	57.08346
372.017	-6.14641
372.232	69.73195
372.446	48.65159
372.661	67.62381
372.876	48.65159
373.091	33.89672
373.306	33.89672
373.52	67.62381
373.735	-37.75323
373.95	-4.03909
374.165	-16.68263
374.379	-50.3944
374.594	2.283
374.809	61.29953
375.023	36.00449
375.238	61.29953
375.453	6.49786
375.667	6.49786
375.882	21.25059
376.097	8.60532
376.311	-10.36097
376.526	-56.71465
376.741	92.92297
376.955	19.14299
377.17	132.98649
377.384	36.00449
377.599	61.29953
377.813	38.11228
378.028	40.22009
378.242	128.76891
378.457	-14.57544
378.672	61.29953
378.886	-37.75323
379.101	-12.46822
379.315	2.283
379.53	44.4358
379.744	46.54368
379.958	0.17561
380.173	17.0354
380.387	27.57355
380.602	4.39042
380.816	17.0354
381.031	40.22009
381.245	33.89672
381.459	-46.18078
381.674	-23.00407
381.888	21.25059
382.103	-29.32529
382.317	57.08346
382.531	50.75953
382.746	61.29953
382.96	19.14299
383.174	48.65159
383.388	52.86748
383.603	19.14299
383.817	65.5157
384.031	19.14299
384.246	31.78897
384.46	-20.89695
384.674	2.283
384.888	27.57355
385.103	4.39042
385.317	78.16474
385.531	19.14299
385.745	2.283
385.959	10.7128
386.174	-12.46822
386.388	-12.46822
386.602	4.39042
386.816	-65.14129
387.03	-39.86016
387.244	10.7128
387.458	-54.60793
387.672	29.68125
387.887	61.29953
388.101	-31.43231
388.315	-20.89695
388.529	40.22009
388.743	-27.21824
388.957	-12.46822
389.171	69.73195
389.385	44.4358
389.599	-6.14641
389.813	52.86748
390.027	10.7128
390.241	-12.46822
390.455	2.283
390.669	10.7128
390.883	46.54368
391.097	50.75953
391.311	14.92785
391.525	-44.07393
391.738	12.82031
391.952	-14.57544
392.166	-12.46822
392.38	-6.14641
392.594	10.7128
392.808	-6.14641
393.022	2.283
393.236	-10.36097
393.449	0.17561
393.663	10.7128
393.877	36.00449
394.091	-1.93175
394.305	76.05651
394.518	137.20416
394.732	31.78897
394.946	6.49786
395.16	27.57355
395.373	44.4358
395.587	78.16474
395.801	2.283
396.015	-1.93175
396.228	25.46587
396.442	10.7128
396.656	-12.46822
396.869	36.00449
397.083	78.16474
397.297	-20.89695
397.51	6.49786
397.724	33.89672
397.938	14.92785
398.151	54.97546
398.365	69.73195
398.578	-1.93175
398.792	-14.57544
399.005	36.00449
399.219	29.68125
399.433	-35.64629
399.646	44.4358
399.86	-10.36097
400.073	-73.56752
400.287	0.17561
400.5	42.32793
400.714	61.29953
400.927	54.97546
401.141	48.65159
401.354	-39.86016
401.567	-10.36097
401.781	23.35822
401.994	10.7128
402.208	31.78897
402.421	31.78897
402.635	36.00449
402.848	-37.75323
403.061	2.283
403.275	-23.00407
403.488	6.49786
403.701	14.92785
403.915	19.14299
404.128	-27.21824
404.341	-29.32529
404.555	-18.7898
404.768	-37.75323
404.981	80.27299
405.195	46.54368
405.408	2.283
405.621	-29.32529
405.834	-14.57544
406.048	40.22009
406.261	2.283
406.474	-6.14641
406.687	59.19149
406.9	44.4358
407.114	21.25059
407.327	-20.89695
407.54	54.97546
407.753	-14.57544
407.966	86.59788
408.179	-14.57544
408.392	44.4358
408.605	-4.03909
408.819	-10.36097
409.032	6.49786
409.245	-1.93175
409.458	-14.57544
409.671	-39.86016
409.884	10.7128
410.097	-23.00407
410.31	-6.14641
410.523	29.68125
410.736	-39.86016
410.949	-6.14641
411.162	38.11228
411.375	19.14299
411.588	71.84011
411.801	-31.43231
412.014	4.39042
412.227	27.57355
412.44	59.19149
412.653	19.14299
412.865	36.00449
413.078	4.39042
413.291	17.0354
413.504	12.82031
413.717	21.25059
413.93	2.283
414.143	76.05651
414.356	31.78897
414.568	31.78897
414.781	52.86748
414.994	29.68125
415.207	4.39042
415.42	-25.11117
415.632	29.68125
415.845	44.4358
416.058	36.00449
416.271	-25.11117
416.483	8.60532
416.696	10.7128
416.909	10.7128
417.121	10.7128
417.334	-14.57544
417.547	44.4358
417.759	40.22009
417.972	52.86748
418.185	33.89672
418.397	48.65159
418.61	19.14299
418.823	19.14299
419.035	-29.32529
419.248	50.75953
419.46	-12.46822
419.673	71.84011
419.885	21.25059
420.098	25.46587
420.311	82.38126
420.523	23.35822
420.736	63.4076
420.948	54.97546
421.161	-12.46822
421.373	33.89672
421.586	23.35822
421.798	40.22009
422.01	-27.21824
422.223	38.11228
422.435	36.00449
422.648	-18.7898
422.86	90.81458
423.073	-31.43231
423.285	52.86748
423.497	52.86748
423.71	44.4358
423.922	52.86748
424.134	82.38126
424.347	65.5157
424.559	-25.11117
424.771	2.283
424.984	69.73195
425.196	14.92785
425.408	10.7128
425.621	6.49786
425.833	-46.18078
426.045	6.49786
426.257	-35.64629
426.47	-20.89695
426.682	46.54368
426.894	36.00449
427.106	14.92785
427.318	-6.14641
427.531	14.92785
427.743	23.35822
427.955	52.86748
428.167	21.25059
428.379	-14.57544
428.591	-1.93175
428.804	36.00449
429.016	-6.14641
429.228	88.70622
429.44	33.89672
429.652	25.46587
429.864	-73.56752
430.076	-14.57544
430.288	33.89672
430.5	59.19149
430.712	57.08346
430.924	46.54368
431.136	31.78897
431.348	78.16474
431.56	8.60532
431.772	111.89944
431.984	-52.50118
432.196	-10.36097
432.408	44.4358
432.62	71.84011
432.832	52.86748
433.044	-14.57544
433.256	-8.2537
433.468	2.283
433.679	6.49786
433.891	10.7128
434.103	54.97546
434.315	-20.89695
434.527	12.82031
434.739	40.22009
434.95	14.92785
435.162	40.22009
435.374	2.283
435.586	-73.56752
435.798	10.7128
436.009	31.78897
436.221	54.97546
436.433	40.22009
436.645	116.11668
436.856	8.60532
437.068	31.78897
437.28	82.38126
437.491	-16.68263
437.703	38.11228
437.915	21.25059
438.126	80.27299
438.338	-27.21824
438.55	44.4358
438.761	48.65159
438.973	31.78897
439.184	-12.46822
439.396	42.32793
439.608	86.59788
439.819	82.38126
440.031	-27.21824
440.242	50.75953
440.454	21.25059
440.665	141.42191
440.877	23.35822
441.088	44.4358
441.3	73.9483
441.511	33.89672
441.723	38.11228
441.934	82.38126
442.146	48.65159
442.357	-4.03909
442.569	44.4358
442.78	-33.53931
442.991	-71.461
443.203	48.65159
443.414	-12.46822
443.626	10.7128
443.837	84.48956
444.048	-10.36097
444.26	99.24826
444.471	73.9483
444.682	65.5157
444.894	38.11228
445.105	12.82031
445.316	71.84011
445.528	46.54368
445.739	-58.82135
445.95	-23.00407
446.161	61.29953
446.373	48.65159
446.584	63.4076
446.795	46.54368
447.006	-35.64629
447.217	2.283
447.429	-71.461
447.64	25.46587
447.851	50.75953
448.062	130.87769
448.273	19.14299
448.484	8.60532
448.695	21.25059
448.907	-18.7898
449.118	40.22009
449.329	44.4358
449.54	2.283
449.751	48.65159
449.962	111.89944
450.173	-4.03909
450.384	46.54368
450.595	27.57355
450.806	8.60532
451.017	61.29953
451.228	48.65159
451.439	86.59788
451.65	6.49786
451.861	-18.7898
452.072	-14.57544
452.283	54.97546
452.494	-4.03909
452.705	36.00449
452.915	27.57355
453.126	95.03138
453.337	27.57355
453.548	73.9483
453.759	73.9483
453.97	50.75953
454.181	90.81458
454.391	14.92785
454.602	-12.46822
454.813	27.57355
455.024	-6.14641
455.235	10.7128
455.445	69.73195
455.656	21.25059
455.867	19.14299
456.078	14.92785
456.288	-31.43231
456.499	48.65159
456.71	29.68125
456.921	2.283
457.131	29.68125
457.342	2.283
457.553	25.46587
457.763	-14.57544
457.974	59.19149
458.184	90.81458
458.395	36.00449
458.606	-4.03909
458.816	-31.43231
459.027	65.5157
459.237	145.63975
459.448	-8.2537
459.659	-23.00407
459.869	-27.21824
460.08	103.46523
460.29	2.283
460.501	71.84011
460.711	88.70622
460.922	78.16474
461.132	36.00449
461.343	4.39042
461.553	31.78897
461.764	-33.53931
461.974	63.4076
462.184	105.57375
462.395	67.62381
462.605	-12.46822
462.816	128.76891
463.026	-48.28761
463.236	25.46587
463.447	57.08346
463.657	78.16474
463.867	31.78897
464.078	46.54368
464.288	-56.71465
464.498	0.17561
464.709	99.24826
464.919	-18.7898
465.129	-31.43231
465.339	31.78897
465.55	141.42191
465.76	63.4076
465.97	67.62381
466.18	88.70622
466.391	19.14299
466.601	88.70622
466.811	61.29953
467.021	118.22533
467.231	61.29953
467.441	19.14299
467.651	57.08346
467.862	86.59788
468.072	48.65159
468.282	27.57355
468.492	88.70622
468.702	82.38126
468.912	54.97546
469.122	52.86748
469.332	99.24826
469.542	90.81458
469.752	126.66015
469.962	103.46523
470.172	99.24826
470.382	86.59788
470.592	86.59788
470.802	69.73195
471.012	80.27299
471.222	147.7487
471.432	122.44269
471.642	105.57375
471.852	145.63975
472.062	107.68229
472.272	95.03138
472.482	78.16474
472.691	137.20416
472.901	147.7487
473.111	80.27299
473.321	114.00805
473.531	192.04149
473.741	164.62107
473.95	206.80777
474.16	166.73021
474.37	111.89944
474.58	145.63975
474.79	189.93211
474.999	149.85767
475.209	103.46523
475.419	175.16697
475.628	158.29377
475.838	135.09531
476.048	143.53082
476.258	147.7487
476.467	147.7487
476.677	192.04149
476.886	198.36978
477.096	126.66015
477.306	238.45306
477.515	183.60407
477.725	230.01389
477.935	223.68471
478.144	170.94855
478.354	204.69824
478.563	225.79441
478.773	259.55236
478.982	198.36978
479.192	242.67277
479.401	208.91732
479.611	206.80777
479.82	272.21286
480.03	204.69824
480.239	291.20486
480.449	219.46535
480.658	246.89255
480.868	356.63299
481.077	314.41933
481.287	365.07655
481.496	322.8615
481.705	329.19331
481.915	299.64623
482.124	373.52039
482.333	369.29844
482.543	331.30395
482.752	373.52039
482.961	381.9645
483.171	434.74613
483.38	424.189
483.589	525.55324
483.799	381.9645
484.008	436.85761
484.217	508.65683
484.426	483.31395
484.636	432.63468
484.845	504.43287
485.054	455.86158
485.263	582.5852
485.472	373.52039
485.682	610.0485
485.891	504.43287
486.1	544.56279
486.309	474.86679
486.518	559.34876
486.727	595.2603
486.936	681.88549
487.146	584.69769
487.355	722.03554
487.564	652.30387
487.773	635.40113
487.982	643.8524
488.191	781.21107
488.4	732.602
488.609	774.87045
488.818	728.37539
489.027	747.39549
489.236	893.24232
489.445	882.67229
489.654	810.80176
489.863	977.8094
490.072	846.73576
490.281	1020.09709
490.49	897.47039
490.698	939.75276
490.907	857.30507
491.116	1028.55493
491.325	984.15239
491.534	1185.03996
491.743	899.58443
491.952	1001.06731
492.16	973.58077
492.369	1189.26961
492.578	990.49543
492.787	1142.74422
492.996	1231.56694
493.204	1223.10737
493.413	1176.58068
493.622	1212.53298
493.831	1138.51473
494.039	1282.3253
494.248	1237.91165
494.457	1396.53579
494.665	1371.15534
494.874	1394.42075
495.083	1314.04996
495.291	1390.19066
495.5	1468.44748
495.709	1390.19066
495.917	1362.69522
496.126	1591.11924
496.335	1432.4916
496.543	1468.44748
496.752	1438.83675
496.96	1557.27913
497.169	1445.18191
497.377	1620.72898
497.586	1500.17322
497.794	1548.81904
498.003	1548.81904
498.211	1675.71732
498.42	1531.89881
498.628	1749.73703
498.837	1692.63645
499.045	1722.24446
499.254	1660.91294
499.462	1787.80262
499.671	1787.80262
499.879	1988.67897
500.087	1806.83493
500.296	2026.7339
500.504	1855.4714
500.713	1878.73143
500.921	1946.39331
501.129	1889.30397
501.338	1720.12963
501.546	1971.765
501.754	1857.58598
501.962	2041.53246
502.171	2014.04916
502.379	2100.72322
502.587	1982.33628
502.795	2233.88016
503.004	2064.78664
503.212	2204.29258
503.42	1978.10779
503.628	2216.97318
503.837	2007.7067
504.045	2347.98695
504.253	2151.45348
504.461	2394.46678
504.669	2229.65347
504.877	2453.61565
505.085	2191.61167
505.294	2364.88927
505.502	2347.98695
505.71	2457.84025
505.918	2174.70332
506.126	2529.65161
506.334	2337.42268
506.542	2455.72795
506.75	2219.08659
506.958	2582.4456
507.166	2483.18691
507.374	2411.3673
507.582	2445.16632
507.79	2599.33811
507.998	2567.66403
508.206	2711.23095
508.414	2516.97996
508.622	2707.00922
508.83	2516.97996
509.037	2785.10252
509.245	2466.28931
509.453	2778.77132
509.661	2755.55585
509.869	2818.86687
510.077	2690.12182
510.285	2861.06731
510.492	2913.80987
510.7	2867.39689
510.908	2635.2321
511.116	2869.50672
511.324	2740.78153
511.531	3065.65676
511.739	2911.70034
511.947	2989.7431
512.155	2833.63766
512.362	2920.13837
512.57	2930.68558
512.778	3017.15866
512.985	2926.46674
513.193	2955.99737
513.401	3015.04986
513.608	3088.8486
513.816	3025.5937
514.024	3257.45795
514.231	3171.05869
514.439	3219.53
514.646	3050.89734
514.854	3326.9783
515.061	2901.15248
515.269	3289.06041
515.477	3107.82232
515.684	3284.84697
515.892	3078.30709
516.099	3265.88564
516.307	3088.8486
516.514	3310.12659
516.722	3208.9935
516.929	3354.35998
517.136	3200.564
517.344	3377.52679
517.551	3341.72264
517.759	3516.48257
517.966	3331.19106
518.173	3423.85403
518.381	3364.89061
518.588	3575.40962
518.796	3356.46614
519.003	3771.02575
519.21	3428.06518
519.418	3712.14798
519.625	3667.97974
519.832	3743.69153
520.039	3710.04492
520.247	3913.95049
520.454	3680.6001
520.661	3771.02575
520.868	3625.90693
521.076	3907.64693
521.283	3766.8207
521.49	3934.96104
521.697	3813.07194
521.904	3966.47308
522.112	3659.56578
522.319	4079.87833
522.526	3743.69153
522.733	3829.88821
522.94	3878.22792
523.147	3848.805
523.354	3989.57901
523.561	4094.5746
523.768	3962.27174
523.975	4115.56751
524.183	3890.83655
524.39	4155.44826
524.597	4155.44826
524.804	4189.02616
525.011	4046.28304
525.218	4266.65426
525.425	4180.63219
525.632	4201.61647
525.838	4100.87269
526.045	4444.87758
526.252	4243.57868
526.459	4358.93059
526.666	4277.1423
526.873	4608.28443
527.08	4193.22301
527.287	4618.75462
527.494	4340.05929
527.701	4505.64713
527.907	4369.41389
528.114	4555.92512
528.321	4562.20898
528.528	4637.59955
528.735	4507.7423
528.941	4620.84859
529.148	4392.47524
529.355	4771.55543
529.562	4568.49263
529.768	4660.62978
529.975	4333.76846
530.182	4641.78707
530.388	4453.26069
530.595	4934.68847
530.802	4593.62523
531.008	4738.07513
531.215	4886.59959
531.422	4759.001
531.628	4836.40698
531.835	4897.05473
532.042	4685.75057
532.248	5101.85926
532.455	4821.765
532.661	5060.08043
532.868	4784.10905
533.074	5185.38906
533.281	4951.41219
533.487	5012.02333
533.694	5009.93361
533.9	5212.52823
534.107	5085.14884
534.313	5093.50424
534.52	5030.82974
534.726	5193.74
534.933	5141.54056
535.139	5310.61383
535.345	5189.56458
535.552	5494.12424
535.758	5227.13999
535.965	5289.74888
536.171	5339.82082
536.377	5437.83926
536.584	5245.92487
536.79	5558.72658
536.996	5412.8182
537.203	5277.22878
537.409	5437.83926
537.615	5633.72024
537.821	5435.7543
538.028	5635.80296
538.234	5235.48906
538.44	5825.23178
538.646	5429.49928
538.853	5544.14094
539.059	5362.76596
539.265	5479.53348
539.471	5631.63749
539.677	5837.71472
539.883	5571.22765
540.09	5769.04801
540.296	5539.9734
540.502	6078.88476
540.708	5550.39207
540.914	5852.27708
541.12	5579.56122
541.326	5895.95723
541.532	5829.39285
541.738	6070.57383
541.944	5931.30973
542.15	5804.42498
542.356	6137.05074
542.562	6240.87276
542.768	5895.95723
542.974	5952.10213
543.18	5877.23844
543.386	6201.42731
543.592	6319.73832
543.798	5991.6012
544.004	5895.95723
544.21	6170.28017
544.415	5997.83712
544.621	6464.92872
544.827	6195.1983
545.033	6437.97342
545.239	6016.5436
545.445	6498.09909
545.651	6145.35866
545.856	6361.23295
546.062	6363.30743
546.268	6520.90027
546.474	6313.51332
546.679	6446.26778
546.885	6435.89977
547.091	6533.3361
547.297	6149.51248
547.502	6566.49423
547.708	6369.53075
547.914	6255.40317
548.119	6398.57013
548.325	6493.95312
548.531	6286.53589
548.736	6576.85493
548.942	6442.12064
549.147	6537.48119
549.353	6576.85493
549.559	6591.35895
549.764	6607.93357
549.97	6580.99905
550.175	6715.63272
550.381	6872.92774
550.586	6709.421
550.792	6992.88037
550.997	6672.14632
551.203	6833.61634
551.408	6641.0784
551.614	6773.59887
551.819	6850.16951
552.025	6976.3397
552.23	6686.64292
552.435	7001.15017
552.641	6906.02573
552.846	7104.49231
553.052	6725.98514
553.257	7226.36429
553.462	7259.40103
553.668	7152.01093
553.873	7121.02186
554.078	7319.26575
554.283	7007.35228
554.489	7306.88146
554.694	7234.62401
554.899	7191.25656
555.105	6963.93325
555.31	7304.81734
555.515	7174.73306
555.72	7387.36525
555.925	7170.60196
556.131	7480.19001
556.336	7381.17537
556.541	7527.61688
556.746	7476.0654
556.951	7445.12804
557.156	7145.81352
557.361	7702.79188
557.567	7393.55494
557.772	7379.11203
557.977	7063.16218
558.182	7410.05981
558.387	7572.97107
558.592	7583.27739
558.797	7521.43141
559.002	7659.52764
559.207	7519.36954
559.412	7486.37677
559.617	7459.56608
559.822	7789.29252
560.027	7389.4285
560.232	7698.67188
560.437	7552.35681
560.642	7772.81906
560.847	7706.9118
561.051	7624.49736
561.256	7634.80102
561.461	7984.81337
561.666	7848.99762
561.871	7756.34426
562.076	7748.10636
562.281	7941.60898
562.485	7908.68528
562.69	7842.82204
562.895	7846.93912
563.1	7949.83909
563.305	7953.95402
563.509	7984.81337
563.714	7912.80103
563.919	7990.98469
564.123	8028.00876
564.328	7937.49381
564.533	7925.14779
564.737	8155.48598
564.942	8046.51833
565.147	8093.81312
565.351	8155.48598
565.556	8213.0311
565.761	7916.9167
565.965	8424.58221
566.17	8058.85713
566.374	8102.03721
566.579	8102.03721
566.784	8136.98601
566.988	8229.4697
567.193	8208.92125
567.397	8188.37081
567.602	8397.89296
567.806	7896.33754
568.011	8258.23422
568.215	8344.50467
568.42	8254.12524
568.624	8054.74428
568.828	8338.34364
569.033	8208.92125
569.237	8572.34106
569.442	8549.77316
569.646	8297.26561
569.85	8210.97618
570.055	8691.29799
570.259	8258.23422
570.463	8225.36017
570.668	8434.84644
570.872	8438.952
571.076	8373.25384
571.281	8592.85536
571.485	8313.69776
571.689	8547.72142
571.893	8416.37048
572.098	8904.44525
572.302	8459.47863
572.506	8746.65323
572.71	8393.78664
572.914	8644.13292
573.119	8555.92827
573.323	8785.5989
573.527	8461.53119
573.731	8699.49961
573.935	8781.49967
574.139	8922.88152
574.343	8471.79369
574.547	8849.12776
574.751	8744.60327
574.955	8834.78406
575.159	8814.29151
575.364	8832.73488
575.568	8726.15285
575.772	9074.41439
575.976	8709.75123
576.18	8742.5533
576.383	8914.6878
576.587	9010.9461
576.791	8947.46096
576.995	9156.2844
577.199	8894.20226
577.403	9094.88448
577.607	8990.46887
577.811	9043.70602
578.015	8912.63932
578.219	8859.37273
578.422	8840.93147
578.626	9283.12909
578.83	9029.3741
579.034	9111.2593
579.238	9315.85274
579.442	9555.01715
579.645	9234.03561
579.849	9391.50996
580.053	9017.08892
580.257	9315.85274
580.46	9274.94751
580.664	9352.66177
580.868	9049.84801
581.071	9456.9252
581.275	9330.168
581.479	9385.37643
581.682	9303.58187
581.886	9405.82097
582.09	9446.70516
582.293	9242.21853
582.497	9369.01963
582.7	9479.40786
582.904	9426.26388
583.107	9465.10094
583.311	9465.10094
583.515	9712.2972
583.718	9250.40117
583.922	9555.01715
584.125	9309.71738
584.329	9818.46076
584.532	9399.68778
584.735	9728.63273
584.939	9358.79609
585.142	9624.47687
585.346	9360.84083
585.549	9661.24234
585.753	9863.36388
585.956	9896.01619
586.159	9867.44563
586.363	9928.66472
586.566	9773.5504
586.769	9736.80012
586.973	9681.66544
587.176	10051.06365
587.379	10077.57663
587.582	9961.30952
587.786	9938.86662
587.989	10063.30071
588.192	9957.22912
588.395	9810.29578
588.599	9928.66472
588.802	10163.2177
589.005	9798.04786
589.208	9930.70513
589.411	9877.64973
589.615	9936.82627
589.818	10049.02409
590.021	10132.63443
590.224	9916.42196
590.427	10220.29815
590.63	10189.72068
590.833	10124.47836
591.036	10159.14011
591.239	9951.10842
591.442	10150.98477
591.645	10369.06506
591.848	10299.78525
592.051	10534.05317
592.254	10440.36661
592.457	10387.40128
592.66	10309.97442
592.863	10511.65232
593.066	10403.69924
593.269	10470.91956
593.472	10289.59574
593.675	10688.78143
593.878	10542.19856
594.081	10491.28658
594.284	10464.8092
594.486	10755.94409
594.689	10422.03345
594.892	10662.3198
595.095	10513.68883
595.298	10466.846
595.5	10591.06665
595.703	10979.72737
595.906	10540.16223
596.109	10719.31154
596.311	10637.89185
596.514	10831.23229
596.717	10861.74996
596.92	11022.434
597.122	10686.74599
597.325	10812.92042
597.528	10662.3198
597.73	10884.12794
597.933	10784.43342
598.136	11008.199
598.338	10812.92042
598.541	10890.23078
598.743	10635.85611
598.946	10806.81626
599.148	10932.9478
599.351	10930.91377
599.554	10912.60699
599.756	10981.76113
599.959	10943.11778
600.161	11054.96911
600.363	11065.13575
600.566	11256.21893
600.768	10965.49074
600.971	11231.8305
601.173	11040.73534
601.376	11221.66822
601.578	11028.53454
601.78	11473.61825
601.983	10890.23078
602.185	11376.10736
602.388	11201.34287
602.59	11302.95928
602.792	11268.41258
602.995	11270.44482
603.197	11063.10245
603.399	11276.54148
603.601	11152.55776
603.804	11085.46823
604.006	11246.05726
604.208	11000.06447
604.41	11148.49206
604.613	11319.21553
604.815	11063.10245
605.017	11621.87395
605.219	11168.82014
605.421	11388.29746
605.623	11140.36053
605.826	11577.19938
606.028	11225.73316
606.23	11418.77114
606.432	11264.34807
606.634	11619.84338
606.836	11296.86302
607.038	11719.33052
607.24	11341.56683
607.442	11522.36536
607.644	11394.39237
607.846	11536.58224
608.048	11349.69427
608.25	11615.78222
608.452	11309.05545
608.654	11591.4145
608.856	11288.73452
609.058	11725.42087
609.26	11577.19938
609.462	11776.17077
609.664	11648.27048
609.866	11526.42737
610.067	11402.51878
610.269	11644.20958
610.471	11526.42737
610.673	11650.30092
610.875	11540.64412
611.077	11786.32009
611.278	11292.79879
611.48	11613.75163
611.682	11313.11951
611.884	11347.66243
612.085	11678.72612
612.287	11642.17911
612.489	11506.11693
612.69	11766.02122
612.892	11632.02664
613.094	11680.75643
613.295	11201.34287
613.497	11678.72612
613.699	11656.39218
613.9	11837.06352
614.102	11619.84338
614.304	11810.6776
614.505	11715.27024
614.707	12003.46544
614.908	11719.33052
615.11	11615.78222
615.311	11658.42259
615.513	11828.94493
615.714	11922.30065
615.916	11833.00424
616.117	11625.93505
616.319	11796.46921
616.52	11806.61811
616.722	12031.8701
616.923	11948.68062
617.124	11873.59552
617.326	11548.76777
617.527	11940.56386
617.729	11806.61811
617.93	11942.59306
618.131	11627.96559
618.333	11857.35941
618.534	11812.70734
618.735	11881.71337
618.937	11784.29025
619.138	11859.38895
619.339	11808.64786
619.54	11975.05923
619.742	11719.33052
619.943	11889.83109
620.144	11889.83109
620.345	11729.48107
620.546	12017.66797
620.748	12137.35979
620.949	12044.04306
621.15	12015.63906
621.351	11670.60482
621.552	11883.74281
621.753	11636.08766
621.954	12029.84125
622.155	11824.88558
622.356	11999.40751
622.558	11863.44801
622.759	12123.16046
622.96	11822.8559
623.161	11638.11815
623.362	11849.24116
623.563	12261.08144
623.764	11885.77225
623.965	11975.05923
624.166	12044.04306
624.366	12121.13195
624.567	11800.52879
624.768	12186.04042
624.969	11751.8115
625.17	12139.38824
625.371	12104.90363
625.572	12084.61754
625.773	12086.64619
625.973	11981.14641
626.174	11956.79726
626.375	12147.50194
626.576	12019.69687
626.777	12149.53035
626.977	11810.6776
627.178	12202.26635
627.379	12135.33134
627.58	11971.00107
627.78	12165.75735
627.981	12384.77647
628.182	12380.7213
628.382	12419.24429
628.583	12159.67228
628.784	12317.86271
628.984	11968.97198
629.185	12173.87067
629.386	12082.58889
629.586	12368.55563
629.787	12167.78569
629.987	12259.05343
630.188	12100.84648
630.388	12398.96934
630.589	11997.37853
630.79	12259.05343
630.99	12177.92728
631.191	12461.81953
631.391	12421.27175
631.591	12319.89051
631.792	12348.27898
631.992	12409.1069
632.193	12392.88672
632.393	12293.52855
632.594	12015.63906
632.794	12222.54811
632.994	12279.33316
633.195	12115.04639
633.395	12230.6606
633.595	12303.66791
633.796	12096.78929
633.996	12394.91426
634.196	12467.90147
634.397	12615.87758
634.597	12206.32276
634.797	12721.26522
634.997	12074.47421
635.198	12459.79221
635.398	12165.75735
635.598	12749.6361
635.798	12459.79221
635.998	12628.03852
636.199	12246.88525
636.399	12782.05858
636.599	12484.11969
636.799	12486.14694
636.999	12356.38972
637.199	12309.75143
637.399	12459.79221
637.599	12579.39343
637.799	12469.92877
637.999	12717.21214
638.199	12299.61219
638.399	12652.35975
638.599	12636.14569
638.799	12962.38297
638.999	12542.90727
639.199	12921.86432
639.399	12636.14569
639.599	12587.50119
639.799	12190.09695
639.999	12767.87392
640.199	12376.6661
640.399	12711.13249
640.599	12200.23814
640.799	13126.46297
640.998	12729.3713
641.198	12936.04608
641.398	12492.22865
641.598	12899.57817
641.798	12814.47963
641.997	12725.31827
642.197	12822.58466
642.397	12623.9849
642.597	12733.42431
642.796	12871.21305
642.996	12715.1856
643.196	12855.00394
643.395	12820.55841
643.595	12929.96822
643.795	12826.63715
643.994	12846.89925
644.194	13000.87379
644.394	13033.28569
644.593	12790.16398
644.793	13085.95236
644.992	12919.83833
645.192	12743.55672
645.392	12786.11129
645.591	12905.65627
645.791	12964.40885
645.99	13055.56815
646.19	12731.39781
646.389	12844.87306
646.589	13100.13129
646.788	13069.74758
646.987	12891.47396
647.187	12954.27941
647.386	12903.63024
647.586	13252.03415
647.785	13013.0284
647.984	13156.8447
648.184	13146.71757
648.383	13116.3355
648.582	13104.18237
648.782	13175.07324
648.981	12923.8903
649.18	13136.59033
649.38	12875.26527
649.579	13179.12397
649.778	13122.412
649.977	13355.31399
650.177	13073.79881
650.376	12996.82221
650.575	13081.9012
650.774	13324.9387
650.973	13215.57978
651.173	13160.89552
651.372	13063.67071
651.571	12903.63024
651.77	12873.23916
651.969	13231.7819
652.168	13063.67071
652.367	13215.57978
652.566	13150.76844
652.765	13367.46385
652.964	13104.18237
653.163	13268.23564
653.362	13077.85001
653.561	13181.14933
653.76	13300.63779
653.959	13229.75665
654.158	13292.53736
654.357	13389.73821
654.556	12970.48645
654.755	13292.53736
654.954	13160.89552
655.153	13312.78832
655.352	13349.239
655.551	13513.25113
655.749	13466.68235
655.948	13466.68235
656.147	13523.37451
656.346	13403.91256
656.545	13434.2855
656.743	13355.31399
656.942	13426.18613
657.141	13462.6328
657.34	13233.80714
657.538	13486.92989
657.737	13235.83239
657.936	13499.07823
658.135	13118.361
658.333	13588.16207
658.532	13422.13643
658.731	13505.15235
658.929	13414.03697
659.128	13318.86353
659.326	13308.73816
659.525	13620.55451
659.724	13381.6385
659.922	13719.75103
660.121	13430.23582
660.319	13442.3848
660.518	13245.95852
660.716	13314.81339
660.915	13245.95852
661.113	13847.2784
661.312	13081.9012
661.51	13442.3848
661.709	13610.43197
661.907	13555.76875
662.105	13472.75665
662.304	13418.08671
662.502	13529.4485
662.701	13573.99011
662.899	13545.64565
663.097	13596.26027
663.296	13326.96375
663.494	13626.62799
663.692	13594.23572
663.891	13511.22644
664.089	13205.45331
664.287	13569.94094
664.485	13341.13897
664.684	13932.29032
664.882	13576.01468
665.08	13644.84827
665.278	13322.91365
665.476	13804.77059
665.675	13424.16128
665.873	13837.15761
666.071	13567.91635
666.269	13592.21118
666.467	13547.67028
666.665	13764.28575
666.863	13576.01468
667.061	13432.26066
667.259	13302.66289
667.457	13584.11296
667.655	13648.89718
667.853	13760.2372
668.051	13278.36143
668.249	13537.54711
668.447	13389.73821
668.645	13539.57175
668.843	13580.06383
669.041	13292.53736
669.239	13456.55844
669.437	13393.78804
669.635	13422.13643
669.833	13308.73816
670.031	13444.40962
670.229	13656.99496
670.426	13549.6949
670.624	13798.69794
670.822	13486.92989
671.02	13725.82403
671.218	13640.79934
671.415	13642.8238
671.613	13517.30049
671.811	13369.48881
672.009	13497.05351
672.206	13600.30934
672.404	13458.58323
672.602	13616.5055
672.799	13391.76313
672.997	13391.76313
673.195	13399.86276
673.392	13598.28481
673.59	13452.50885
673.788	13628.65248
673.985	13369.48881
674.183	13460.60801
674.38	13302.66289
674.578	13294.56247
674.775	13292.53736
674.973	13268.23564
675.17	13438.33516
675.368	13456.55844
675.565	13187.22539
675.763	13424.16128
675.96	13241.90808
676.158	13353.289
676.355	13452.50885
676.553	13742.01858
676.75	13241.90808
676.947	13750.11577
677.145	13490.97935
677.342	13280.38658
677.539	13029.23428
677.737	13385.68836
677.934	13286.46199
678.131	13468.70712
678.329	13237.85762
678.526	13371.51377
678.723	13576.01468
678.92	13588.16207
679.118	13247.98374
679.315	13470.73189
679.512	13268.23564
679.709	13245.95852
679.906	13237.85762
680.104	13213.5545
680.301	13375.56367
680.498	13256.08455
680.695	13183.17469
680.892	13446.43443
681.089	13567.91635
681.286	13300.63779
681.483	13102.15683
681.68	13450.48405
681.877	13237.85762
682.075	13280.38658
682.272	13124.43749
682.469	13470.73189
682.665	12976.56401
682.862	13199.37738
683.059	13262.16011
683.256	12992.77061
683.453	13110.25896
683.65	13185.20004
683.847	13069.74758
684.044	13106.2079
684.241	12944.14983
684.438	13326.96375
684.635	13000.87379
684.831	13092.02907
685.028	13039.36279
685.225	13096.08019
685.422	13085.95236
685.619	13134.56487
685.815	12660.46663
686.012	13110.25896
686.209	12852.97777
686.405	13189.25073
686.602	12850.9516
686.799	12751.66255
686.996	12842.84687
687.192	13195.32673
687.389	12745.58318
687.586	13043.41416
687.782	13039.36279
687.979	13162.92092
688.175	13130.51393
688.372	13205.45331
688.568	12747.60964
688.765	13118.361
688.962	12676.68011
689.158	12927.94225
689.355	12820.55841
689.551	13316.83846
689.748	12536.82605
689.944	13081.9012
690.14	12656.4132
690.337	12984.66735
690.533	12859.05625
690.73	13122.412
690.926	13270.26081
691.123	12992.77061
691.319	12938.07203
691.515	13090.00351
691.712	12986.69317
691.908	12767.87392
692.104	12897.55212
692.301	12938.07203
692.497	12567.23161
692.693	12931.99418
692.889	12773.9531
693.086	12998.848
693.282	12820.55841
693.478	13033.28569
693.674	12751.66255
693.87	12838.79448
694.067	12717.21214
694.263	12709.10592
694.459	12773.9531
694.655	12936.04608
694.851	12690.86659
695.047	12948.20168
695.243	12674.65344
695.439	12619.93125
695.635	12698.97302
695.831	12765.84752
696.027	12709.10592
696.224	12867.1608
696.42	12757.74186
696.615	12611.82388
696.811	12871.21305
697.007	13053.5425
697.203	12678.70676
697.399	12696.94642
697.595	12719.23869
697.791	12905.65627
697.987	12392.88672
698.183	12936.04608
698.379	12652.35975
698.575	12960.35709
698.77	12494.25587
698.966	12449.65548
699.162	12717.21214
699.358	12676.68011
699.554	12230.6606
699.749	12707.07936
699.945	12386.80404
700.141	12757.74186
700.337	12538.85313
700.532	12638.17247
700.728	12364.50036
700.924	12540.88021
701.119	12449.65548
701.315	12526.69055
701.511	12232.68871
701.706	12650.33301
701.902	12619.93125
702.097	12640.19924
702.293	12441.54597
702.489	12684.7867
702.684	12461.81953
702.88	12806.3745
703.075	12271.22136
703.271	12561.15061
703.466	12581.42038
703.662	12607.77016
703.857	12476.01064
704.053	12650.33301
704.248	12334.08491
704.443	12563.17761
704.639	12248.9133
704.834	12571.28557
705.03	12520.60917
705.225	12494.25587
705.42	12076.50289
705.616	12723.29175
705.811	12500.3375
706.006	12378.69371
706.202	12265.13743
706.397	12573.31255
706.592	12307.7236
706.787	12480.06518
706.983	12457.76487
707.178	12822.58466
707.373	12512.50058
707.568	12344.22357
707.763	12279.33316
707.959	12589.52812
708.154	12530.74477
708.349	12522.6363
708.544	12263.10944
708.739	12246.88525
708.934	12226.60437
709.129	12141.41667
709.324	12119.10344
709.519	12684.7867
709.714	12198.20992
709.909	12664.52003
710.104	12027.81239
710.299	12370.58326
710.494	12198.20992
710.689	12437.49118
710.884	12459.79221
711.079	12311.77926
711.274	12244.85719
711.469	12717.21214
711.664	12368.55563
711.859	12307.7236
712.054	12226.60437
712.249	12131.27441
712.443	12064.33069
712.638	11857.35941
712.833	11932.44696
713.028	12216.46366
713.223	11855.32986
713.417	12068.38812
713.612	11973.03015
713.807	12127.21745
714.002	11914.18346
714.196	12094.76068
714.391	11981.14641
714.586	12167.78569
714.78	11973.03015
714.975	12163.729
715.17	12005.4944
715.364	12425.32665
715.559	12173.87067
715.754	12013.61014
715.948	11794.4394
716.143	11930.41771
716.337	11733.54122
716.532	12151.55875
716.726	12078.53157
716.921	12159.67228
717.115	11808.64786
717.31	11875.62499
717.504	12007.52335
717.699	12242.82913
717.893	11861.41849
718.088	11871.56603
718.282	11895.91929
718.476	11792.40959
718.671	11682.78672
718.865	11918.24207
719.059	11556.89128
719.254	11776.17077
719.448	11437.05429
719.642	11843.15238
719.837	11569.07625
720.031	11694.96831
720.225	11510.1791
720.419	11897.94868
720.614	11504.08583
720.808	12019.69687
721.002	11678.72612
721.196	11601.56788
721.39	11355.78975
721.585	11713.24009
721.779	11623.90451
721.973	11810.6776
722.167	11508.14802
722.361	11398.4556
722.555	11057.00246
722.749	11562.9838
722.943	11126.12994
723.137	11447.21126
723.331	11508.14802
723.525	11800.52879
723.719	11426.89708
723.913	11398.4556
724.107	11382.20245
724.301	11623.90451
724.495	11353.75793
724.689	11565.01463
724.883	11321.24752
725.077	11416.73963
725.271	11536.58224
725.465	11307.0234
725.659	11414.70811
725.853	11526.42737
726.046	11246.05726
726.24	11215.57072
726.434	11142.39343
726.628	11627.96559
726.822	11315.15153
727.015	11603.59852
727.209	11414.70811
727.403	11589.38379
727.596	11300.9272
727.79	11589.38379
727.984	11262.3158
728.177	11443.1485
728.371	11512.21016
728.565	11583.29163
728.758	11333.43923
728.952	11437.05429
729.146	11398.4556
729.339	11634.05715
729.533	11479.71194
729.726	11331.4073
729.92	11266.38033
730.113	11304.99135
730.307	11294.83091
730.5	11447.21126
730.694	11638.11815
730.887	11483.77435
731.081	11550.79866
731.274	11619.84338
731.468	11176.95107
731.661	11286.70238
731.854	11244.0249
732.048	11170.85289
732.241	11205.40802
732.435	11467.52447
732.628	11386.2658
732.821	11191.17981
733.014	11174.91836
733.208	11386.2658
733.401	11278.57368
733.594	11520.33434
733.788	11284.67022
733.981	11311.08749
734.174	11410.64504
734.367	11292.79879
734.56	11378.13907
734.754	11313.11951
734.947	11337.50305
735.14	11404.55036
735.333	11296.86302
735.526	11341.56683
735.719	11107.83271
735.912	11406.58193
736.105	11120.03096
736.298	11069.20234
736.491	11239.96014
736.684	11217.60323
736.877	11117.99795
737.07	11443.1485
737.263	11272.47705
737.456	10967.52458
737.649	11063.10245
737.842	11233.86293
738.035	11418.77114
738.228	11115.96492
738.421	10957.35527
738.614	11223.70069
738.807	11103.76654
739	11349.69427
739.192	11126.12994
739.385	11201.34287
739.578	11158.65623
739.771	11319.21553
739.964	11061.06913
740.156	11380.17077
740.349	11083.43503
740.542	11113.93188
740.735	11073.26888
740.927	11380.17077
741.12	10823.0938
741.313	10983.79488
741.505	11130.19588
741.698	10882.09363
741.891	10939.04982
742.083	11063.10245
742.276	10973.62603
742.468	11117.99795
742.661	10774.25892
742.854	10922.77753
743.046	10806.81626
743.239	10764.08414
743.431	11091.56776
743.624	10965.49074
743.816	10918.70935
744.009	10821.05915
744.201	11052.93574
744.393	10829.19768
744.586	11105.79963
744.778	10888.19651
744.971	10945.15174
745.163	11185.08184
745.355	10792.5728
745.548	10871.92194
745.74	10880.05932
745.932	10869.88757
746.125	10924.81161
746.317	11095.63406
746.509	10971.59222
746.702	11026.50104
746.894	10906.50452
747.086	10882.09363
747.278	10835.30146
747.471	11077.33537
747.663	10894.29928
747.855	10900.40195
748.047	10937.01582
748.239	10711.17044
748.431	10703.02915
748.623	10601.2466
748.815	10721.34678
749.008	10757.97912
749.2	10548.30747
749.392	11014.29978
749.584	10621.60556
749.776	10727.45244
749.968	10509.6158
750.16	10672.49759
750.352	10576.8142
750.544	11061.06913
750.736	10922.77753
750.928	10906.50452
751.12	10566.63351
751.311	10591.06665
751.503	10825.12844
751.695	10511.65232
751.887	10613.46213
752.079	10831.23229
752.271	10678.60412
752.463	10680.63961
752.654	10458.69873
752.846	10552.38001
753.038	10635.85611
753.23	10902.43615
753.421	10729.48763
753.613	10572.74196
753.805	10735.59315
753.997	10497.39643
754.188	10686.74599
754.38	10529.98041
754.572	10379.25198
754.763	10656.21298
754.955	10271.25378
755.146	10485.1766
755.338	10055.14273
755.53	10540.16223
755.721	10621.60556
755.913	10485.1766
756.104	10169.33398
756.296	10460.73556
756.487	10434.25568
756.679	10770.18905
756.87	10222.33654
757.062	10271.25378
757.253	10273.29183
757.445	10030.66742
757.636	10307.93662
757.827	10142.8292
758.019	10173.41143
758.21	9969.47014
758.401	9826.6255
758.593	10077.57663
758.784	10049.02409
758.975	10075.53725
759.167	10002.1103
759.358	10051.06365
759.549	10114.28297
759.74	10020.46877
759.932	10036.78644
760.123	10038.82609
760.314	9914.38145
760.505	9826.6255
760.696	9834.79
760.888	10332.38943
761.079	10191.75927
761.27	10102.04803
761.461	9908.25983
761.652	9896.01619
761.843	9667.36944
762.034	9753.13419
762.225	9785.7994
762.416	9959.26933
762.607	9534.58436
762.798	9951.10842
762.989	9830.70778
763.18	9749.05076
763.371	9634.69001
763.562	9708.21316
763.753	9863.36388
763.944	9951.10842
764.135	9875.60894
764.326	9849.07731
764.517	9648.98774
764.708	9847.03631
764.899	9489.62661
765.089	9802.13056
765.28	9520.28046
765.471	9724.54894
765.662	9683.70767
765.853	9434.44059
766.043	9248.35554
766.234	9742.92551
766.425	9383.33189
766.615	9383.33189
766.806	9528.45421
766.997	9569.31917
767.187	9258.58356
767.378	9295.40096
767.569	9324.03298
767.759	9481.45164
767.95	9557.06035
768.141	9548.88748
768.331	9377.19816
768.522	9393.55444
768.712	9375.15355
768.903	9632.64741
769.093	9348.57214
769.284	9244.26421
769.474	9258.58356
769.665	9103.07203
769.855	9342.43757
770.046	9334.25792
770.236	9283.12909
770.426	9274.94751
770.617	9248.35554
770.807	9121.49301
770.998	8931.07495
771.188	9113.30608
771.378	8922.88152
771.569	9074.41439
771.759	9135.81948
771.949	8988.42105
772.139	9094.88448
772.33	8978.18169
772.52	8988.42105
772.71	8947.46096
772.9	8945.41278
773.09	9017.08892
773.281	9082.60264
773.471	8695.39884
773.661	8961.7978
773.851	8881.91007
774.041	8742.5533
774.231	8965.89388
774.421	8902.39669
774.611	8986.37321
774.802	8605.16304
774.992	8881.91007
775.182	8744.60327
775.372	8799.94565
775.562	8685.14658
775.752	8674.89386
775.942	8724.10271
776.131	8594.90669
776.321	8434.84644
776.511	8438.952
776.701	8274.66935
776.891	8535.41058
777.081	8428.68796
777.271	8549.77316
777.461	8434.84644
777.651	8373.25384
777.84	8549.77316
778.03	8480.00335
778.22	8572.34106
778.41	8599.00928
778.599	8471.79369
778.789	8459.47863
778.979	8428.68796
779.169	8422.52931
779.358	8266.45194
779.548	8375.30721
779.738	8237.68853
779.927	8445.11019
780.117	8391.73345
780.307	8313.69776
780.496	8120.54024
780.686	8360.93323
780.875	8237.68853
781.065	8471.79369
781.254	8186.31566
781.444	8399.9461
781.633	8301.37376
781.823	8348.61193
782.012	8192.48106
782.202	8453.32084
782.391	7978.64187
782.581	8087.64484
782.77	8056.80072
782.96	8247.96162
783.149	7879.87272
783.338	8391.73345
783.528	8081.47638
783.717	8161.65227
783.906	8141.09725
784.096	8362.98672
784.285	8015.66814
784.474	8011.55443
784.663	7912.80103
784.853	7921.03229
785.042	7760.46308
785.231	8019.78176
785.42	7943.66654
785.61	7706.9118
785.799	7816.05904
785.988	7927.20551
786.177	7904.56945
786.366	8023.8953
786.555	7797.52875
786.744	7793.41067
786.933	7457.50357
787.122	7756.34426
787.312	7814.0002
787.501	7857.23144
787.69	7838.70489
787.879	7692.49172
788.068	7494.62548
788.257	7682.19102
788.445	7428.62612
788.634	7791.35161
788.823	7713.09152
789.012	7678.0706
789.201	7690.43162
789.39	7746.04683
789.579	7713.09152
789.768	7676.01035
789.957	7461.62857
790.145	7622.43656
790.334	7463.69104
790.523	7700.73189
790.712	7539.98723
790.9	7397.68128
791.089	7502.87385
791.278	7690.43162
791.467	7490.50117
791.655	7638.92233
791.844	7463.69104
792.033	7379.11203
792.221	7315.13774
792.41	7465.75349
792.599	7154.07669
792.787	7189.1912
792.976	7277.98171
793.164	7362.60455
793.353	7048.69452
793.541	7313.0737
793.73	7323.39367
793.918	7488.43898
794.107	6968.06883
794.295	7172.66752
794.484	7071.42892
794.672	7426.56329
794.861	7178.86407
795.049	7275.91728
795.238	7228.42926
795.426	7311.00964
795.614	7298.62483
795.803	7410.05981
795.991	6924.64079
796.179	7290.36785
796.368	7094.16062
796.556	7284.17488
796.744	6858.44555
796.932	7137.54999
797.121	6796.36637
797.309	7180.92954
797.497	6872.92774
797.685	6930.84541
797.874	6730.12594
798.062	6802.57521
798.25	6591.35895
798.438	7050.76139
798.626	6889.47746
798.814	7065.2289
799.002	6916.36766
799.19	7038.3598
799.378	6786.01785
799.566	6992.88037
799.755	6754.96885
799.943	6794.29671
800.131	6676.28832
800.318	6682.50115
800.506	6926.70902
800.694	6790.15733
800.882	6775.66875
801.07	7129.2861
801.258	6748.75843
801.446	6763.24908
801.634	6699.06767
801.822	6831.54709
802.01	6744.61804
802.197	7065.2289
802.385	6587.21506
802.573	7019.75589
802.761	6906.02573
802.949	7092.09421
803.136	6829.47782
803.324	6825.33921
803.512	6831.54709
803.699	6972.20431
803.887	6773.59887
804.075	6920.50427
804.262	6643.14976
804.45	6676.28832
804.638	6688.71377
804.825	6968.06883
805.013	6906.02573
805.201	7040.42679
805.388	6777.73862
805.576	6856.37657
805.763	6839.82395
805.951	6943.25403
806.138	6806.71433
806.326	7040.42679
806.513	6802.57521
806.701	7079.6953
806.888	6796.36637
807.075	6674.21733
807.263	6759.10901
807.45	7112.75727
807.638	6806.71433
807.825	7054.89508
808.012	6831.54709
808.2	6868.79009
808.387	6794.29671
808.574	6972.20431
808.761	6576.85493
808.949	7121.02186
809.136	6792.22703
809.323	6765.31909
809.51	6839.82395
809.698	7118.95575
809.885	6620.36358
810.072	6930.84541
810.259	6866.72123
810.446	7191.25656
810.633	6988.74534
810.82	6932.91357
811.008	6978.40737
811.195	6786.01785
811.382	6848.10044
811.569	6994.94786
811.756	6879.13406
811.943	6982.54262
812.13	7081.76184
812.317	6835.68556
812.504	6771.52896
812.691	6997.01532
812.878	7007.35228
813.064	7073.49555
813.251	6885.34017
813.438	7230.4942
813.625	7019.75589
813.812	6963.93325
813.999	6821.2005
814.186	7032.1587
814.372	6881.20279
814.559	6999.08276
814.746	6674.21733
814.933	6817.06171
815.12	6668.00423
815.306	6870.85893
815.493	6607.93357
815.68	6945.32205
815.866	6740.47755
816.053	6858.44555
816.24	6759.10901
816.426	6823.26987
816.613	6690.78459
816.799	6672.14632
816.986	6558.20526
817.173	6812.92282
817.359	6852.23855
817.546	6684.57204
817.732	6574.78284
817.919	6926.70902
818.105	6610.0053
818.292	6837.75477
818.478	6711.4916
818.665	6835.68556
818.851	6742.54781
819.037	6765.31909
819.224	6831.54709
819.41	6941.18598
819.597	6974.27202
819.783	6725.98514
819.969	6479.44149
820.156	6740.47755
820.342	6591.35895
820.528	6705.27974
820.714	6593.43086
820.901	6607.93357
821.087	6570.63858
821.273	6891.54607
821.459	6450.41482
821.646	6682.50115
821.832	6674.21733
822.018	6773.59887
822.204	6292.7618
822.39	6701.13838
822.576	6543.69865
822.762	6651.43495
822.948	6601.71826
823.134	6533.3361
823.32	6317.66334
823.507	6591.35895
823.693	6549.91591
823.879	6682.50115
824.065	6456.6352
824.25	6386.12524
824.436	6392.34779
824.622	6450.41482
824.808	6325.96311
824.994	6357.08391
825.18	5977.0499
825.366	6572.71072
825.552	6375.75386
825.738	6261.63013
825.923	6315.58834
826.109	6527.11829
826.295	6506.39076
826.481	6452.4883
826.667	6330.11285
826.852	6427.60495
827.038	6319.73832
827.224	6500.17204
827.409	6251.25174
827.595	6454.56176
827.781	6064.34039
827.966	6411.01418
828.152	5895.95723
828.338	6437.97342
828.523	5945.86466
828.709	6342.56152
828.894	6078.88476
829.08	6143.28172
829.266	6091.35045
829.451	6218.03695
829.637	5912.59455
829.822	6110.0474
830.008	6008.22984
830.193	6122.51098
830.378	5929.23036
830.564	6006.15135
830.749	5829.39285
830.935	5941.70622
831.12	5769.04801
831.305	5885.55814
831.491	5960.41843
831.676	6085.11771
831.861	5918.83315
832.047	6056.0288
832.232	5979.12873
832.417	5841.87551
832.602	5758.64172
832.788	6072.6516
832.973	5794.0207
833.158	5883.47825
833.343	5741.99043
833.528	5935.4684
833.714	5777.37262
833.899	6074.72934
834.084	5581.64455
834.269	5885.55814
834.454	5656.62887
834.639	5956.26033
834.824	5881.39834
835.009	5870.99842
835.194	5675.37017
835.379	6041.48261
835.564	5552.47573
835.749	6107.97006
835.934	5723.25593
836.119	5602.4766
836.304	5369.02323
836.489	5771.1292
836.674	5377.36592
836.859	5519.13428
837.044	5623.30628
837.228	5377.36592
837.413	5581.64455
837.598	5785.69685
837.783	5348.16484
837.968	5806.50577
838.152	5481.61795
838.337	5729.50098
838.522	5302.26813
838.707	5571.22765
838.891	5477.449
839.076	5396.13562
839.261	5279.31553
839.445	5348.16484
839.63	5260.53402
839.815	5460.77225
839.999	5248.01196
840.184	5396.13562
840.368	5220.87795
840.553	5410.73296
840.737	5120.65671
840.922	5252.18607
841.106	5172.86197
841.291	5151.98161
841.475	5177.03776
841.66	5210.44074
841.844	5154.06975
842.029	5231.31457
842.213	4934.68847
842.397	5097.6818
842.582	5024.56114
842.766	5195.82767
842.951	4938.86954
843.135	5026.6507
843.319	4945.14097
843.504	5026.6507
843.688	4876.14388
843.872	5028.74023
844.056	4970.22462
844.241	5204.17814
844.425	4913.78175
844.609	5051.72355
844.793	5043.36631
844.977	5101.85926
845.161	5053.81281
845.346	5141.54056
845.53	4880.32623
845.714	5080.97101
845.898	5030.82974
846.082	4968.13444
846.266	4769.46308
846.45	4869.87018
846.634	4752.72347
846.818	4943.05051
847.002	4694.12345
847.186	4796.66185
847.37	4486.7896
847.554	4759.001
847.738	4666.91028
847.922	4802.93794
848.106	4851.04785
848.29	4853.13931
848.473	4658.53624
848.657	4656.44267
848.841	4539.16721
849.025	4708.77511
849.209	4367.31728
849.392	4759.001
849.576	4526.59784
849.76	4694.12345
849.944	4585.24805
850.127	4735.98242
850.311	4423.91829
850.495	4620.84859
850.678	4371.51049
850.862	4800.84593
851.046	4488.88497
851.229	4828.04027
851.413	4449.06918
851.596	4679.47068
851.78	4365.22064
851.964	4637.59955
852.147	4197.41978
852.331	4402.9568
852.514	4264.55659
852.698	4585.24805
852.881	4321.18623
853.065	4348.44675
853.248	4293.92206
853.431	4692.03026
853.615	4140.75623
853.798	4537.07237
853.982	4331.67148
854.165	4442.78175
854.348	4226.79482
854.532	4442.78175
854.715	4298.11678
854.898	4319.08911
855.081	4197.41978
855.265	4409.24548
855.448	4283.43487
855.631	4260.36118
855.814	4039.98333
855.997	4016.88282
856.181	3932.86008
856.364	4117.66668
856.547	4052.58256
856.73	4381.99314
856.913	3913.95049
857.096	4195.32141
857.279	3958.07032
857.462	4153.34946
857.645	4149.1518
857.828	4155.44826
858.011	3884.53232
858.194	4205.81308
858.377	3937.06199
858.56	4063.08135
858.743	3869.82177
858.926	3953.86882
859.109	3743.69153
859.292	3995.88019
859.475	3712.14798
859.658	3638.52957
859.841	3566.99236
860.023	3781.53803
860.206	3550.15694
860.389	3623.80309
860.572	3457.54117
860.755	3760.51298
860.937	3476.48817
861.12	3630.11455
861.303	3657.46225
861.486	3953.86882
861.668	3484.90859
861.851	3691.11654
862.034	3377.52679
862.216	3674.29
862.399	3495.4337
862.581	3638.52957
862.764	3440.69818
862.947	3562.78361
863.129	3333.29741
863.312	3442.80361
863.494	3280.63346
863.677	3398.58569
863.859	3318.55258
864.042	3383.84464
864.224	3383.84464
864.406	3404.90301
864.589	3274.31307
864.771	3181.59667
864.954	3093.06509
865.136	3369.10274
865.318	3114.1466
865.501	3308.02005
865.683	3120.47075
865.865	3390.16234
866.048	3255.35098
866.23	3324.8719
866.412	3232.17325
866.594	3225.8517
866.777	3149.98151
866.959	3196.34916
867.141	3061.43986
867.323	3164.73571
867.505	2991.85208
867.687	3263.77874
867.869	3137.33443
868.052	3217.42273
868.234	3160.52031
868.416	3314.33962
868.598	3015.04986
868.78	3095.17331
868.962	3093.06509
869.144	3360.67841
869.326	3031.91982
869.508	3244.8159
869.69	3023.48496
869.872	3373.3148
870.054	3181.59667
870.236	3080.41542
870.417	3187.91926
870.599	3137.33443
870.781	2941.23242
870.963	3067.76519
871.145	2884.27514
871.327	3019.26744
871.508	3053.00587
871.69	3057.2229
871.872	2875.83613
872.054	3280.63346
872.235	2804.0954
872.417	3002.39675
872.599	2808.31589
872.78	3069.8736
872.962	2658.45572
873.144	2943.34174
873.325	2909.5908
873.507	2947.56034
873.689	2863.17719
873.87	2888.49456
874.052	2723.8958
874.233	2901.15248
874.415	2820.97703
874.596	2977.0889
874.778	2681.6778
874.959	2816.7567
875.141	2780.88173
875.322	2884.27514
875.503	2685.89984
875.685	2816.7567
875.866	2669.0114
876.048	3055.11439
876.229	2622.56404
876.41	2808.31589
876.592	2669.0114
876.773	2911.70034
876.954	2624.67541
877.136	2880.05567
877.317	2791.4336
877.498	2901.15248
877.679	2742.89219
877.86	2854.7376
878.042	2749.22408
878.223	3120.47075
878.404	2905.37167
878.585	2958.10659
878.766	2768.21903
878.947	3074.09038
879.128	2818.86687
879.309	3135.22652
879.49	2953.88814
879.672	3114.1466
879.853	2867.39689
880.034	3017.15866
880.215	2899.04286
880.396	3131.01067
880.576	2789.32326
880.757	3103.60604
880.938	2770.32952
881.119	3038.24579
881.3	2882.16541
881.481	3057.2229
881.662	2664.78916
881.843	2979.19797
882.023	2880.05567
882.204	3065.65676
882.385	2877.94591
882.566	2945.45105
882.747	2905.37167
882.927	3069.8736
883.108	2875.83613
883.289	3071.982
883.469	3012.94105
883.65	3031.91982
883.831	2972.87072
884.011	3061.43986
884.192	3059.33139
884.373	3183.70422
884.553	3149.98151
884.734	3171.05869
884.914	2892.71392
885.095	3187.91926
885.275	2850.51773
885.456	3021.37621
885.636	3124.68676
885.817	3029.81112
885.997	2875.83613
886.178	3107.82232
886.358	2818.86687
886.538	2922.24784
886.719	2812.53633
886.899	3031.91982
887.08	2848.40777
887.26	3019.26744
887.44	2808.31589
887.621	3164.73571
887.801	2785.10252
887.981	2886.38486
888.161	2886.38486
888.342	2937.01372
888.522	2932.79497
888.702	3278.52668
888.882	2968.65247
889.062	3086.74033
889.242	2880.05567
889.423	3099.38971
889.603	2799.87486
889.783	3305.91349
889.963	2951.77889
890.143	3050.89734
890.323	2968.65247
890.503	3190.02676
890.683	2823.08717
890.863	3034.02849
891.043	2846.2978
891.223	3036.13715
891.403	2774.55044
891.583	3015.04986
891.763	2717.56343
891.943	3071.982
892.122	2812.53633
892.302	3053.00587
892.482	2955.99737
892.662	3031.91982
892.842	2835.74772
893.022	3025.5937
893.201	2831.52759
893.381	2795.65426
893.561	2896.93323
893.741	2918.02888
893.92	2702.78745
894.1	2755.55585
894.28	2622.56404
894.459	2759.77697
894.639	2711.23095
894.819	2892.71392
894.998	2601.44962
895.178	2782.99213
895.357	2616.22984
895.537	2702.78745
895.716	2681.6778
895.896	2704.89834
896.075	2599.33811
896.255	2812.53633
896.434	2614.11842
896.614	2690.12182
896.793	2514.86798
896.973	2533.87539
897.152	2504.30791
897.331	2662.67803
897.511	2523.31584
897.69	2614.11842
897.87	2455.72795
898.049	2666.90029
898.228	2563.44061
898.407	2641.56596
898.587	2276.14511
898.766	2664.78916
898.945	2343.76127
899.124	2504.30791
899.304	2377.56559
899.483	2436.71683
899.662	2269.8056
899.841	2430.37959
900.02	2331.08399
900.199	2478.96258
900.378	2216.97318
900.557	2276.14511
900.737	2276.14511
900.916	2352.21259
901.095	2174.70332
901.274	2322.63228
901.453	2090.15386
901.632	2100.72322
901.811	2028.848
901.989	2242.33344
902.168	2028.848
902.347	2252.89984
902.526	2111.29239
902.705	2145.11245
902.884	2041.53246
903.063	2250.78658
903.242	1965.42216
903.42	2043.64651
903.599	1876.61691
903.778	2098.60936
903.957	1834.32541
904.135	1857.58598
904.314	1660.91294
904.493	1925.24959
904.672	1753.9666
904.85	1878.73143
905.029	1794.14676
905.207	1965.42216
905.386	1783.57317
905.565	1927.36399
905.743	1650.33829
905.922	1686.2918
906.1	1514.97852
906.279	1851.24224
906.457	1580.54425
906.636	1743.39264
906.814	1582.65925
906.993	1654.56816
907.171	1434.60665
907.35	1561.50917
907.528	1356.35014
907.707	1656.68309
907.885	1278.09538
908.063	1443.06686
908.242	1354.23512
908.42	1519.2086
908.598	1256.94593
908.777	1565.7392
908.955	1343.66002
909.133	1531.89881
909.311	1286.55522
909.49	1381.73051
909.668	1195.61413
909.846	1443.06686
910.024	1265.40568
910.202	1356.35014
910.38	1375.3854
910.559	1476.90769
910.737	1371.15534
910.915	1438.83675
911.093	1254.831
911.271	1413.45615
911.449	1388.07562
911.627	1364.81025
911.805	1379.61547
911.983	1519.2086
912.161	1286.55522
912.339	1601.69419
912.517	1424.0314
912.695	1508.63339
912.872	1286.55522
913.05	1489.59798
913.228	1337.31498
913.406	1557.27913
913.584	1438.83675
913.762	1629.18883
913.939	1356.35014
914.117	1608.03914
914.295	1464.21738
914.473	1608.03914
914.65	1481.13779
914.828	1481.13779
915.006	1377.50044
915.184	1440.9518
915.361	1411.3411
915.539	1506.51835
915.716	1531.89881
915.894	1432.4916
916.072	1195.61413
916.249	1379.61547
916.427	1366.92527
916.604	1362.69522
916.782	1146.97372
916.959	1447.29696
917.137	1328.85495
917.314	1669.3726
917.492	1227.33715
917.669	1381.73051
917.847	1216.76273
918.024	1244.25639
918.201	1070.8455
918.379	1364.81025
918.556	1252.71607
918.733	1392.3057
918.911	1155.43277
919.088	1278.09538
919.265	1100.45018
919.442	1077.18928
919.62	1060.27265
919.797	1292.90013
919.974	1136.4
920.151	1314.04996
920.328	1151.20324
920.506	1286.55522
920.683	1024.326
920.86	1125.82639
921.037	895.35635
921.214	1210.41811
921.391	998.95292
921.568	1168.12147
921.745	950.32382
921.922	1049.69993
922.099	956.66654
922.276	1153.318
922.453	1043.35637
922.63	1176.58068
922.807	1024.326
922.984	1237.91165
923.161	910.15478
923.338	1051.81447
923.514	897.47039
923.691	1024.326
923.868	937.63857
924.045	967.23788
924.222	787.55177
924.399	876.33038
924.575	884.78628
924.752	1041.24186
924.929	886.90028
925.105	933.41021
925.282	793.89256
925.459	914.38297
925.635	812.91545
925.812	954.55229
925.989	806.5744
926.165	927.06773
926.342	779.09752
926.518	914.38297
926.695	791.77895
926.871	872.10247
927.048	637.51393
927.224	798.1198
927.401	711.46935
927.577	726.26209
927.754	671.32036
927.93	694.56402
928.107	694.56402
928.283	821.37031
928.459	694.56402
928.636	719.92228
928.812	713.58257
928.988	618.49918
929.165	662.86847
929.341	694.56402
929.517	707.24295
929.693	696.67715
929.87	648.07811
930.046	576.24783
930.222	508.65683
930.398	774.87045
930.574	584.69769
930.751	626.95005
930.927	567.79819
931.103	669.20737
931.279	563.57345
931.455	468.53159
931.631	500.20897
931.807	491.76134
931.983	508.65683
932.159	542.45056
932.335	451.63837
932.511	447.41521
932.687	451.63837
932.863	485.42577
933.039	436.85761
933.215	400.96472
933.391	464.30819
933.566	489.64947
933.742	388.29776
933.918	451.63837
934.094	398.85351
934.27	441.0806
934.445	291.20486
934.621	384.07557
934.797	316.52984
934.973	297.53586
935.148	441.0806
935.324	367.18749
935.5	308.08789
935.675	337.63597
935.851	291.20486
936.027	230.01389
936.202	301.75662
936.378	286.98428
936.553	263.77245
936.729	280.65356
936.904	213.13647
937.08	177.27622
937.255	156.18471
937.431	213.13647
937.606	215.24608
937.782	181.49477
937.957	179.38548
938.133	111.89944
938.308	170.94855
938.483	147.7487
938.659	105.57375
938.834	154.07568
939.009	97.13981
939.185	189.93211
939.36	122.44269
939.535	145.63975
939.71	105.57375
939.886	151.96666
940.061	114.00805
940.236	126.66015
940.411	97.13981
940.586	128.76891
940.761	78.16474
940.937	78.16474
941.112	90.81458
941.287	164.62107
941.462	179.38548
941.637	92.92297
941.812	80.27299
941.987	80.27299
942.162	154.07568
942.337	114.00805
942.512	76.05651
942.687	149.85767
942.862	99.24826
943.037	67.62381
943.212	107.68229
943.386	107.68229
943.561	48.65159
943.736	54.97546
943.911	151.96666
944.086	95.03138
944.26	61.29953
944.435	57.08346
944.61	10.7128
944.785	128.76891
944.959	86.59788
945.134	120.334
945.309	76.05651
945.483	88.70622
945.658	78.16474
945.833	54.97546
946.007	97.13981
946.182	143.53082
946.357	122.44269
946.531	120.334
946.706	189.93211
946.88	103.46523
947.055	69.73195
947.229	99.24826
947.404	61.29953
947.578	147.7487
947.752	19.14299
947.927	114.00805
948.101	63.4076
948.276	42.32793
948.45	137.20416
948.624	92.92297
948.799	156.18471
948.973	103.46523
949.147	57.08346
949.321	132.98649
949.496	78.16474
949.67	52.86748
949.844	78.16474
950.018	179.38548
950.193	147.7487
950.367	71.84011
950.541	99.24826
950.715	50.75953
950.889	52.86748
951.063	82.38126
951.237	54.97546
951.411	71.84011
951.585	69.73195
951.759	128.76891
951.933	46.54368
952.107	86.59788
952.281	124.55141
952.455	137.20416
952.629	59.19149
952.803	149.85767
952.977	103.46523
953.151	92.92297
953.325	147.7487
953.499	36.00449
953.672	78.16474
953.846	29.68125
954.02	65.5157
954.194	61.29953
954.368	111.89944
954.541	31.78897
954.715	80.27299
954.889	52.86748
955.062	135.09531
955.236	86.59788
955.41	23.35822
955.583	111.89944
955.757	170.94855
955.93	38.11228
956.104	103.46523
956.278	88.70622
956.451	128.76891
956.625	6.49786
956.798	46.54368
956.972	61.29953
957.145	122.44269
957.319	145.63975
957.492	103.46523
957.665	78.16474
957.839	61.29953
958.012	21.25059
958.185	99.24826
958.359	65.5157
958.532	69.73195
958.705	179.38548
958.879	19.14299
959.052	124.55141
959.225	52.86748
959.398	114.00805
959.572	120.334
959.745	124.55141
959.918	114.00805
960.091	111.89944
960.264	52.86748
960.438	111.89944
960.611	42.32793
960.784	97.13981
960.957	145.63975
961.13	61.29953
961.303	120.334
961.476	116.11668
961.649	73.9483
961.822	78.16474
961.995	137.20416
962.168	65.5157
962.341	120.334
962.514	69.73195
962.686	48.65159
962.859	73.9483
963.032	111.89944
963.205	78.16474
963.378	63.4076
963.551	48.65159
963.723	61.29953
963.896	42.32793
964.069	130.87769
964.242	114.00805
964.414	48.65159
964.587	63.4076
964.76	38.11228
964.932	128.76891
965.105	36.00449
965.278	128.76891
965.45	132.98649
965.623	128.76891
965.795	63.4076
965.968	23.35822
966.14	88.70622
966.313	80.27299
966.485	145.63975
966.658	71.84011
966.83	105.57375
967.003	44.4358
967.175	88.70622
967.348	99.24826
967.52	61.29953
967.692	170.94855
967.865	57.08346
968.037	57.08346
968.209	124.55141
968.382	48.65159
968.554	73.9483
968.726	31.78897
968.898	38.11228
969.071	135.09531
969.243	95.03138
969.415	29.68125
969.587	52.86748
969.759	67.62381
969.932	88.70622
970.104	105.57375
970.276	162.51195
970.448	48.65159
970.62	40.22009
970.792	103.46523
970.964	88.70622
971.136	128.76891
971.308	23.35822
971.48	124.55141
971.652	73.9483
971.824	86.59788
971.996	69.73195
972.168	86.59788
972.339	40.22009
972.511	46.54368
972.683	92.92297
972.855	88.70622
973.027	59.19149
973.199	80.27299
973.37	82.38126
973.542	114.00805
973.714	40.22009
973.886	111.89944
974.057	76.05651
974.229	71.84011
974.401	120.334
974.572	67.62381
974.744	73.9483
974.915	69.73195
975.087	99.24826
975.259	44.4358
975.43	25.46587
975.602	46.54368
975.773	27.57355
975.945	65.5157
976.116	42.32793
976.288	69.73195
976.459	73.9483
976.63	143.53082
976.802	95.03138
976.973	76.05651
977.145	54.97546
977.316	-10.36097
977.487	78.16474
977.659	59.19149
977.83	38.11228
978.001	86.59788
978.172	61.29953
978.344	-23.00407
978.515	122.44269
978.686	80.27299
978.857	78.16474
979.028	86.59788
979.2	10.7128
979.371	61.29953
979.542	78.16474
979.713	46.54368
979.884	52.86748
980.055	61.29953
980.226	69.73195
980.397	19.14299
980.568	-48.28761
980.739	90.81458
980.91	80.27299
981.081	54.97546
981.252	78.16474
981.423	19.14299
981.594	52.86748
981.765	44.4358
981.936	57.08346
982.106	78.16474
982.277	33.89672
982.448	-14.57544
982.619	103.46523
982.79	84.48956
982.96	54.97546
983.131	54.97546
983.302	80.27299
983.472	78.16474
983.643	116.11668
983.814	44.4358
983.984	82.38126
984.155	33.89672
984.326	78.16474
984.496	31.78897
984.667	8.60532
984.837	80.27299
985.008	78.16474
985.178	65.5157
985.349	71.84011
985.519	14.92785
985.69	12.82031
985.86	44.4358
986.031	27.57355
986.201	38.11228
986.371	143.53082
986.542	44.4358
986.712	69.73195
986.882	67.62381
987.053	73.9483
987.223	2.283
987.393	69.73195
987.563	65.5157
987.734	50.75953
987.904	12.82031
988.074	114.00805
988.244	80.27299
988.414	36.00449
988.585	67.62381
988.755	42.32793
988.925	-8.2537
989.095	-6.14641
989.265	90.81458
989.435	14.92785
989.605	-18.7898
989.775	61.29953
989.945	19.14299
990.115	71.84011
990.285	61.29953
990.455	31.78897
990.625	25.46587
990.795	-10.36097
990.965	54.97546
991.134	52.86748
991.304	69.73195
991.474	48.65159
991.644	2.283
991.814	10.7128
991.984	38.11228
992.153	25.46587
992.323	27.57355
992.493	-16.68263
992.662	69.73195
992.832	27.57355
993.002	23.35822
993.171	57.08346
993.341	61.29953
993.511	-10.36097
993.68	27.57355
993.85	52.86748
994.019	90.81458
994.189	69.73195
994.358	-14.57544
994.528	46.54368
994.697	80.27299
994.867	4.39042
995.036	65.5157
995.206	67.62381
995.375	12.82031
995.544	40.22009
995.714	97.13981
995.883	61.29953
996.052	36.00449
996.222	31.78897
996.391	63.4076
996.56	12.82031
996.73	23.35822
996.899	86.59788
997.068	14.92785
997.237	48.65159
997.406	111.89944
997.576	38.11228
997.745	2.283
997.914	31.78897
998.083	46.54368
998.252	78.16474
998.421	27.57355
998.59	36.00449
998.759	88.70622
998.928	48.65159
999.097	63.4076
999.266	76.05651
999.435	-6.14641
999.604	-14.57544
999.773	12.82031
999.942	48.65159
1000.111	50.75953
1000.28	31.78897
1000.448	36.00449
1000.617	0.17561
1000.786	44.4358
1000.955	103.46523
1001.124	31.78897
1001.292	92.92297
1001.461	8.60532
1001.63	36.00449
1001.798	95.03138
1001.967	-44.07393
1002.136	36.00449
1002.304	107.68229
1002.473	4.39042
1002.642	99.24826
1002.81	33.89672
1002.979	57.08346
1003.147	-54.60793
1003.316	95.03138
1003.484	80.27299
1003.653	-27.21824
1003.821	-6.14641
1003.99	99.24826
1004.158	29.68125
1004.327	4.39042
1004.495	40.22009
1004.663	31.78897
1004.832	23.35822
1005	-31.43231
1005.168	25.46587
1005.337	33.89672
1005.505	12.82031
1005.673	12.82031
1005.842	107.68229
1006.01	67.62381
1006.178	44.4358
1006.346	52.86748
1006.514	73.9483
1006.683	69.73195
1006.851	36.00449
1007.019	78.16474
1007.187	92.92297
1007.355	109.79086
1007.523	21.25059
1007.691	42.32793
1007.859	-41.96706
1008.027	19.14299
1008.195	-14.57544
1008.363	-23.00407
1008.531	44.4358
1008.699	-31.43231
1008.867	0.17561
1009.035	38.11228
1009.203	40.22009
1009.37	90.81458
1009.538	69.73195
1009.706	33.89672
1009.874	10.7128
1010.042	-23.00407
1010.209	25.46587
1010.377	38.11228
1010.545	-20.89695
1010.713	-25.11117
1010.88	-31.43231
1011.048	-14.57544
1011.216	105.57375
1011.383	-4.03909
1011.551	38.11228
1011.718	44.4358
1011.886	59.19149
1012.054	33.89672
1012.221	54.97546
1012.389	-23.00407
1012.556	52.86748
1012.724	25.46587
1012.891	14.92785
1013.058	82.38126
1013.226	52.86748
1013.393	52.86748
1013.561	4.39042
1013.728	44.4358
1013.895	14.92785
1014.063	-4.03909
1014.23	27.57355
1014.397	-1.93175
1014.565	-35.64629
1014.732	8.60532
1014.899	6.49786
1015.066	52.86748
1015.233	2.283
1015.401	63.4076
1015.568	-56.71465
1015.735	57.08346
1015.902	-31.43231
1016.069	78.16474
1016.236	-12.46822
1016.403	44.4358
1016.57	-63.03467
1016.737	44.4358
1016.904	12.82031
1017.071	46.54368
1017.238	63.4076
1017.405	52.86748
1017.572	23.35822
1017.739	44.4358
1017.906	-14.57544
1018.073	54.97546
1018.24	4.39042
1018.407	-23.00407
1018.573	21.25059
1018.74	65.5157
1018.907	-31.43231
1019.074	23.35822
1019.241	0.17561
1019.407	23.35822
1019.574	29.68125
1019.741	80.27299
1019.907	-1.93175
1020.074	57.08346
1020.241	42.32793
1020.407	42.32793
1020.574	31.78897
1020.74	44.4358
1020.907	23.35822
1021.073	14.92785
1021.24	14.92785
1021.406	4.39042
1021.573	19.14299
1021.739	6.49786
1021.906	6.49786
1022.072	44.4358
1022.239	29.68125
1022.405	8.60532
1022.571	-8.2537
1022.738	-14.57544
1022.904	36.00449
1023.07	-10.36097
1023.237	-12.46822
1023.403	69.73195
1023.569	-77.78048
1023.735	97.13981
1023.902	59.19149
1024.068	-29.32529
1024.234	-31.43231
1024.4	61.29953
1024.566	-20.89695
1024.732	-31.43231
1024.898	-39.86016
1025.065	69.73195
1025.231	27.57355
1025.397	2.283
1025.563	44.4358
1025.729	-33.53931
1025.895	65.5157
1026.061	69.73195
1026.227	109.79086
1026.392	73.9483
1026.558	-14.57544
1026.724	-12.46822
1026.89	57.08346
1027.056	-39.86016
1027.222	14.92785
1027.388	2.283
1027.553	-6.14641
1027.719	38.11228
1027.885	27.57355
1028.051	19.14299
1028.216	-44.07393
1028.382	-6.14641
1028.548	29.68125
1028.713	61.29953
1028.879	42.32793
1029.045	-6.14641
1029.21	44.4358
1029.376	12.82031
1029.541	6.49786
1029.707	61.29953
1029.873	8.60532
1030.038	-14.57544
1030.204	19.14299
1030.369	-23.00407
1030.534	21.25059
1030.7	78.16474
1030.865	48.65159
1031.031	-33.53931
1031.196	57.08346
1031.361	80.27299
1031.527	111.89944
1031.692	46.54368
1031.857	-31.43231
1032.023	-18.7898
1032.188	40.22009
1032.353	107.68229
1032.518	21.25059
1032.684	0.17561
1032.849	65.5157
1033.014	25.46587
1033.179	44.4358
1033.344	10.7128
1033.509	6.49786
1033.674	76.05651
1033.839	48.65159
1034.004	27.57355
1034.17	111.89944
1034.335	10.7128
1034.5	52.86748
1034.664	-6.14641
1034.829	14.92785
1034.994	-14.57544
1035.159	19.14299
1035.324	29.68125
1035.489	10.7128
1035.654	36.00449
1035.819	-71.461
1035.984	2.283
1036.148	69.73195
1036.313	95.03138
1036.478	-41.96706
1036.643	-44.07393
1036.807	71.84011
1036.972	44.4358
1037.137	19.14299
1037.301	2.283
1037.466	-6.14641
1037.631	23.35822
1037.795	-31.43231
1037.96	-14.57544
1038.124	12.82031
1038.289	57.08346
1038.454	2.283
1038.618	2.283
1038.783	-63.03467
1038.947	61.29953
1039.111	19.14299
1039.276	-6.14641
1039.44	6.49786
1039.605	21.25059
1039.769	52.86748
1039.933	36.00449
1040.098	-6.14641
1040.262	44.4358
1040.426	4.39042
1040.591	71.84011
1040.755	2.283
1040.919	44.4358
1041.083	-29.32529
1041.248	19.14299
1041.412	38.11228
1041.576	27.57355
1041.74	6.49786
1041.904	-63.03467
1042.068	14.92785
1042.232	36.00449
1042.397	38.11228
1042.561	8.60532
1042.725	0.17561
1042.889	-6.14641
1043.053	25.46587
1043.217	6.49786
1043.381	8.60532
1043.544	-4.03909
1043.708	33.89672
1043.872	86.59788
1044.036	21.25059
1044.2	61.29953
1044.364	57.08346
1044.528	-10.36097
1044.691	-33.53931
1044.855	-46.18078
1045.019	103.46523
1045.183	4.39042
1045.346	111.89944
1045.51	25.46587
1045.674	54.97546
1045.837	80.27299
1046.001	10.7128
1046.165	-39.86016
1046.328	54.97546
1046.492	14.92785
1046.655	6.49786
1046.819	17.0354
1046.983	14.92785
1047.146	6.49786
1047.31	-58.82135
1047.473	21.25059
1047.636	48.65159
1047.8	-56.71465
1047.963	-6.14641
1048.127	54.97546
1048.29	2.283
