Data from mixed_try1_USB4F045381__10__00114.txt Node

Date: Thu Apr 03 19:59:34 EDT 2025
User: mmckonesweet
Spectrometer: USB4F04538
Trigger mode: 4
Integration Time (sec): 2.700000E-3
Scans to average: 1
Electric dark correction enabled: true
Nonlinearity correction enabled: true
Boxcar width: 0
XAxis mode: Wavelengths
Number of Pixels in Spectrum: 3648
>>>>>Begin Spectral Data<<<<<
345.52	-8.78052
345.736	-8.78052
345.952	-8.78052
346.168	-10.88778
346.384	43.90883
346.6	-21.42373
346.816	14.40096
347.032	-48.81431
347.248	35.47754
347.464	20.72369
347.68	-6.67324
347.896	12.29343
348.112	1.75615
348.328	-55.13461
348.544	81.85419
348.76	-55.13461
348.975	20.72369
349.191	-21.42373
349.407	-19.31659
349.623	22.83131
349.839	-6.67324
350.055	8.07845
350.27	43.90883
350.486	-29.85205
350.702	18.61609
350.918	52.34049
351.133	-63.56133
351.349	-4.56592
351.565	43.90883
351.781	10.18593
351.996	10.18593
352.212	-23.53085
352.428	27.04663
352.644	-36.17303
352.859	-6.67324
353.075	-36.17303
353.291	94.50427
353.506	35.47754
353.722	52.34049
353.938	-21.42373
354.153	39.69314
354.369	18.61609
354.584	-61.45468
354.8	43.90883
355.016	39.69314
355.231	1.75615
355.447	43.90883
355.662	-6.67324
355.878	-65.66794
356.093	20.72369
356.309	64.98867
356.524	-67.77453
356.74	-46.70749
356.955	-12.99502
357.171	1.75615
357.386	14.40096
357.602	1.75615
357.817	35.47754
358.033	-90.94533
358.248	18.61609
358.464	31.26204
358.679	18.61609
358.895	22.83131
359.11	-23.53085
359.325	60.77252
359.541	-44.60065
359.756	-4.56592
359.972	58.66448
360.187	54.44846
360.402	-31.95906
360.618	14.40096
360.833	18.61609
361.048	-31.95906
361.264	-40.38689
361.479	-15.10224
361.694	-23.53085
361.909	-12.99502
362.125	-50.9211
362.34	52.34049
362.555	-15.10224
362.77	31.26204
362.986	-42.49378
363.201	1.75615
363.416	18.61609
363.631	48.12461
363.847	-17.20943
364.062	5.97099
364.277	-4.56592
364.492	-0.35123
364.707	-19.31659
364.922	-55.13461
365.138	31.26204
365.353	3.86356
365.568	29.15432
365.783	-21.42373
365.998	-42.49378
366.213	20.72369
366.428	-21.42373
366.643	67.09678
366.858	-21.42373
367.073	27.04663
367.288	77.63768
367.503	18.61609
367.718	-40.38689
367.933	43.90883
368.148	-6.67324
368.363	14.40096
368.578	-12.99502
368.793	-31.95906
369.008	-31.95906
369.223	-63.56133
369.438	-31.95906
369.653	14.40096
369.868	-44.60065
370.083	-53.02787
370.298	-67.77453
370.513	29.15432
370.728	10.18593
370.943	115.58952
371.157	46.01671
371.372	27.04663
371.587	-23.53085
371.802	27.04663
372.017	-12.99502
372.232	5.97099
372.446	-15.10224
372.661	62.88058
372.876	1.75615
373.091	-4.56592
373.306	-21.42373
373.52	14.40096
373.735	-19.31659
373.95	-15.10224
374.165	-38.27997
374.379	39.69314
374.594	-6.67324
374.809	18.61609
375.023	18.61609
375.238	10.18593
375.453	18.61609
375.667	8.07845
375.882	22.83131
376.097	67.09678
376.311	22.83131
376.526	-10.88778
376.741	-31.95906
376.955	60.77252
377.17	35.47754
377.384	81.85419
377.599	14.40096
377.813	12.29343
378.028	-78.3071
378.242	31.26204
378.457	20.72369
378.672	18.61609
378.886	5.97099
379.101	43.90883
379.315	-21.42373
379.53	-15.10224
379.744	-15.10224
379.958	-40.38689
380.173	-15.10224
380.387	18.61609
380.602	5.97099
380.816	27.04663
381.031	-76.20064
381.245	62.88058
381.459	-6.67324
381.674	-19.31659
381.888	-48.81431
382.103	-31.95906
382.317	27.04663
382.531	29.15432
382.746	-34.06606
382.96	52.34049
383.174	43.90883
383.388	27.04663
383.603	60.77252
383.817	-48.81431
384.031	35.47754
384.246	69.20492
384.46	35.47754
384.674	43.90883
384.888	-4.56592
385.103	-78.3071
385.317	73.42125
385.531	-4.56592
385.745	52.34049
385.959	54.44846
386.174	27.04663
386.388	-48.81431
386.602	14.40096
386.816	37.58533
387.03	-40.38689
387.244	-29.85205
387.458	115.58952
387.672	-17.20943
387.887	16.50851
388.101	-25.63794
388.315	111.37229
388.529	18.61609
388.743	29.15432
388.957	-6.67324
389.171	-93.05161
389.385	37.58533
389.599	31.26204
389.813	-6.67324
390.027	111.37229
390.241	-12.99502
390.455	10.18593
390.669	-10.88778
390.883	-4.56592
391.097	-8.78052
391.311	31.26204
391.525	-4.56592
391.738	3.86356
391.952	-36.17303
392.166	35.47754
392.38	5.97099
392.594	5.97099
392.808	27.04663
393.022	18.61609
393.236	-78.3071
393.449	43.90883
393.663	10.18593
393.877	-8.78052
394.091	77.63768
394.305	10.18593
394.518	-25.63794
394.732	-10.88778
394.946	22.83131
395.16	-74.09415
395.373	18.61609
395.587	-38.27997
395.801	1.75615
396.015	54.44846
396.228	48.12461
396.442	-8.78052
396.656	81.85419
396.869	-4.56592
397.083	58.66448
397.297	10.18593
397.51	14.40096
397.724	27.04663
397.938	27.04663
398.151	-40.38689
398.365	1.75615
398.578	-48.81431
398.792	-19.31659
399.005	18.61609
399.219	60.77252
399.433	-6.67324
399.646	18.61609
399.86	22.83131
400.073	33.36978
400.287	27.04663
400.5	-21.42373
400.714	-10.88778
400.927	-8.78052
401.141	69.20492
401.354	37.58533
401.567	5.97099
401.781	27.04663
401.994	-42.49378
402.208	27.04663
402.421	-38.27997
402.635	-2.45859
402.848	-23.53085
403.061	-15.10224
403.275	41.80097
403.488	-2.45859
403.701	5.97099
403.915	35.47754
404.128	-6.67324
404.341	-31.95906
404.555	-38.27997
404.768	-12.99502
404.981	3.86356
405.195	-82.51994
405.408	79.74592
405.621	-29.85205
405.834	54.44846
406.048	27.04663
406.261	-23.53085
406.474	22.83131
406.687	-15.10224
406.9	20.72369
407.114	35.47754
407.327	-12.99502
407.54	10.18593
407.753	-29.85205
407.966	-15.10224
408.179	-50.9211
408.392	27.04663
408.605	39.69314
408.819	18.61609
409.032	1.75615
409.245	58.66448
409.458	18.61609
409.671	10.18593
409.884	-10.88778
410.097	10.18593
410.31	-17.20943
410.523	-8.78052
410.736	20.72369
410.949	8.07845
411.162	-8.78052
411.375	-15.10224
411.588	-38.27997
411.801	1.75615
412.014	-69.8811
412.227	27.04663
412.44	69.20492
412.653	-19.31659
412.865	-36.17303
413.078	-6.67324
413.291	8.07845
413.504	-6.67324
413.717	22.83131
413.93	10.18593
414.143	-74.09415
414.356	71.31307
414.568	-38.27997
414.781	22.83131
414.994	50.23254
415.207	-12.99502
415.42	27.04663
415.632	-2.45859
415.845	18.61609
416.058	-67.77453
416.271	77.63768
416.483	60.77252
416.696	12.29343
416.909	-4.56592
417.121	10.18593
417.334	-31.95906
417.547	39.69314
417.759	46.01671
417.972	27.04663
418.185	10.18593
418.397	20.72369
418.61	-31.95906
418.823	-44.60065
419.035	-69.8811
419.248	14.40096
419.46	31.26204
419.673	-15.10224
419.885	18.61609
420.098	64.98867
420.311	-6.67324
420.523	-48.81431
420.736	3.86356
420.948	-10.88778
421.161	-42.49378
421.373	20.72369
421.586	14.40096
421.798	-17.20943
422.01	-10.88778
422.223	-19.31659
422.435	46.01671
422.648	12.29343
422.86	-15.10224
423.073	56.55646
423.285	37.58533
423.497	29.15432
423.71	27.04663
423.922	29.15432
424.134	27.04663
424.347	56.55646
424.559	3.86356
424.771	27.04663
424.984	14.40096
425.196	-12.99502
425.408	-4.56592
425.621	48.12461
425.833	-95.15786
426.045	-19.31659
426.257	22.83131
426.47	69.20492
426.682	-38.27997
426.894	-12.99502
427.106	12.29343
427.318	14.40096
427.531	73.42125
427.743	-15.10224
427.955	39.69314
428.167	12.29343
428.379	12.29343
428.591	-23.53085
428.804	69.20492
429.016	22.83131
429.228	-15.10224
429.44	-6.67324
429.652	-23.53085
429.864	-59.34802
430.076	-23.53085
430.288	35.47754
430.5	-82.51994
430.712	20.72369
430.924	12.29343
431.136	-44.60065
431.348	43.90883
431.56	1.75615
431.772	24.93896
431.984	119.80683
432.196	-44.60065
432.408	98.72115
432.62	52.34049
432.832	10.18593
433.044	8.07845
433.256	10.18593
433.468	1.75615
433.679	-38.27997
433.891	18.61609
434.103	1.75615
434.315	-53.02787
434.527	-12.99502
434.739	14.40096
434.95	16.50851
435.162	37.58533
435.374	41.80097
435.586	12.29343
435.798	12.29343
436.009	-12.99502
436.221	-10.88778
436.433	5.97099
436.645	-8.78052
436.856	35.47754
437.068	43.90883
437.28	-21.42373
437.491	-40.38689
437.703	22.83131
437.915	-2.45859
438.126	35.47754
438.338	18.61609
438.55	22.83131
438.761	-48.81431
438.973	5.97099
439.184	10.18593
439.396	-4.56592
439.608	-2.45859
439.819	-46.70749
440.031	35.47754
440.242	-74.09415
440.454	-31.95906
440.665	46.01671
440.877	-4.56592
441.088	-12.99502
441.3	27.04663
441.511	5.97099
441.723	54.44846
441.934	10.18593
442.146	-10.88778
442.357	3.86356
442.569	48.12461
442.78	37.58533
442.991	24.93896
443.203	79.74592
443.414	-0.35123
443.626	1.75615
443.837	18.61609
444.048	-57.24133
444.26	5.97099
444.471	5.97099
444.682	-2.45859
444.894	-23.53085
445.105	-25.63794
445.316	14.40096
445.528	1.75615
445.739	12.29343
445.95	27.04663
446.161	18.61609
446.373	-2.45859
446.584	39.69314
446.795	46.01671
447.006	-10.88778
447.217	54.44846
447.429	-59.34802
447.64	-23.53085
447.851	-2.45859
448.062	-29.85205
448.273	81.85419
448.484	-57.24133
448.695	-8.78052
448.907	-19.31659
449.118	1.75615
449.329	43.90883
449.54	31.26204
449.751	16.50851
449.962	29.15432
450.173	77.63768
450.384	-8.78052
450.595	5.97099
450.806	121.91552
451.017	-57.24133
451.228	-8.78052
451.439	8.07845
451.65	-69.8811
451.861	8.07845
452.072	22.83131
452.283	14.40096
452.494	-71.98763
452.705	41.80097
452.915	69.20492
453.126	43.90883
453.337	10.18593
453.548	56.55646
453.759	-6.67324
453.97	20.72369
454.181	79.74592
454.391	5.97099
454.602	48.12461
454.813	54.44846
455.024	1.75615
455.235	79.74592
455.445	-23.53085
455.656	48.12461
455.867	29.15432
456.078	60.77252
456.288	-15.10224
456.499	27.04663
456.71	10.18593
456.921	-40.38689
457.131	43.90883
457.342	67.09678
457.553	29.15432
457.763	3.86356
457.974	-25.63794
458.184	50.23254
458.395	-55.13461
458.606	-36.17303
458.816	20.72369
459.027	24.93896
459.237	-36.17303
459.448	56.55646
459.659	-10.88778
459.869	-4.56592
460.08	79.74592
460.29	1.75615
460.501	3.86356
460.711	1.75615
460.922	-23.53085
461.132	-23.53085
461.343	41.80097
461.553	-50.9211
461.764	10.18593
461.974	18.61609
462.184	69.20492
462.395	-15.10224
462.605	10.18593
462.816	18.61609
463.026	-15.10224
463.236	29.15432
463.447	-19.31659
463.657	3.86356
463.867	14.40096
464.078	52.34049
464.288	27.04663
464.498	48.12461
464.709	-27.74501
464.919	1.75615
465.129	-38.27997
465.339	-12.99502
465.55	-4.56592
465.76	18.61609
465.97	37.58533
466.18	1.75615
466.391	67.09678
466.601	10.18593
466.811	-23.53085
467.021	50.23254
467.231	39.69314
467.441	29.15432
467.651	-15.10224
467.862	35.47754
468.072	-55.13461
468.282	-17.20943
468.492	56.55646
468.702	18.61609
468.912	-29.85205
469.122	46.01671
469.332	8.07845
469.542	71.31307
469.752	-27.74501
469.962	60.77252
470.172	27.04663
470.382	1.75615
470.592	35.47754
470.802	-4.56592
471.012	-19.31659
471.222	10.18593
471.432	-21.42373
471.642	-61.45468
471.852	33.36978
472.062	-12.99502
472.272	18.61609
472.482	69.20492
472.691	-6.67324
472.901	-10.88778
473.111	5.97099
473.321	-36.17303
473.531	-15.10224
473.741	16.50851
473.95	-6.67324
474.16	46.01671
474.37	-31.95906
474.58	-15.10224
474.79	3.86356
474.999	-61.45468
475.209	-42.49378
475.419	10.18593
475.628	41.80097
475.838	-40.38689
476.048	3.86356
476.258	56.55646
476.467	27.04663
476.677	-0.35123
476.886	43.90883
477.096	5.97099
477.306	-0.35123
477.515	20.72369
477.725	-4.56592
477.935	39.69314
478.144	37.58533
478.354	10.18593
478.563	-8.78052
478.773	43.90883
478.982	1.75615
479.192	-12.99502
479.401	107.15516
479.611	37.58533
479.82	-31.95906
480.03	56.55646
480.239	43.90883
480.449	29.15432
480.658	18.61609
480.868	18.61609
481.077	46.01671
481.287	60.77252
481.496	10.18593
481.705	-21.42373
481.915	22.83131
482.124	54.44846
482.333	12.29343
482.543	20.72369
482.752	50.23254
482.961	62.88058
483.171	-4.56592
483.38	29.15432
483.589	48.12461
483.799	18.61609
484.008	1.75615
484.217	37.58533
484.426	73.42125
484.636	-15.10224
484.845	-10.88778
485.054	33.36978
485.263	48.12461
485.472	62.88058
485.682	14.40096
485.891	-12.99502
486.1	86.0708
486.309	31.26204
486.518	-74.09415
486.727	43.90883
486.936	-25.63794
487.146	35.47754
487.355	39.69314
487.564	16.50851
487.773	96.6127
487.982	5.97099
488.191	39.69314
488.4	-17.20943
488.609	27.04663
488.818	-21.42373
489.027	79.74592
489.236	115.58952
489.445	69.20492
489.654	54.44846
489.863	1.75615
490.072	48.12461
490.281	73.42125
490.49	-69.8811
490.698	24.93896
490.907	33.36978
491.116	1.75615
491.325	27.04663
491.534	69.20492
491.743	-23.53085
491.952	43.90883
492.16	10.18593
492.369	39.69314
492.578	64.98867
492.787	14.40096
492.996	8.07845
493.204	31.26204
493.413	62.88058
493.622	67.09678
493.831	54.44846
494.039	67.09678
494.248	16.50851
494.457	-23.53085
494.665	128.24171
494.874	31.26204
495.083	-21.42373
495.291	27.04663
495.5	-40.38689
495.709	20.72369
495.917	60.77252
496.126	48.12461
496.335	79.74592
496.543	-40.38689
496.752	52.34049
496.96	-6.67324
497.169	46.01671
497.377	18.61609
497.586	43.90883
497.794	64.98867
498.003	5.97099
498.211	-8.78052
498.42	64.98867
498.628	-0.35123
498.837	27.04663
499.045	1.75615
499.254	-6.67324
499.462	27.04663
499.671	12.29343
499.879	69.20492
500.087	143.00359
500.296	71.31307
500.504	39.69314
500.713	31.26204
500.921	77.63768
501.129	88.17913
501.338	22.83131
501.546	1.75615
501.754	88.17913
501.962	29.15432
502.171	29.15432
502.379	35.47754
502.587	37.58533
502.795	1.75615
503.004	115.58952
503.212	67.09678
503.42	27.04663
503.628	29.15432
503.837	69.20492
504.045	39.69314
504.253	52.34049
504.461	62.88058
504.669	69.20492
504.877	37.58533
505.085	52.34049
505.294	83.96248
505.502	37.58533
505.71	1.75615
505.918	60.77252
506.126	102.93811
506.334	3.86356
506.542	35.47754
506.75	64.98867
506.958	77.63768
507.166	88.17913
507.374	71.31307
507.582	64.98867
507.79	22.83131
507.998	43.90883
508.206	86.0708
508.414	37.58533
508.622	24.93896
508.83	-23.53085
509.037	79.74592
509.245	98.72115
509.453	79.74592
509.661	60.77252
509.869	18.61609
510.077	121.91552
510.285	71.31307
510.492	-19.31659
510.7	35.47754
510.908	35.47754
511.116	69.20492
511.324	111.37229
511.531	113.4809
511.739	128.24171
511.947	124.02423
512.155	22.83131
512.362	39.69314
512.57	50.23254
512.778	88.17913
512.985	88.17913
513.193	94.50427
513.401	31.26204
513.608	43.90883
513.816	60.77252
514.024	128.24171
514.231	130.35049
514.439	77.63768
514.646	113.4809
514.854	145.11251
515.061	56.55646
515.269	128.24171
515.477	69.20492
515.684	111.37229
515.892	96.6127
516.099	86.0708
516.307	39.69314
516.514	138.7858
516.722	71.31307
516.929	121.91552
517.136	43.90883
517.344	86.0708
517.551	107.15516
517.759	48.12461
517.966	37.58533
518.173	46.01671
518.381	43.90883
518.588	79.74592
518.796	43.90883
519.003	119.80683
519.21	102.93811
519.418	18.61609
519.625	161.98467
519.832	90.28749
520.039	107.15516
520.247	88.17913
520.454	107.15516
520.661	119.80683
520.868	119.80683
521.076	128.24171
521.283	124.02423
521.49	98.72115
521.697	138.7858
521.904	98.72115
522.112	126.13296
522.319	119.80683
522.526	39.69314
522.733	157.7665
522.94	94.50427
523.147	191.51415
523.354	136.67694
523.561	115.58952
523.768	212.60907
523.975	96.6127
524.183	64.98867
524.39	136.67694
524.597	136.67694
524.804	113.4809
525.011	136.67694
525.218	124.02423
525.425	136.67694
525.632	183.07674
525.838	183.07674
526.045	113.4809
526.252	54.44846
526.459	119.80683
526.666	86.0708
526.873	119.80683
527.08	143.00359
527.287	216.8283
527.494	197.84241
527.701	111.37229
527.907	98.72115
528.114	119.80683
528.321	145.11251
528.528	149.33043
528.735	164.09378
528.941	81.85419
529.148	98.72115
529.355	170.42125
529.562	111.37229
529.768	145.11251
529.975	187.2954
530.182	183.07674
530.388	132.45929
530.595	246.36508
530.802	113.4809
531.008	178.85816
531.215	216.8283
531.422	210.49949
531.628	178.85816
531.835	100.82962
532.042	153.54842
532.248	195.73297
532.455	136.67694
532.661	145.11251
532.868	195.73297
533.074	155.65745
533.281	212.60907
533.487	237.92561
533.694	195.73297
533.9	225.26699
534.107	174.63967
534.313	170.42125
534.52	193.62355
534.726	208.38993
534.933	206.28038
535.139	155.65745
535.345	261.13489
535.552	187.2954
535.758	180.96744
535.965	212.60907
536.171	204.17086
536.377	246.36508
536.584	191.51415
536.79	189.40476
536.996	153.54842
537.203	263.24494
537.409	208.38993
537.615	248.47499
537.821	170.42125
538.028	197.84241
538.234	210.49949
538.44	225.26699
538.646	254.80485
538.853	237.92561
539.059	208.38993
539.265	254.80485
539.471	195.73297
539.677	280.12601
539.883	297.00827
540.09	216.8283
540.296	313.8917
540.502	282.23623
540.708	145.11251
540.914	254.80485
541.12	214.71868
541.326	237.92561
541.532	250.58493
541.738	301.22902
541.944	216.8283
542.15	195.73297
542.356	208.38993
542.562	375.10364
542.768	311.78121
542.974	305.44984
543.18	299.11864
543.386	307.56028
543.592	313.8917
543.798	345.55122
544.004	282.23623
544.21	307.56028
544.415	282.23623
544.621	339.219
544.827	284.34646
545.033	425.77255
545.239	324.44443
545.445	391.99222
545.651	391.99222
545.856	455.33367
546.062	360.32701
546.268	394.10337
546.474	370.88166
546.679	379.32569
546.885	347.662
547.091	377.21465
547.297	309.67074
547.502	419.43842
547.708	343.44047
547.914	288.56699
548.119	290.67728
548.325	440.55273
548.531	324.44443
548.736	391.99222
548.942	358.21613
549.147	377.21465
549.353	347.662
549.559	381.43673
549.764	408.88187
549.97	482.78599
550.175	459.55694
550.381	482.78599
550.586	394.10337
550.792	480.67419
550.997	398.32572
551.203	468.00366
551.408	442.66424
551.614	432.10681
551.819	501.79293
552.025	482.78599
552.23	356.10527
552.435	436.32974
552.641	389.88109
552.846	440.55273
553.052	398.32572
553.257	501.79293
553.462	548.25922
553.668	626.42187
553.873	516.57691
554.078	622.19641
554.283	434.21827
554.489	560.93302
554.694	497.56906
554.899	529.24946
555.105	518.68897
555.31	639.09854
555.515	510.24083
555.72	577.83217
555.925	499.68099
556.131	586.28206
556.336	448.99889
556.541	476.45062
556.746	563.04536
556.951	603.18247
557.156	552.48376
557.361	651.77565
557.567	584.16957
557.772	594.73216
557.977	446.88733
558.182	603.18247
558.387	592.61962
558.592	594.73216
558.797	541.92251
559.002	607.4077
559.207	622.19641
559.412	590.50708
559.617	723.62049
559.822	571.49488
560.027	687.69643
560.232	694.03574
560.437	611.63298
560.642	651.77565
560.847	634.87293
561.051	603.18247
561.256	622.19641
561.461	624.30913
561.666	740.52702
561.871	643.32419
562.076	660.22729
562.281	789.13696
562.485	596.84472
562.69	636.98573
562.895	480.67419
563.1	656.00144
563.305	582.05709
563.509	746.86714
563.714	656.00144
563.919	808.15966
564.123	744.75376
564.328	768.00155
564.533	706.71465
564.737	803.93232
564.942	668.67912
565.147	839.86582
565.351	865.2322
565.556	799.70503
565.761	787.02337
565.965	896.94188
566.17	677.13115
566.374	744.75376
566.579	774.34207
566.784	846.2073
566.988	768.00155
567.193	899.05592
567.397	787.02337
567.602	850.435
567.806	880.02982
568.011	896.94188
568.215	918.08266
568.42	924.42505
568.624	803.93232
568.828	973.05219
569.033	820.84188
569.237	977.28082
569.442	846.2073
569.646	793.36416
569.85	770.11505
570.055	882.1438
570.259	939.22421
570.463	884.25779
570.668	909.62625
570.872	896.94188
571.076	924.42505
571.281	1053.40037
571.485	930.7675
571.689	939.22421
571.893	922.31091
572.098	1112.60953
572.302	820.84188
572.506	1000.53871
572.71	956.13798
572.914	1078.77523
573.119	981.50947
573.323	886.37178
573.527	992.08121
573.731	1066.0877
573.935	1118.9536
574.139	1028.02631
574.343	998.42433
574.547	1127.41242
574.751	973.05219
574.955	1241.61274
575.159	1015.3396
575.364	1085.11906
575.568	1118.9536
575.772	1180.28161
575.976	1085.11906
576.18	1154.90408
576.383	1051.28583
576.587	1152.78931
576.791	1023.79738
576.995	1262.762
577.199	1093.57758
577.403	1264.87694
577.607	1114.72421
577.811	1182.39643
578.015	1095.69222
578.219	1171.82237
578.422	1116.8389
578.626	1243.72766
578.83	1044.94226
579.034	1260.64707
579.238	1184.51125
579.442	1313.52121
579.645	1207.77453
579.849	1381.20175
580.053	1137.98605
580.257	1277.56664
580.46	1216.23401
580.664	1379.08671
580.868	1222.57865
581.071	1372.74161
581.275	1169.70757
581.479	1370.62658
581.682	1218.34889
581.886	1277.56664
582.09	1393.89199
582.293	1412.92739
582.497	1294.48636
582.7	1480.60903
582.904	1336.78623
583.107	1393.89199
583.311	1389.6619
583.515	1546.17526
583.718	1366.39652
583.922	1501.7595
584.125	1412.92739
584.329	1560.98041
584.532	1497.52941
584.735	1626.54513
584.939	1290.25642
585.142	1575.78549
585.346	1353.70636
585.549	1455.22841
585.753	1531.37006
585.956	1645.57968
586.159	1569.44047
586.363	1679.4184
586.566	1537.71515
586.769	1637.11991
586.973	1615.9703
587.176	1742.86394
587.379	1556.75038
587.582	1764.01177
587.786	1649.80956
587.989	1736.51952
588.192	1480.60903
588.395	1791.50337
588.599	1493.29932
588.802	1725.94542
589.005	1717.48608
589.208	1810.53561
589.411	1533.48509
589.615	1833.79675
589.818	1577.9005
590.021	1681.53329
590.224	1651.92449
590.427	1692.10773
590.63	1584.2455
590.833	1569.44047
591.036	1734.40471
591.239	1854.94276
591.442	1601.16545
591.645	1844.36982
591.848	1787.27394
592.051	1888.77534
592.254	1700.56723
592.457	1749.20833
592.66	1692.10773
592.863	1983.92196
593.066	1768.24129
593.269	2041.00394
593.472	1732.28989
593.675	1918.37775
593.878	1912.03447
594.081	2100.19475
594.284	1931.06417
594.486	2034.66174
594.689	2021.97715
594.892	2038.88988
595.095	1857.05733
595.298	2188.96978
595.5	2098.0809
595.703	2186.85625
595.906	1937.4073
596.109	2083.28367
596.311	1945.86473
596.514	2098.0809
596.717	2019.86303
596.92	2186.85625
597.122	2134.01546
597.325	2176.2885
597.528	1897.23328
597.73	2267.16412
597.933	2210.10456
598.136	2169.94776
598.338	2161.49331
598.541	2216.44483
598.743	2205.87767
598.946	2203.76422
599.148	2309.42617
599.351	2298.86101
599.554	2013.52063
599.756	2184.74272
599.959	2104.42245
600.161	2362.24833
600.363	2053.68816
600.566	2300.97406
600.768	2235.46516
600.971	2406.6141
601.173	2212.21799
601.376	2431.96391
601.578	2254.48478
601.78	2478.43453
601.983	2396.05123
602.185	2421.40167
602.388	2267.16412
602.59	2472.09794
602.792	2290.40871
602.995	2419.28919
603.197	2453.08757
603.399	2351.68439
603.601	2121.33293
603.804	2469.98572
604.006	2360.13556
604.208	2546.01853
604.41	2262.93771
604.613	2393.93863
604.815	2393.93863
605.017	2527.01171
605.219	2465.76125
605.421	2474.21015
605.623	2412.95169
605.826	2588.25249
606.028	2393.93863
606.23	2617.8134
606.432	2429.85148
606.634	2727.58963
606.836	2377.03742
607.038	2516.45197
607.24	2624.14757
607.442	2550.24214
607.644	2448.86293
607.846	2662.15024
608.048	2457.31218
608.25	2858.42995
608.452	2586.1409
608.654	2780.35413
608.856	2535.4593
609.058	2778.24371
609.26	2531.23553
609.462	2681.15005
609.664	2740.25387
609.866	2592.47562
610.067	2729.70037
610.269	2729.70037
610.471	2598.81023
610.673	2634.70427
610.875	2495.33162
611.077	2757.13878
611.278	2558.68921
611.48	2790.90602
611.682	2666.37251
611.884	2826.77988
612.085	2645.26067
612.287	2714.92491
612.489	2757.13878
612.69	2885.85743
612.892	2778.24371
613.094	3027.17524
613.295	2636.81558
613.497	2731.81109
613.699	2626.25894
613.9	3029.28395
614.102	2860.53984
614.304	2961.79769
614.505	2807.78833
614.707	2951.25157
614.908	2704.37062
615.11	2978.67071
615.311	2731.81109
615.513	2799.34729
615.714	2833.11015
615.916	2932.26763
616.117	2645.26067
616.319	3001.86953
616.52	2721.25733
616.722	3012.41384
616.923	2778.24371
617.124	2909.06341
617.326	2849.99024
617.527	2976.56163
617.729	2944.92372
617.93	3018.74025
618.131	2708.59238
618.333	2993.4338
618.534	2856.32004
618.735	3132.59162
618.937	2812.00877
619.138	3060.91274
619.339	2816.22916
619.54	3178.96222
619.742	2849.99024
619.943	3157.88565
620.144	2921.72047
620.345	3086.21326
620.546	3031.39264
620.748	3073.56328
620.949	2826.77988
621.15	3130.48368
621.351	3003.97842
621.552	3033.50132
621.753	2928.04881
621.954	3141.02322
622.155	2906.95385
622.356	3164.20879
622.558	3027.17524
622.759	3111.5115
622.96	3035.60999
623.161	3128.37573
623.362	3027.17524
623.563	3202.14455
623.764	3193.71484
623.965	3246.39619
624.166	3022.95777
624.366	3263.25202
624.567	3086.21326
624.768	3301.17367
624.969	2978.67071
625.17	3221.11044
625.371	3022.95777
625.572	3351.72725
625.773	2871.08909
625.973	3204.25194
626.174	3187.39239
626.375	3233.75361
626.576	3187.39239
626.777	3360.15188
626.977	3035.60999
627.178	3282.21353
627.379	3126.26775
627.58	3292.74711
627.78	3515.95637
627.981	3153.67014
628.182	3410.69376
628.382	3551.73531
628.583	3248.50323
628.784	3339.08979
628.984	3309.59996
629.185	3374.8943
629.386	3195.8223
629.586	3522.27068
629.787	3296.96043
629.987	3608.5497
630.188	3242.18207
630.388	3633.79616
630.589	3301.17367
630.79	3372.7883
630.99	3252.71725
631.191	3625.38097
631.391	3379.10627
631.591	3574.88355
631.792	3275.89318
631.992	3457.01485
632.193	3541.21264
632.393	3541.21264
632.594	3261.1451
632.794	3385.42408
632.994	3501.22232
633.195	3522.27068
633.395	3311.70649
633.595	3659.0399
633.796	3280.10677
633.996	3738.96028
634.196	3558.04869
634.397	3598.02954
634.597	3499.11739
634.797	3709.51915
634.997	3562.25752
635.198	3591.71722
635.398	3654.8328
635.598	3667.45387
635.798	3486.48738
635.998	3663.24692
636.199	3608.5497
636.399	3530.68952
636.599	3336.98348
636.799	3640.10735
636.999	3475.96188
637.199	3793.62655
637.399	3614.86157
637.599	3574.88355
637.799	3553.83979
637.999	3820.95472
638.199	3452.8042
638.399	3701.10671
638.599	3667.45387
638.799	3814.64852
638.999	3745.2686
639.199	3932.33483
639.399	3709.51915
639.599	3738.96028
639.799	3537.00345
639.999	3776.80756
640.199	3667.45387
640.399	3854.58481
640.599	3482.27724
640.799	3844.07595
640.998	3854.58481
641.198	3898.71657
641.398	3781.01243
641.598	3890.3112
641.798	3854.58481
641.997	3905.02039
642.197	3722.13724
642.397	3837.7704
642.597	3669.55732
642.796	3785.21721
642.996	3844.07595
643.196	3896.61526
643.395	3913.4252
643.595	3984.853
643.795	3812.54641
643.994	4136.03357
644.194	3947.0412
644.394	4022.65818
644.593	3835.66851
644.793	3905.02039
644.992	3751.57674
645.192	3917.62748
645.392	3841.97412
645.591	4094.04975
645.791	3835.66851
645.99	3982.75251
646.19	3829.36272
646.389	4087.75146
646.589	3921.82968
646.788	4117.14189
646.987	3991.15432
647.187	4230.4664
647.386	3944.94035
647.586	4138.13254
647.785	4056.25719
647.984	4148.62709
648.184	3980.65201
648.383	4247.24997
648.582	4041.55827
648.782	4112.94351
648.981	4138.13254
649.18	4280.81299
649.38	4131.83557
649.579	4112.94351
649.778	4196.89519
649.977	4465.31079
650.177	4207.38678
650.376	4354.21293
650.575	3965.94792
650.774	4419.20214
650.973	4119.24105
651.173	4226.2703
651.372	3997.45546
651.571	4326.95318
651.77	4041.55827
651.969	4249.34782
652.168	4280.81299
652.367	4322.75905
652.566	4133.93458
652.765	4339.53506
652.964	4276.61791
653.163	4549.11739
653.362	4352.11616
653.561	4389.85477
653.76	4127.63748
653.959	4385.66193
654.158	4247.24997
654.357	4498.83767
654.556	4213.68148
654.755	4463.21517
654.954	4280.81299
655.153	4611.94906
655.352	4475.78854
655.551	4718.71669
655.749	4410.81761
655.948	4473.69304
656.147	4400.33646
656.346	4601.47851
656.545	4551.2121
656.743	4641.26364
656.942	4205.28851
657.141	4521.88413
657.34	4440.16193
657.538	4643.35737
657.737	4373.08292
657.936	4484.17035
658.135	4377.27601
658.333	4515.59899
658.532	4448.54524
658.731	4498.83767
658.929	4354.21293
659.128	4517.69406
659.326	4375.17948
659.525	4526.0741
659.724	4320.66195
659.922	4488.36112
660.121	4423.39428
660.319	4440.16193
660.518	4391.95115
660.716	4580.53573
660.915	4544.9279
661.113	4766.84761
661.312	4421.29822
661.51	4616.13713
661.709	4347.92254
661.907	4745.92259
662.105	4599.38433
662.304	4651.73206
662.502	4582.63011
662.701	4984.33271
662.899	4517.69406
663.097	4794.04675
663.296	4664.29343
663.494	4844.25044
663.692	4517.69406
663.891	4842.15889
664.089	4641.26364
664.287	4758.47788
664.485	4643.35737
664.684	4846.34198
664.882	4599.38433
665.08	4716.62377
665.278	4582.63011
665.476	4913.25905
665.675	4676.854
665.873	4804.50693
666.071	4565.87446
666.269	4712.43786
666.467	4324.85613
666.665	4649.63842
666.863	4685.22725
667.061	4758.47788
667.259	4477.88403
667.457	4844.25044
667.655	4683.13397
667.853	4758.47788
668.051	4693.60015
668.249	4670.57382
668.447	4509.31366
668.645	4607.76091
668.843	4582.63011
669.041	4867.25608
669.239	4465.31079
669.437	4896.53198
669.635	4538.6435
669.833	4779.40154
670.031	4477.88403
670.229	4750.10778
670.426	4760.57035
670.624	4584.72447
670.822	4574.25247
671.02	4810.78277
671.218	4750.10778
671.415	4944.61836
671.613	4743.82997
671.811	4927.89404
672.009	4737.55195
672.206	4936.25638
672.404	4783.586
672.602	4900.71389
672.799	4791.95465
672.997	4825.4256
673.195	4574.25247
673.392	4791.95465
673.59	4867.25608
673.788	4846.34198
673.985	4490.45648
674.183	5067.91467
674.38	4777.30927
674.578	5019.85956
674.775	4689.41375
674.973	4915.34984
675.17	4739.64465
675.368	5111.78037
675.565	4938.34691
675.763	4909.07742
675.96	4697.78647
676.158	5021.94917
676.355	4796.13883
676.553	4996.87236
676.75	4662.19993
676.947	4867.25608
677.145	4754.29287
677.342	4867.25608
677.539	4553.30679
677.737	5084.62662
677.934	4837.9757
678.131	4971.79223
678.329	4668.48038
678.526	4875.62108
678.723	4921.62204
678.92	5134.75356
679.118	4827.51734
679.315	4921.62204
679.512	4948.79921
679.709	4927.89404
679.906	4701.97269
680.104	5049.11195
680.301	4685.22725
680.498	5088.80438
680.695	4952.97996
680.892	5072.0928
681.089	4817.0584
681.286	5157.72394
681.483	4806.5989
681.68	5099.24836
681.877	4934.16583
682.075	5065.82557
682.272	4791.95465
682.469	4938.34691
682.665	4678.94734
682.862	4902.80481
683.059	4919.53133
683.256	4848.43349
683.453	4641.26364
683.65	4720.80958
683.847	4787.77037
684.044	5051.20124
684.241	4848.43349
684.438	4842.15889
684.635	4695.69332
684.831	5189.04264
685.028	4785.67819
685.225	4806.5989
685.422	4517.69406
685.619	4819.15024
685.815	4739.64465
686.012	5115.95753
686.209	4674.76063
686.405	4961.3412
686.602	4708.25186
686.799	4691.50696
686.996	4775.21699
687.192	5122.22308
687.389	4785.67819
687.586	4892.34999
687.782	4567.969
687.979	4980.15265
688.175	4787.77037
688.372	4856.79932
688.568	4498.83767
688.765	4967.61189
688.962	4800.32293
689.158	4865.16477
689.355	4952.97996
689.551	5021.94917
689.748	4591.0074
689.944	4798.23089
690.14	4643.35737
690.337	5001.05206
690.533	4724.99531
690.73	4927.89404
690.926	4595.19591
691.123	4883.98572
691.319	4582.63011
691.515	4990.60264
691.712	4643.35737
691.908	4909.07742
692.104	4653.82568
692.301	4896.53198
692.497	4927.89404
692.693	4858.89071
692.889	4798.23089
693.086	4871.43863
693.282	4802.41494
693.478	5107.60313
693.674	4712.43786
693.87	4752.20034
694.067	4670.57382
694.263	4927.89404
694.459	4796.13883
694.655	5065.82557
694.851	4921.62204
695.047	5078.35981
695.243	4852.61645
695.439	5047.02265
695.635	4883.98572
695.831	5047.02265
696.027	4737.55195
696.224	4860.98209
696.42	4710.34487
696.615	4961.3412
696.811	4837.9757
697.007	4967.61189
697.203	4658.01285
697.399	4858.89071
697.595	4942.5279
697.791	4766.84761
697.987	4787.77037
698.183	4934.16583
698.379	4741.73732
698.575	5147.28321
698.77	4925.80339
698.966	5097.15961
699.162	4791.95465
699.358	4875.62108
699.554	4699.87959
699.749	4810.78277
699.945	4683.13397
700.141	5095.07084
700.337	4888.1679
700.532	5051.20124
700.728	4752.20034
700.924	4829.60906
701.119	4655.91928
701.315	4965.52168
701.511	4653.82568
701.706	4917.44059
701.902	4674.76063
702.097	4948.79921
702.293	4783.586
702.489	5090.89322
702.684	4854.70789
702.88	5034.48632
703.075	4777.30927
703.271	4814.96655
703.466	4898.62295
703.662	4879.80345
703.857	4896.53198
704.053	4875.62108
704.248	4704.06577
704.443	4992.69257
704.639	4967.61189
704.834	5243.31597
705.03	5013.5906
705.225	5141.01849
705.42	4842.15889
705.616	4823.33383
705.811	4814.96655
706.006	5099.24836
706.202	4791.95465
706.397	4837.9757
706.592	4624.51299
706.787	4950.8896
706.983	4708.25186
707.178	5026.12831
707.373	4819.15024
707.568	5017.76993
707.763	4758.47788
707.959	5044.93332
708.154	4785.67819
708.349	4649.63842
708.544	4735.45924
708.739	4896.53198
708.934	4783.586
709.129	4963.43146
709.324	4854.70789
709.519	5084.62662
709.714	4760.57035
709.909	5084.62662
710.104	4783.586
710.299	4825.4256
710.494	4789.86252
710.689	5086.71551
710.884	4823.33383
711.079	5034.48632
711.274	4833.79242
711.469	4940.43741
711.664	4883.98572
711.859	4860.98209
712.054	4693.60015
712.249	4921.62204
712.443	4817.0584
712.638	4963.43146
712.833	4720.80958
713.028	4706.15883
713.223	4607.76091
713.417	4735.45924
713.612	4607.76091
713.807	4929.98466
714.002	4909.07742
714.196	5032.39686
714.391	4626.6069
714.586	4771.03235
714.78	4670.57382
714.975	5024.03875
715.17	4691.50696
715.364	4984.33271
715.559	4674.76063
715.754	4701.97269
715.948	4570.06351
716.143	4760.57035
716.337	4685.22725
716.532	4752.20034
716.726	4727.08814
716.921	5086.71551
717.115	4750.10778
717.31	4892.34999
717.504	4658.01285
717.699	4783.586
717.893	4748.0152
718.088	4984.33271
718.282	4724.99531
718.476	4794.04675
718.671	4658.01285
718.865	4848.43349
719.059	4632.88849
719.254	4883.98572
719.448	4557.49611
719.642	5047.02265
719.837	4674.76063
720.031	4704.06577
720.225	4699.87959
720.419	4927.89404
720.614	4609.855
720.808	4735.45924
721.002	4574.25247
721.196	4766.84761
721.39	4517.69406
721.585	4777.30927
721.779	4601.47851
721.973	4812.87467
722.167	4538.6435
722.361	4835.88407
722.555	4641.26364
722.749	4582.63011
722.943	4567.969
723.137	4532.3589
723.331	4425.49031
723.525	4768.93999
723.719	4555.40146
723.913	4704.06577
724.107	4391.95115
724.301	4697.78647
724.495	4559.59073
724.689	4733.3665
724.883	4492.55181
725.077	4687.32051
725.271	4641.26364
725.465	4850.52498
725.659	4597.29013
725.853	4917.44059
726.046	4588.91311
726.24	4697.78647
726.434	4461.11953
726.628	4781.49378
726.822	4574.25247
727.015	4791.95465
727.209	4255.64124
727.403	4687.32051
727.596	4605.6668
727.79	4787.77037
727.984	4823.33383
728.177	4783.586
728.371	4557.49611
728.565	4791.95465
728.758	4735.45924
728.952	4938.34691
729.146	4620.3251
729.339	4823.33383
729.533	4869.34737
729.726	4817.0584
729.92	4618.23113
730.113	4750.10778
730.307	4733.3665
730.5	4735.45924
730.694	4643.35737
730.887	4710.34487
731.081	4534.45379
731.274	4766.84761
731.468	4561.68533
731.661	4695.69332
731.854	4431.77828
732.048	4651.73206
732.241	4806.5989
732.435	4867.25608
732.628	4775.21699
732.821	4946.70879
733.014	4624.51299
733.208	4678.94734
733.401	4479.97949
733.594	4601.47851
733.788	4616.13713
733.981	4718.71669
734.174	4731.27373
734.367	4867.25608
734.56	4681.04067
734.754	4526.0741
734.947	4827.51734
735.14	4850.52498
735.333	4567.969
735.526	4829.60906
735.719	4620.3251
735.912	4664.29343
736.105	4693.60015
736.298	4699.87959
736.491	4584.72447
736.684	4785.67819
736.877	4588.91311
737.07	4678.94734
737.263	4580.53573
737.456	4775.21699
737.649	4597.29013
737.842	4637.07611
738.035	4415.00992
738.228	4710.34487
738.421	4626.6069
738.614	4909.07742
738.807	4586.8188
739	4626.6069
739.192	4741.73732
739.385	4791.95465
739.578	4607.76091
739.771	4716.62377
739.964	4536.54866
740.156	4624.51299
740.349	4616.13713
740.542	4697.78647
740.735	4609.855
740.927	4783.586
741.12	4603.57267
741.313	4578.44133
741.505	4693.60015
741.698	4614.04311
741.891	4699.87959
742.083	4789.86252
742.276	4547.02266
742.468	4668.48038
742.661	4599.38433
742.854	4752.20034
743.046	4513.50391
743.239	4727.08814
743.431	4716.62377
743.624	4632.88849
743.816	4637.07611
744.009	4681.04067
744.201	4471.59751
744.393	4689.41375
744.586	4699.87959
744.778	4863.07344
744.971	4534.45379
745.163	4817.0584
745.355	4536.54866
745.548	4582.63011
745.74	4567.969
745.932	4358.40641
746.125	4526.0741
746.317	4946.70879
746.509	4658.01285
746.702	4879.80345
746.894	4729.18095
747.086	4829.60906
747.278	4611.94906
747.471	4676.854
747.663	4607.76091
747.855	4714.53082
748.047	4609.855
748.239	4668.48038
748.431	4660.1064
748.623	4787.77037
748.815	4415.00992
749.008	4716.62377
749.2	4817.0584
749.392	4582.63011
749.584	4607.76091
749.776	4544.9279
749.968	4557.49611
750.16	4664.29343
750.352	4398.24017
750.544	4544.9279
750.736	4591.0074
750.928	4475.78854
751.12	4528.16906
751.311	4588.91311
751.503	4649.63842
751.695	4523.97912
751.887	4528.16906
752.079	4532.3589
752.271	4660.1064
752.463	4783.586
752.654	4412.91378
752.846	4683.13397
753.038	4452.73676
753.23	4712.43786
753.421	4681.04067
753.613	4626.6069
753.805	4605.6668
753.997	4559.59073
754.188	4653.82568
754.38	4553.30679
754.572	4549.11739
754.763	4456.92819
754.955	4425.49031
755.146	4561.68533
755.338	4322.75905
755.53	4285.00798
755.721	4465.31079
755.913	4452.73676
756.104	4373.08292
756.296	4339.53506
756.487	4331.14723
756.679	4599.38433
756.87	4264.03216
757.062	4274.52034
757.253	4343.72884
757.445	4324.85613
757.636	4375.17948
757.827	4475.78854
758.019	4375.17948
758.21	4498.83767
758.401	4339.53506
758.593	4297.59245
758.784	4238.85836
758.975	4268.2275
759.167	4154.92356
759.358	4415.00992
759.549	4182.20608
759.74	4259.83674
759.932	4138.13254
760.123	4305.98166
760.314	4112.94351
760.505	4171.71323
760.696	4347.92254
760.888	4270.32514
761.079	4347.92254
761.27	4333.24422
761.461	4043.65818
761.652	4272.42275
761.843	4203.19021
762.034	4402.43274
762.225	4087.75146
762.416	4425.49031
762.607	4142.33042
762.798	4316.46769
762.989	4448.54524
763.18	4305.98166
763.371	4264.03216
763.562	4324.85613
763.753	4211.58327
763.944	4433.87423
764.135	4165.41726
764.326	4461.11953
764.517	4255.64124
764.708	4331.14723
764.899	3932.33483
765.089	4087.75146
765.28	4083.5525
765.471	3991.15432
765.662	3871.39795
765.853	3989.0539
766.043	3810.44428
766.234	4138.13254
766.425	3869.29638
766.615	4222.07411
766.806	4045.75807
766.997	4045.75807
767.187	3854.58481
767.378	4096.14914
767.569	3986.95346
767.759	4175.91043
767.95	4045.75807
768.141	4110.84429
768.331	3982.75251
768.522	3900.81786
768.712	3972.2498
768.903	4104.54649
769.093	3820.95472
769.284	3934.4358
769.474	3846.17776
769.665	3755.78207
769.855	3890.3112
770.046	3915.52635
770.236	3722.13724
770.426	3787.31958
770.617	4045.75807
770.807	3865.09317
770.998	3724.24019
771.188	4075.15432
771.378	3635.89991
771.569	3856.68652
771.759	3759.98733
771.949	3703.20985
772.139	3846.17776
772.33	3806.23997
772.52	3806.23997
772.71	3953.34362
772.9	3738.96028
773.09	3972.2498
773.281	3778.91001
773.471	3711.62222
773.661	3587.50891
773.851	3682.17759
774.041	3467.54116
774.231	3862.99154
774.421	3686.3842
774.611	3595.92545
774.802	3671.66074
774.992	3610.65367
775.182	3595.92545
775.372	3745.2686
775.562	3541.21264
775.752	3652.72922
775.942	3492.80247
776.131	3560.15311
776.321	3595.92545
776.511	3745.2686
776.701	3570.67495
776.891	3762.08992
777.081	3827.26075
777.271	3787.31958
777.461	3709.51915
777.651	3736.85747
777.84	3644.31471
778.03	3457.01485
778.22	3339.08979
778.41	3452.8042
778.599	3532.79418
778.789	3772.60262
778.979	3452.8042
779.169	3446.48809
779.358	3254.82424
779.548	3469.64637
779.738	3576.98782
779.927	3560.15311
780.117	3600.13361
780.307	3461.22543
780.496	3313.813
780.686	3608.5497
780.875	3368.57623
781.065	3593.82135
781.254	3265.35892
781.444	3526.48014
781.633	3587.50891
781.823	3684.2809
782.012	3452.8042
782.202	3579.09208
782.391	3221.11044
782.581	3320.13243
782.77	3301.17367
782.96	3549.63081
783.149	3343.30235
783.338	3509.64189
783.528	3372.7883
783.717	3459.12015
783.906	3414.90512
784.096	3233.75361
784.285	3136.80745
784.474	3408.58805
784.663	3189.49989
784.853	3191.60737
785.042	3197.92973
785.231	3159.99338
785.42	3136.80745
785.61	3318.02597
785.799	3191.60737
785.988	3212.68132
786.177	3176.85463
786.366	3195.8223
786.555	3044.04449
786.744	3372.7883
786.933	3111.5115
787.122	3351.72725
787.312	3164.20879
787.501	3254.82424
787.69	3240.07498
787.879	3355.9396
788.068	3090.42979
788.257	3174.74703
788.445	3181.06978
788.634	3164.20879
788.823	3183.17733
789.012	3187.39239
789.201	3172.63942
789.39	3197.92973
789.579	3219.00318
789.768	3246.39619
789.957	3035.60999
790.145	3189.49989
790.334	3204.25194
790.523	3183.17733
790.712	3109.4034
790.9	3166.31647
791.089	3035.60999
791.278	3069.3465
791.467	3001.86953
791.655	3048.26164
791.844	2904.84427
792.033	3060.91274
792.221	2980.77976
792.41	3018.74025
792.599	2852.10019
792.787	3183.17733
792.976	2984.99784
793.164	3014.52266
793.353	2894.29617
793.541	3075.67165
793.73	2875.30869
793.918	3044.04449
794.107	2887.96714
794.295	2900.62507
794.484	3027.17524
794.672	2976.56163
794.861	2807.78833
795.049	3010.30501
795.238	2909.06341
795.426	3001.86953
795.614	2767.69141
795.803	2894.29617
795.991	2816.22916
796.179	2902.73468
796.368	2757.13878
796.556	2782.46453
796.744	2809.89856
796.932	2951.25157
797.121	2799.34729
797.309	2875.30869
797.497	2774.02283
797.685	2902.73468
797.874	2759.24933
798.062	2917.50151
798.25	2856.32004
798.438	2809.89856
798.626	2866.86943
798.814	2816.22916
799.002	2761.35987
799.19	2761.35987
799.378	2909.06341
799.566	2799.34729
799.755	2651.59435
799.943	3001.86953
800.131	2757.13878
800.318	2843.66031
800.506	2900.62507
800.694	2894.29617
800.882	2685.37209
801.07	2668.48362
801.258	2887.96714
801.446	2733.92181
801.634	2733.92181
801.822	2875.30869
802.01	2795.12668
802.197	3006.0873
802.385	2795.12668
802.573	2784.57493
802.761	2685.37209
802.949	2835.22021
803.136	2558.68921
803.324	2919.611
803.512	2664.26138
803.699	2700.14882
803.887	2784.57493
804.075	2875.30869
804.262	2695.92696
804.45	2896.40582
804.638	2833.11015
804.825	2835.22021
805.013	2763.4704
805.201	2909.06341
805.388	2712.81408
805.576	2936.48638
805.763	2660.03909
805.951	3096.75447
806.138	2771.91237
806.326	2959.6885
806.513	2807.78833
806.701	2932.26763
806.888	2687.48309
807.075	2972.34344
807.263	2875.30869
807.45	2913.28249
807.638	2668.48362
807.825	2849.99024
808.012	2833.11015
808.2	2875.30869
808.387	2849.99024
808.574	3035.60999
808.761	2831.00007
808.949	3052.47874
809.136	2894.29617
809.323	2782.46453
809.51	2835.22021
809.698	2681.15005
809.885	2809.89856
810.072	2890.07683
810.259	3012.41384
810.446	3081.99666
810.633	2868.97927
810.82	2984.99784
811.008	2812.00877
811.195	2951.25157
811.382	2818.33933
811.569	2902.73468
811.756	2708.59238
811.943	2782.46453
812.13	2894.29617
812.317	2909.06341
812.504	2706.48151
812.691	3001.86953
812.878	2765.58091
813.064	3018.74025
813.251	2685.37209
813.438	3039.82727
813.625	2731.81109
813.812	2868.97927
813.999	2894.29617
814.186	2852.10019
814.372	2776.13328
814.559	2782.46453
814.746	2767.69141
814.933	3115.72765
815.12	2784.57493
815.306	3052.47874
815.493	2784.57493
815.68	2984.99784
815.866	2894.29617
816.053	2923.82993
816.24	2866.86943
816.426	2801.45757
816.613	2681.15005
816.799	2925.93938
816.986	2951.25157
817.173	3020.84902
817.359	2740.25387
817.546	3035.60999
817.732	2664.26138
817.919	3014.52266
818.105	2672.70582
818.292	2778.24371
818.478	2708.59238
818.665	2805.67809
818.851	2767.69141
819.037	2997.6517
819.224	2634.70427
819.41	2892.18651
819.597	2706.48151
819.783	2951.25157
819.969	2634.70427
820.156	2681.15005
820.342	2740.25387
820.528	3006.0873
820.714	2765.58091
820.901	2919.611
821.087	2664.26138
821.273	2814.11897
821.459	2803.56784
821.646	2833.11015
821.832	2624.14757
822.018	2847.88028
822.204	2499.55578
822.39	2824.66976
822.576	2672.70582
822.762	2818.33933
822.948	2626.25894
823.134	2782.46453
823.32	2402.38898
823.507	2725.47887
823.693	2615.70199
823.879	2849.99024
824.065	2520.6759
824.25	2767.69141
824.436	2607.25621
824.622	2550.24214
824.808	2495.33162
824.994	2592.47562
825.18	2567.1361
825.366	2744.47517
825.552	2725.47887
825.738	2879.52823
825.923	2685.37209
826.109	2807.78833
826.295	2520.6759
826.481	2822.55963
826.667	2615.70199
826.852	2712.81408
827.038	2655.81674
827.224	2657.92792
827.409	2780.35413
827.595	2799.34729
827.781	2740.25387
827.966	2774.02283
828.152	2672.70582
828.338	2522.78785
828.523	2425.6266
828.709	2465.76125
828.894	2529.12363
829.08	2524.89979
829.266	2548.13034
829.451	2516.45197
829.637	2436.18873
829.822	2759.24933
830.008	2491.10742
830.193	2647.37191
830.378	2514.33998
830.564	2541.79487
830.749	2419.28919
830.935	2457.31218
831.12	2622.03619
831.305	2689.59407
831.491	2351.68439
831.676	2617.8134
831.861	2279.84312
832.047	2662.15024
832.232	2438.30112
832.417	2617.8134
832.602	2315.76515
832.788	2520.6759
832.973	2353.7972
833.158	2541.79487
833.343	2197.4238
833.528	2562.91268
833.714	2360.13556
833.899	2543.90671
834.084	2404.50155
834.269	2393.93863
834.454	2229.12513
834.639	2387.60075
834.824	2317.87812
835.009	2522.78785
835.194	2317.87812
835.379	2421.40167
835.564	2246.03171
835.749	2446.75059
835.934	2260.82449
836.119	2277.72998
836.304	2015.63477
836.489	2117.10535
836.674	2038.88988
836.859	2142.47033
837.044	2210.10456
837.228	2233.35183
837.413	2072.71401
837.598	2512.22799
837.783	2148.81139
837.968	2319.99109
838.152	2246.03171
838.337	2292.5218
838.522	2013.52063
838.707	2328.44285
838.891	1996.60726
839.076	2161.49331
839.261	2076.9419
839.445	2216.44483
839.63	1969.12216
839.815	2311.53917
839.999	2150.92507
840.184	2457.31218
840.368	1943.75038
840.553	2379.15011
840.737	2000.83564
840.922	2201.65075
841.106	2015.63477
841.291	1884.54634
841.475	2174.17493
841.66	2199.53728
841.844	1835.91138
842.029	2142.47033
842.213	1971.23644
842.397	2070.60006
842.582	1857.05733
842.766	2026.20538
842.951	1717.48608
843.135	1916.26333
843.319	1846.48442
843.504	1903.57668
843.688	1785.15922
843.872	2068.48609
844.056	2021.97715
844.241	2000.83564
844.425	1742.86394
844.609	1897.23328
844.793	1931.06417
844.977	2083.28367
845.161	1795.73279
845.346	2060.03017
845.53	1928.94978
845.714	2083.28367
845.898	1871.85921
846.082	2017.7489
846.266	1694.22261
846.45	1914.1489
846.634	1709.02668
846.818	1886.66085
847.002	1793.61808
847.186	1861.28647
847.37	1717.48608
847.554	1850.7136
847.738	1838.02599
847.922	1988.15042
848.106	1812.65028
848.29	1914.1489
848.473	1802.07688
848.657	1954.32206
848.841	1818.99427
849.025	1844.36982
849.209	1637.11991
849.392	1692.10773
849.576	1683.64819
849.76	1810.53561
849.944	1556.75038
850.127	1759.78224
850.311	1541.94521
850.495	1785.15922
850.678	1673.07369
850.862	1818.99427
851.046	1611.74035
851.229	1785.15922
851.413	1552.52034
851.596	1658.26928
851.78	1668.84387
851.964	1734.40471
852.147	1567.32546
852.331	1601.16545
852.514	1351.59134
852.698	1649.80956
852.881	1455.22841
853.065	1565.21044
853.248	1548.29029
853.431	1734.40471
853.615	1522.90992
853.798	1683.64819
853.982	1453.11335
854.165	1573.67049
854.348	1537.71515
854.532	1501.7595
854.715	1554.63536
854.898	1541.94521
855.081	1470.03377
855.265	1584.2455
855.448	1582.1305
855.631	1590.5905
855.814	1408.6973
855.997	1541.94521
856.181	1362.16646
856.364	1641.3498
856.547	1442.53809
856.73	1417.15749
856.913	1328.3262
857.096	1450.9983
857.279	1330.44121
857.462	1461.57356
857.645	1387.54686
857.828	1525.02495
858.011	1343.13127
858.194	1423.50263
858.377	1281.79656
858.56	1480.60903
858.743	1279.6816
858.926	1472.14882
859.109	1423.50263
859.292	1660.3842
859.475	1341.01625
859.658	1522.90992
859.841	1159.13363
860.023	1385.43182
860.206	1252.18734
860.389	1400.23711
860.572	1269.10683
860.755	1328.3262
860.937	1277.56664
861.12	1302.94628
861.303	1262.762
861.486	1351.59134
861.668	1192.97058
861.851	1336.78623
862.034	1171.82237
862.216	1220.46377
862.399	1121.0683
862.581	1281.79656
862.764	1186.62608
862.947	1341.01625
863.129	1161.24841
863.312	1298.71631
863.494	1055.51491
863.677	1135.87131
863.859	1197.20026
864.042	1275.45168
864.224	966.70931
864.406	1129.52714
864.589	1030.14078
864.771	1154.90408
864.954	989.96684
865.136	1171.82237
865.318	1091.46294
865.501	1049.1713
865.683	1057.62946
865.865	1152.78931
866.048	1083.00445
866.23	1085.11906
866.412	964.59503
866.594	1180.28161
866.777	1070.31686
866.959	1224.69354
867.141	1116.8389
867.323	1192.97058
867.505	1008.99632
867.687	1061.85857
867.869	1023.79738
868.052	1091.46294
868.234	992.08121
868.416	1049.1713
868.598	932.88167
868.78	998.42433
868.962	911.74035
869.144	1099.92152
869.326	846.2073
869.508	1019.56848
869.69	913.85444
869.872	1011.11074
870.054	973.05219
870.236	994.19557
870.417	905.3981
870.599	1074.54603
870.781	1061.85857
870.963	981.50947
871.145	992.08121
871.327	1042.82774
871.508	886.37178
871.69	945.56682
871.872	994.19557
872.054	1059.74401
872.235	996.30995
872.417	1002.65311
872.599	930.7675
872.78	1017.45403
872.962	880.02982
873.144	1032.25526
873.325	958.25223
873.507	977.28082
873.689	922.31091
873.87	1038.59873
874.052	896.94188
874.233	1047.05678
874.415	863.11829
874.596	947.68104
874.778	888.48578
874.959	975.1665
875.141	892.71381
875.322	926.53919
875.503	822.95561
875.685	981.50947
875.866	782.79623
876.048	928.65334
876.229	803.93232
876.41	1099.92152
876.592	816.61443
876.773	979.39514
876.954	825.06936
877.136	1034.36975
877.317	905.3981
877.498	1011.11074
877.679	905.3981
877.86	973.05219
878.042	746.86714
878.223	960.36649
878.404	922.31091
878.585	905.3981
878.766	744.75376
878.947	949.79526
879.128	833.52443
879.309	934.99584
879.49	880.02982
879.672	964.59503
879.853	795.47777
880.034	1049.1713
880.215	839.86582
880.396	1057.62946
880.576	1108.38017
880.757	1169.70757
880.938	989.96684
881.119	1178.16679
881.3	884.25779
881.481	1072.43144
881.662	1002.65311
881.843	1028.02631
882.023	1051.28583
882.204	1013.22517
882.385	968.8236
882.566	1030.14078
882.747	983.6238
882.927	1083.00445
883.108	1049.1713
883.289	1017.45403
883.469	909.62625
883.65	1015.3396
883.831	814.50072
884.011	928.65334
884.192	899.05592
884.373	1049.1713
884.553	871.57399
884.734	1006.88191
884.914	863.11829
885.095	1072.43144
885.275	930.7675
885.456	1070.31686
885.636	1040.71324
885.817	1222.57865
885.997	981.50947
886.178	966.70931
886.358	975.1665
886.538	1008.99632
886.719	939.22421
886.899	930.7675
887.08	1053.40037
887.26	1112.60953
887.44	1059.74401
887.621	1226.80843
887.801	970.93789
887.981	1125.29771
888.161	1023.79738
888.342	1197.20026
888.522	1004.76751
888.702	1108.38017
888.882	992.08121
889.062	1137.98605
889.242	956.13798
889.423	1032.25526
889.603	880.02982
889.783	1148.55979
889.963	981.50947
890.143	1150.67455
890.323	973.05219
890.503	1091.46294
890.683	1057.62946
890.863	1137.98605
891.043	964.59503
891.223	1036.48424
891.403	907.51217
891.583	949.79526
891.763	865.2322
891.943	956.13798
892.122	863.11829
892.302	1017.45403
892.482	736.30033
892.662	909.62625
892.842	896.94188
893.022	928.65334
893.201	1002.65311
893.381	930.7675
893.561	1040.71324
893.741	1116.8389
893.92	841.97964
894.1	890.59979
894.28	812.38703
894.459	947.68104
894.639	795.47777
894.819	1013.22517
894.998	913.85444
895.178	1030.14078
895.357	899.05592
895.537	905.3981
895.716	839.86582
895.896	1038.59873
896.075	905.3981
896.255	1091.46294
896.434	865.2322
896.614	1049.1713
896.793	774.34207
896.973	958.25223
897.152	806.04598
897.331	962.48076
897.511	850.435
897.69	943.45261
897.87	795.47777
898.049	928.65334
898.228	903.28403
898.407	890.59979
898.587	780.68268
898.766	939.22421
898.945	774.34207
899.124	784.9098
899.304	710.94105
899.483	810.27334
899.662	808.15966
899.841	852.54886
900.02	639.09854
900.199	761.66112
900.378	603.18247
900.557	719.39397
900.737	696.14886
900.916	761.66112
901.095	736.30033
901.274	710.94105
901.453	780.68268
901.632	634.87293
901.811	641.21136
901.989	613.74564
902.168	554.59606
902.347	727.84706
902.526	609.52034
902.705	704.60147
902.884	645.43704
903.063	660.22729
903.242	575.71972
903.42	484.89782
903.599	651.77565
903.778	579.94462
903.957	535.58592
904.135	689.80952
904.314	573.6073
904.493	512.35284
904.672	651.77565
904.85	613.74564
905.029	535.58592
905.207	651.77565
905.386	563.04536
905.565	552.48376
905.743	448.99889
905.922	563.04536
906.1	495.45715
906.279	489.12151
906.457	468.00366
906.636	643.32419
906.814	465.89196
906.993	474.33885
907.171	442.66424
907.35	522.91312
907.528	468.00366
907.707	493.34525
907.885	442.66424
908.063	510.24083
908.242	383.5478
908.42	463.78027
908.598	339.219
908.777	415.21575
908.955	410.99314
909.133	533.47375
909.311	364.54882
909.49	339.219
909.668	343.44047
909.846	406.7706
910.024	383.5478
910.202	311.78121
910.38	364.54882
910.559	440.55273
910.737	427.88395
910.915	461.6686
911.093	406.7706
911.271	394.10337
911.449	381.43673
911.627	461.6686
911.805	385.65888
911.983	436.32974
912.161	396.21454
912.339	364.54882
912.517	318.11274
912.695	444.77578
912.872	275.90563
913.05	455.33367
913.228	368.7707
913.406	442.66424
913.584	381.43673
913.762	499.68099
913.939	415.21575
914.117	506.01685
914.295	459.55694
914.473	478.56239
914.65	438.44123
914.828	550.37148
915.006	324.44443
915.184	537.6981
915.361	400.43691
915.539	436.32974
915.716	318.11274
915.894	425.77255
916.072	375.10364
916.249	377.21465
916.427	383.5478
916.604	343.44047
916.782	349.77279
916.959	457.4453
917.137	360.32701
917.314	434.21827
917.492	341.32972
917.669	288.56699
917.847	404.65936
918.024	320.22329
918.201	368.7707
918.379	275.90563
918.556	375.10364
918.733	423.66115
918.911	332.88694
919.088	389.88109
919.265	271.68532
919.442	364.54882
919.62	246.36508
919.797	292.78759
919.974	391.99222
920.151	474.33885
920.328	280.12601
920.506	254.80485
920.683	366.65975
920.86	343.44047
921.037	265.355
921.214	353.99443
921.391	362.43791
921.568	271.68532
921.745	229.48645
921.922	330.77629
922.099	301.22902
922.276	328.66565
922.453	347.662
922.63	356.10527
922.807	256.91485
922.984	299.11864
923.161	330.77629
923.338	347.662
923.514	290.67728
923.691	381.43673
923.868	246.36508
924.045	183.07674
924.222	269.5752
924.399	259.02486
924.575	307.56028
924.752	254.80485
924.929	227.37671
925.105	269.5752
925.282	288.56699
925.459	197.84241
925.635	204.17086
925.812	254.80485
925.989	242.1453
926.165	275.90563
926.342	216.8283
926.518	280.12601
926.695	153.54842
926.871	299.11864
927.048	237.92561
927.224	161.98467
927.401	248.47499
927.577	212.60907
927.754	176.7489
927.93	233.70599
928.107	187.2954
928.283	216.8283
928.459	172.53045
928.636	237.92561
928.812	183.07674
928.988	121.91552
929.165	145.11251
929.341	280.12601
929.517	263.24494
929.693	195.73297
929.87	193.62355
930.046	161.98467
930.222	172.53045
930.398	199.95188
930.574	212.60907
930.751	145.11251
930.927	161.98467
931.103	113.4809
931.279	105.04662
931.455	113.4809
931.631	79.74592
931.807	204.17086
931.983	170.42125
932.159	214.71868
932.335	111.37229
932.511	134.5681
932.687	86.0708
932.863	176.7489
933.039	77.63768
933.215	273.79547
933.391	166.20292
933.566	191.51415
933.742	155.65745
933.918	147.22146
934.094	60.77252
934.27	79.74592
934.445	231.59621
934.621	172.53045
934.797	119.80683
934.973	155.65745
935.148	77.63768
935.324	109.26371
935.5	90.28749
935.675	27.04663
935.851	62.88058
936.027	46.01671
936.202	48.12461
936.378	52.34049
936.553	73.42125
936.729	12.29343
936.904	1.75615
937.08	153.54842
937.255	-48.81431
937.431	130.35049
937.606	119.80683
937.782	77.63768
937.957	18.61609
938.133	96.6127
938.308	35.47754
938.483	14.40096
938.659	-19.31659
938.834	69.20492
939.009	29.15432
939.185	64.98867
939.36	1.75615
939.535	62.88058
939.71	35.47754
939.886	69.20492
940.061	18.61609
940.236	48.12461
940.411	128.24171
940.586	71.31307
940.761	83.96248
940.937	52.34049
941.112	58.66448
941.287	10.18593
941.462	29.15432
941.637	-6.67324
941.812	54.44846
941.987	20.72369
942.162	-4.56592
942.337	81.85419
942.512	18.61609
942.687	43.90883
942.862	73.42125
943.037	43.90883
943.212	29.15432
943.386	60.77252
943.561	46.01671
943.736	88.17913
943.911	69.20492
944.086	35.47754
944.26	41.80097
944.435	88.17913
944.61	37.58533
944.785	18.61609
944.959	81.85419
945.134	54.44846
945.309	1.75615
945.483	71.31307
945.658	27.04663
945.833	48.12461
946.007	33.36978
946.182	-31.95906
946.357	75.52945
946.531	14.40096
946.706	69.20492
946.88	18.61609
947.055	52.34049
947.229	18.61609
947.404	54.44846
947.578	3.86356
947.752	20.72369
947.927	77.63768
948.101	35.47754
948.276	60.77252
948.45	3.86356
948.624	43.90883
948.799	79.74592
948.973	8.07845
949.147	14.40096
949.321	-4.56592
949.496	60.77252
949.67	1.75615
949.844	14.40096
950.018	50.23254
950.193	79.74592
950.367	58.66448
950.541	43.90883
950.715	37.58533
950.889	20.72369
951.063	69.20492
951.237	52.34049
951.411	-10.88778
951.585	3.86356
951.759	-2.45859
951.933	73.42125
952.107	60.77252
952.281	48.12461
952.455	52.34049
952.629	31.26204
952.803	77.63768
952.977	-2.45859
953.151	-0.35123
953.325	18.61609
953.499	18.61609
953.672	-40.38689
953.846	-4.56592
954.02	18.61609
954.194	-6.67324
954.368	102.93811
954.541	5.97099
954.715	20.72369
954.889	43.90883
955.062	-4.56592
955.236	128.24171
955.41	-38.27997
955.583	1.75615
955.757	58.66448
955.93	39.69314
956.104	27.04663
956.278	60.77252
956.451	31.26204
956.625	12.29343
956.798	56.55646
956.972	1.75615
957.145	18.61609
957.319	62.88058
957.492	60.77252
957.665	-12.99502
957.839	96.6127
958.012	41.80097
958.185	71.31307
958.359	60.77252
958.532	-6.67324
958.705	-38.27997
958.879	77.63768
959.052	20.72369
959.225	73.42125
959.398	130.35049
959.572	71.31307
959.745	39.69314
959.918	52.34049
960.091	31.26204
960.264	39.69314
960.438	-12.99502
960.611	1.75615
960.784	102.93811
960.957	48.12461
961.13	27.04663
961.303	5.97099
961.476	-21.42373
961.649	62.88058
961.822	105.04662
961.995	31.26204
962.168	94.50427
962.341	-10.88778
962.514	48.12461
962.686	174.63967
962.859	29.15432
963.032	-53.02787
963.205	48.12461
963.378	128.24171
963.551	35.47754
963.723	69.20492
963.896	8.07845
964.069	75.52945
964.242	94.50427
964.414	27.04663
964.587	-27.74501
964.76	105.04662
964.932	48.12461
965.105	48.12461
965.278	27.04663
965.45	35.47754
965.623	-29.85205
965.795	31.26204
965.968	52.34049
966.14	52.34049
966.313	27.04663
966.485	39.69314
966.658	-4.56592
966.83	73.42125
967.003	96.6127
967.175	29.15432
967.348	46.01671
967.52	18.61609
967.692	37.58533
967.865	18.61609
968.037	64.98867
968.209	27.04663
968.382	86.0708
968.554	1.75615
968.726	-23.53085
968.898	10.18593
969.071	52.34049
969.243	-6.67324
969.415	64.98867
969.587	60.77252
969.759	98.72115
969.932	-19.31659
970.104	62.88058
970.276	22.83131
970.448	41.80097
970.62	-17.20943
970.792	60.77252
970.964	46.01671
971.136	22.83131
971.308	67.09678
971.48	41.80097
971.652	31.26204
971.824	46.01671
971.996	73.42125
972.168	14.40096
972.339	52.34049
972.511	14.40096
972.683	35.47754
972.855	81.85419
973.027	-15.10224
973.199	-25.63794
973.37	-31.95906
973.542	-40.38689
973.714	50.23254
973.886	20.72369
974.057	98.72115
974.229	10.18593
974.401	62.88058
974.572	52.34049
974.744	64.98867
974.915	18.61609
975.087	-21.42373
975.259	60.77252
975.43	-10.88778
975.602	69.20492
975.773	71.31307
975.945	79.74592
976.116	88.17913
976.288	-12.99502
976.459	98.72115
976.63	-48.81431
976.802	-48.81431
976.973	-29.85205
977.145	1.75615
977.316	31.26204
977.487	60.77252
977.659	69.20492
977.83	54.44846
978.001	29.15432
978.172	-15.10224
978.344	-31.95906
978.515	10.18593
978.686	-23.53085
978.857	14.40096
979.028	-63.56133
979.2	41.80097
979.371	10.18593
979.542	14.40096
979.713	37.58533
979.884	14.40096
980.055	-27.74501
980.226	33.36978
980.397	-48.81431
980.568	128.24171
980.739	-6.67324
980.91	33.36978
981.081	33.36978
981.252	111.37229
981.423	33.36978
981.594	98.72115
981.765	24.93896
981.936	29.15432
982.106	102.93811
982.277	-31.95906
982.448	98.72115
982.619	43.90883
982.79	1.75615
982.96	12.29343
983.131	52.34049
983.302	-31.95906
983.472	71.31307
983.643	52.34049
983.814	27.04663
983.984	27.04663
984.155	62.88058
984.326	46.01671
984.496	5.97099
984.667	-23.53085
984.837	-2.45859
985.008	75.52945
985.178	-4.56592
985.349	90.28749
985.519	18.61609
985.69	22.83131
985.86	-23.53085
986.031	35.47754
986.201	12.29343
986.371	71.31307
986.542	-23.53085
986.712	1.75615
986.882	5.97099
987.053	56.55646
987.223	24.93896
987.393	37.58533
987.563	-4.56592
987.734	12.29343
987.904	71.31307
988.074	43.90883
988.244	-12.99502
988.414	43.90883
988.585	-31.95906
988.755	20.72369
988.925	52.34049
989.095	62.88058
989.265	33.36978
989.435	52.34049
989.605	3.86356
989.775	3.86356
989.945	5.97099
990.115	14.40096
990.285	10.18593
990.455	-4.56592
990.625	29.15432
990.795	10.18593
990.965	77.63768
991.134	35.47754
991.304	46.01671
991.474	56.55646
991.644	-34.06606
991.814	-44.60065
991.984	-6.67324
992.153	-10.88778
992.323	12.29343
992.493	54.44846
992.662	10.18593
992.832	1.75615
993.002	48.12461
993.171	22.83131
993.341	12.29343
993.511	64.98867
993.68	18.61609
993.85	18.61609
994.019	69.20492
994.189	24.93896
994.358	3.86356
994.528	-15.10224
994.697	-31.95906
994.867	-4.56592
995.036	-57.24133
995.206	-23.53085
995.375	48.12461
995.544	-15.10224
995.714	-15.10224
995.883	56.55646
996.052	-31.95906
996.222	27.04663
996.391	-6.67324
996.56	56.55646
996.73	46.01671
996.899	52.34049
997.068	-44.60065
997.237	5.97099
997.406	-15.10224
997.576	64.98867
997.745	22.83131
997.914	35.47754
998.083	10.18593
998.252	54.44846
998.421	-10.88778
998.59	124.02423
998.759	-6.67324
998.928	-71.98763
999.097	29.15432
999.266	43.90883
999.435	1.75615
999.604	-6.67324
999.773	18.61609
999.942	14.40096
1000.111	-10.88778
1000.28	3.86356
1000.448	22.83131
1000.617	-31.95906
1000.786	-10.88778
1000.955	43.90883
1001.124	22.83131
1001.292	27.04663
1001.461	-38.27997
1001.63	46.01671
1001.798	29.15432
1001.967	-34.06606
1002.136	12.29343
1002.304	18.61609
1002.473	-38.27997
1002.642	-17.20943
1002.81	1.75615
1002.979	-0.35123
1003.147	22.83131
1003.316	-4.56592
1003.484	14.40096
1003.653	41.80097
1003.821	14.40096
1003.99	3.86356
1004.158	39.69314
1004.327	54.44846
1004.495	52.34049
1004.663	-29.85205
1004.832	22.83131
1005	-40.38689
1005.168	46.01671
1005.337	5.97099
1005.505	27.04663
1005.673	-12.99502
1005.842	10.18593
1006.01	-19.31659
1006.178	71.31307
1006.346	22.83131
1006.514	-10.88778
1006.683	43.90883
1006.851	-21.42373
1007.019	27.04663
1007.187	5.97099
1007.355	41.80097
1007.523	60.77252
1007.691	-15.10224
1007.859	-17.20943
1008.027	27.04663
1008.195	33.36978
1008.363	-31.95906
1008.531	-6.67324
1008.699	12.29343
1008.867	1.75615
1009.035	-2.45859
1009.203	71.31307
1009.37	20.72369
1009.538	-23.53085
1009.706	79.74592
1009.874	-69.8811
1010.042	-23.53085
1010.209	71.31307
1010.377	29.15432
1010.545	-44.60065
1010.713	3.86356
1010.88	35.47754
1011.048	67.09678
1011.216	-2.45859
1011.383	77.63768
1011.551	-65.66794
1011.718	18.61609
1011.886	14.40096
1012.054	48.12461
1012.221	60.77252
1012.389	14.40096
1012.556	60.77252
1012.724	43.90883
1012.891	-44.60065
1013.058	52.34049
1013.226	-57.24133
1013.393	33.36978
1013.561	27.04663
1013.728	-74.09415
1013.895	-2.45859
1014.063	46.01671
1014.23	18.61609
1014.397	8.07845
1014.565	60.77252
1014.732	-15.10224
1014.899	-10.88778
1015.066	-10.88778
1015.233	-57.24133
1015.401	37.58533
1015.568	18.61609
1015.735	-2.45859
1015.902	10.18593
1016.069	12.29343
1016.236	16.50851
1016.403	10.18593
1016.57	-4.56592
1016.737	50.23254
1016.904	27.04663
1017.071	22.83131
1017.238	10.18593
1017.405	18.61609
1017.572	48.12461
1017.739	-19.31659
1017.906	54.44846
1018.073	14.40096
1018.24	27.04663
1018.407	10.18593
1018.573	-31.95906
1018.74	14.40096
1018.907	22.83131
1019.074	37.58533
1019.241	-46.70749
1019.407	18.61609
1019.574	27.04663
1019.741	83.96248
1019.907	-36.17303
1020.074	18.61609
1020.241	52.34049
1020.407	-15.10224
1020.574	22.83131
1020.74	41.80097
1020.907	-74.09415
1021.073	86.0708
1021.24	3.86356
1021.406	10.18593
1021.573	-19.31659
1021.739	-12.99502
1021.906	-76.20064
1022.072	3.86356
1022.239	-17.20943
1022.405	-19.31659
1022.571	18.61609
1022.738	-31.95906
1022.904	-107.79484
1023.07	10.18593
1023.237	35.47754
1023.403	16.50851
1023.569	-36.17303
1023.735	77.63768
1023.902	10.18593
1024.068	27.04663
1024.234	60.77252
1024.4	-40.38689
1024.566	27.04663
1024.732	113.4809
1024.898	12.29343
1025.065	35.47754
1025.231	-2.45859
1025.397	41.80097
1025.563	-12.99502
1025.729	37.58533
1025.895	12.29343
1026.061	54.44846
1026.227	27.04663
1026.392	-6.67324
1026.558	-40.38689
1026.724	-29.85205
1026.89	52.34049
1027.056	-19.31659
1027.222	48.12461
1027.388	8.07845
1027.553	-29.85205
1027.719	69.20492
1027.885	10.18593
1028.051	43.90883
1028.216	-23.53085
1028.382	77.63768
1028.548	41.80097
1028.713	-27.74501
1028.879	-48.81431
1029.045	69.20492
1029.21	27.04663
1029.376	-2.45859
1029.541	52.34049
1029.707	43.90883
1029.873	18.61609
1030.038	35.47754
1030.204	39.69314
1030.369	-29.85205
1030.534	77.63768
1030.7	-69.8811
1030.865	5.97099
1031.031	-31.95906
1031.196	37.58533
1031.361	48.12461
1031.527	-31.95906
1031.692	1.75615
1031.857	-55.13461
1032.023	27.04663
1032.188	62.88058
1032.353	12.29343
1032.518	27.04663
1032.684	77.63768
1032.849	52.34049
1033.014	43.90883
1033.179	22.83131
1033.344	10.18593
1033.509	-29.85205
1033.674	20.72369
1033.839	-21.42373
1034.004	52.34049
1034.17	41.80097
1034.335	-21.42373
1034.5	-4.56592
1034.664	10.18593
1034.829	60.77252
1034.994	24.93896
1035.159	16.50851
1035.324	18.61609
1035.489	-31.95906
1035.654	58.66448
1035.819	113.4809
1035.984	75.52945
1036.148	-4.56592
1036.313	35.47754
1036.478	-53.02787
1036.643	-15.10224
1036.807	43.90883
1036.972	27.04663
1037.137	12.29343
1037.301	18.61609
1037.466	-6.67324
1037.631	39.69314
1037.795	-57.24133
1037.96	5.97099
1038.124	-6.67324
1038.289	3.86356
1038.454	1.75615
1038.618	-19.31659
1038.783	-10.88778
1038.947	16.50851
1039.111	35.47754
1039.276	69.20492
1039.44	-19.31659
1039.605	14.40096
1039.769	-12.99502
1039.933	-2.45859
1040.098	-0.35123
1040.262	-65.66794
1040.426	14.40096
1040.591	10.18593
1040.755	-21.42373
1040.919	-15.10224
1041.083	3.86356
1041.248	48.12461
1041.412	29.15432
1041.576	1.75615
1041.74	54.44846
1041.904	3.86356
1042.068	-44.60065
1042.232	29.15432
1042.397	41.80097
1042.561	14.40096
1042.725	52.34049
1042.889	56.55646
1043.053	86.0708
1043.217	-31.95906
1043.381	22.83131
1043.544	27.04663
1043.708	-27.74501
1043.872	-15.10224
1044.036	-8.78052
1044.2	54.44846
1044.364	39.69314
1044.528	46.01671
1044.691	18.61609
1044.855	1.75615
1045.019	1.75615
1045.183	-6.67324
1045.346	48.12461
1045.51	-2.45859
1045.674	-23.53085
1045.837	16.50851
1046.001	43.90883
1046.165	35.47754
1046.328	60.77252
1046.492	1.75615
1046.655	1.75615
1046.819	35.47754
1046.983	10.18593
1047.146	-90.94533
1047.31	33.36978
1047.473	41.80097
1047.636	-34.06606
1047.8	-63.56133
1047.963	18.61609
1048.127	3.86356
1048.29	22.83131
