Data from mixed_try1_USB4F045381__15__00037.txt Node

Date: Thu Apr 03 19:33:31 EDT 2025
User: mmckonesweet
Spectrometer: USB4F04538
Trigger mode: 4
Integration Time (sec): 2.700000E-3
Scans to average: 1
Electric dark correction enabled: true
Nonlinearity correction enabled: true
Boxcar width: 0
XAxis mode: Wavelengths
Number of Pixels in Spectrum: 3648
>>>>>Begin Spectral Data<<<<<
345.52	-1.40491
345.736	-1.40491
345.952	-1.40491
346.168	15.45473
346.384	9.13219
346.6	-35.11954
346.816	57.61047
347.032	-30.90556
347.248	-24.5844
347.464	-60.40135
347.68	2.80986
347.896	13.34719
348.112	11.23968
348.328	9.13219
348.544	-3.51226
348.76	112.42659
348.975	-51.97449
349.191	-18.26301
349.407	-16.15583
349.623	-11.94141
349.839	-51.97449
350.055	0.70246
350.27	-41.44034
350.486	17.5623
350.702	74.47535
350.918	-26.69148
351.133	34.42366
351.349	28.10047
351.565	-28.79853
351.781	49.17857
351.996	-60.40135
352.212	-45.65407
352.428	-49.86771
352.644	-62.50801
352.859	9.13219
353.075	-73.04089
353.291	-18.26301
353.506	0.70246
353.722	-26.69148
353.938	-24.5844
354.153	-7.72688
354.369	-7.72688
354.584	-18.26301
354.8	13.34719
355.016	4.91728
355.231	-18.26301
355.447	74.47535
355.662	2.80986
355.878	-28.79853
356.093	42.8549
356.309	-33.01256
356.524	-30.90556
356.74	-20.37016
356.955	15.45473
357.171	-41.44034
357.386	11.23968
357.602	-85.67951
357.817	-18.26301
358.033	-35.11954
358.248	-39.33343
358.464	-66.72124
358.679	-28.79853
358.895	44.96277
359.11	53.39447
359.325	9.13219
359.541	51.28651
359.756	19.66988
359.972	42.8549
360.187	32.3159
360.402	51.28651
360.618	30.20817
360.833	-35.11954
361.048	-9.83416
361.264	-9.83416
361.479	7.02472
361.694	-5.61958
361.909	-1.40491
362.125	11.23968
362.34	13.34719
362.555	7.02472
362.77	-30.90556
362.986	-16.15583
363.201	15.45473
363.416	38.63923
363.631	17.5623
363.847	17.5623
364.062	-9.83416
364.277	15.45473
364.492	23.88513
364.707	15.45473
364.922	49.17857
365.138	-9.83416
365.353	40.74705
365.568	-33.01256
365.783	11.23968
365.998	42.8549
366.213	-16.15583
366.428	15.45473
366.643	-18.26301
366.858	-9.83416
367.073	-9.83416
367.288	-14.04863
367.503	15.45473
367.718	-18.26301
367.933	-20.37016
368.148	70.25899
368.363	82.90833
368.578	42.8549
368.793	-104.63569
369.008	11.23968
369.223	68.15085
369.438	-54.08124
369.653	7.02472
369.868	66.04272
370.083	-22.47729
370.298	32.3159
370.513	49.17857
370.728	42.8549
370.943	-64.61464
371.157	-5.61958
371.372	49.17857
371.587	-7.72688
371.802	-24.5844
372.017	19.66988
372.232	38.63923
372.446	25.99279
372.661	36.53143
372.876	23.88513
373.091	36.53143
373.306	15.45473
373.52	-1.40491
373.735	-1.40491
373.95	2.80986
374.165	57.61047
374.379	-7.72688
374.594	17.5623
374.809	59.7185
375.023	-1.40491
375.238	-14.04863
375.453	17.5623
375.667	-33.01256
375.882	-22.47729
376.097	44.96277
376.311	-41.44034
376.526	-7.72688
376.741	23.88513
376.955	9.13219
377.17	-1.40491
377.384	42.8549
377.599	-35.11954
377.813	28.10047
378.028	-51.97449
378.242	-5.61958
378.457	-24.5844
378.672	19.66988
378.886	15.45473
379.101	23.88513
379.315	36.53143
379.53	7.02472
379.744	-35.11954
379.958	68.15085
380.173	-41.44034
380.387	25.99279
380.602	23.88513
380.816	0.70246
381.031	32.3159
381.245	-35.11954
381.459	93.45007
381.674	-14.04863
381.888	0.70246
382.103	-9.83416
382.317	-1.40491
382.531	42.8549
382.746	-18.26301
382.96	9.13219
383.174	7.02472
383.388	23.88513
383.603	21.7775
383.817	32.3159
384.031	-33.01256
384.246	-18.26301
384.46	-26.69148
384.674	82.90833
384.888	63.93463
385.103	-18.26301
385.317	-28.79853
385.531	-22.47729
385.745	15.45473
385.959	-18.26301
386.174	7.02472
386.388	0.70246
386.602	-41.44034
386.816	17.5623
387.03	21.7775
387.244	53.39447
387.458	19.66988
387.672	-16.15583
387.887	0.70246
388.101	-22.47729
388.315	-60.40135
388.529	-33.01256
388.743	42.8549
388.957	32.3159
389.171	-66.72124
389.385	19.66988
389.599	-1.40491
389.813	51.28651
390.027	-18.26301
390.241	30.20817
390.455	-18.26301
390.669	57.61047
390.883	-77.25387
391.097	53.39447
391.311	-9.83416
391.525	11.23968
391.738	-18.26301
391.952	-7.72688
392.166	25.99279
392.38	82.90833
392.594	11.23968
392.808	53.39447
393.022	85.01664
393.236	2.80986
393.449	-24.5844
393.663	76.58356
393.877	34.42366
394.091	-14.04863
394.305	13.34719
394.518	-35.11954
394.732	-18.26301
394.946	15.45473
395.16	7.02472
395.373	34.42366
395.587	-1.40491
395.801	15.45473
396.015	17.5623
396.228	7.02472
396.442	-9.83416
396.656	-14.04863
396.869	2.80986
397.083	-24.5844
397.297	-35.11954
397.51	-22.47729
397.724	7.02472
397.938	-20.37016
398.151	80.80005
398.365	11.23968
398.578	9.13219
398.792	-24.5844
399.005	-39.33343
399.219	57.61047
399.433	-3.51226
399.646	21.7775
399.86	28.10047
400.073	11.23968
400.287	-22.47729
400.5	-26.69148
400.714	51.28651
400.927	-9.83416
401.141	-37.2265
401.354	2.80986
401.567	7.02472
401.781	-26.69148
401.994	51.28651
402.208	61.82655
402.421	-9.83416
402.635	7.02472
402.848	-24.5844
403.061	15.45473
403.275	72.36716
403.488	-7.72688
403.701	-26.69148
403.915	-5.61958
404.128	-30.90556
404.341	59.7185
404.555	19.66988
404.768	-68.82782
404.981	-26.69148
405.195	23.88513
405.408	61.82655
405.621	59.7185
405.834	-68.82782
406.048	40.74705
406.261	49.17857
406.474	0.70246
406.687	23.88513
406.9	30.20817
407.114	9.13219
407.327	-24.5844
407.54	-70.93437
407.753	-39.33343
407.966	42.8549
408.179	-9.83416
408.392	-18.26301
408.605	40.74705
408.819	30.20817
409.032	103.99236
409.245	61.82655
409.458	-5.61958
409.671	-18.26301
409.884	25.99279
410.097	49.17857
410.31	-16.15583
410.523	-108.84788
410.736	-1.40491
410.949	40.74705
411.162	-1.40491
411.375	-22.47729
411.588	-18.26301
411.801	-1.40491
412.014	-30.90556
412.227	25.99279
412.44	28.10047
412.653	23.88513
412.865	7.02472
413.078	-5.61958
413.291	17.5623
413.504	-35.11954
413.717	-24.5844
413.93	-45.65407
414.143	15.45473
414.356	32.3159
414.568	-58.29468
414.781	59.7185
414.994	-18.26301
415.207	-20.37016
415.42	-16.15583
415.632	15.45473
415.845	34.42366
416.058	70.25899
416.271	-56.18797
416.483	-7.72688
416.696	7.02472
416.909	28.10047
417.121	-75.1474
417.334	17.5623
417.547	63.93463
417.759	-41.44034
417.972	-18.26301
418.185	82.90833
418.397	40.74705
418.61	49.17857
418.823	-14.04863
419.035	-35.11954
419.248	17.5623
419.46	-14.04863
419.673	9.13219
419.885	82.90833
420.098	-14.04863
420.311	-33.01256
420.523	7.02472
420.736	-24.5844
420.948	38.63923
421.161	-77.25387
421.373	40.74705
421.586	44.96277
421.798	42.8549
422.01	-41.44034
422.223	-26.69148
422.435	-56.18797
422.648	32.3159
422.86	-5.61958
423.073	-106.7418
423.285	61.82655
423.497	28.10047
423.71	0.70246
423.922	-9.83416
424.134	15.45473
424.347	40.74705
424.559	15.45473
424.771	32.3159
424.984	70.25899
425.196	17.5623
425.408	23.88513
425.621	-9.83416
425.833	59.7185
426.045	66.04272
426.257	-1.40491
426.47	-26.69148
426.682	-37.2265
426.894	-22.47729
427.106	7.02472
427.318	51.28651
427.531	7.02472
427.743	-9.83416
427.955	38.63923
428.167	7.02472
428.379	-5.61958
428.591	36.53143
428.804	40.74705
429.016	91.34168
429.228	23.88513
429.44	-9.83416
429.652	82.90833
429.864	55.50246
430.076	28.10047
430.288	15.45473
430.5	-7.72688
430.712	4.91728
430.924	-26.69148
431.136	-51.97449
431.348	28.10047
431.56	-9.83416
431.772	44.96277
431.984	7.02472
432.196	-5.61958
432.408	68.15085
432.62	7.02472
432.832	34.42366
433.044	-18.26301
433.256	-39.33343
433.468	103.99236
433.679	-14.04863
433.891	57.61047
434.103	-22.47729
434.315	11.23968
434.527	36.53143
434.739	-24.5844
434.95	7.02472
435.162	74.47535
435.374	30.20817
435.586	-1.40491
435.798	49.17857
436.009	53.39447
436.221	15.45473
436.433	53.39447
436.645	0.70246
436.856	95.55848
437.068	74.47535
437.28	40.74705
437.491	23.88513
437.703	23.88513
437.915	34.42366
438.126	49.17857
438.338	7.02472
438.55	68.15085
438.761	7.02472
438.973	74.47535
439.184	7.02472
439.396	9.13219
439.608	82.90833
439.819	-1.40491
440.031	99.77538
440.242	-22.47729
440.454	23.88513
440.665	7.02472
440.877	82.90833
441.088	4.91728
441.3	-47.7609
441.511	-9.83416
441.723	-26.69148
441.934	57.61047
442.146	34.42366
442.357	40.74705
442.569	23.88513
442.78	25.99279
442.991	51.28651
443.203	23.88513
443.414	51.28651
443.626	-51.97449
443.837	0.70246
444.048	19.66988
444.26	82.90833
444.471	0.70246
444.682	36.53143
444.894	32.3159
445.105	120.86117
445.316	-26.69148
445.528	19.66988
445.739	44.96277
445.95	25.99279
446.161	-41.44034
446.373	-35.11954
446.584	53.39447
446.795	-1.40491
447.006	40.74705
447.217	7.02472
447.429	2.80986
447.64	-9.83416
447.851	61.82655
448.062	49.17857
448.273	-64.61464
448.484	11.23968
448.695	34.42366
448.907	74.47535
449.118	28.10047
449.329	-11.94141
449.54	23.88513
449.751	-11.94141
449.962	82.90833
450.173	0.70246
450.384	-1.40491
450.595	28.10047
450.806	-30.90556
451.017	0.70246
451.228	44.96277
451.439	93.45007
451.65	30.20817
451.861	23.88513
452.072	-5.61958
452.283	42.8549
452.494	36.53143
452.705	-64.61464
452.915	-7.72688
453.126	97.66692
453.337	-77.25387
453.548	-33.01256
453.759	44.96277
453.97	-18.26301
454.181	32.3159
454.391	-9.83416
454.602	49.17857
454.813	7.02472
455.024	32.3159
455.235	-47.7609
455.445	15.45473
455.656	17.5623
455.867	-62.50801
456.078	55.50246
456.288	28.10047
456.499	-43.54722
456.71	15.45473
456.921	-5.61958
457.131	-35.11954
457.342	-18.26301
457.553	-9.83416
457.763	36.53143
457.974	44.96277
458.184	30.20817
458.395	49.17857
458.606	59.7185
458.816	23.88513
459.027	15.45473
459.237	91.34168
459.448	47.07066
459.659	32.3159
459.869	9.13219
460.08	13.34719
460.29	51.28651
460.501	36.53143
460.711	61.82655
460.922	7.02472
461.132	15.45473
461.343	49.17857
461.553	125.07859
461.764	28.10047
461.974	-73.04089
462.184	21.7775
462.395	-14.04863
462.605	11.23968
462.816	76.58356
463.026	15.45473
463.236	-5.61958
463.447	-9.83416
463.657	57.61047
463.867	28.10047
464.078	42.8549
464.288	7.02472
464.498	17.5623
464.709	91.34168
464.919	0.70246
465.129	34.42366
465.339	42.8549
465.55	47.07066
465.76	7.02472
465.97	2.80986
466.18	17.5623
466.391	44.96277
466.601	-9.83416
466.811	-16.15583
467.021	2.80986
467.231	53.39447
467.441	2.80986
467.651	32.3159
467.862	-1.40491
468.072	55.50246
468.282	17.5623
468.492	-16.15583
468.702	68.15085
468.912	9.13219
469.122	-9.83416
469.332	36.53143
469.542	42.8549
469.752	66.04272
469.962	-26.69148
470.172	51.28651
470.382	32.3159
470.592	49.17857
470.802	-1.40491
471.012	66.04272
471.222	144.05805
471.432	44.96277
471.642	-5.61958
471.852	19.66988
472.062	91.34168
472.272	-18.26301
472.482	97.66692
472.691	42.8549
472.901	78.6918
473.111	15.45473
473.321	44.96277
473.531	57.61047
473.741	78.6918
473.95	32.3159
474.16	68.15085
474.37	110.318
474.58	15.45473
474.79	66.04272
474.999	36.53143
475.209	91.34168
475.419	66.04272
475.628	32.3159
475.838	116.64384
476.048	57.61047
476.258	106.10089
476.467	32.3159
476.677	-5.61958
476.886	49.17857
477.096	74.47535
477.306	70.25899
477.515	-41.44034
477.725	9.13219
477.935	61.82655
478.144	57.61047
478.354	112.42659
478.563	127.18734
478.773	15.45473
478.982	93.45007
479.192	55.50246
479.401	-18.26301
479.611	112.42659
479.82	108.20943
480.03	120.86117
480.239	120.86117
480.449	95.55848
480.658	118.75249
480.868	103.99236
481.077	144.05805
481.287	82.90833
481.496	154.60294
481.705	99.77538
481.915	203.11611
482.124	49.17857
482.333	217.88312
482.543	137.73137
482.752	125.07859
482.961	127.18734
483.171	93.45007
483.38	150.38492
483.589	184.1314
483.799	167.25749
484.008	127.18734
484.217	179.9128
484.426	201.00661
484.636	270.63026
484.845	211.55428
485.054	234.76089
485.263	238.98052
485.472	276.96072
485.682	236.87069
485.891	186.24073
486.1	163.03922
486.309	217.88312
486.518	154.60294
486.727	243.20024
486.936	300.17382
487.146	219.99277
487.355	270.63026
487.564	321.27857
487.773	295.95309
487.982	270.63026
488.191	281.18111
488.4	226.32184
488.609	245.31013
488.818	323.38914
489.027	314.94696
489.236	293.84276
489.445	355.04985
489.654	327.61034
489.863	285.40159
490.072	226.32184
490.281	344.49584
490.49	321.27857
490.698	422.60547
490.907	321.27857
491.116	329.72097
491.325	348.71739
491.534	447.94311
491.743	386.71443
491.952	456.38949
492.16	386.71443
492.369	376.15915
492.578	412.04879
492.787	439.49697
492.996	492.28931
493.204	374.04814
493.413	456.38949
493.622	549.31535
493.831	475.39473
494.039	475.39473
494.248	386.71443
494.457	515.52089
494.665	490.17744
494.874	572.55109
495.083	540.8664
495.291	587.33831
495.5	523.96917
495.709	701.43172
495.917	475.39473
496.126	600.01358
496.335	517.63294
496.543	648.60633
496.752	583.11332
496.96	591.56335
497.169	593.67589
497.377	657.0579
497.586	593.67589
497.794	642.26777
498.003	583.11332
498.211	682.41375
498.42	758.49094
498.628	766.94481
498.837	673.96162
499.045	788.08017
499.254	735.24366
499.462	834.58132
499.671	851.49193
499.879	843.03655
500.087	659.17083
500.296	826.12623
500.504	807.10282
500.713	845.15038
500.921	720.4506
501.129	707.77125
501.338	758.49094
501.546	997.36714
501.754	838.80892
501.962	1041.77049
502.171	887.42878
502.379	959.30936
502.587	864.17524
502.795	927.59627
503.004	872.63096
503.212	1016.39682
503.42	1067.14499
503.628	1086.17637
503.837	1020.6257
504.045	1075.60333
504.253	1029.08355
504.461	1151.73193
504.669	1081.94714
504.877	1219.40633
505.085	1041.77049
505.294	1115.78156
505.502	1045.99952
505.71	1151.73193
505.918	1029.08355
506.126	1213.0617
506.334	1168.65017
506.542	1329.3837
506.75	1147.50241
506.958	1160.19102
507.166	1208.83197
507.374	1213.0617
507.582	1153.84669
507.79	1240.55529
507.998	1361.10895
508.206	1386.48934
508.414	1361.10895
508.622	1280.73908
508.83	1240.55529
509.037	1458.40099
509.245	1202.48739
509.453	1411.86987
509.661	1274.39421
509.869	1564.15294
510.077	1261.70453
510.285	1597.99297
510.492	1462.63109
510.7	1494.35684
510.908	1278.62412
511.116	1629.71757
511.324	1392.83446
511.531	1669.90133
511.739	1401.29464
511.947	1587.418
512.155	1511.2772
512.362	1633.94748
512.57	1562.03792
512.778	1549.3478
512.985	1553.57785
513.193	1731.23248
513.401	1640.29233
513.608	1891.94708
513.816	1691.05029
514.024	1765.06916
514.231	1752.38051
514.439	1680.47585
514.646	1739.69174
514.854	1887.7181
515.061	1621.25772
515.269	1801.01954
515.477	1784.10186
515.684	2099.13783
515.892	1743.92134
516.099	2116.04846
516.307	1836.96869
516.514	1972.29357
516.722	1832.73944
516.929	1959.60784
517.136	1883.48909
517.344	2056.85918
517.551	1864.45831
517.759	1995.55016
517.966	1984.97908
518.173	2031.49062
518.381	2132.95859
518.588	1976.5221
518.796	2048.4031
519.003	2200.59402
519.21	2209.04784
519.418	2206.9344
519.625	2113.93465
519.832	2213.27471
520.039	2164.66374
520.247	2272.44708
520.454	2215.38813
520.661	2509.05998
520.868	2206.9344
521.076	2426.68282
521.283	2314.70866
521.49	2378.09376
521.697	2418.23295
521.904	2479.49062
522.112	2204.82095
522.319	2407.67037
522.526	2528.06767
522.733	2401.3327
522.94	2291.46525
523.147	2426.68282
523.354	2276.6734
523.561	2652.64995
523.768	2519.61992
523.975	2737.08785
524.183	2555.52158
524.39	2614.64627
524.597	2557.63334
524.804	2644.20504
525.011	2551.29803
525.218	2521.73188
525.425	2639.98251
525.632	2804.62297
525.838	2734.97716
526.045	2884.80257
526.252	2694.87148
526.459	2789.85085
526.666	2899.57027
526.873	3057.75002
527.08	2762.41514
527.287	2969.17975
527.494	2462.59287
527.701	2990.27035
527.907	2908.00863
528.114	3045.09878
528.321	2882.69285
528.528	3059.85851
528.735	3011.35943
528.941	3015.57706
529.148	2948.08766
529.355	3114.67362
529.562	2916.44676
529.768	3102.02493
529.975	2815.17407
530.182	3276.94658
530.388	3116.78168
530.595	3222.16406
530.802	3045.09878
531.008	3382.26519
531.215	3325.3985
531.422	3264.30547
531.628	3466.48855
531.835	3287.48038
532.042	3161.04723
532.248	3565.41409
532.455	3428.59156
532.661	3449.64616
532.868	3441.22454
533.074	3693.74557
533.281	3517.00876
533.487	3458.0675
533.694	3594.8734
533.9	3769.44886
534.107	3571.7271
534.313	3761.03863
534.52	3609.60169
534.726	3630.6405
534.933	3624.32905
535.139	3893.46325
535.345	3632.74428
535.552	3859.83905
535.758	3702.15828
535.965	3775.75634
536.171	3803.08668
536.377	3931.28434
536.584	3895.5646
536.79	3948.09161
536.996	4027.90837
537.203	3840.9232
537.409	3775.75634
537.615	3996.40528
537.821	3882.95624
538.028	4088.80119
538.234	3956.49476
538.44	4015.30769
538.646	3943.88992
538.853	4143.37988
539.059	3983.80276
539.265	4189.55077
539.471	4275.56913
539.677	4367.84143
539.883	4134.98408
540.09	4101.39753
540.296	4214.73058
540.502	4353.16454
540.708	4038.40837
540.914	4269.27632
541.12	4309.12752
541.326	4487.31344
541.532	4520.83662
541.738	4445.40154
541.944	4296.54377
542.15	4562.73262
542.356	4382.51725
542.562	4682.08732
542.768	4420.25018
542.974	4566.92173
543.18	4537.59608
543.386	4529.21653
543.592	4560.63803
543.798	4589.96026
544.004	4671.62053
544.21	4897.57747
544.415	4765.80142
544.621	4868.30173
544.827	4663.24668
545.033	4945.66358
545.239	4776.26313
545.445	4899.66842
545.651	4799.27691
545.856	4985.37772
546.062	4726.04173
546.268	5091.93763
546.474	4688.36713
546.679	4761.61657
546.885	4805.55292
547.091	5014.63544
547.297	4885.03127
547.502	4989.55767
547.708	5054.33512
547.914	5083.58217
548.119	4914.30445
548.325	5200.52485
548.531	4949.8444
548.736	5179.64758
548.942	5081.49324
549.147	5108.64745
549.353	4914.30445
549.559	5204.70003
549.764	4924.75806
549.97	5256.88184
550.175	5208.87511
550.381	5386.22963
550.586	5165.03211
550.792	5511.31901
550.997	4958.20578
551.203	5281.92392
551.408	5411.25428
551.614	5346.60036
551.819	5482.13906
552.025	5640.48899
552.23	5421.68021
552.435	5532.15901
552.641	5290.27053
552.846	5636.32363
553.052	5536.32672
553.257	5584.24869
553.462	5550.91299
553.668	5623.82699
553.873	5686.30172
554.078	5738.34776
554.283	5717.53111
554.489	5800.78355
554.694	5700.8761
554.899	5802.86438
555.105	5648.81943
555.31	5935.98822
555.515	5834.07395
555.72	6106.41203
555.925	5821.59076
556.131	6014.9848
556.336	5831.99348
556.541	5856.9576
556.746	5790.37906
556.951	6139.64701
557.156	5823.67135
557.361	6077.32649
557.567	5938.06752
557.772	6257.99776
557.977	6060.70411
558.182	6201.94638
558.387	6025.37655
558.592	6137.57
558.797	5863.19809
559.002	6239.31587
559.207	6185.33528
559.412	6089.79229
559.617	6297.4311
559.822	6314.03208
560.027	6289.13004
560.232	6550.434
560.437	6235.16408
560.642	6662.30871
560.847	6282.90401
561.051	6324.40693
561.256	6243.46756
561.461	6467.52037
561.666	6257.99776
561.871	6405.31077
562.076	6328.55671
562.281	6409.45872
562.485	6089.79229
562.69	6482.03294
562.895	6241.39173
563.1	6477.8866
563.305	6523.49114
563.509	6589.805
563.714	6380.42106
563.919	6705.7974
564.123	6388.718
564.328	6670.59305
564.533	6540.07183
564.737	6591.87693
564.942	6488.25226
565.147	6978.92428
565.351	6622.95306
565.556	6705.7974
565.761	6788.60503
565.965	6829.99514
566.17	6796.88378
566.374	6803.09261
566.579	6807.23171
566.784	7082.27848
566.988	6616.73824
567.193	6933.4306
567.397	6788.60503
567.602	7146.32997
567.806	6815.50964
568.011	6906.54284
568.215	6952.04297
568.42	6894.13181
568.624	7125.67054
568.828	6952.04297
569.033	6755.48637
569.237	7158.72457
569.442	7200.0341
569.646	7026.47418
569.85	7257.85256
570.055	7505.45139
570.259	7191.7729
570.463	7257.85256
570.668	6958.24669
570.872	7224.81556
571.076	7150.46159
571.281	7307.39749
571.485	7191.7729
571.689	7342.48416
571.893	7237.2051
572.098	7472.45629
572.302	7406.44949
572.506	7439.45566
572.71	7381.6912
572.914	7480.70558
573.119	7379.62787
573.323	7540.50264
573.527	7202.09934
573.731	7548.7491
573.935	7443.58104
574.139	7709.48671
574.343	7488.95453
574.547	7581.73148
574.751	7565.24097
574.955	7587.91506
575.159	7521.94687
575.364	7711.54661
575.568	7664.16354
575.772	7802.16148
575.976	7711.54661
576.18	7946.23846
576.383	7655.92186
576.587	7781.57075
576.791	7666.2239
576.995	7730.08477
577.199	7672.40488
577.403	7826.8676
577.607	7880.38727
577.811	7958.58321
578.015	8005.89796
578.219	8106.66312
578.422	8059.37123
578.626	8065.54034
578.83	8116.94255
579.034	8168.33222
579.238	7987.38478
579.442	8147.77785
579.645	8139.55555
579.849	8102.5512
580.053	7818.63256
580.257	8158.05529
580.46	7894.79402
580.664	8065.54034
580.868	7983.27051
581.071	8324.48068
581.275	8225.87387
581.479	8069.65298
581.682	8153.94437
581.886	8229.98339
582.09	8396.3531
582.293	8579.00842
582.497	8283.4
582.7	8248.47526
582.904	8149.83338
583.107	8205.32507
583.311	8092.27106
583.515	8353.2325
583.718	8073.76554
583.922	8353.2325
584.125	8353.2325
584.329	8574.90545
584.532	8365.55354
584.735	8747.16571
584.939	8381.98052
585.142	8652.84894
585.346	8431.25401
585.549	8505.14353
585.753	8535.92354
585.956	8853.73805
586.159	8722.56509
586.363	8788.16089
586.566	8806.60634
586.769	9001.21963
586.973	8636.44203
587.176	8925.44199
587.379	8579.00842
587.582	8798.40854
587.786	8673.35591
587.989	9050.35983
588.192	8900.86025
588.395	9085.16141
588.599	8839.39463
588.802	9140.42424
589.005	8710.26379
589.208	9314.31891
589.411	9001.21963
589.615	9267.27704
589.818	9054.45439
590.021	9052.40712
590.224	9107.67741
590.427	9355.21775
590.63	9187.49013
590.833	9263.18603
591.036	9177.25918
591.239	9209.99673
591.442	9025.79099
591.645	9255.0038
591.848	9238.63853
592.051	9234.54705
592.254	9216.13454
592.457	9381.79847
592.66	9336.81409
592.863	9608.64573
593.066	9287.73111
593.269	9414.5094
593.472	9428.81913
593.675	9614.77403
593.878	9418.59798
594.081	9751.60291
594.284	9637.24323
594.486	9851.62853
594.689	9910.81052
594.892	9898.56699
595.095	9531.00846
595.298	9718.93362
595.5	9720.97557
595.703	10041.37562
595.906	9727.10131
596.109	9782.22683
596.311	9614.77403
596.514	9849.58755
596.717	9886.32293
596.92	10084.2045
597.122	9829.17694
597.325	9937.33636
597.528	9872.03752
597.73	10163.72739
597.933	9667.88002
598.136	10133.14418
598.338	9827.13579
598.541	10155.57217
598.743	9992.42064
598.946	9786.30977
599.148	10124.98812
599.351	10188.19172
599.554	9788.35121
599.756	10063.81057
599.959	10112.75363
600.161	10047.49441
600.363	9998.54046
600.566	10292.14315
600.768	10088.28311
600.971	10359.38719
601.173	10343.08693
601.376	10102.55783
601.578	10047.49441
601.78	10389.94789
601.983	10124.98812
602.185	10192.26892
602.388	10385.8733
602.59	10414.39433
602.792	10371.61182
602.995	10308.44607
603.197	10131.10519
603.399	10683.18395
603.601	10383.83598
603.804	10642.47222
604.006	10361.42466
604.208	10324.74813
604.41	10235.07616
604.613	10556.96156
604.815	10668.9354
605.017	10843.9483
605.219	10697.4319
605.421	10717.78509
605.623	10404.20854
605.826	10556.96156
606.028	10406.24572
606.23	10811.39439
606.432	10587.5036
606.634	10831.74094
606.836	10326.78583
607.038	10845.98282
607.24	10550.85281
607.442	10683.18395
607.644	10563.07019
607.846	10752.38276
608.048	10801.22068
608.25	10894.80784
608.452	10768.66283
608.654	10913.11552
608.856	10658.7575
609.058	10817.49848
609.26	10465.3184
609.462	10927.35419
609.664	10719.82035
609.866	10860.22414
610.067	10727.96124
610.269	11006.67379
610.471	10801.22068
610.673	10941.5923
610.875	10951.76204
611.077	11199.81843
611.278	10760.52289
611.48	11008.7074
611.682	10998.53923
611.884	11067.67737
612.085	11057.51079
612.287	11161.19723
612.489	10931.42227
612.69	11106.3079
612.892	10925.32012
613.094	11155.0988
613.295	10813.4291
613.497	10911.08138
613.699	10947.69417
613.9	11159.16443
614.102	11157.13162
614.304	11106.3079
614.505	10955.82985
614.707	11153.06597
614.908	10845.98282
615.11	11179.49196
615.311	10963.96535
615.513	11232.33861
615.714	11035.14336
615.916	10850.05183
616.117	11051.41072
616.319	11014.80817
616.52	10943.62627
616.722	10992.43819
616.923	10953.79595
617.124	11248.5977
617.326	10968.03304
617.527	11366.45662
617.729	11577.70707
617.93	11411.15292
618.131	11136.80293
618.333	11212.01381
618.534	11222.17634
618.735	11500.53139
618.937	11201.85102
619.138	11350.20223
619.339	11071.74393
619.54	11279.08173
619.742	11132.73707
619.943	11555.36813
620.144	11065.64408
620.345	11144.93454
620.546	11358.32951
620.748	11508.65579
620.949	11250.63004
621.15	11400.99509
621.351	11333.94721
621.552	11216.07885
621.753	11321.75551
621.954	11537.08998
622.155	11232.33861
622.356	11640.65625
622.558	11212.01381
622.759	11695.47587
622.96	11403.02668
623.161	11699.53632
623.362	11376.61529
623.563	11894.39725
623.764	11488.34452
623.965	11630.50375
624.166	11496.46914
624.366	11695.47587
624.567	11356.2977
624.768	11748.259
624.969	11752.319
625.17	11453.81316
625.371	11537.08998
625.572	11567.55314
625.773	11695.47587
625.973	11796.97666
626.174	11545.2137
626.375	11916.72009
626.576	11799.00645
626.777	11821.33363
626.977	11610.19807
627.178	12012.08845
627.379	11557.39899
627.58	11604.10619
627.78	11535.05903
627.981	11626.44269
628.182	11648.77809
628.382	11750.289
628.583	11776.67824
628.784	11685.32458
628.984	11671.1124
629.185	11825.39301
629.386	11512.71793
629.586	11945.12955
629.787	11744.19897
629.987	11849.74855
630.188	11732.01867
630.388	11999.91475
630.589	11878.16183
630.79	11843.65978
630.99	11732.01867
631.191	11861.92587
631.391	11817.27422
631.591	11973.53742
631.792	11991.79879
631.992	12097.29644
632.193	11849.74855
632.393	11943.10036
632.594	11748.259
632.794	11991.79879
632.994	12139.89535
633.195	12214.94253
633.395	12058.75167
633.595	12164.23609
633.796	12010.05952
633.996	11947.15874
634.196	12079.03874
634.397	12358.92431
634.597	11904.54412
634.797	12300.11915
634.997	11979.62462
635.198	12166.26443
635.398	12186.54749
635.598	12310.25839
635.798	12060.78041
635.998	12001.94372
636.199	12133.80999
636.399	12403.53126
636.599	12340.67506
636.799	12577.87322
636.999	12365.00727
637.199	12083.09606
637.399	11918.7494
637.599	12178.43436
637.799	12170.32111
637.999	12614.35745
638.199	12218.99885
638.399	12259.56043
638.599	12239.28
638.799	12454.21703
638.999	12397.44869
639.199	12561.65736
639.399	12513.00737
639.599	12549.4952
639.799	12170.32111
639.999	12466.38099
640.199	12245.36421
640.399	12496.78989
640.599	11837.57093
640.799	12711.63913
640.998	12515.03452
641.198	12600.16937
641.398	12707.586
641.598	12500.8443
641.798	12555.57631
641.997	12478.54473
642.197	12486.65375
642.397	12417.72369
642.597	12679.21343
642.796	12421.77862
642.996	12277.81221
643.196	12517.06167
643.395	12742.03687
643.595	12867.66734
643.795	12563.68436
643.994	12681.24008
644.194	12630.57202
644.394	12756.22203
644.593	13003.40601
644.793	13080.382
644.992	12837.27482
645.192	12565.71136
645.392	12731.90443
645.591	13001.38023
645.791	12614.35745
645.99	12701.50626
646.19	12521.11595
646.389	12691.37324
646.589	12740.01039
646.788	13009.48332
646.987	12772.43331
647.187	13086.45876
647.386	12660.9733
647.586	12774.45969
647.785	12778.51244
647.984	13163.42727
648.184	13015.56059
648.383	13074.30521
648.582	12887.92834
648.782	13311.26951
648.981	12922.37081
649.18	12952.75998
649.38	12902.11072
649.579	13301.14407
649.778	12932.50067
649.977	13145.19849
650.177	12711.63913
650.376	12938.57851
650.575	12922.37081
650.774	13228.23771
650.973	13037.84352
651.173	13254.56565
651.372	13094.56103
651.571	13260.64123
651.77	13175.57958
651.969	13519.83134
652.168	13108.73981
652.367	13268.74193
652.566	13341.64522
652.765	13293.04364
652.964	13199.88371
653.163	13323.41991
653.362	13284.94314
653.561	13728.35445
653.76	13260.64123
653.959	13112.79085
654.158	13135.07123
654.357	13244.43961
654.556	13266.71676
654.755	13714.18408
654.954	13153.30022
655.153	13420.61778
655.352	13114.81637
655.551	13282.918
655.749	13220.13666
655.948	13515.78198
656.147	13716.20843
656.346	13855.88102
656.545	13467.18854
656.743	13359.8702
656.942	13288.99339
657.141	13459.08942
657.34	13410.49343
657.538	13434.79171
657.737	13347.72025
657.936	13641.30546
658.135	13311.26951
658.333	13448.96544
658.532	13434.79171
658.731	13511.73261
658.929	13210.01024
659.128	13410.49343
659.326	13100.63768
659.525	13412.51831
659.724	13378.09485
659.922	13608.91358
660.121	13337.59518
660.319	13497.55969
660.518	13280.89286
660.716	13552.22568
660.915	13424.6675
661.113	13851.83273
661.312	13566.39791
661.51	13712.15973
661.709	13552.22568
661.907	13596.7664
662.105	13374.04496
662.304	13951.01255
662.502	13619.03613
662.701	13981.37246
662.899	13499.58441
663.097	13944.9405
663.296	13683.8185
663.494	13847.78444
663.692	13345.69525
663.891	13712.15973
664.089	13550.20106
664.287	13720.25711
664.485	13657.50107
664.684	14114.94954
664.882	13936.8444
665.08	13985.4204
665.278	13710.13538
665.476	14023.87538
665.675	13868.0258
665.873	13898.38733
666.071	13985.4204
666.269	14203.99553
666.467	13876.12227
666.665	14036.01887
666.863	13501.60912
667.061	13787.05862
667.259	13774.91314
667.457	14114.94954
667.655	13673.69648
667.853	14191.85313
668.051	13596.7664
668.249	13959.10858
668.447	13768.84036
668.645	13916.60396
668.843	13590.69277
669.041	13712.15973
669.239	13521.85601
669.437	13602.84001
669.635	13679.7697
669.833	13823.49442
670.031	13469.21331
670.229	13861.95342
670.426	13928.74826
670.624	13837.66365
670.822	13679.7697
671.02	14098.75892
671.218	13689.89167
671.415	13906.48364
671.613	13588.66821
671.811	13821.47024
672.009	13614.98712
672.206	13868.0258
672.404	13574.49625
672.602	13969.22856
672.799	13809.32506
672.997	14129.11622
673.195	13930.7723
673.392	14216.13786
673.59	14141.25901
673.788	13890.29099
673.985	13702.03794
674.183	13795.15555
674.38	13720.25711
674.578	13720.25711
674.775	13645.35438
674.973	13807.30085
675.17	13702.03794
675.368	13742.52465
675.565	13732.40309
675.763	13944.9405
675.96	14017.8036
676.158	14066.37724
676.355	13809.32506
676.553	14228.28012
676.75	13809.32506
676.947	14201.9718
677.145	14074.47271
677.342	13817.42185
677.539	14025.8993
677.737	13946.96452
677.934	13872.07404
678.131	13787.05862
678.329	14044.11449
678.526	13888.26689
678.723	13928.74826
678.92	13997.56417
679.118	13791.10709
679.315	13920.65207
679.512	13853.85688
679.709	14084.592
679.906	13687.86729
680.104	13971.25255
680.301	13606.88906
680.498	13718.23277
680.695	13746.57326
680.892	13985.4204
681.089	13700.01357
681.286	13821.47024
681.483	13446.94064
681.68	13829.56696
681.877	13700.01357
682.075	13833.61531
682.272	13448.96544
682.469	13693.94044
682.665	13590.69277
682.862	13521.85601
683.059	13430.74203
683.256	13874.09816
683.453	13612.96261
683.65	13442.89101
683.847	13641.30546
684.044	13497.55969
684.241	13689.89167
684.438	13568.4225
684.635	13337.59518
684.831	13714.18408
685.028	13568.4225
685.225	14015.77967
685.422	13540.07791
685.619	13762.76755
685.815	13521.85601
686.012	13859.92929
686.209	13359.8702
686.405	13430.74203
686.602	13331.52009
686.799	13361.89518
686.996	13604.86453
687.192	13542.10254
687.389	13420.61778
687.586	13821.47024
687.782	13570.44709
687.979	13831.59114
688.175	13588.66821
688.372	13556.2749
688.568	13102.66322
688.765	13647.37884
688.962	13738.47604
689.158	13556.2749
689.355	13481.36185
689.551	13540.07791
689.748	13076.33081
689.944	13339.6202
690.14	13337.59518
690.337	13220.13666
690.533	13325.44496
690.73	13487.43607
690.926	13489.4608
691.123	13639.28099
691.319	13600.81547
691.515	13604.86453
691.712	13376.06991
691.908	13402.39388
692.104	13297.09386
692.301	13426.69235
692.497	13448.96544
692.693	13791.10709
692.889	13347.72025
693.086	13216.0861
693.282	13258.61604
693.478	13519.83134
693.674	13096.58658
693.87	13519.83134
694.067	13256.59085
694.263	13629.1586
694.459	13339.6202
694.655	13560.32412
694.851	13094.56103
695.047	13440.86619
695.243	13280.89286
695.439	13007.45756
695.635	12946.68224
695.831	13359.8702
696.027	13343.67024
696.224	13280.89286
696.42	13345.69525
696.615	13576.52083
696.811	13299.11897
697.007	13224.18719
697.203	13193.80774
697.399	13378.09485
697.595	13177.60495
697.791	13627.13412
697.987	12999.35445
698.183	13418.59292
698.379	13094.56103
698.575	13420.61778
698.77	13110.76534
698.966	13124.94386
699.162	13120.89288
699.358	13420.61778
699.554	13453.01505
699.749	13396.31918
699.945	13207.98494
700.141	13363.92015
700.337	13250.51525
700.532	13647.37884
700.728	13414.54319
700.924	13550.20106
701.119	13258.61604
701.315	13268.74193
701.511	12845.37961
701.706	13070.25399
701.902	12782.56517
702.097	13489.4608
702.293	13143.17305
702.489	13335.57016
702.684	13347.72025
702.88	13216.0861
703.075	13106.71429
703.271	13230.26296
703.466	13244.43961
703.662	13210.01024
703.857	12908.1888
704.053	12964.91532
704.248	13333.54512
704.443	13347.72025
704.639	13122.91837
704.834	13392.26936
705.03	13102.66322
705.225	13313.29459
705.42	12958.83767
705.616	13242.41439
705.811	13175.57958
706.006	13070.25399
706.202	13003.40601
706.397	13268.74193
706.592	12742.03687
706.787	13084.43318
706.983	12733.93093
707.178	13282.918
707.373	12914.26684
707.568	13086.45876
707.763	12966.94119
707.959	13264.69159
708.154	13015.56059
708.349	12936.55257
708.544	13193.80774
708.739	13191.7824
708.934	12817.01246
709.129	13045.94625
709.324	12764.32772
709.519	13007.45756
709.714	12527.19733
709.909	12867.66734
710.104	12810.93364
710.299	12887.92834
710.494	12995.30286
710.689	12936.55257
710.884	12853.48431
711.079	13116.84187
711.274	12829.16994
711.469	13234.31346
711.664	12942.63039
711.859	13187.73172
712.054	13124.94386
712.249	13086.45876
712.443	12817.01246
712.638	12908.1888
712.833	12519.08882
713.028	12665.02671
713.223	12711.63913
713.417	13258.61604
713.612	12981.12215
713.807	12985.17381
714.002	13021.63781
714.196	13434.79171
714.391	13021.63781
714.586	13118.86738
714.78	13212.03553
714.975	13078.35641
715.17	13222.16193
715.364	13163.42727
715.559	12934.52662
715.754	12782.56517
715.948	12904.13675
716.143	12948.70816
716.337	12588.00793
716.532	13007.45756
716.726	12891.98047
716.921	12814.98619
717.115	12845.37961
717.31	13080.382
717.504	12932.50067
717.699	13143.17305
717.893	12596.11558
718.088	12920.34483
718.282	12709.61257
718.476	13023.66354
718.671	12707.586
718.865	12894.00653
719.059	12729.87793
719.254	12423.80607
719.448	12348.78591
719.642	12506.92586
719.837	12407.58627
720.031	12602.19626
720.225	12440.02543
720.419	12792.6969
720.614	12318.36966
720.808	12604.22314
721.002	12405.55877
721.196	12502.87149
721.39	12470.4356
721.585	12814.98619
721.779	12632.59882
721.973	13143.17305
722.167	12510.9802
722.361	12685.29336
722.555	12746.0898
722.749	12669.08009
722.943	12531.25154
723.137	12478.54473
723.331	12324.45303
723.525	12354.86897
723.719	12162.20773
723.913	12442.05282
724.107	12365.00727
724.301	12567.73835
724.495	12423.80607
724.689	12519.08882
724.883	12458.27171
725.077	12721.77185
725.271	12251.44835
725.465	12440.02543
725.659	12358.92431
725.853	12235.22383
726.046	12225.08327
726.24	12129.75305
726.434	12182.49094
726.628	12356.89664
726.822	12243.33615
727.015	12667.0534
727.209	12210.88619
727.403	12168.29277
727.596	12427.86095
727.79	12644.75946
727.984	12671.10677
728.177	12910.21482
728.371	12658.94659
728.565	12344.7305
728.758	12259.56043
728.952	12527.19733
729.146	12389.3385
729.339	12827.14371
729.533	12375.1454
729.726	12624.4916
729.92	12360.95197
730.113	12506.92586
730.307	12429.88838
730.5	12600.16937
730.694	12632.59882
730.887	12450.16232
731.081	12650.83969
731.274	12600.16937
731.468	12391.36605
731.661	12440.02543
731.854	12342.70278
732.048	12367.03491
732.241	12170.32111
732.435	12068.8953
732.628	12350.8136
732.821	12231.16763
733.014	12229.13952
733.208	11941.07116
733.401	12089.18198
733.594	11965.42105
733.788	12095.26784
733.981	12241.30808
734.174	12158.151
734.367	12103.3822
734.56	12188.57576
734.754	12223.05514
734.947	12202.77341
735.14	12091.21061
735.333	12283.89601
735.526	12174.37775
735.719	12083.09606
735.912	12105.41077
736.105	12340.67506
736.298	12243.33615
736.491	12097.29644
736.684	12077.01006
736.877	12113.52499
737.07	12389.3385
737.263	12362.97962
737.456	12208.858
737.649	12109.4679
737.842	12328.50858
738.035	12255.50441
738.228	12154.09424
738.421	12365.00727
738.614	12429.88838
738.807	12324.45303
739	12066.86659
739.192	12008.03058
739.385	12083.09606
739.578	12287.95184
739.771	12340.67506
739.964	12218.99885
740.156	12606.25001
740.349	12332.5641
740.542	12354.86897
740.735	12249.42031
740.927	11896.42664
741.12	11790.88722
741.313	11817.27422
741.505	12068.8953
741.698	12032.37731
741.891	12016.14629
742.083	12056.72292
742.276	12040.49264
742.468	12081.0674
742.661	11863.95539
742.854	11790.88722
743.046	11754.34898
743.239	12091.21061
743.431	12377.17301
743.624	12022.23298
743.816	12010.05952
744.009	12133.80999
744.201	12117.58205
744.393	11900.4854
744.586	11827.42268
744.778	11669.08206
744.971	11937.01273
745.163	12243.33615
745.355	11941.07116
745.548	11839.60055
745.74	11788.85739
745.932	11894.39725
746.125	11624.41214
746.317	11815.2445
746.509	11620.35103
746.702	11902.51476
746.894	11622.38159
747.086	11823.36332
747.278	11928.89577
747.471	12022.23298
747.663	11699.53632
747.855	12202.77341
748.047	11967.45016
748.239	11792.91704
748.431	12064.83787
748.623	11868.01442
748.815	11900.4854
749.008	11959.33369
749.2	12038.46382
749.392	12012.08845
749.584	11577.70707
749.776	11890.33844
749.968	11699.53632
750.16	11987.74077
750.352	11821.33363
750.544	11734.04874
750.736	11622.38159
750.928	11963.39194
751.12	11851.77813
751.311	11934.9835
751.503	11916.72009
751.695	11703.59674
751.887	11398.9635
752.079	11760.43888
752.271	11340.04292
752.463	11652.83896
752.654	11738.10886
752.846	11780.73799
753.038	11400.99509
753.23	11555.36813
753.421	11451.78182
753.613	11636.59528
753.805	11537.08998
753.997	11567.55314
754.188	11342.0748
754.38	11409.12138
754.572	11618.32045
754.763	11421.31051
754.955	11275.01733
755.146	11723.89829
755.338	11533.02807
755.53	11547.2446
755.721	11360.3613
755.913	11646.74765
756.104	11358.32951
756.296	11571.61474
756.487	11411.15292
756.679	11606.13682
756.87	11130.70412
757.062	11124.60521
757.253	11189.65532
757.445	11260.79159
757.636	11370.52012
757.827	11490.37569
758.019	11484.28215
758.21	11315.65953
758.401	11212.01381
758.593	11512.71793
758.784	11398.9635
758.975	11331.91528
759.167	11285.17826
759.358	11528.96611
759.549	11260.79159
759.74	11122.57222
759.932	11104.27481
760.123	11067.67737
760.314	10711.67926
760.505	10835.8101
760.696	10762.55789
760.888	10990.40449
761.079	10894.80784
761.27	10943.62627
761.461	10868.36178
761.652	11051.41072
761.843	10970.06686
762.034	11165.2628
762.225	10780.87238
762.416	11181.52465
762.607	10984.30332
762.798	11098.17548
762.989	10988.37078
763.18	11130.70412
763.371	10829.70633
763.562	10809.35967
763.753	10752.38276
763.944	10874.46489
764.135	10760.52289
764.326	11085.97653
764.517	10585.46755
764.708	11061.57746
764.899	10563.07019
765.089	10638.40078
765.28	10597.68365
765.471	10721.85559
765.662	10283.99137
765.853	10410.32005
766.043	10514.19795
766.234	10607.8634
766.425	10495.86898
766.615	10898.87629
766.806	10626.18616
766.997	10677.0775
767.187	10385.8733
767.378	10772.73273
767.569	10514.19795
767.759	10894.80784
767.95	10630.25775
768.141	10668.9354
768.331	10585.46755
768.522	10528.4531
768.712	10524.38027
768.903	10514.19795
769.093	10365.49956
769.284	10365.49956
769.474	10251.38209
769.665	10041.37562
769.855	9998.54046
770.046	10275.83938
770.236	10186.1531
770.426	10247.30569
770.617	10300.29472
770.807	10420.50564
770.998	10471.42875
771.188	10389.94789
771.378	10292.14315
771.569	10544.74395
771.759	9941.41704
771.949	10155.57217
772.139	9955.69896
772.33	10006.70003
772.52	10129.06618
772.71	10053.61308
772.9	10267.68717
773.09	10247.30569
773.281	10208.57715
773.471	9923.05352
773.661	9914.89158
773.851	10129.06618
774.041	9874.07834
774.231	9867.95584
774.421	9851.62853
774.611	9949.57823
774.802	9831.21806
774.992	9704.63958
775.182	9680.13376
775.372	9706.68163
775.562	9606.60294
775.752	9978.14054
775.942	9731.18506
776.131	9698.51334
776.321	9622.94486
776.511	9894.48569
776.701	9616.81676
776.891	9643.37087
777.081	9655.62572
777.271	9671.96466
777.461	9631.11545
777.651	9622.94486
777.84	9806.72353
778.03	9420.64224
778.22	9835.30028
778.41	9712.8077
778.599	9344.99366
778.789	9765.8945
778.979	9688.30262
779.169	9714.84969
779.358	9847.54656
779.548	10092.36167
779.738	9647.45588
779.927	9757.72797
780.117	9708.72367
780.307	9420.64224
780.496	9467.6558
780.686	9608.64573
780.875	9338.85901
781.065	9381.79847
781.254	8972.54985
781.444	9074.92617
781.633	8839.39463
781.823	9584.13116
782.012	9430.86331
782.202	9547.35504
782.391	9195.67459
782.581	9169.07411
782.77	9081.06736
782.96	9504.44308
783.149	9050.35983
783.338	9230.4555
783.528	9400.19888
783.717	9167.02781
783.906	9167.02781
784.096	9054.45439
784.285	9277.50428
784.474	9406.33206
784.663	9377.70931
784.853	9175.21294
785.042	9263.18603
785.231	9471.74354
785.42	9064.6905
785.61	9122.00468
785.799	8816.85318
785.988	9107.67741
786.177	8710.26379
786.366	8816.85318
786.555	8857.83601
786.744	8956.16557
786.933	8853.73805
787.122	8773.8134
787.312	8743.06579
787.501	9031.93344
787.69	8999.17191
787.879	8964.35786
788.068	8730.76559
788.257	8786.1113
788.445	8718.46473
788.634	8935.68363
788.823	8796.35905
789.012	8741.0158
789.201	8734.86573
789.39	8825.05032
789.579	8564.64772
789.768	8745.11576
789.957	8273.12861
790.145	8904.95739
790.334	8751.26556
790.523	8888.56842
790.712	8656.95048
790.9	8634.39108
791.089	8342.96443
791.278	8583.1113
791.467	8225.87387
791.655	8418.93668
791.844	8373.76719
792.033	8386.08707
792.221	8088.15887
792.41	8266.96554
792.599	8219.70943
792.787	8281.34576
792.976	8256.69336
793.164	8180.66389
793.353	8057.31482
793.541	8207.38003
793.73	8084.04659
793.918	8283.4
794.107	8145.72231
794.295	8410.72474
794.484	8172.44286
794.672	8435.35964
794.861	8459.99177
795.049	8511.29988
795.238	8316.26517
795.426	8336.80335
795.614	7892.73597
795.803	8102.5512
795.991	8024.40949
796.179	8077.87802
796.368	8155.99984
796.556	8110.77495
796.744	8057.31482
796.932	8240.25685
797.121	7911.25764
797.309	8484.62115
797.497	8320.37296
797.685	8217.65458
797.874	8112.83084
798.062	8223.81907
798.25	7896.85204
798.438	8205.32507
798.626	8059.37123
798.814	8248.47526
799.002	8042.91938
799.19	8213.54482
799.378	7958.58321
799.566	8028.52294
799.755	7900.96803
799.943	8100.49522
800.131	8129.27721
800.318	8108.71905
800.506	8016.18235
800.694	8010.01177
800.882	7695.06681
801.07	8158.05529
801.258	8102.5512
801.446	7975.04174
801.634	7921.54673
801.822	7975.04174
802.01	7898.91005
802.197	8040.8628
802.385	7884.50358
802.573	7944.18093
802.761	7964.75531
802.949	8026.46623
803.136	7760.97793
803.324	8281.34576
803.512	7960.6406
803.699	8071.70927
803.887	7919.48895
804.075	7890.67791
804.262	7785.68906
804.45	8182.71909
804.638	8001.78406
804.825	8229.98339
805.013	8121.05419
805.201	8131.33292
805.388	7795.98448
805.576	7882.44544
805.763	7966.81264
805.951	7991.49896
806.138	7942.12337
806.326	7950.35346
806.513	8024.40949
806.701	7933.89296
806.888	7748.62124
807.075	8042.91938
807.263	7676.52542
807.45	7968.86995
807.638	7950.35346
807.825	8328.58831
808.012	7940.0658
808.2	8026.46623
808.387	8003.84102
808.574	8289.5626
808.761	7962.69797
808.949	8024.40949
809.136	8003.84102
809.323	8051.14547
809.51	8065.54034
809.698	8012.06865
809.885	7948.29597
810.072	8197.10499
810.259	8032.63631
810.446	8174.49814
810.633	7964.75531
810.82	8390.19354
811.008	8036.7496
811.195	8262.85673
811.382	8036.7496
811.569	8024.40949
811.756	7771.2746
811.943	7950.35346
812.13	7760.97793
812.317	8081.99042
812.504	7970.92723
812.691	8248.47526
812.878	8038.80621
813.064	8402.51249
813.251	8281.34576
813.438	8176.55341
813.625	7999.72708
813.812	8012.06865
813.999	7917.43115
814.186	8139.55555
814.372	7938.00821
814.559	7993.55602
814.746	7798.0435
814.933	7835.10231
815.12	7789.80729
815.306	8131.33292
815.493	7750.68074
815.68	7925.66222
815.866	7789.80729
816.053	8073.76554
816.24	7952.41093
816.426	7841.27812
816.613	7513.6993
816.799	7830.98499
816.986	7540.50264
817.173	7845.39522
817.359	7983.27051
817.546	7960.6406
817.732	7758.91854
817.919	7888.61982
818.105	7777.45235
818.292	7752.74022
818.478	7649.74038
818.665	8164.22151
818.851	8090.21498
819.037	8005.89796
819.224	7826.8676
819.41	7804.22044
819.597	7587.91506
819.783	7820.69135
819.969	7956.5258
820.156	7878.32908
820.342	7843.33668
820.528	7911.25764
820.714	7900.96803
820.901	7940.0658
821.087	7880.38727
821.273	8059.37123
821.459	7903.02599
821.646	7859.80444
821.832	7886.56171
822.018	8326.5345
822.204	7507.5134
822.39	7972.9845
822.576	7571.42507
822.762	7596.15955
822.948	7472.45629
823.134	7451.83155
823.32	7241.33477
823.507	7598.22061
823.693	7499.26523
823.879	7730.08477
824.065	7606.46467
824.25	7748.62124
824.436	7744.50217
824.622	7880.38727
824.808	7526.07053
824.994	7491.01671
825.18	7297.07667
825.366	7682.70607
825.552	7439.45566
825.738	7697.12686
825.923	7381.6912
826.109	7742.4426
826.295	7398.19707
826.481	7633.2555
826.667	7515.76123
826.852	7437.39294
827.038	7292.94819
827.224	7579.67024
827.409	7261.98179
827.595	7435.33019
827.781	7356.92978
827.966	7653.86139
828.152	7274.36894
828.338	7414.70155
828.523	7003.73441
828.709	7183.51135
828.894	7138.06647
829.08	7276.43339
829.266	7156.65886
829.451	7142.19827
829.637	6898.26891
829.822	7158.72457
830.008	7018.20549
830.193	7158.72457
830.378	7038.87655
830.564	7261.98179
830.749	7274.36894
830.935	7270.23998
831.12	7158.72457
831.305	7171.11836
831.491	7096.74359
831.676	7408.51253
831.861	7220.68554
832.047	7218.62049
832.232	6970.65351
832.417	7022.33988
832.602	6935.49874
832.788	6997.53218
832.973	7018.20549
833.158	7183.51135
833.343	6740.99512
833.528	6935.49874
833.714	6854.82483
833.899	7049.21124
834.084	6740.99512
834.269	7119.47228
834.454	6612.59492
834.639	6788.60503
834.824	6776.18622
835.009	6846.54863
835.194	6705.7974
835.379	6867.23844
835.564	6658.1664
835.749	6867.23844
835.934	6656.09521
836.119	6734.78424
836.304	6674.73508
836.489	6728.57315
836.674	6463.37372
836.859	6728.57315
837.044	6693.37309
837.228	6714.07981
837.413	6902.40592
837.598	6989.26223
837.783	6618.80987
837.968	6807.23171
838.152	6654.024
838.337	6558.72333
838.522	6405.31077
838.707	6390.79218
838.891	6297.4311
839.076	6596.02071
839.261	6322.33201
839.445	6712.00924
839.63	6527.63645
839.815	6508.98182
839.999	6413.60659
840.184	6529.70907
840.368	6243.46756
840.553	6535.92679
840.737	6257.99776
840.922	6430.19712
841.106	6268.37578
841.291	6450.93319
841.475	6255.92209
841.66	6295.35587
841.844	6085.63712
842.029	6116.79861
842.213	6112.64405
842.397	6409.45872
842.582	6212.32755
842.766	6399.08865
842.951	5738.34776
843.135	6131.33883
843.319	5823.67135
843.504	6131.33883
843.688	6056.54828
843.872	5958.85915
844.056	5967.17515
844.241	6033.68953
844.425	6042.00213
844.609	5881.91832
844.793	5944.30525
844.977	6164.56929
845.161	5698.79411
845.346	5938.06752
845.53	5619.66126
845.714	6085.63712
845.898	5640.48899
846.082	6181.18227
846.266	5948.46363
846.45	6050.31436
846.634	5742.51081
846.818	5969.25409
847.002	5921.43251
847.186	5888.15797
847.37	5850.71688
847.554	5890.2378
847.738	5667.56153
847.922	5804.94518
848.106	5875.67845
848.29	5836.1544
848.473	5615.49542
848.657	5725.85806
848.841	5571.74851
849.025	5684.21957
849.209	5498.81388
849.392	5721.69463
849.576	5586.33197
849.76	5527.99119
849.944	5477.97012
850.127	5792.46001
850.311	5215.13756
850.495	5590.49846
850.678	5455.03926
850.862	5900.63663
851.046	5375.8017
851.229	5515.4872
851.413	5411.25428
851.596	5632.15818
851.78	5538.41054
851.964	5550.91299
852.147	5584.24869
852.331	5619.66126
852.514	5306.96263
852.698	5294.4437
852.881	5002.09697
853.065	5438.36049
853.248	5233.92364
853.431	5317.39443
853.615	4755.33913
853.798	4977.01753
853.982	5052.24587
854.165	5325.73945
854.348	5125.35578
854.532	5484.2235
854.715	5208.87511
854.898	5133.70939
855.081	4970.74716
855.265	5415.42472
855.448	5173.38395
855.631	5258.96881
855.814	4809.73681
855.997	4874.57548
856.181	4851.57072
856.364	5175.47185
856.547	5152.50365
856.73	5102.38144
856.913	4876.66668
857.096	4895.48649
857.279	4654.87248
857.462	5081.49324
857.645	4891.30447
857.828	4977.01753
858.011	4740.69099
858.194	4954.02514
858.377	4520.83662
858.56	4939.39216
858.743	4554.35413
858.926	4983.2877
859.109	4776.26313
859.292	4939.39216
859.475	4709.29837
859.658	5033.44159
859.841	4679.99401
860.023	4974.92743
860.206	4470.54973
860.389	4897.57747
860.572	4615.09012
860.755	4751.15406
860.937	4606.71386
861.12	4776.26313
861.303	4449.59312
861.486	4625.55995
861.668	4346.87413
861.851	4447.49734
862.034	4304.93303
862.216	4445.40154
862.399	4118.19147
862.581	4403.48086
862.764	4143.37988
862.947	4715.5773
863.129	4491.50415
863.312	4489.4088
863.494	4351.06776
863.677	4445.40154
863.859	4328.0017
864.042	4413.96185
864.224	4206.33765
864.406	4361.55147
864.589	4302.83574
864.771	4328.0017
864.954	4143.37988
865.136	4367.84143
865.318	4197.94438
865.501	4378.32427
865.683	4210.53415
865.865	4275.56913
866.048	4242.00525
866.23	4271.37395
866.412	4086.70173
866.594	4193.74761
866.777	4225.22126
866.959	4292.34902
867.141	4227.31933
867.323	4248.29889
867.505	4113.99311
867.687	4034.20844
867.869	3971.1995
868.052	4193.74761
868.234	3918.67804
868.416	4172.76253
868.598	3861.94072
868.78	4181.15682
868.962	3765.24378
869.144	4126.58794
869.326	3731.60035
869.508	3966.99825
869.69	3826.20976
869.872	3937.58722
870.054	3716.87979
870.236	3971.1995
870.417	3950.19243
870.599	4059.40683
870.781	3828.31174
870.963	3908.17223
871.145	4030.00841
871.327	3891.36189
871.508	3718.98279
871.69	4113.99311
871.872	3803.08668
872.054	3979.60175
872.235	3836.71946
872.417	3893.46325
872.599	3859.83905
872.78	3924.98128
872.962	3641.1592
873.144	3855.63567
873.325	3657.98813
873.507	3948.09161
873.689	3647.47019
873.87	3950.19243
874.052	3782.06363
874.233	3876.65179
874.415	3685.33255
874.596	3744.21722
874.778	3458.0675
874.959	3533.8465
875.141	3403.3237
875.322	3868.24558
875.503	3660.09166
875.685	3988.00368
875.866	3655.88458
876.048	3832.51564
876.229	3708.46762
876.41	3752.62808
876.592	3723.18872
876.773	3700.05513
876.954	3443.32997
877.136	3887.15911
877.317	3599.08158
877.498	3596.9775
877.679	3596.9775
877.86	3782.06363
878.042	3664.29867
878.223	3786.2684
878.404	3758.93602
878.585	3992.20452
878.766	3809.39321
878.947	4044.70813
879.128	3601.18564
879.309	3782.06363
879.49	3582.24843
879.672	3878.7533
879.853	3716.87979
880.034	3843.02504
880.215	3649.57382
880.396	3912.37461
880.576	3605.3937
880.757	3849.33044
880.938	3771.55137
881.119	3910.27343
881.3	3645.36654
881.481	3882.95624
881.662	4002.70627
881.843	4101.39753
882.023	3950.19243
882.204	3941.78904
882.385	3807.29105
882.566	3895.5646
882.747	3649.57382
882.927	3937.58722
883.108	3977.50122
883.289	4013.20751
883.469	3809.39321
883.65	3874.55027
883.831	3710.57069
884.011	3836.71946
884.192	3773.65386
884.373	4074.10452
884.553	3798.88223
884.734	3962.79691
884.914	3639.05549
885.095	4046.80801
885.275	3712.67374
885.456	4000.60596
885.636	3786.2684
885.817	4036.30842
885.997	3828.31174
886.178	4130.78605
886.358	3878.7533
886.538	4103.49684
886.719	3647.47019
886.899	3912.37461
887.08	3786.2684
887.26	3744.21722
887.44	3708.46762
887.621	3941.78904
887.801	3563.30971
887.981	4048.90786
888.161	3941.78904
888.342	3824.10776
888.522	3588.561
888.702	3941.78904
888.882	3782.06363
889.062	3996.40528
889.242	3693.74557
889.423	3849.33044
889.603	3588.561
889.783	4025.80831
889.963	3782.06363
890.143	4168.56527
890.323	3870.34717
890.503	3988.00368
890.683	3916.57692
890.863	3996.40528
891.043	3582.24843
891.223	3945.99078
891.403	3605.3937
891.583	4065.70596
891.763	3689.5391
891.943	3849.33044
892.122	3624.32905
892.302	3882.95624
892.482	3744.21722
892.662	3996.40528
892.842	3792.5754
893.022	3868.24558
893.201	3704.26141
893.381	3962.79691
893.561	3590.66515
893.741	3975.40066
893.92	3773.65386
894.1	3750.52539
894.28	3546.47403
894.459	3521.21831
894.639	3397.00633
894.819	3538.05575
894.998	3529.63718
895.178	3641.1592
895.357	3392.79467
895.537	3571.7271
895.716	3571.7271
895.896	3828.31174
896.075	3495.95995
896.255	3605.3937
896.434	3430.6971
896.614	3763.14122
896.793	3293.80045
896.973	3470.69897
897.152	3243.2356
897.331	3531.74185
897.511	3373.8413
897.69	3700.05513
897.87	3592.76929
898.049	3508.58946
898.228	3293.80045
898.407	3302.22697
898.587	3051.42447
898.766	3217.94955
898.945	3184.2311
899.124	3359.09881
899.304	3133.64559
899.483	3213.73498
899.662	2823.6147
899.841	3040.88158
900.02	2926.9941
900.199	3083.05082
900.378	2956.52468
900.557	3146.29284
900.737	2821.50456
900.916	3154.72402
901.095	3051.42447
901.274	2941.75975
901.453	2832.05511
901.632	2781.40933
901.811	2720.20193
901.989	2832.05511
902.168	2922.7752
902.347	2986.05235
902.526	2574.52697
902.705	2929.10352
902.884	2779.29892
903.063	3051.42447
903.242	2753.97292
903.42	2832.05511
903.599	2661.09467
903.778	2891.13167
903.957	2677.98348
904.135	2952.3062
904.314	2585.08511
904.493	2977.61617
904.672	2424.57037
904.85	2563.96854
905.029	2496.38767
905.207	2525.95575
905.386	2437.24492
905.565	2456.25603
905.743	2361.19195
905.922	2629.42596
906.1	2137.18605
906.279	2411.89543
906.457	2392.88232
906.636	2428.79526
906.814	2257.65464
906.993	2297.80448
907.171	2293.57834
907.35	2369.64294
907.528	2206.9344
907.707	2206.9344
907.885	2020.92009
908.063	2149.86823
908.242	1881.37458
908.42	2061.08717
908.598	1832.73944
908.777	1953.2649
908.955	1940.57885
909.133	2023.03421
909.311	1786.21658
909.49	2164.66374
909.668	1858.11462
909.846	2101.25168
910.024	1798.90484
910.202	2071.65703
910.38	1978.63635
910.559	2065.31514
910.737	2094.91009
910.915	2190.02654
911.093	2075.88493
911.271	2010.3494
911.449	1910.97725
911.627	2058.97318
911.805	1919.43496
911.983	1989.20753
912.161	1938.46448
912.339	2173.11814
912.517	1938.46448
912.695	2145.64087
912.872	2145.64087
913.05	2280.89969
913.228	2204.82095
913.406	2242.86177
913.584	2061.08717
913.762	2206.9344
913.939	2141.41348
914.117	2113.93465
914.295	1953.2649
914.473	2209.04784
914.65	2105.47937
914.828	2137.18605
915.006	2061.08717
915.184	2223.84171
915.361	1910.97725
915.539	2042.06097
915.716	1858.11462
915.894	2097.02396
916.072	1815.82228
916.249	2124.50359
916.427	1866.57286
916.604	1974.40784
916.782	1798.90484
916.959	2012.46355
917.137	1841.19791
917.314	1953.2649
917.492	1627.60261
917.669	1680.47585
917.847	1612.79784
918.024	1809.47828
918.201	1665.6715
918.379	1917.32054
918.556	1583.188
918.733	1872.91648
918.911	1648.75209
919.088	1779.8724
919.265	1545.11775
919.442	1705.85439
919.62	1420.33006
919.797	1741.80654
919.974	1665.6715
920.151	1623.37268
920.328	1574.72799
920.506	1792.56073
920.683	1748.15094
920.86	1507.04711
921.037	1570.49797
921.214	1504.93207
921.391	1394.94951
921.568	1731.23248
921.745	1659.32674
921.922	1748.15094
922.099	1481.66655
922.276	1621.25772
922.453	1498.58693
922.63	1536.65764
922.807	1234.21057
922.984	1373.79913
923.161	1191.91316
923.338	1498.58693
923.514	1232.09567
923.691	1426.67521
923.868	1418.21501
924.045	1477.43645
924.222	1304.00377
924.399	1413.98491
924.575	1270.16431
924.752	1420.33006
924.929	1361.10895
925.105	1350.53383
925.282	1223.6361
925.459	1409.75482
925.635	1299.7738
925.812	1375.91416
925.989	1168.65017
926.165	1327.2687
926.342	1149.61717
926.518	1304.00377
926.695	1098.86419
926.871	1276.50916
927.048	1086.17637
927.224	1225.75098
927.401	969.88074
927.577	1067.14499
927.754	1090.40563
927.93	1033.3125
928.107	1007.93912
928.283	1098.86419
928.459	1096.74954
928.636	1062.91585
928.812	946.62393
928.988	1174.99458
929.165	904.34106
929.341	1147.50241
929.517	965.65217
929.693	889.54279
929.87	779.6259
930.046	885.31478
930.222	840.92273
930.398	957.1951
930.574	838.80892
930.751	948.73815
930.927	878.97283
931.103	969.88074
931.279	764.83132
931.455	919.13972
931.631	887.42878
931.807	1020.6257
931.983	804.98915
932.159	843.03655
932.335	769.0583
932.511	792.30735
932.687	728.90371
932.863	762.71785
933.039	642.26777
933.215	703.54489
933.391	642.26777
933.566	699.31857
933.742	507.07284
933.918	625.3655
934.094	532.41767
934.27	741.5837
934.445	538.7542
934.621	583.11332
934.797	492.28931
934.973	547.20309
935.148	490.17744
935.324	498.62502
935.5	431.05109
935.675	393.0478
935.851	431.05109
936.027	479.61829
936.202	355.04985
936.378	450.05468
936.553	361.38246
936.729	403.60374
936.904	344.49584
937.08	378.27017
937.255	201.00661
937.431	222.10244
937.606	205.22562
937.782	270.63026
937.957	222.10244
938.133	327.61034
938.308	217.88312
938.483	308.61551
938.659	253.74986
938.834	139.84024
939.009	238.98052
939.185	184.1314
939.36	179.9128
939.535	222.10244
939.71	144.05805
939.886	179.9128
940.061	116.64384
940.236	91.34168
940.411	165.14835
940.586	182.02209
940.761	93.45007
940.937	198.89714
941.112	135.62252
941.287	112.42659
941.462	108.20943
941.637	99.77538
941.812	184.1314
941.987	135.62252
942.162	160.93012
942.337	103.99236
942.512	230.54133
942.687	167.25749
942.862	169.36666
943.037	99.77538
943.212	59.7185
943.386	93.45007
943.561	34.42366
943.736	87.12496
943.911	51.28651
944.086	144.05805
944.26	150.38492
944.435	173.58505
944.61	-1.40491
944.785	144.05805
944.959	122.96987
945.134	74.47535
945.309	51.28651
945.483	116.64384
945.658	76.58356
945.833	103.99236
946.007	66.04272
946.182	108.20943
946.357	110.318
946.531	112.42659
946.706	101.88386
946.88	85.01664
947.055	127.18734
947.229	13.34719
947.404	66.04272
947.578	76.58356
947.752	66.04272
947.927	152.49392
948.101	125.07859
948.276	85.01664
948.45	108.20943
948.624	125.07859
948.799	19.66988
948.973	112.42659
949.147	82.90833
949.321	25.99279
949.496	127.18734
949.67	133.51369
949.844	101.88386
950.018	85.01664
950.193	72.36716
950.367	91.34168
950.541	137.73137
950.715	66.04272
950.889	76.58356
951.063	87.12496
951.237	108.20943
951.411	74.47535
951.585	116.64384
951.759	66.04272
951.933	74.47535
952.107	97.66692
952.281	135.62252
952.455	141.94913
952.629	152.49392
952.803	114.5352
952.977	114.5352
953.151	116.64384
953.325	163.03922
953.499	150.38492
953.672	133.51369
953.846	163.03922
954.02	74.47535
954.194	103.99236
954.368	59.7185
954.541	133.51369
954.715	93.45007
954.889	82.90833
955.062	66.04272
955.236	133.51369
955.41	175.69428
955.583	101.88386
955.757	57.61047
955.93	152.49392
956.104	93.45007
956.278	68.15085
956.451	19.66988
956.625	101.88386
956.798	82.90833
956.972	160.93012
957.145	158.82104
957.319	156.71198
957.492	40.74705
957.665	59.7185
957.839	74.47535
958.012	125.07859
958.185	127.18734
958.359	125.07859
958.532	230.54133
958.705	44.96277
958.879	61.82655
959.052	129.2961
959.225	182.02209
959.398	95.55848
959.572	91.34168
959.745	108.20943
959.918	125.07859
960.091	110.318
960.264	82.90833
960.438	118.75249
960.611	85.01664
960.784	82.90833
960.957	108.20943
961.13	108.20943
961.303	108.20943
961.476	108.20943
961.649	110.318
961.822	154.60294
961.995	89.23331
962.168	49.17857
962.341	66.04272
962.514	99.77538
962.686	-9.83416
962.859	70.25899
963.032	57.61047
963.205	103.99236
963.378	137.73137
963.551	163.03922
963.723	74.47535
963.896	57.61047
964.069	141.94913
964.242	91.34168
964.414	23.88513
964.587	66.04272
964.76	32.3159
964.932	108.20943
965.105	59.7185
965.278	108.20943
965.45	144.05805
965.623	118.75249
965.795	158.82104
965.968	68.15085
966.14	82.90833
966.313	173.58505
966.485	154.60294
966.658	120.86117
966.83	66.04272
967.003	59.7185
967.175	49.17857
967.348	74.47535
967.52	99.77538
967.692	57.61047
967.865	72.36716
968.037	68.15085
968.209	116.64384
968.382	196.78769
968.554	110.318
968.726	154.60294
968.898	125.07859
969.071	32.3159
969.243	152.49392
969.415	108.20943
969.587	93.45007
969.759	78.6918
969.932	25.99279
970.104	57.61047
970.276	51.28651
970.448	108.20943
970.62	127.18734
970.792	85.01664
970.964	125.07859
971.136	116.64384
971.308	68.15085
971.48	17.5623
971.652	76.58356
971.824	122.96987
971.996	144.05805
972.168	74.47535
972.339	150.38492
972.511	82.90833
972.683	78.6918
972.855	82.90833
973.027	120.86117
973.199	74.47535
973.37	66.04272
973.542	82.90833
973.714	40.74705
973.886	28.10047
974.057	23.88513
974.229	28.10047
974.401	49.17857
974.572	137.73137
974.744	85.01664
974.915	32.3159
975.087	68.15085
975.259	55.50246
975.43	32.3159
975.602	34.42366
975.773	57.61047
975.945	120.86117
976.116	-24.5844
976.288	76.58356
976.459	89.23331
976.63	95.55848
976.802	51.28651
976.973	118.75249
977.145	47.07066
977.316	23.88513
977.487	99.77538
977.659	32.3159
977.83	99.77538
978.001	95.55848
978.172	59.7185
978.344	118.75249
978.515	42.8549
978.686	19.66988
978.857	0.70246
979.028	-11.94141
979.2	70.25899
979.371	53.39447
979.542	23.88513
979.713	34.42366
979.884	40.74705
980.055	-14.04863
980.226	17.5623
980.397	70.25899
980.568	61.82655
980.739	99.77538
980.91	59.7185
981.081	57.61047
981.252	93.45007
981.423	2.80986
981.594	7.02472
981.765	87.12496
981.936	66.04272
982.106	59.7185
982.277	114.5352
982.448	9.13219
982.619	85.01664
982.79	13.34719
982.96	82.90833
983.131	11.23968
983.302	15.45473
983.472	91.34168
983.643	-5.61958
983.814	44.96277
983.984	17.5623
984.155	7.02472
984.326	-41.44034
984.496	28.10047
984.667	68.15085
984.837	17.5623
985.008	61.82655
985.178	70.25899
985.349	59.7185
985.519	0.70246
985.69	21.7775
985.86	11.23968
986.031	66.04272
986.201	51.28651
986.371	17.5623
986.542	-1.40491
986.712	68.15085
986.882	7.02472
987.053	-30.90556
987.223	87.12496
987.393	85.01664
987.563	59.7185
987.734	7.02472
987.904	19.66988
988.074	32.3159
988.244	91.34168
988.414	42.8549
988.585	114.5352
988.755	74.47535
988.925	40.74705
989.095	42.8549
989.265	76.58356
989.435	49.17857
989.605	78.6918
989.775	17.5623
989.945	19.66988
990.115	21.7775
990.285	68.15085
990.455	15.45473
990.625	17.5623
990.795	93.45007
990.965	38.63923
991.134	-7.72688
991.304	59.7185
991.474	51.28651
991.644	49.17857
991.814	-49.86771
991.984	49.17857
992.153	17.5623
992.323	32.3159
992.493	23.88513
992.662	7.02472
992.832	-5.61958
993.002	15.45473
993.171	57.61047
993.341	44.96277
993.511	36.53143
993.68	40.74705
993.85	-20.37016
994.019	17.5623
994.189	57.61047
994.358	76.58356
994.528	40.74705
994.697	38.63923
994.867	15.45473
995.036	82.90833
995.206	32.3159
995.375	57.61047
995.544	19.66988
995.714	44.96277
995.883	2.80986
996.052	70.25899
996.222	40.74705
996.391	53.39447
996.56	57.61047
996.73	13.34719
996.899	19.66988
997.068	-16.15583
997.237	-14.04863
997.406	11.23968
997.576	51.28651
997.745	44.96277
997.914	91.34168
998.083	-9.83416
998.252	7.02472
998.421	9.13219
998.59	7.02472
998.759	59.7185
998.928	28.10047
999.097	-66.72124
999.266	7.02472
999.435	15.45473
999.604	53.39447
999.773	-33.01256
999.942	34.42366
1000.111	4.91728
1000.28	23.88513
1000.448	-22.47729
1000.617	23.88513
1000.786	-16.15583
1000.955	-22.47729
1001.124	-5.61958
1001.292	-14.04863
1001.461	17.5623
1001.63	82.90833
1001.798	87.12496
1001.967	82.90833
1002.136	82.90833
1002.304	-1.40491
1002.473	-5.61958
1002.642	40.74705
1002.81	-9.83416
1002.979	0.70246
1003.147	-14.04863
1003.316	40.74705
1003.484	-35.11954
1003.653	13.34719
1003.821	32.3159
1003.99	40.74705
1004.158	40.74705
1004.327	2.80986
1004.495	91.34168
1004.663	19.66988
1004.832	-18.26301
1005	32.3159
1005.168	57.61047
1005.337	-43.54722
1005.505	49.17857
1005.673	32.3159
1005.842	-35.11954
1006.01	-18.26301
1006.178	38.63923
1006.346	49.17857
1006.514	-35.11954
1006.683	-9.83416
1006.851	-1.40491
1007.019	-9.83416
1007.187	-3.51226
1007.355	59.7185
1007.523	36.53143
1007.691	85.01664
1007.859	42.8549
1008.027	59.7185
1008.195	36.53143
1008.363	-24.5844
1008.531	-16.15583
1008.699	53.39447
1008.867	17.5623
1009.035	28.10047
1009.203	-58.29468
1009.37	42.8549
1009.538	-5.61958
1009.706	7.02472
1009.874	-35.11954
1010.042	57.61047
1010.209	7.02472
1010.377	-35.11954
1010.545	17.5623
1010.713	74.47535
1010.88	17.5623
1011.048	42.8549
1011.216	23.88513
1011.383	42.8549
1011.551	-54.08124
1011.718	25.99279
1011.886	-22.47729
1012.054	-22.47729
1012.221	0.70246
1012.389	19.66988
1012.556	23.88513
1012.724	32.3159
1012.891	28.10047
1013.058	-14.04863
1013.226	-1.40491
1013.393	2.80986
1013.561	-3.51226
1013.728	17.5623
1013.895	11.23968
1014.063	101.88386
1014.23	7.02472
1014.397	57.61047
1014.565	-1.40491
1014.732	80.80005
1014.899	15.45473
1015.066	-1.40491
1015.233	85.01664
1015.401	28.10047
1015.568	28.10047
1015.735	-3.51226
1015.902	23.88513
1016.069	42.8549
1016.236	9.13219
1016.403	34.42366
1016.57	21.7775
1016.737	30.20817
1016.904	23.88513
1017.071	78.6918
1017.238	0.70246
1017.405	66.04272
1017.572	-1.40491
1017.739	2.80986
1017.906	-24.5844
1018.073	-18.26301
1018.24	51.28651
1018.407	28.10047
1018.573	101.88386
1018.74	25.99279
1018.907	-5.61958
1019.074	-18.26301
1019.241	15.45473
1019.407	57.61047
1019.574	-22.47729
1019.741	68.15085
1019.907	17.5623
1020.074	-35.11954
1020.241	11.23968
1020.407	36.53143
1020.574	40.74705
1020.74	36.53143
1020.907	17.5623
1021.073	106.10089
1021.24	-7.72688
1021.406	61.82655
1021.573	23.88513
1021.739	78.6918
1021.906	15.45473
1022.072	74.47535
1022.239	-64.61464
1022.405	-1.40491
1022.571	-9.83416
1022.738	32.3159
1022.904	61.82655
1023.07	-43.54722
1023.237	-41.44034
1023.403	66.04272
1023.569	-39.33343
1023.735	-1.40491
1023.902	0.70246
1024.068	85.01664
1024.234	40.74705
1024.4	15.45473
1024.566	32.3159
1024.732	25.99279
1024.898	36.53143
1025.065	7.02472
1025.231	-35.11954
1025.397	7.02472
1025.563	-5.61958
1025.729	17.5623
1025.895	-66.72124
1026.061	-45.65407
1026.227	11.23968
1026.392	2.80986
1026.558	-73.04089
1026.724	61.82655
1026.89	36.53143
1027.056	28.10047
1027.222	-16.15583
1027.388	15.45473
1027.553	9.13219
1027.719	-9.83416
1027.885	38.63923
1028.051	15.45473
1028.216	0.70246
1028.382	19.66988
1028.548	61.82655
1028.713	2.80986
1028.879	36.53143
1029.045	15.45473
1029.21	36.53143
1029.376	-11.94141
1029.541	-24.5844
1029.707	57.61047
1029.873	25.99279
1030.038	-1.40491
1030.204	49.17857
1030.369	-30.90556
1030.534	17.5623
1030.7	-43.54722
1030.865	66.04272
1031.031	-26.69148
1031.196	7.02472
1031.361	-22.47729
1031.527	57.61047
1031.692	-43.54722
1031.857	30.20817
1032.023	30.20817
1032.188	13.34719
1032.353	25.99279
1032.518	-26.69148
1032.684	17.5623
1032.849	28.10047
1033.014	9.13219
1033.179	-43.54722
1033.344	74.47535
1033.509	23.88513
1033.674	-66.72124
1033.839	-35.11954
1034.004	32.3159
1034.17	-7.72688
1034.335	15.45473
1034.5	25.99279
1034.664	23.88513
1034.829	0.70246
1034.994	4.91728
1035.159	7.02472
1035.324	-33.01256
1035.489	-60.40135
1035.654	-1.40491
1035.819	-30.90556
1035.984	42.8549
1036.148	-30.90556
1036.313	7.02472
1036.478	-1.40491
1036.643	51.28651
1036.807	-18.26301
1036.972	82.90833
1037.137	28.10047
1037.301	-60.40135
1037.466	11.23968
1037.631	28.10047
1037.795	32.3159
1037.96	-9.83416
1038.124	32.3159
1038.289	-9.83416
1038.454	19.66988
1038.618	-3.51226
1038.783	28.10047
1038.947	49.17857
1039.111	7.02472
1039.276	76.58356
1039.44	7.02472
1039.605	82.90833
1039.769	32.3159
1039.933	82.90833
1040.098	-30.90556
1040.262	40.74705
1040.426	-7.72688
1040.591	-20.37016
1040.755	57.61047
1040.919	91.34168
1041.083	30.20817
1041.248	-51.97449
1041.412	-73.04089
1041.576	40.74705
1041.74	-51.97449
1041.904	63.93463
1042.068	30.20817
1042.232	15.45473
1042.397	36.53143
1042.561	17.5623
1042.725	-1.40491
1042.889	-37.2265
1043.053	-7.72688
1043.217	-16.15583
1043.381	7.02472
1043.544	-7.72688
1043.708	32.3159
1043.872	25.99279
1044.036	28.10047
1044.2	23.88513
1044.364	7.02472
1044.528	-66.72124
1044.691	-35.11954
1044.855	-18.26301
1045.019	-43.54722
1045.183	7.02472
1045.346	32.3159
1045.51	2.80986
1045.674	11.23968
1045.837	25.99279
1046.001	-54.08124
1046.165	-9.83416
1046.328	-26.69148
1046.492	-24.5844
1046.655	-66.72124
1046.819	2.80986
1046.983	-18.26301
1047.146	-20.37016
1047.31	120.86117
1047.473	32.3159
1047.636	-35.11954
1047.8	9.13219
1047.963	19.66988
1048.127	-9.83416
1048.29	40.74705
