Data from mixed_try1_USB4F045381__12__00034.txt Node

Date: Thu Apr 03 19:33:07 EDT 2025
User: mmckonesweet
Spectrometer: USB4F04538
Trigger mode: 4
Integration Time (sec): 2.700000E-3
Scans to average: 1
Electric dark correction enabled: true
Nonlinearity correction enabled: true
Boxcar width: 0
XAxis mode: Wavelengths
Number of Pixels in Spectrum: 3648
>>>>>Begin Spectral Data<<<<<
345.52	34.42366
345.736	34.42366
345.952	34.42366
346.168	-24.5844
346.384	44.96277
346.6	4.91728
346.816	-66.72124
347.032	-9.83416
347.248	-45.65407
347.464	-20.37016
347.68	57.61047
347.896	28.10047
348.112	36.53143
348.328	-22.47729
348.544	51.28651
348.76	0.70246
348.975	-14.04863
349.191	-11.94141
349.407	42.8549
349.623	9.13219
349.839	4.91728
350.055	-7.72688
350.27	-30.90556
350.486	21.7775
350.702	-70.93437
350.918	-14.04863
351.133	-64.61464
351.349	68.15085
351.565	9.13219
351.781	47.07066
351.996	2.80986
352.212	19.66988
352.428	-7.72688
352.644	0.70246
352.859	-14.04863
353.075	-7.72688
353.291	17.5623
353.506	-41.44034
353.722	-26.69148
353.938	-14.04863
354.153	17.5623
354.369	-30.90556
354.584	34.42366
354.8	51.28651
355.016	-39.33343
355.231	0.70246
355.447	-7.72688
355.662	34.42366
355.878	13.34719
356.093	-7.72688
356.309	-14.04863
356.524	-28.79853
356.74	0.70246
356.955	-33.01256
357.171	-14.04863
357.386	-20.37016
357.602	-79.36032
357.817	-47.7609
358.033	-43.54722
358.248	36.53143
358.464	72.36716
358.679	30.20817
358.895	110.318
359.11	17.5623
359.325	25.99279
359.541	-18.26301
359.756	-22.47729
359.972	-9.83416
360.187	42.8549
360.402	32.3159
360.618	68.15085
360.833	-3.51226
361.048	72.36716
361.264	17.5623
361.479	-41.44034
361.694	-5.61958
361.909	25.99279
362.125	-14.04863
362.34	76.58356
362.555	23.88513
362.77	36.53143
362.986	-16.15583
363.201	-33.01256
363.416	42.8549
363.631	-16.15583
363.847	-30.90556
364.062	87.12496
364.277	25.99279
364.492	34.42366
364.707	36.53143
364.922	15.45473
365.138	-33.01256
365.353	-64.61464
365.568	-39.33343
365.783	13.34719
365.998	-5.61958
366.213	9.13219
366.428	72.36716
366.643	51.28651
366.858	-20.37016
367.073	28.10047
367.288	11.23968
367.503	17.5623
367.718	-56.18797
367.933	70.25899
368.148	9.13219
368.363	76.58356
368.578	55.50246
368.793	28.10047
369.008	28.10047
369.223	-11.94141
369.438	-100.42339
369.653	61.82655
369.868	-56.18797
370.083	44.96277
370.298	-49.86771
370.513	19.66988
370.728	59.7185
370.943	-5.61958
371.157	61.82655
371.372	-33.01256
371.587	11.23968
371.802	9.13219
372.017	-20.37016
372.232	13.34719
372.446	13.34719
372.661	-37.2265
372.876	28.10047
373.091	118.75249
373.306	-75.1474
373.52	-56.18797
373.735	42.8549
373.95	55.50246
374.165	19.66988
374.379	17.5623
374.594	30.20817
374.809	2.80986
375.023	-14.04863
375.238	2.80986
375.453	0.70246
375.667	36.53143
375.882	13.34719
376.097	34.42366
376.311	-58.29468
376.526	-3.51226
376.741	-41.44034
376.955	17.5623
377.17	-5.61958
377.384	55.50246
377.599	-35.11954
377.813	76.58356
378.028	13.34719
378.242	-58.29468
378.457	15.45473
378.672	17.5623
378.886	-33.01256
379.101	-45.65407
379.315	21.7775
379.53	7.02472
379.744	25.99279
379.958	-64.61464
380.173	-45.65407
380.387	40.74705
380.602	38.63923
380.816	-20.37016
381.031	13.34719
381.245	4.91728
381.459	-14.04863
381.674	-45.65407
381.888	30.20817
382.103	40.74705
382.317	-26.69148
382.531	17.5623
382.746	-18.26301
382.96	78.6918
383.174	17.5623
383.388	44.96277
383.603	-14.04863
383.817	2.80986
384.031	9.13219
384.246	-11.94141
384.46	9.13219
384.674	51.28651
384.888	-5.61958
385.103	2.80986
385.317	59.7185
385.531	-5.61958
385.745	-20.37016
385.959	-70.93437
386.174	9.13219
386.388	21.7775
386.602	25.99279
386.816	-33.01256
387.03	-37.2265
387.244	76.58356
387.458	-7.72688
387.672	34.42366
387.887	-62.50801
388.101	68.15085
388.315	34.42366
388.529	-11.94141
388.743	38.63923
388.957	49.17857
389.171	42.8549
389.385	-22.47729
389.599	25.99279
389.813	0.70246
390.027	25.99279
390.241	42.8549
390.455	-20.37016
390.669	2.80986
390.883	63.93463
391.097	2.80986
391.311	44.96277
391.525	25.99279
391.738	19.66988
391.952	47.07066
392.166	38.63923
392.38	51.28651
392.594	-64.61464
392.808	42.8549
393.022	15.45473
393.236	-24.5844
393.449	-37.2265
393.663	-56.18797
393.877	-58.29468
394.091	30.20817
394.305	0.70246
394.518	4.91728
394.732	19.66988
394.946	-20.37016
395.16	-7.72688
395.373	0.70246
395.587	19.66988
395.801	82.90833
396.015	76.58356
396.228	68.15085
396.442	-75.1474
396.656	-22.47729
396.869	-3.51226
397.083	4.91728
397.297	-20.37016
397.51	42.8549
397.724	17.5623
397.938	17.5623
398.151	21.7775
398.365	-62.50801
398.578	51.28651
398.792	19.66988
399.005	30.20817
399.219	-22.47729
399.433	-7.72688
399.646	9.13219
399.86	0.70246
400.073	-7.72688
400.287	51.28651
400.5	9.13219
400.714	-73.04089
400.927	-41.44034
401.141	63.93463
401.354	57.61047
401.567	-20.37016
401.781	61.82655
401.994	-26.69148
402.208	87.12496
402.421	49.17857
402.635	68.15085
402.848	9.13219
403.061	34.42366
403.275	57.61047
403.488	76.58356
403.701	34.42366
403.915	-24.5844
404.128	-7.72688
404.341	-24.5844
404.555	13.34719
404.768	53.39447
404.981	-7.72688
405.195	34.42366
405.408	47.07066
405.621	0.70246
405.834	36.53143
406.048	9.13219
406.261	-7.72688
406.474	4.91728
406.687	0.70246
406.9	87.12496
407.114	-33.01256
407.327	49.17857
407.54	-11.94141
407.753	25.99279
407.966	7.02472
408.179	-75.1474
408.392	25.99279
408.605	-37.2265
408.819	78.6918
409.032	19.66988
409.245	-7.72688
409.458	53.39447
409.671	-7.72688
409.884	25.99279
410.097	53.39447
410.31	-64.61464
410.523	4.91728
410.736	25.99279
410.949	-28.79853
411.162	-18.26301
411.375	-16.15583
411.588	36.53143
411.801	-16.15583
412.014	44.96277
412.227	-7.72688
412.44	51.28651
412.653	-33.01256
412.865	4.91728
413.078	25.99279
413.291	0.70246
413.504	4.91728
413.717	28.10047
413.93	-20.37016
414.143	-14.04863
414.356	9.13219
414.568	28.10047
414.781	85.01664
414.994	-41.44034
415.207	-24.5844
415.42	25.99279
415.632	7.02472
415.845	-56.18797
416.058	17.5623
416.271	-1.40491
416.483	-7.72688
416.696	44.96277
416.909	11.23968
417.121	61.82655
417.334	21.7775
417.547	-5.61958
417.759	17.5623
417.972	72.36716
418.185	-11.94141
418.397	34.42366
418.61	4.91728
418.823	9.13219
419.035	25.99279
419.248	38.63923
419.46	4.91728
419.673	42.8549
419.885	28.10047
420.098	-9.83416
420.311	-47.7609
420.523	28.10047
420.736	-7.72688
420.948	17.5623
421.161	74.47535
421.373	15.45473
421.586	30.20817
421.798	0.70246
422.01	9.13219
422.223	-7.72688
422.435	-94.10474
422.648	-26.69148
422.86	-5.61958
423.073	-20.37016
423.285	13.34719
423.497	34.42366
423.71	55.50246
423.922	61.82655
424.134	-14.04863
424.347	11.23968
424.559	17.5623
424.771	-1.40491
424.984	101.88386
425.196	-3.51226
425.408	-7.72688
425.621	59.7185
425.833	17.5623
426.045	-35.11954
426.257	25.99279
426.47	53.39447
426.682	17.5623
426.894	34.42366
427.106	2.80986
427.318	42.8549
427.531	-5.61958
427.743	11.23968
427.955	-20.37016
428.167	-3.51226
428.379	36.53143
428.591	-16.15583
428.804	40.74705
429.016	-33.01256
429.228	-16.15583
429.44	-41.44034
429.652	28.10047
429.864	44.96277
430.076	-39.33343
430.288	34.42366
430.5	-66.72124
430.712	-49.86771
430.924	-14.04863
431.136	47.07066
431.348	34.42366
431.56	-11.94141
431.772	-33.01256
431.984	-20.37016
432.196	-5.61958
432.408	-37.2265
432.62	59.7185
432.832	44.96277
433.044	-24.5844
433.256	11.23968
433.468	11.23968
433.679	9.13219
433.891	-24.5844
434.103	-7.72688
434.315	-26.69148
434.527	-11.94141
434.739	-41.44034
434.95	30.20817
435.162	-54.08124
435.374	9.13219
435.586	-45.65407
435.798	25.99279
436.009	19.66988
436.221	11.23968
436.433	-16.15583
436.645	-11.94141
436.856	17.5623
437.068	55.50246
437.28	-11.94141
437.491	55.50246
437.703	-33.01256
437.915	-24.5844
438.126	13.34719
438.338	25.99279
438.55	21.7775
438.761	51.28651
438.973	11.23968
439.184	36.53143
439.396	28.10047
439.608	-41.44034
439.819	68.15085
440.031	19.66988
440.242	0.70246
440.454	-3.51226
440.665	-5.61958
440.877	34.42366
441.088	-3.51226
441.3	-16.15583
441.511	-33.01256
441.723	57.61047
441.934	38.63923
442.146	2.80986
442.357	-33.01256
442.569	85.01664
442.78	42.8549
442.991	-24.5844
443.203	17.5623
443.414	-37.2265
443.626	25.99279
443.837	9.13219
444.048	42.8549
444.26	-28.79853
444.471	17.5623
444.682	80.80005
444.894	7.02472
445.105	68.15085
445.316	0.70246
445.528	2.80986
445.739	-33.01256
445.95	9.13219
446.161	-5.61958
446.373	2.80986
446.584	-20.37016
446.795	-11.94141
447.006	-33.01256
447.217	61.82655
447.429	19.66988
447.64	-16.15583
447.851	68.15085
448.062	-37.2265
448.273	-24.5844
448.484	40.74705
448.695	-30.90556
448.907	36.53143
449.118	-11.94141
449.329	76.58356
449.54	25.99279
449.751	-41.44034
449.962	30.20817
450.173	36.53143
450.384	-14.04863
450.595	42.8549
450.806	36.53143
451.017	101.88386
451.228	-3.51226
451.439	9.13219
451.65	32.3159
451.861	-26.69148
452.072	-7.72688
452.283	-16.15583
452.494	38.63923
452.705	28.10047
452.915	21.7775
453.126	34.42366
453.337	2.80986
453.548	4.91728
453.759	-5.61958
453.97	38.63923
454.181	-28.79853
454.391	-14.04863
454.602	85.01664
454.813	76.58356
455.024	9.13219
455.235	2.80986
455.445	57.61047
455.656	97.66692
455.867	-7.72688
456.078	47.07066
456.288	34.42366
456.499	-24.5844
456.71	-20.37016
456.921	-24.5844
457.131	-30.90556
457.342	0.70246
457.553	85.01664
457.763	91.34168
457.974	51.28651
458.184	34.42366
458.395	19.66988
458.606	9.13219
458.816	-22.47729
459.027	0.70246
459.237	80.80005
459.448	51.28651
459.659	-7.72688
459.869	63.93463
460.08	-7.72688
460.29	-14.04863
460.501	-24.5844
460.711	4.91728
460.922	-37.2265
461.132	9.13219
461.343	0.70246
461.553	47.07066
461.764	25.99279
461.974	-20.37016
462.184	61.82655
462.395	47.07066
462.605	-26.69148
462.816	-16.15583
463.026	-41.44034
463.236	118.75249
463.447	4.91728
463.657	57.61047
463.867	-7.72688
464.078	-14.04863
464.288	-16.15583
464.498	47.07066
464.709	19.66988
464.919	25.99279
465.129	25.99279
465.339	25.99279
465.55	7.02472
465.76	-26.69148
465.97	0.70246
466.18	38.63923
466.391	9.13219
466.601	23.88513
466.811	-41.44034
467.021	-33.01256
467.231	21.7775
467.441	47.07066
467.651	9.13219
467.862	44.96277
468.072	25.99279
468.282	53.39447
468.492	4.91728
468.702	34.42366
468.912	-3.51226
469.122	11.23968
469.332	25.99279
469.542	78.6918
469.752	53.39447
469.962	36.53143
470.172	0.70246
470.382	42.8549
470.592	36.53143
470.802	101.88386
471.012	9.13219
471.222	53.39447
471.432	34.42366
471.642	-20.37016
471.852	51.28651
472.062	38.63923
472.272	55.50246
472.482	-33.01256
472.691	7.02472
472.901	85.01664
473.111	57.61047
473.321	93.45007
473.531	-28.79853
473.741	-37.2265
473.95	-1.40491
474.16	72.36716
474.37	4.91728
474.58	63.93463
474.79	47.07066
474.999	-79.36032
475.209	-14.04863
475.419	21.7775
475.628	47.07066
475.838	25.99279
476.048	25.99279
476.258	36.53143
476.467	47.07066
476.677	-30.90556
476.886	15.45473
477.096	9.13219
477.306	9.13219
477.515	-30.90556
477.725	103.99236
477.935	76.58356
478.144	51.28651
478.354	23.88513
478.563	59.7185
478.773	42.8549
478.982	68.15085
479.192	11.23968
479.401	44.96277
479.611	-7.72688
479.82	25.99279
480.03	-11.94141
480.239	57.61047
480.449	44.96277
480.658	17.5623
480.868	51.28651
481.077	72.36716
481.287	68.15085
481.496	68.15085
481.705	42.8549
481.915	4.91728
482.124	66.04272
482.333	17.5623
482.543	57.61047
482.752	9.13219
482.961	114.5352
483.171	85.01664
483.38	118.75249
483.589	-20.37016
483.799	42.8549
484.008	61.82655
484.217	51.28651
484.426	87.12496
484.636	36.53143
484.845	93.45007
485.054	78.6918
485.263	34.42366
485.472	34.42366
485.682	118.75249
485.891	120.86117
486.1	15.45473
486.309	68.15085
486.518	28.10047
486.727	51.28651
486.936	11.23968
487.146	169.36666
487.355	25.99279
487.564	95.55848
487.773	49.17857
487.982	89.23331
488.191	17.5623
488.4	49.17857
488.609	101.88386
488.818	131.40488
489.027	42.8549
489.236	74.47535
489.445	97.66692
489.654	112.42659
489.863	15.45473
490.072	76.58356
490.281	89.23331
490.49	101.88386
490.698	78.6918
490.907	144.05805
491.116	131.40488
491.325	55.50246
491.534	36.53143
491.743	169.36666
491.952	118.75249
492.16	97.66692
492.369	122.96987
492.578	97.66692
492.787	131.40488
492.996	82.90833
493.204	122.96987
493.413	76.58356
493.622	179.9128
493.831	59.7185
494.039	78.6918
494.248	156.71198
494.457	131.40488
494.665	167.25749
494.874	101.88386
495.083	110.318
495.291	120.86117
495.5	120.86117
495.709	133.51369
495.917	167.25749
496.126	203.11611
496.335	118.75249
496.543	213.66387
496.752	122.96987
496.96	165.14835
497.169	120.86117
497.377	224.21213
497.586	167.25749
497.794	203.11611
498.003	144.05805
498.211	179.9128
498.42	85.01664
498.628	253.74986
498.837	219.99277
499.045	120.86117
499.254	219.99277
499.462	295.95309
499.671	188.35008
499.879	137.73137
500.087	203.11611
500.296	255.85985
500.504	91.34168
500.713	182.02209
500.921	213.66387
501.129	232.6511
501.338	194.67826
501.546	245.31013
501.754	251.6399
501.962	245.31013
502.171	272.74039
502.379	266.41005
502.587	279.07091
502.795	270.63026
503.004	219.99277
503.212	169.36666
503.42	230.54133
503.628	215.77348
503.837	245.31013
504.045	321.27857
504.253	279.07091
504.461	291.73244
504.669	253.74986
504.877	274.85054
505.085	264.29997
505.294	192.56884
505.502	272.74039
505.71	329.72097
505.918	236.87069
506.126	323.38914
506.334	390.93666
506.542	342.38509
506.75	388.82553
506.958	262.18991
507.166	295.95309
507.374	405.71498
507.582	287.51185
507.79	346.60661
507.998	312.83645
508.206	295.95309
508.414	350.82819
508.622	363.49336
508.83	355.04985
509.037	363.49336
509.245	279.07091
509.453	401.49252
509.661	374.04814
509.869	344.49584
510.077	302.28422
510.285	412.04879
510.492	420.4941
510.7	500.73695
510.908	352.93901
511.116	426.82825
511.324	456.38949
511.531	367.71522
511.739	431.05109
511.947	393.0478
512.155	403.60374
512.362	428.93966
512.57	414.16009
512.778	475.39473
512.985	504.96086
513.193	494.4012
513.401	433.16254
513.608	477.5065
513.816	435.274
514.024	464.83611
514.231	515.52089
514.439	515.52089
514.646	507.07284
514.854	572.55109
515.061	439.49697
515.269	540.8664
515.477	507.07284
515.684	610.57666
515.892	536.64201
516.099	521.85708
516.307	555.65221
516.514	578.88839
516.722	576.77594
516.929	568.32629
517.136	542.97862
517.344	519.745
517.551	437.38548
517.759	532.41767
517.966	659.17083
518.173	540.8664
518.381	549.31535
518.588	547.20309
518.796	568.32629
519.003	703.54489
519.21	604.23877
519.418	659.17083
519.625	663.39671
519.832	726.79042
520.039	667.62264
520.247	807.10282
520.454	678.18766
520.661	726.79042
520.868	747.92384
521.076	811.33018
521.283	612.68931
521.49	821.89874
521.697	711.99765
521.904	735.24366
522.112	625.3655
522.319	794.42096
522.526	817.67129
522.733	752.15065
522.94	726.79042
523.147	836.69512
523.354	743.69707
523.561	726.79042
523.768	794.42096
523.975	866.28916
524.183	796.53458
524.39	895.88486
524.597	849.37807
524.804	836.69512
525.011	838.80892
525.218	957.1951
525.425	902.227
525.632	925.48212
525.838	838.80892
526.045	891.6568
526.252	1005.82471
526.459	1062.91585
526.666	980.4523
526.873	988.90967
527.08	1033.3125
527.287	1179.2242
527.494	933.93875
527.701	1103.0935
527.907	1048.11404
528.114	1075.60333
528.321	980.4523
528.528	1090.40563
528.735	1031.19802
528.941	1050.22857
529.148	1113.66687
529.355	1124.24035
529.562	1077.71793
529.768	1010.05353
529.975	1056.57218
530.182	1183.45384
530.388	1039.65598
530.595	1234.21057
530.802	1109.43751
531.008	1346.30379
531.215	1043.885
531.422	1356.8789
531.628	1103.0935
531.835	1251.12988
532.042	1191.91316
532.248	1386.48934
532.455	1225.75098
532.661	1390.71942
532.868	1295.54385
533.074	1394.94951
533.281	1297.65883
533.487	1327.2687
533.694	1397.06455
533.9	1428.79026
534.107	1325.1537
534.313	1644.52221
534.52	1350.53383
534.726	1585.303
534.933	1462.63109
535.139	1555.69287
535.345	1517.62232
535.552	1633.94748
535.758	1617.02778
535.965	1631.83252
536.171	1549.3478
536.377	1574.72799
536.584	1528.19751
536.79	1496.47189
536.996	1650.86703
537.203	1468.97625
537.409	1576.843
537.615	1693.16517
537.821	1536.65764
538.028	1648.75209
538.234	1543.00272
538.44	1870.80195
538.646	1682.59074
538.853	1724.888
539.059	1756.61008
539.265	1811.59295
539.471	1750.26573
539.677	1860.22919
539.883	1686.82052
540.09	1927.89259
540.296	1796.79014
540.502	1917.32054
540.708	1760.83962
540.914	1862.34375
541.12	1843.31252
541.326	1879.26006
541.532	1758.72485
541.738	1961.72215
541.944	1851.77089
542.15	2137.18605
542.356	1851.77089
542.562	2240.74846
542.768	2035.71878
542.974	2088.56844
543.18	1860.22919
543.386	2105.47937
543.592	2107.5932
543.798	2124.50359
544.004	2077.99887
544.21	2185.79949
544.415	2090.68233
544.621	2244.97506
544.827	2272.44708
545.033	2166.77735
545.239	2190.02654
545.445	2479.49062
545.651	2139.29977
545.856	2392.88232
546.062	2200.59402
546.268	2232.29516
546.474	2168.89096
546.679	2464.70513
546.885	2228.06845
547.091	2418.23295
547.297	2232.29516
547.502	2475.26625
547.708	2139.29977
547.914	2312.59567
548.119	2308.36966
548.325	2502.72387
548.531	2158.32286
548.736	2454.14373
548.942	2310.48267
549.147	2452.03142
549.353	2409.78291
549.559	2658.98351
549.764	2409.78291
549.97	2623.09188
550.175	2511.17199
550.381	2688.53858
550.586	2454.14373
550.792	2614.64627
550.997	2544.96262
551.203	2756.0835
551.408	2563.96854
551.614	2882.69285
551.819	2696.98243
552.025	2808.84345
552.23	2604.08899
552.435	2937.54106
552.641	2834.16518
552.846	2918.55626
553.052	2612.53484
553.257	2878.47335
553.462	2823.6147
553.668	2840.4953
553.873	2836.27523
554.078	3064.07543
554.283	2781.40933
554.489	3093.59215
554.694	2730.75573
554.899	2823.6147
555.105	2781.40933
555.31	2983.94333
555.515	2969.17975
555.72	3180.016
555.925	2952.3062
556.131	3230.59288
556.336	3005.03286
556.541	3064.07543
556.746	3045.09878
556.951	3135.7535
557.156	2975.50709
557.361	3333.82399
557.567	3281.16015
557.772	3239.02143
557.977	3102.02493
558.182	3405.42945
558.387	3245.34267
558.592	3093.59215
558.797	3078.83417
559.002	3354.88652
559.207	3095.70037
559.412	3407.53519
559.617	3306.44013
559.822	3447.54078
560.027	3304.33356
560.232	3432.80263
560.437	3236.91432
560.642	3350.67415
560.847	3232.70004
561.051	3565.41409
561.256	3291.69377
561.461	3468.59377
561.666	3215.84227
561.871	3666.40214
562.076	3449.64616
562.281	3487.53991
562.485	3175.80083
562.69	3485.43485
562.895	3443.32997
563.1	3531.74185
563.305	3392.79467
563.509	3657.98813
563.714	3356.99268
563.919	3700.05513
564.123	3561.20532
564.328	3674.81585
564.533	3586.45683
564.737	3800.98446
564.942	3700.05513
565.147	3748.42269
565.351	3622.2252
565.556	3601.18564
565.761	3590.66515
565.965	3960.69622
566.17	3615.91353
566.374	3901.8685
566.579	3843.02504
566.784	3735.80605
566.988	3758.93602
567.193	3920.77914
567.397	3771.55137
567.602	3977.50122
567.806	3826.20976
568.011	4048.90786
568.215	3855.63567
568.42	3912.37461
568.624	3868.24558
568.828	3885.05768
569.033	3874.55027
569.237	3994.30491
569.442	4006.90683
569.646	4109.79467
569.85	4149.67651
570.055	4252.49455
570.259	3943.88992
570.463	4019.508
570.668	3843.02504
570.872	4246.20103
571.076	4099.29819
571.281	4208.43591
571.485	4093.00005
571.689	4080.40322
571.893	3948.09161
572.098	4250.39673
572.302	4271.37395
572.506	4250.39673
572.71	4162.2692
572.914	4342.6804
573.119	4189.55077
573.323	4361.55147
573.527	4143.37988
573.731	4233.61343
573.935	4132.88508
574.139	4522.93163
574.343	4139.18202
574.547	4256.69012
574.751	4545.97528
574.955	4476.83629
575.159	4162.2692
575.364	4388.80657
575.568	4359.45477
575.772	4420.25018
575.976	4514.55145
576.18	4615.09012
576.383	4372.03463
576.587	4619.27812
576.791	4460.0717
576.995	4648.59159
577.199	4420.25018
577.403	4516.64653
577.607	4514.55145
577.811	4606.71386
578.015	4508.26609
578.219	4629.74772
578.422	4571.11076
578.626	4759.52412
578.83	4627.65384
579.034	4868.30173
579.238	4631.84157
579.442	4920.57669
579.645	4558.54342
579.849	4640.21676
580.053	4715.5773
580.257	4759.52412
580.46	4782.53989
580.664	4945.66358
580.868	4694.64674
581.071	4970.74716
581.275	4839.02151
581.479	5119.09033
581.682	4901.75935
581.886	5037.62048
582.09	4816.01248
582.293	4960.29607
582.497	4790.90858
582.7	5025.08353
582.904	4974.92743
583.107	5142.06262
583.311	4757.43164
583.515	5135.79773
583.718	5004.18677
583.922	5394.57155
584.125	5079.40429
584.329	5171.29602
584.532	5225.5745
584.735	5286.09727
584.939	5154.59178
585.142	5261.05575
585.346	5131.62102
585.549	5292.35713
585.753	5242.2724
585.956	5400.82775
586.159	5300.70327
586.363	5532.15901
586.566	5575.91533
586.769	5494.64532
586.973	5227.66182
587.176	5536.32672
587.379	5338.25628
587.582	5467.54736
587.786	5523.82329
587.989	5634.24092
588.192	5659.23194
588.395	5646.73686
588.599	5588.41522
588.802	5688.38384
589.005	5461.29342
589.208	5669.64387
589.411	5473.80109
589.615	5709.20379
589.818	5559.24748
590.021	5892.31761
590.224	5798.7027
590.427	5636.32363
590.63	5402.9131
590.833	5734.18462
591.036	5831.99348
591.239	5965.09618
591.442	5625.90982
591.645	5883.99822
591.848	5663.39678
592.051	5967.17515
592.254	5713.3675
592.457	5836.1544
592.66	5748.7552
592.863	6091.86984
593.066	5715.44932
593.269	6075.24878
593.472	5856.9576
593.675	6181.18227
593.878	5908.95526
594.081	6052.39236
594.284	5919.35303
594.486	6357.60254
594.689	5950.54278
594.892	6145.8779
595.095	6062.78199
595.298	6343.0802
595.5	6037.84588
595.703	6378.34676
595.906	6241.39173
596.109	6191.56462
596.311	6162.49256
596.514	6228.93622
596.717	6349.3042
596.92	6413.60659
597.122	6143.80096
597.325	6264.22464
597.528	6257.99776
597.73	6680.94796
597.933	6191.56462
598.136	6390.79218
598.338	6218.55598
598.541	6672.66408
598.743	6282.90401
598.946	6299.5063
599.148	6316.1071
599.351	6314.03208
599.554	6434.34452
599.756	6506.90897
599.959	6332.70639
600.161	6388.718
600.363	6403.23675
600.566	6403.23675
600.768	6498.61733
600.971	6722.36186
601.173	6494.47137
601.376	6714.07981
601.578	6426.04963
601.78	6467.52037
601.983	6450.93319
602.185	6757.55646
602.388	6508.98182
602.59	6910.67967
602.792	6693.37309
602.995	6813.44019
603.197	6614.66659
603.399	6863.10066
603.601	6494.47137
603.804	6596.02071
604.006	6705.7974
604.208	6852.75581
604.41	6701.65606
604.613	6707.86804
604.815	6873.44495
605.017	6889.99462
605.219	6854.82483
605.421	6921.02134
605.623	6829.99514
605.826	6954.1109
606.028	6780.32592
606.23	6846.54863
606.432	6784.46552
606.634	7007.86911
606.836	6995.46472
607.038	7146.32997
607.24	6904.47439
607.442	6987.19468
607.644	7045.07743
607.846	6871.37613
608.048	7049.21124
608.25	6904.47439
608.452	7257.85256
608.654	7255.78791
608.856	6962.38239
609.058	7222.75056
609.26	6912.74805
609.462	7338.35665
609.664	7034.74252
609.866	7169.05278
610.067	6970.65351
610.269	6939.63493
610.471	6887.92599
610.673	7385.8178
610.875	6896.20037
611.077	7288.81962
611.278	6945.83905
611.48	7123.60448
611.682	7210.36009
611.884	7392.00753
612.085	7152.52737
612.287	7358.99335
612.489	7111.20761
612.69	7367.24742
612.892	7173.18391
613.094	7478.64329
613.295	7148.39579
613.497	7486.89233
613.699	7166.98718
613.9	7383.75451
614.102	7311.52566
614.304	7280.56222
614.505	7138.06647
614.707	7363.12043
614.908	7158.72457
615.11	7400.26021
615.311	7305.33337
615.513	7614.70839
615.714	7228.94549
615.916	7616.76926
616.117	7325.97357
616.319	7528.13232
616.52	7425.01614
616.722	7422.95327
616.923	7375.50114
617.124	7358.99335
617.326	7226.88054
617.527	7556.99521
617.729	7674.46516
617.93	7631.1948
618.131	7499.26523
618.333	7515.76123
618.534	7427.079
618.735	7804.22044
618.937	7334.22904
619.138	7592.03735
619.339	7491.01671
619.54	7697.12686
619.742	7385.8178
619.943	7501.32731
620.144	7559.05668
620.345	7674.46516
620.546	7600.28166
620.748	7756.85912
620.949	7311.52566
621.15	7701.24689
621.351	7789.80729
621.552	7758.91854
621.753	7400.26021
621.954	7824.80887
622.155	7346.61159
622.356	7643.55871
622.558	7482.76785
622.759	7968.86995
622.96	7865.9795
623.161	7903.02599
623.362	7645.61929
623.563	7923.60449
623.764	7552.87219
623.965	7752.74022
624.166	7754.79968
624.366	7746.56171
624.567	7383.75451
624.768	7919.48895
624.969	7556.99521
625.17	7905.08393
625.371	7697.12686
625.572	8063.48399
625.773	7808.33829
625.973	8207.38003
626.174	7734.20413
626.375	7921.54673
626.576	7837.16093
626.777	8135.44427
626.977	7964.75531
627.178	7933.89296
627.379	7839.21954
627.58	8145.72231
627.78	7931.83531
627.981	8104.60717
628.182	7855.68762
628.382	8096.38318
628.583	7657.98231
628.784	8073.76554
628.984	7888.61982
629.185	8182.71909
629.386	7872.15438
629.586	8121.05419
629.787	7909.19976
629.987	7952.41093
630.188	7853.62918
630.388	8248.47526
630.589	7909.19976
630.79	7985.32766
630.99	7896.85204
631.191	8135.44427
631.391	7933.89296
631.591	8133.38861
631.792	8067.59667
631.992	8408.67171
632.193	8223.81907
632.393	8244.3661
632.594	8207.38003
632.794	8125.16574
632.994	8067.59667
633.195	8314.21124
633.395	8203.27008
633.595	8135.44427
633.796	8178.60866
633.996	8451.78137
634.196	8242.31148
634.397	8550.28609
634.597	8036.7496
634.797	8396.3531
634.997	8232.03812
635.198	8213.54482
635.398	8242.31148
635.598	8581.05987
635.798	8199.16004
635.998	8457.9392
636.199	8293.67091
636.399	8480.51644
636.599	8494.88258
636.799	8741.0158
636.999	8398.40625
637.199	8435.35964
637.399	8003.84102
637.599	8601.57337
637.799	8308.04935
637.999	8839.39463
638.199	8576.95694
638.399	8466.14937
638.599	8552.33781
638.799	8488.72578
638.999	8462.04432
639.199	8724.61525
639.399	8570.80241
639.599	8890.6171
639.799	8351.17893
639.999	8431.25401
640.199	8525.66401
640.399	8677.45708
640.599	8153.94437
640.799	8732.81567
640.998	8509.24778
641.198	8958.21367
641.398	8373.76719
641.598	8659.00123
641.798	8646.69649
641.997	8726.66538
642.197	8281.34576
642.397	8652.84894
642.597	8420.98962
642.796	8708.21351
642.996	8579.00842
643.196	8933.63534
643.395	8650.79814
643.595	8863.98282
643.795	8642.59476
643.994	8806.60634
644.194	8589.26549
644.394	8831.19799
644.593	8964.35786
644.793	9060.59611
644.992	8937.73191
645.192	8890.6171
645.392	8833.24718
645.591	8917.24837
645.791	8919.2968
645.99	8986.88517
646.19	8995.0764
646.389	9011.458
646.589	8995.0764
646.788	8878.32473
646.987	8794.30953
647.187	8995.0764
647.386	8896.76305
647.586	9095.39621
647.785	9070.83195
647.984	9240.68425
648.184	9273.41344
648.383	9164.98148
648.582	9011.458
648.782	9105.63058
648.981	9130.19132
649.18	9136.33112
649.38	8935.68363
649.579	9152.70316
649.778	9085.16141
649.977	9257.04938
650.177	9036.02831
650.376	9291.82172
650.575	8773.8134
650.774	9060.59611
650.973	9109.72421
651.173	9083.11439
651.372	9011.458
651.571	9167.02781
651.77	9359.30728
651.969	9267.27704
652.168	9265.23154
652.367	9590.26001
652.566	9416.5537
652.765	9492.18123
652.964	9379.7539
653.163	9424.73071
653.362	9408.37642
653.561	9173.16668
653.76	9420.64224
653.959	9518.74785
654.158	9394.06556
654.357	9318.40909
654.556	9420.64224
654.755	9535.0952
654.954	9322.49921
655.153	9432.90747
655.352	9152.70316
655.551	9465.61191
655.749	9441.08397
655.948	9531.00846
656.147	9667.88002
656.346	9831.21806
656.545	9461.52408
656.743	9602.5173
656.942	9510.57379
657.141	9737.31058
657.34	9410.42076
657.538	9676.04924
657.737	9338.85901
657.936	9678.09151
658.135	9524.87822
658.333	9520.79132
658.532	9359.30728
658.731	9624.98753
658.929	9608.64573
659.128	9481.96259
659.326	9432.90747
659.525	9420.64224
659.724	9281.59506
659.922	9416.5537
660.121	9506.48667
660.319	9649.49836
660.518	9408.37642
660.716	9710.76569
660.915	9389.9766
661.113	9806.72353
661.312	9535.0952
661.51	9867.95584
661.709	9528.96506
661.907	9772.01924
662.105	9559.61431
662.304	9629.07283
662.502	9786.30977
662.701	9814.88861
662.899	9596.38873
663.097	9904.68882
663.296	9396.11002
663.494	9894.48569
663.692	9524.87822
663.891	9749.56119
664.089	9631.11545
664.287	9667.88002
664.485	9676.04924
664.684	9984.26067
664.882	9794.47545
665.08	9859.79231
665.278	9700.55543
665.476	10196.34606
665.675	10006.70003
665.873	9941.41704
666.071	10104.59701
666.269	10108.67535
666.467	9835.30028
666.665	9992.42064
666.863	9486.05009
667.061	9696.47122
667.259	9733.22692
667.457	9886.32293
667.655	9614.77403
667.853	9972.02028
668.051	9855.71045
668.249	9943.45736
668.447	9812.84737
668.645	9943.45736
668.843	9794.47545
669.041	9945.49766
669.239	9477.87501
669.437	9727.10131
669.635	9653.58329
669.833	9731.18506
670.031	9702.59752
670.229	9951.61849
670.426	9949.57823
670.624	10074.00771
670.822	9718.93362
671.02	9910.81052
671.218	9747.51946
671.415	9927.13441
671.613	9780.18535
671.811	9992.42064
672.009	9847.54656
672.206	9978.14054
672.404	9757.72797
672.602	9812.84737
672.799	9888.36364
672.997	9996.50053
673.195	10018.93894
673.392	10118.87094
673.59	9929.17483
673.788	10241.19099
673.985	9594.34584
674.183	10074.00771
674.38	9598.4316
674.578	9780.18535
674.775	9892.44502
674.973	10004.66016
675.17	9841.42349
675.368	10106.63619
675.565	9976.10047
675.763	10222.84613
675.96	9931.21523
676.158	9914.89158
676.355	9804.68222
676.553	10155.57217
676.75	9902.64822
676.947	10188.19172
677.145	9943.45736
677.342	10177.99849
677.539	9980.1806
677.737	9972.02028
677.934	9839.38243
678.131	10065.85003
678.329	10092.36167
678.526	10071.96831
678.723	10051.57354
678.92	10053.61308
679.118	9782.22683
679.315	9818.97107
679.512	9835.30028
679.709	10288.06729
679.906	9643.37087
680.104	9790.39264
680.301	9929.17483
680.498	10061.7711
680.695	9988.34068
680.892	10196.34606
681.089	9929.17483
681.286	9886.32293
681.483	9557.57114
681.68	9992.42064
681.877	10010.77972
682.075	10190.23033
682.272	9790.39264
682.469	10035.2567
682.665	9831.21806
682.862	9923.05352
683.059	9606.60294
683.256	9872.03752
683.453	9816.92985
683.65	10233.03785
683.847	9910.81052
684.044	9980.1806
684.241	9827.13579
684.438	10218.76935
684.635	9737.31058
684.831	10102.55783
685.028	10037.29635
685.225	10159.64981
685.422	9780.18535
685.619	9951.61849
685.815	9812.84737
686.012	9996.50053
686.209	9800.59956
686.405	9849.58755
686.602	9698.51334
686.799	9806.72353
686.996	9914.89158
687.192	9727.10131
687.389	9739.35238
687.586	9976.10047
687.782	9610.68851
687.979	10071.96831
688.175	9463.56801
688.372	9988.34068
688.568	9663.79532
688.765	9851.62853
688.962	9776.10232
689.158	9520.79132
689.355	9578.00216
689.551	9992.42064
689.748	9633.15806
689.944	9759.76962
690.14	9649.49836
690.337	9855.71045
690.533	9624.98753
690.73	9986.30068
690.926	9847.54656
691.123	9818.97107
691.319	9821.01227
691.515	9957.73918
691.712	9755.6863
691.908	9596.38873
692.104	9563.70061
692.301	9761.81126
692.497	9539.18188
692.693	9743.43595
692.889	9800.59956
693.086	9876.11914
693.282	9845.50555
693.478	9849.58755
693.674	9647.45588
693.87	10000.58037
694.067	9814.88861
694.263	10074.00771
694.459	9796.51684
694.655	9939.37671
694.851	9631.11545
695.047	10182.07583
695.243	9902.64822
695.439	9665.83768
695.635	9678.09151
695.831	9886.32293
696.027	9479.91881
696.224	9823.05346
696.42	9533.05183
696.615	10041.37562
696.811	9661.75294
697.007	9814.88861
697.203	9387.93209
697.399	9669.92235
697.595	9624.98753
697.791	9890.40434
697.987	9633.15806
698.183	9953.65873
698.379	9551.44153
698.575	9767.93609
698.77	9616.81676
698.966	9967.94004
699.162	9667.88002
699.358	9876.11914
699.554	9643.37087
699.749	9869.99669
699.945	9649.49836
700.141	9835.30028
700.337	9592.30293
700.532	9837.34136
700.728	9757.72797
700.924	9804.68222
701.119	9608.64573
701.315	9573.91608
701.511	9373.62008
701.706	9694.42909
701.902	9645.41338
702.097	9851.62853
702.293	9861.83321
702.489	10102.55783
702.684	10031.17735
702.88	9723.0175
703.075	9651.54083
703.271	9796.51684
703.466	9600.47446
703.662	9598.4316
703.857	9332.72421
704.053	9667.88002
704.248	9639.28579
704.443	9878.15993
704.639	9902.64822
704.834	9702.59752
705.03	9708.72367
705.225	10082.16517
705.42	9569.82994
705.616	9684.21822
705.811	9567.78685
706.006	9710.76569
706.202	9665.83768
706.397	9800.59956
706.592	9624.98753
706.787	9643.37087
706.983	9361.35201
707.178	9906.7294
707.373	9475.8312
707.568	9731.18506
707.763	9418.59798
707.959	9927.13441
708.154	9398.15446
708.349	9406.33206
708.544	9516.70436
708.739	9498.31223
708.934	9420.64224
709.129	9528.96506
709.324	9244.77563
709.519	9404.28769
709.714	9297.95752
709.909	9563.70061
710.104	9383.84303
710.299	9590.26001
710.494	9445.17212
710.689	9596.38873
710.884	9396.11002
711.079	9383.84303
711.274	9387.93209
711.469	9674.00696
711.664	9596.38873
711.859	9786.30977
712.054	9637.24323
712.249	9588.21708
712.443	9344.99366
712.638	9629.07283
712.833	9193.6285
713.028	9516.70436
713.223	9308.18351
713.417	9649.49836
713.612	9477.87501
713.807	9592.30293
714.002	9439.03987
714.196	9931.21523
714.391	9622.94486
714.586	10045.45483
714.78	9616.81676
714.975	9508.53024
715.17	9424.73071
715.364	9655.62572
715.559	9880.2007
715.754	9620.90218
715.948	9371.57545
716.143	9608.64573
716.337	9183.3978
716.532	9473.78738
716.726	9555.52795
716.921	9704.63958
717.115	9586.17412
717.31	9723.0175
717.504	9461.52408
717.699	9508.53024
717.893	9608.64573
718.088	9610.68851
718.282	9457.43619
718.476	9426.77493
718.671	9414.5094
718.865	9488.09382
719.059	9330.67924
719.254	9551.44153
719.448	9150.65672
719.642	9571.87302
719.837	9044.21786
720.031	9481.96259
720.225	9038.07572
720.419	9316.36401
720.614	9072.87907
720.808	9387.93209
721.002	8927.49036
721.196	9128.14469
721.39	9326.58926
721.585	9230.4555
721.779	9461.52408
721.973	9645.41338
722.167	9111.771
722.361	9400.19888
722.555	9420.64224
722.749	9109.72421
722.943	9289.77643
723.137	9398.15446
723.331	8986.88517
723.525	8970.50188
723.719	8933.63534
723.913	9195.67459
724.107	8929.5387
724.301	9259.09494
724.495	9076.97325
724.689	9338.85901
724.883	9152.70316
725.077	9363.39673
725.271	9052.40712
725.465	9167.02781
725.659	9142.47077
725.853	9181.35161
726.046	9003.26734
726.24	9113.81777
726.434	8900.86025
726.628	9371.57545
726.822	9240.68425
727.015	9502.39948
727.209	8896.76305
727.403	9314.31891
727.596	9297.95752
727.79	9653.58329
727.984	9379.7539
728.177	9508.53024
728.371	9496.26858
728.565	9324.54424
728.758	9093.34928
728.952	9612.73128
729.146	9234.54705
729.339	9473.78738
729.533	9543.26849
729.726	9555.52795
729.92	9169.07411
730.113	9226.36388
730.307	9072.87907
730.5	9138.37769
730.694	9252.9582
730.887	9457.43619
731.081	9434.95162
731.274	9349.08335
731.468	9224.31804
731.661	9113.81777
731.854	9013.50563
732.048	9428.81913
732.241	8907.00593
732.435	9347.03851
732.628	9109.72421
732.821	9003.26734
733.014	9171.12041
733.208	9015.55323
733.401	8921.34522
733.594	9185.44397
733.788	8829.14879
733.981	9361.35201
734.174	9048.31252
734.367	8816.85318
734.56	8929.5387
734.754	9038.07572
734.947	9079.02031
735.14	9185.44397
735.333	9218.18044
735.526	9412.46509
735.719	9134.28454
735.912	9218.18044
736.105	9085.16141
736.298	9322.49921
736.491	9250.91258
736.684	8814.80384
736.877	9257.04938
737.07	9291.82172
737.263	9363.39673
737.456	9122.00468
737.649	9003.26734
737.842	9326.58926
738.035	9267.27704
738.228	9109.72421
738.421	8986.88517
738.614	9093.34928
738.807	9330.67924
739	9040.12312
739.192	8978.69367
739.385	9285.68578
739.578	9087.2084
739.771	9328.63426
739.964	9060.59611
740.156	9551.44153
740.349	9081.06736
740.542	9261.14049
740.735	8878.32473
740.927	9193.6285
741.12	8632.34011
741.313	8853.73805
741.505	8904.95739
741.698	8841.44374
741.891	9027.83849
742.083	9220.22632
742.276	9185.44397
742.468	9212.04268
742.661	8734.86573
742.854	8911.10296
743.046	8476.41166
743.239	8892.66577
743.431	9111.771
743.624	8851.68905
743.816	9044.21786
744.009	9124.05137
744.201	8923.39361
744.393	9013.50563
744.586	8816.85318
744.778	8890.6171
744.971	8880.3735
745.163	8882.42226
745.355	8669.25467
745.548	8982.78946
745.74	8833.24718
745.932	8747.16571
746.125	8683.6087
746.317	8831.19799
746.509	8818.90249
746.702	8823.00106
746.894	8708.21351
747.086	8827.09956
747.278	8718.46473
747.471	9068.78482
747.663	8847.59098
747.855	8913.15144
748.047	9007.36271
748.239	8792.26
748.431	8954.11746
748.623	9126.09804
748.815	8861.9339
749.008	9040.12312
749.2	8929.5387
749.392	8880.3735
749.584	8533.87168
749.776	9066.73767
749.968	8794.30953
750.16	9076.97325
750.352	8669.25467
750.544	8759.46503
750.736	8702.06256
750.928	8966.40588
751.12	8751.26556
751.311	8896.76305
751.503	8921.34522
751.695	8966.40588
751.887	8749.21564
752.079	8896.76305
752.271	8603.62462
752.463	8587.21412
752.654	8816.85318
752.846	8689.76015
753.038	8697.96183
753.23	8523.61205
753.421	8484.62115
753.613	8593.36819
753.805	8757.41519
753.997	8675.40651
754.188	8603.62462
754.38	8751.26556
754.572	8820.95179
754.763	8677.45708
754.955	8650.79814
755.146	8876.27594
755.338	8769.71396
755.53	8634.39108
755.721	8609.77825
755.913	8695.91144
756.104	8478.46406
756.296	8755.36533
756.487	8488.72578
756.679	8503.09138
756.87	8525.66401
757.062	8248.47526
757.253	8503.09138
757.445	8147.77785
757.636	8342.96443
757.827	8523.61205
758.019	8599.5221
758.21	8683.6087
758.401	8398.40625
758.593	8521.56007
758.784	8468.20187
758.975	8443.57066
759.167	8617.98282
759.358	8673.35591
759.549	8462.04432
759.74	8408.67171
759.932	8379.92721
760.123	8308.04935
760.314	8345.01808
760.505	8283.4
760.696	8174.49814
760.888	8271.07427
761.079	8022.35273
761.27	8423.04253
761.461	8123.10997
761.652	8420.98962
761.843	8190.93972
762.034	8234.09283
762.225	8266.96554
762.416	8295.72503
762.607	8186.82945
762.798	8303.94132
762.989	8182.71909
763.18	8470.25435
763.371	8326.5345
763.562	8178.60866
763.753	8153.94437
763.944	8511.29988
764.135	8053.20194
764.326	8326.5345
764.517	7985.32766
764.708	8024.40949
764.899	8026.46623
765.089	7979.15617
765.28	8084.04659
765.471	7855.68762
765.662	7711.54661
765.853	8162.16612
766.043	7933.89296
766.234	7927.71994
766.425	8010.01177
766.615	8162.16612
766.806	8038.80621
766.997	7981.21335
767.187	7878.32908
767.378	7935.9506
767.569	7688.88653
767.759	7944.18093
767.95	7839.21954
768.141	7993.55602
768.331	7911.25764
768.522	8005.89796
768.712	7999.72708
768.903	8090.21498
769.093	7818.63256
769.284	7820.69135
769.474	7913.3155
769.665	7589.97622
769.855	7565.24097
770.046	7577.60898
770.236	7394.07073
770.426	7507.5134
770.617	7686.8264
770.807	7853.62918
770.998	7598.22061
771.188	7979.15617
771.378	7734.20413
771.569	7721.8458
771.759	7610.58657
771.949	7579.67024
772.139	7676.52542
772.33	7622.95176
772.52	7336.29286
772.71	7820.69135
772.9	7528.13232
773.09	7876.27087
773.281	7750.68074
773.471	7486.89233
773.661	7437.39294
773.851	7420.89037
774.041	7453.89412
774.231	7618.83012
774.421	7284.69097
774.611	7462.14419
774.802	7160.79025
774.992	7280.56222
775.182	7156.65886
775.372	7325.97357
775.562	7495.14102
775.752	7344.54789
775.942	7179.38044
776.131	7342.48416
776.321	7123.60448
776.511	7152.52737
776.701	7373.43774
776.891	7400.26021
777.081	7292.94819
777.271	7385.8178
777.461	7144.26413
777.651	7261.98179
777.84	7214.49034
778.03	7191.7729
778.22	6908.61126
778.41	7140.13238
778.599	7080.21194
778.789	7169.05278
778.979	7336.29286
779.169	7309.46159
779.358	7299.14088
779.548	7491.01671
779.738	7065.74557
779.927	7290.88392
780.117	7018.20549
780.307	7173.18391
780.496	7007.86911
780.686	7226.88054
780.875	6885.85734
781.065	7088.47795
781.254	6912.74805
781.444	6863.10066
781.633	6817.57906
781.823	7047.14434
782.012	7053.34495
782.202	7123.60448
782.391	7063.67886
782.581	6829.99514
782.77	6904.47439
782.96	7045.07743
783.149	6821.71785
783.338	7111.20761
783.528	6738.92485
783.717	6949.97502
783.906	7057.47858
784.096	6933.4306
784.285	6858.96279
784.474	6956.17881
784.663	6987.19468
784.853	7020.27269
785.042	6685.08976
785.231	7030.60839
785.42	6943.77104
785.61	7030.60839
785.799	6517.273
785.988	6564.94008
786.177	6299.5063
786.366	6622.95306
786.555	6500.69028
786.744	6467.52037
786.933	6683.01887
787.122	6879.65124
787.312	6589.805
787.501	6747.20579
787.69	6614.66659
787.879	6825.85654
788.068	6448.85969
788.257	6548.36161
788.445	6399.08865
788.634	6751.34613
788.823	6527.63645
789.012	6616.73824
789.201	6428.12339
789.39	6513.12746
789.579	6426.04963
789.768	6542.14431
789.957	6193.64102
790.145	6531.78167
790.334	6473.74018
790.523	6405.31077
790.712	6370.04935
790.9	6496.54436
791.089	6135.49297
791.278	6417.75436
791.467	6091.86984
791.655	6357.60254
791.844	6154.18542
792.033	6208.17516
792.221	5933.90891
792.41	6100.1798
792.599	5967.17515
792.787	6216.47986
792.976	6083.5595
793.164	6390.79218
793.353	6058.62621
793.541	6262.14904
793.73	6037.84588
793.918	6467.52037
794.107	6039.92402
794.295	6341.00548
794.484	6253.8464
794.672	6419.82821
794.861	6075.24878
795.049	6407.38476
795.238	6060.70411
795.426	6309.88197
795.614	5896.47717
795.803	5975.49077
795.991	5894.3974
796.179	6145.8779
796.368	5929.7502
796.556	6199.87007
796.744	5950.54278
796.932	6139.64701
797.121	5867.35831
797.309	6087.71471
797.497	6143.80096
797.685	6129.26172
797.874	5877.75843
798.062	6035.76772
798.25	5969.25409
798.438	6110.56673
798.626	6029.53309
798.814	6237.23998
799.002	6079.40418
799.19	5975.49077
799.378	5798.7027
799.566	6100.1798
799.755	5802.86438
799.943	6187.41175
800.131	6000.43536
800.318	5977.56961
800.506	5915.19399
800.694	5908.95526
800.882	5800.78355
801.07	6039.92402
801.258	6039.92402
801.446	5975.49077
801.634	5892.31761
801.822	5990.04219
802.01	5944.30525
802.197	6000.43536
802.385	5821.59076
802.573	6087.71471
802.761	5946.38445
802.949	5985.88476
803.136	5925.5914
803.324	5856.9576
803.512	5940.14679
803.699	5915.19399
803.887	5829.91298
804.075	6019.14157
804.262	5854.87738
804.45	5942.22603
804.638	5921.43251
804.825	6019.14157
805.013	5782.05504
805.201	6042.00213
805.388	5892.31761
805.576	6156.26224
805.763	5834.07395
805.951	6228.93622
806.138	5886.07811
806.326	5983.80601
806.513	5921.43251
806.701	6044.08023
806.888	5894.3974
807.075	6008.74947
807.263	5655.06701
807.45	5775.81178
807.638	5854.87738
807.825	5809.10672
808.012	5796.62183
808.2	5933.90891
808.387	6054.47033
808.574	6353.45342
808.761	5865.27821
808.949	6137.57
809.136	5850.71688
809.323	6002.51392
809.51	5752.91801
809.698	5933.90891
809.885	5823.67135
810.072	6054.47033
810.259	5946.38445
810.446	6189.4882
810.633	6008.74947
810.82	6112.64405
811.008	6079.40418
811.195	6253.8464
811.382	6027.45483
811.569	6231.01219
811.756	5938.06752
811.943	5992.12087
812.13	6052.39236
812.317	5958.85915
812.504	6033.68953
812.691	6125.10745
812.878	6066.93768
813.064	6129.26172
813.251	6125.10745
813.438	6179.10573
813.625	5942.22603
813.812	6054.47033
813.999	5892.31761
814.186	6181.18227
814.372	5927.67081
814.559	6056.54828
814.746	5819.51014
814.933	6100.1798
815.12	5908.95526
815.306	5935.98822
815.493	5975.49077
815.68	6071.09328
815.866	5842.39561
816.053	5977.56961
816.24	5802.86438
816.426	5836.1544
816.613	5588.41522
816.799	5998.35677
816.986	5680.0552
817.173	5908.95526
817.359	5694.63007
817.546	6152.10857
817.732	5671.72618
817.919	5834.07395
818.105	5761.24335
818.292	5992.12087
818.478	5850.71688
818.665	5992.12087
818.851	6000.43536
819.037	6183.25879
819.224	5867.35831
819.41	5938.06752
819.597	5609.2465
819.783	6083.5595
819.969	5759.16205
820.156	5859.03779
820.342	5911.03486
820.528	6220.63207
820.714	5942.22603
820.901	6104.33465
821.087	5775.81178
821.273	5906.87564
821.459	5609.2465
821.646	6152.10857
821.832	5944.30525
822.018	6058.62621
822.204	5677.97298
822.39	5782.05504
822.576	5642.57164
822.762	5694.63007
822.948	5392.48611
823.134	5600.91427
823.32	5390.40064
823.507	5663.39678
823.693	5571.74851
823.879	5867.35831
824.065	5779.97398
824.25	5615.49542
824.436	5636.32363
824.622	5650.90198
824.808	5650.90198
824.994	5867.35831
825.18	5738.34776
825.366	5809.10672
825.552	5432.10556
825.738	5675.89074
825.923	5540.49434
826.109	5886.07811
826.295	5277.75047
826.481	5871.51843
826.667	5555.08028
826.852	5702.95806
827.038	5446.70007
827.224	5825.75192
827.409	5509.23488
827.595	5788.29809
827.781	5365.37318
827.966	5584.24869
828.152	5475.88562
828.338	5540.49434
828.523	5281.92392
828.709	5594.66486
828.894	5286.09727
829.08	5363.2874
829.266	5275.66371
829.451	5525.90725
829.637	5319.48072
829.822	5371.63036
830.008	5269.4033
830.193	5536.32672
830.378	5359.11578
830.564	5567.58159
830.749	5265.22957
830.935	5590.49846
831.12	5233.92364
831.305	5455.03926
831.491	5183.82322
831.676	5492.561
831.861	5342.42837
832.047	5256.88184
832.232	5183.82322
832.417	5432.10556
832.602	5133.70939
832.788	5419.59507
832.973	5313.22178
833.158	5233.92364
833.343	5033.44159
833.528	5158.76798
833.714	5100.29273
833.899	5271.49013
834.084	5000.00714
834.269	5117.0018
834.454	4841.1131
834.639	4876.66668
834.824	4818.10432
835.009	5085.67107
835.194	4958.20578
835.379	5185.91101
835.564	4868.30173
835.749	5152.50365
835.934	4968.65699
836.119	4949.8444
836.304	4769.98617
836.489	5016.72511
836.674	4774.17084
836.859	5002.09697
837.044	4832.74659
837.228	5075.22633
837.413	4974.92743
837.598	5137.88605
837.783	4991.64761
837.968	5050.1566
838.152	4765.80142
838.337	4807.64488
838.522	4818.10432
838.707	4832.74659
838.891	4527.12158
839.076	4872.48425
839.261	4784.6321
839.445	4899.66842
839.63	4734.41287
839.815	4908.032
839.999	4891.30447
840.184	4834.83825
840.368	4857.84502
840.553	4726.04173
840.737	4769.98617
840.922	4851.57072
841.106	4740.69099
841.291	4736.5056
841.475	4667.43365
841.66	4882.94016
841.844	4418.1541
842.029	4552.25945
842.213	4481.02722
842.397	4562.73262
842.582	4432.82625
842.766	4464.26298
842.951	4405.57711
843.135	4602.52559
843.319	4541.78573
843.504	4434.92219
843.688	4298.64112
843.872	4495.69476
844.056	4434.92219
844.241	4598.33724
844.425	4296.54377
844.609	4497.79004
844.793	4397.19201
844.977	4464.26298
845.161	4258.78787
845.346	4271.37395
845.53	4376.22775
845.714	4476.83629
845.898	4162.2692
846.082	4548.07003
846.266	4357.35805
846.45	4395.09568
846.634	4336.38966
846.818	4464.26298
847.002	4283.95924
847.186	4328.0017
847.37	4340.58351
847.554	4457.97603
847.738	4313.32194
847.922	4455.88034
848.106	4277.66669
848.29	4248.29889
848.473	4277.66669
848.657	4158.07172
848.841	4095.09945
849.025	4067.80563
849.209	3996.40528
849.392	4206.33765
849.576	4118.19147
849.76	4242.00525
849.944	4080.40322
850.127	4044.70813
850.311	4000.60596
850.495	4187.45231
850.678	3983.80276
850.862	4223.12317
851.046	4170.66391
851.229	4088.80119
851.413	3826.20976
851.596	4384.61371
851.78	4082.50274
851.964	4069.90528
852.147	3985.90323
852.331	4015.30769
852.514	3847.22866
852.698	3826.20976
852.881	3704.26141
853.065	3931.28434
853.248	3565.41409
853.431	3742.11446
853.615	3695.84878
853.798	3861.94072
853.982	3796.77997
854.165	3752.62808
854.348	3767.34633
854.532	3828.31174
854.715	3657.98813
854.898	3685.33255
855.081	3864.04236
855.265	3964.89759
855.448	3813.59746
855.631	3830.4137
855.814	3592.76929
855.997	3796.77997
856.181	3481.22469
856.364	3685.33255
856.547	3725.29166
856.73	3649.57382
856.913	3455.96219
857.096	3636.95177
857.279	3493.85496
857.462	3683.22925
857.645	3540.16035
857.828	3531.74185
858.011	3493.85496
858.194	3615.91353
858.377	3295.90711
858.56	3582.24843
858.743	3249.55674
858.926	3498.06491
859.109	3380.15925
859.292	3657.98813
859.475	3335.93033
859.658	3517.00876
859.841	3354.88652
860.023	3483.32978
860.206	3306.44013
860.389	3477.01446
860.572	3272.73295
860.755	3363.31104
860.937	3215.84227
861.12	3316.97273
861.303	3291.69377
861.486	3422.27484
861.668	3129.42971
861.851	3279.05338
862.034	3154.72402
862.216	3152.61625
862.399	2882.69285
862.581	3059.85851
862.764	2903.78948
862.947	3245.34267
863.129	3011.35943
863.312	3184.2311
863.494	2926.9941
863.677	3245.34267
863.859	2992.37932
864.042	3064.07543
864.224	3180.016
864.406	3154.72402
864.589	2762.41514
864.771	3120.99775
864.954	2958.63389
865.136	3220.05681
865.318	2933.32232
865.501	3057.75002
865.683	2884.80257
865.865	3123.10576
866.048	3000.81508
866.23	3053.533
866.412	2933.32232
866.594	3013.46825
866.777	2971.28888
866.959	3078.83417
867.141	2901.67988
867.323	2969.17975
867.505	2760.3046
867.687	3051.42447
867.869	2777.1885
868.052	2855.26508
868.234	2815.17407
868.416	2870.03418
868.598	2555.52158
868.78	2718.09113
868.962	2764.52566
869.144	2726.53425
869.326	2747.64112
869.508	2737.08785
869.69	2595.64294
869.872	2760.3046
870.054	2667.42807
870.236	2808.84345
870.417	2528.06767
870.599	2859.4849
870.781	2667.42807
870.963	2933.32232
871.145	2802.5127
871.327	2713.8695
871.508	2650.53874
871.69	2783.51973
871.872	2722.31272
872.054	2840.4953
872.235	2646.31629
872.417	2785.63012
872.599	2815.17407
872.78	2732.86645
872.962	2553.40981
873.144	2783.51973
873.325	2734.97716
873.507	2741.3092
873.689	2699.09336
873.87	2775.07806
874.052	2667.42807
874.233	2867.92435
874.415	2694.87148
874.596	2779.29892
874.778	2329.49931
874.959	2534.40336
875.141	2439.35731
875.322	2756.0835
875.503	2437.24492
875.685	2770.85714
875.866	2445.69441
876.048	2753.97292
876.229	2540.73895
876.41	2623.09188
876.592	2344.28948
876.773	2557.63334
876.954	2401.3327
877.136	2587.1967
877.317	2538.6271
877.498	2646.31629
877.679	2392.88232
877.86	2544.96262
878.042	2437.24492
878.223	2870.03418
878.404	2528.06767
878.585	2734.97716
878.766	2449.91909
878.947	2832.05511
879.128	2504.83592
879.309	2739.19853
879.49	2597.75447
879.672	2834.16518
879.853	2604.08899
880.034	2675.87243
880.215	2490.05136
880.396	2722.31272
880.576	2523.84382
880.757	2747.64112
880.938	2532.29148
881.119	2891.13167
881.3	2553.40981
881.481	2798.29214
881.662	2730.75573
881.843	2783.51973
882.023	2671.65027
882.204	2808.84345
882.385	2521.73188
882.566	2751.86233
882.747	2713.8695
882.927	2747.64112
883.108	2696.98243
883.289	2756.0835
883.469	2371.75566
883.65	2650.53874
883.831	2496.38767
884.011	2654.76115
884.192	2701.20427
884.373	2865.81451
884.553	2654.76115
884.734	3085.15911
884.914	2713.8695
885.095	3021.9034
885.275	2699.09336
885.456	2819.39441
885.636	2745.53049
885.817	2939.65041
885.997	2762.41514
886.178	2975.50709
886.358	2614.64627
886.538	2800.40243
886.719	2504.83592
886.899	2756.0835
887.08	2566.08025
887.26	2825.72482
887.44	2566.08025
887.621	2724.42349
887.801	2460.4806
887.981	2764.52566
888.161	2595.64294
888.342	2578.75026
888.522	2555.52158
888.702	2762.41514
888.882	2724.42349
889.062	2808.84345
889.242	2629.42596
889.423	2642.09378
889.603	2703.31517
889.783	2933.32232
889.963	2688.53858
890.143	2821.50456
890.323	2730.75573
890.503	2926.9941
890.683	2604.08899
890.863	2536.51524
891.043	2447.80676
891.223	2762.41514
891.403	2399.22012
891.583	2633.64862
891.763	2521.73188
891.943	2682.20556
892.122	2553.40981
892.302	2861.59478
892.482	2540.73895
892.662	2747.64112
892.842	2623.09188
893.022	2810.95367
893.201	2570.30363
893.381	2775.07806
893.561	2599.86599
893.741	2764.52566
893.92	2553.40981
894.1	2840.4953
894.28	2261.8811
894.459	2718.09113
894.639	2487.93923
894.819	2445.69441
894.998	2293.57834
895.178	2671.65027
895.357	2392.88232
895.537	2667.42807
895.716	2555.52158
895.896	2498.49975
896.075	2460.4806
896.255	2464.70513
896.434	2314.70866
896.614	2561.85682
896.793	2283.01282
896.973	2496.38767
897.152	2346.40233
897.331	2521.73188
897.511	2354.8536
897.69	2371.75566
897.87	2416.12046
898.049	2316.82164
898.228	2173.11814
898.407	2257.65464
898.587	2141.41348
898.766	2173.11814
898.945	2198.48054
899.124	2285.12595
899.304	2198.48054
899.483	2342.17663
899.662	2054.74517
899.841	2088.56844
900.02	1896.17605
900.199	2113.93465
900.378	1851.77089
900.557	2084.34063
900.737	2050.51713
900.916	2054.74517
901.095	1773.52817
901.274	2063.20116
901.453	1834.85407
901.632	1908.86281
901.811	1792.56073
901.989	1961.72215
902.168	1722.77317
902.347	2071.65703
902.526	1815.82228
902.705	1953.2649
902.884	1750.26573
903.063	2033.6047
903.242	1917.32054
903.42	1862.34375
903.599	1790.44602
903.778	1930.00698
903.957	1659.32674
904.135	1887.7181
904.314	1691.05029
904.493	1834.85407
904.672	1488.0117
904.85	1600.10795
905.029	1597.99297
905.207	1811.59295
905.386	1530.31254
905.565	1623.37268
905.743	1568.38296
905.922	1674.13114
906.1	1572.61298
906.279	1534.54261
906.457	1369.56906
906.636	1769.29867
906.814	1386.48934
906.993	1502.81702
907.171	1424.56016
907.35	1361.10895
907.528	1236.32547
907.707	1327.2687
907.885	1221.52121
908.063	1424.56016
908.242	1086.17637
908.42	1276.50916
908.598	1132.69922
908.777	1268.04936
908.955	1194.028
909.133	1388.60438
909.311	1189.79832
909.49	1191.91316
909.668	1041.77049
909.846	1361.10895
910.024	1179.2242
910.202	1422.44511
910.38	1071.37415
910.559	1399.17959
910.737	1232.09567
910.915	1392.83446
911.093	1339.95875
911.271	1278.62412
911.449	1179.2242
911.627	1496.47189
911.805	1240.55529
911.983	1346.30379
912.161	1310.34873
912.339	1513.39224
912.517	1295.54385
912.695	1479.5515
912.872	1268.04936
913.05	1521.8524
913.228	1388.60438
913.406	1471.0913
913.584	1284.969
913.762	1498.58693
913.939	1394.94951
914.117	1405.52473
914.295	1346.30379
914.473	1420.33006
914.65	1418.21501
914.828	1422.44511
915.006	1255.35973
915.184	1399.17959
915.361	1081.94714
915.539	1251.12988
915.716	1109.43751
915.894	1217.29145
916.072	1048.11404
916.249	1162.3058
916.427	1124.24035
916.604	1386.48934
916.782	1187.68349
916.959	1409.75482
917.137	1052.3431
917.314	1240.55529
917.492	976.22366
917.669	1126.35506
917.847	1069.25957
918.024	1217.29145
918.201	955.08085
918.379	1162.3058
918.556	853.60579
918.733	1065.03042
918.911	1039.65598
919.088	1124.24035
919.265	891.6568
919.442	1151.73193
919.62	929.71042
919.797	986.79532
919.974	997.36714
920.151	1090.40563
920.328	870.51702
920.506	1035.42699
920.683	1022.74015
920.86	912.79739
921.037	963.53789
921.214	897.9989
921.391	963.53789
921.568	1065.03042
921.745	864.17524
921.922	1094.6349
922.099	883.20079
922.276	1096.74954
922.453	912.79739
922.63	925.48212
922.807	843.03655
922.984	834.58132
923.161	724.67713
923.338	1018.51126
923.514	887.42878
923.691	893.77083
923.868	775.39883
924.045	933.93875
924.222	809.21649
924.399	1010.05353
924.575	720.4506
924.752	914.9115
924.929	788.08017
925.105	1016.39682
925.282	798.64821
925.459	766.94481
925.635	718.33734
925.812	807.10282
925.989	684.52681
926.165	657.0579
926.342	699.31857
926.518	741.5837
926.695	752.15065
926.871	665.50967
927.048	595.78844
927.224	684.52681
927.401	559.87685
927.577	642.26777
927.754	511.29683
927.93	692.97918
928.107	642.26777
928.283	697.20543
928.459	545.09085
928.636	633.81654
928.812	642.26777
928.988	652.83209
929.165	600.01358
929.341	595.78844
929.517	540.8664
929.693	566.21391
929.87	557.76452
930.046	549.31535
930.222	462.72443
930.398	633.81654
930.574	511.29683
930.751	646.49347
930.927	612.68931
931.103	610.57666
931.279	466.9478
931.455	652.83209
931.631	473.28298
931.807	536.64201
931.983	570.43868
932.159	633.81654
932.335	443.72001
932.511	390.93666
932.687	374.04814
932.863	504.96086
933.039	390.93666
933.215	504.96086
933.391	399.38131
933.566	393.0478
933.742	346.60661
933.918	329.72097
934.094	359.27157
934.27	317.05747
934.445	460.61277
934.621	338.16365
934.797	300.17382
934.973	314.94696
935.148	228.43158
935.324	306.50506
935.5	323.38914
935.675	346.60661
935.851	249.52996
936.027	304.39463
936.202	257.96985
936.378	251.6399
936.553	270.63026
936.729	219.99277
936.904	228.43158
937.08	101.88386
937.255	173.58505
937.431	165.14835
937.606	188.35008
937.782	203.11611
937.957	158.82104
938.133	135.62252
938.308	53.39447
938.483	120.86117
938.659	135.62252
938.834	114.5352
939.009	186.24073
939.185	97.66692
939.36	135.62252
939.535	135.62252
939.71	146.16698
939.886	47.07066
940.061	59.7185
940.236	112.42659
940.411	135.62252
940.586	89.23331
940.761	80.80005
940.937	42.8549
941.112	87.12496
941.287	154.60294
941.462	68.15085
941.637	38.63923
941.812	51.28651
941.987	103.99236
942.162	114.5352
942.337	78.6918
942.512	78.6918
942.687	28.10047
942.862	169.36666
943.037	38.63923
943.212	103.99236
943.386	34.42366
943.561	76.58356
943.736	87.12496
943.911	9.13219
944.086	93.45007
944.26	101.88386
944.435	55.50246
944.61	68.15085
944.785	76.58356
944.959	59.7185
945.134	-7.72688
945.309	68.15085
945.483	53.39447
945.658	42.8549
945.833	146.16698
946.007	82.90833
946.182	59.7185
946.357	25.99279
946.531	51.28651
946.706	51.28651
946.88	57.61047
947.055	42.8549
947.229	47.07066
947.404	72.36716
947.578	85.01664
947.752	72.36716
947.927	21.7775
948.101	89.23331
948.276	47.07066
948.45	34.42366
948.624	118.75249
948.799	28.10047
948.973	87.12496
949.147	101.88386
949.321	44.96277
949.496	131.40488
949.67	61.82655
949.844	127.18734
950.018	2.80986
950.193	78.6918
950.367	28.10047
950.541	11.23968
950.715	152.49392
950.889	61.82655
951.063	72.36716
951.237	110.318
951.411	146.16698
951.585	68.15085
951.759	85.01664
951.933	36.53143
952.107	85.01664
952.281	95.55848
952.455	66.04272
952.629	74.47535
952.803	44.96277
952.977	59.7185
953.151	44.96277
953.325	61.82655
953.499	72.36716
953.672	17.5623
953.846	11.23968
954.02	85.01664
954.194	42.8549
954.368	95.55848
954.541	21.7775
954.715	116.64384
954.889	51.28651
955.062	61.82655
955.236	72.36716
955.41	49.17857
955.583	76.58356
955.757	51.28651
955.93	59.7185
956.104	85.01664
956.278	106.10089
956.451	68.15085
956.625	89.23331
956.798	116.64384
956.972	139.84024
957.145	179.9128
957.319	76.58356
957.492	21.7775
957.665	17.5623
957.839	61.82655
958.012	101.88386
958.185	4.91728
958.359	2.80986
958.532	57.61047
958.705	51.28651
958.879	135.62252
959.052	68.15085
959.225	66.04272
959.398	17.5623
959.572	63.93463
959.745	51.28651
959.918	68.15085
960.091	28.10047
960.264	110.318
960.438	55.50246
960.611	59.7185
960.784	139.84024
960.957	51.28651
961.13	144.05805
961.303	40.74705
961.476	179.9128
961.649	118.75249
961.822	76.58356
961.995	106.10089
962.168	101.88386
962.341	76.58356
962.514	36.53143
962.686	61.82655
962.859	63.93463
963.032	11.23968
963.205	135.62252
963.378	144.05805
963.551	85.01664
963.723	25.99279
963.896	21.7775
964.069	47.07066
964.242	103.99236
964.414	103.99236
964.587	21.7775
964.76	42.8549
964.932	116.64384
965.105	87.12496
965.278	70.25899
965.45	80.80005
965.623	25.99279
965.795	101.88386
965.968	89.23331
966.14	112.42659
966.313	135.62252
966.485	95.55848
966.658	106.10089
966.83	76.58356
967.003	82.90833
967.175	23.88513
967.348	59.7185
967.52	-3.51226
967.692	85.01664
967.865	59.7185
968.037	99.77538
968.209	87.12496
968.382	42.8549
968.554	36.53143
968.726	160.93012
968.898	122.96987
969.071	82.90833
969.243	11.23968
969.415	19.66988
969.587	76.58356
969.759	19.66988
969.932	-1.40491
970.104	95.55848
970.276	23.88513
970.448	42.8549
970.62	-24.5844
970.792	68.15085
970.964	85.01664
971.136	129.2961
971.308	125.07859
971.48	42.8549
971.652	93.45007
971.824	122.96987
971.996	-1.40491
972.168	-28.79853
972.339	34.42366
972.511	4.91728
972.683	80.80005
972.855	85.01664
973.027	80.80005
973.199	4.91728
973.37	-7.72688
973.542	-28.79853
973.714	95.55848
973.886	11.23968
974.057	106.10089
974.229	63.93463
974.401	30.20817
974.572	47.07066
974.744	55.50246
974.915	61.82655
975.087	68.15085
975.259	55.50246
975.43	36.53143
975.602	30.20817
975.773	17.5623
975.945	68.15085
976.116	85.01664
976.288	38.63923
976.459	17.5623
976.63	13.34719
976.802	25.99279
976.973	-39.33343
977.145	89.23331
977.316	51.28651
977.487	63.93463
977.659	49.17857
977.83	19.66988
978.001	30.20817
978.172	80.80005
978.344	28.10047
978.515	34.42366
978.686	-5.61958
978.857	42.8549
979.028	21.7775
979.2	47.07066
979.371	34.42366
979.542	30.20817
979.713	-7.72688
979.884	55.50246
980.055	25.99279
980.226	61.82655
980.397	76.58356
980.568	47.07066
980.739	97.66692
980.91	106.10089
981.081	59.7185
981.252	59.7185
981.423	38.63923
981.594	55.50246
981.765	68.15085
981.936	17.5623
982.106	-7.72688
982.277	103.99236
982.448	76.58356
982.619	44.96277
982.79	-16.15583
982.96	125.07859
983.131	25.99279
983.302	85.01664
983.472	38.63923
983.643	44.96277
983.814	-26.69148
983.984	47.07066
984.155	19.66988
984.326	40.74705
984.496	47.07066
984.667	53.39447
984.837	85.01664
985.008	2.80986
985.178	-33.01256
985.349	4.91728
985.519	47.07066
985.69	-7.72688
985.86	72.36716
986.031	17.5623
986.201	32.3159
986.371	4.91728
986.542	-1.40491
986.712	-7.72688
986.882	9.13219
987.053	47.07066
987.223	21.7775
987.393	30.20817
987.563	-9.83416
987.734	11.23968
987.904	66.04272
988.074	-20.37016
988.244	70.25899
988.414	112.42659
988.585	-7.72688
988.755	51.28651
988.925	25.99279
989.095	30.20817
989.265	63.93463
989.435	30.20817
989.605	17.5623
989.775	34.42366
989.945	-49.86771
990.115	93.45007
990.285	36.53143
990.455	-22.47729
990.625	25.99279
990.795	-37.2265
990.965	21.7775
991.134	11.23968
991.304	-37.2265
991.474	42.8549
991.644	11.23968
991.814	0.70246
991.984	61.82655
992.153	-26.69148
992.323	19.66988
992.493	57.61047
992.662	-47.7609
992.832	51.28651
993.002	13.34719
993.171	112.42659
993.341	17.5623
993.511	2.80986
993.68	15.45473
993.85	2.80986
994.019	42.8549
994.189	68.15085
994.358	47.07066
994.528	47.07066
994.697	11.23968
994.867	-20.37016
995.036	112.42659
995.206	11.23968
995.375	4.91728
995.544	2.80986
995.714	78.6918
995.883	-24.5844
996.052	76.58356
996.222	51.28651
996.391	15.45473
996.56	9.13219
996.73	61.82655
996.899	95.55848
997.068	13.34719
997.237	0.70246
997.406	9.13219
997.576	13.34719
997.745	59.7185
997.914	-16.15583
998.083	-22.47729
998.252	51.28651
998.421	9.13219
998.59	21.7775
998.759	53.39447
998.928	0.70246
999.097	21.7775
999.266	-1.40491
999.435	-16.15583
999.604	51.28651
999.773	32.3159
999.942	42.8549
1000.111	-33.01256
1000.28	30.20817
1000.448	-33.01256
1000.617	68.15085
1000.786	-11.94141
1000.955	0.70246
1001.124	59.7185
1001.292	11.23968
1001.461	-7.72688
1001.63	68.15085
1001.798	-11.94141
1001.967	91.34168
1002.136	70.25899
1002.304	-62.50801
1002.473	11.23968
1002.642	9.13219
1002.81	21.7775
1002.979	-33.01256
1003.147	59.7185
1003.316	-9.83416
1003.484	-24.5844
1003.653	51.28651
1003.821	68.15085
1003.99	-14.04863
1004.158	30.20817
1004.327	57.61047
1004.495	25.99279
1004.663	-7.72688
1004.832	38.63923
1005	61.82655
1005.168	38.63923
1005.337	25.99279
1005.505	68.15085
1005.673	89.23331
1005.842	53.39447
1006.01	-7.72688
1006.178	30.20817
1006.346	89.23331
1006.514	-9.83416
1006.683	36.53143
1006.851	-16.15583
1007.019	68.15085
1007.187	55.50246
1007.355	53.39447
1007.523	30.20817
1007.691	-28.79853
1007.859	19.66988
1008.027	9.13219
1008.195	-3.51226
1008.363	34.42366
1008.531	-37.2265
1008.699	11.23968
1008.867	4.91728
1009.035	85.01664
1009.203	106.10089
1009.37	9.13219
1009.538	34.42366
1009.706	-24.5844
1009.874	-39.33343
1010.042	25.99279
1010.209	0.70246
1010.377	51.28651
1010.545	17.5623
1010.713	30.20817
1010.88	11.23968
1011.048	13.34719
1011.216	17.5623
1011.383	-16.15583
1011.551	4.91728
1011.718	25.99279
1011.886	30.20817
1012.054	36.53143
1012.221	19.66988
1012.389	-24.5844
1012.556	-3.51226
1012.724	-64.61464
1012.891	-16.15583
1013.058	-5.61958
1013.226	-24.5844
1013.393	42.8549
1013.561	51.28651
1013.728	28.10047
1013.895	-66.72124
1014.063	-45.65407
1014.23	70.25899
1014.397	-49.86771
1014.565	-49.86771
1014.732	-14.04863
1014.899	2.80986
1015.066	44.96277
1015.233	40.74705
1015.401	13.34719
1015.568	-20.37016
1015.735	40.74705
1015.902	25.99279
1016.069	0.70246
1016.236	-24.5844
1016.403	25.99279
1016.57	-51.97449
1016.737	61.82655
1016.904	19.66988
1017.071	19.66988
1017.238	-3.51226
1017.405	11.23968
1017.572	19.66988
1017.739	51.28651
1017.906	-24.5844
1018.073	13.34719
1018.24	-1.40491
1018.407	42.8549
1018.573	-5.61958
1018.74	68.15085
1018.907	-3.51226
1019.074	63.93463
1019.241	51.28651
1019.407	28.10047
1019.574	0.70246
1019.741	55.50246
1019.907	-16.15583
1020.074	59.7185
1020.241	68.15085
1020.407	34.42366
1020.574	-58.29468
1020.74	-30.90556
1020.907	21.7775
1021.073	17.5623
1021.24	19.66988
1021.406	85.01664
1021.573	-39.33343
1021.739	17.5623
1021.906	-35.11954
1022.072	-14.04863
1022.239	-11.94141
1022.405	25.99279
1022.571	42.8549
1022.738	68.15085
1022.904	30.20817
1023.07	30.20817
1023.237	129.2961
1023.403	30.20817
1023.569	-20.37016
1023.735	2.80986
1023.902	-14.04863
1024.068	78.6918
1024.234	-24.5844
1024.4	23.88513
1024.566	-1.40491
1024.732	-16.15583
1024.898	-39.33343
1025.065	-16.15583
1025.231	-51.97449
1025.397	-75.1474
1025.563	-5.61958
1025.729	-28.79853
1025.895	68.15085
1026.061	-9.83416
1026.227	0.70246
1026.392	61.82655
1026.558	-22.47729
1026.724	-28.79853
1026.89	13.34719
1027.056	59.7185
1027.222	44.96277
1027.388	-7.72688
1027.553	-3.51226
1027.719	61.82655
1027.885	-5.61958
1028.051	36.53143
1028.216	-14.04863
1028.382	-20.37016
1028.548	36.53143
1028.713	17.5623
1028.879	19.66988
1029.045	32.3159
1029.21	-58.29468
1029.376	-35.11954
1029.541	4.91728
1029.707	59.7185
1029.873	25.99279
1030.038	72.36716
1030.204	-39.33343
1030.369	51.28651
1030.534	-37.2265
1030.7	-28.79853
1030.865	2.80986
1031.031	-3.51226
1031.196	0.70246
1031.361	44.96277
1031.527	47.07066
1031.692	-7.72688
1031.857	-1.40491
1032.023	42.8549
1032.188	78.6918
1032.353	-37.2265
1032.518	-3.51226
1032.684	19.66988
1032.849	21.7775
1033.014	-33.01256
1033.179	0.70246
1033.344	-7.72688
1033.509	-16.15583
1033.674	-37.2265
1033.839	51.28651
1034.004	-7.72688
1034.17	47.07066
1034.335	55.50246
1034.5	-11.94141
1034.664	30.20817
1034.829	-75.1474
1034.994	42.8549
1035.159	25.99279
1035.324	42.8549
1035.489	-7.72688
1035.654	-30.90556
1035.819	72.36716
1035.984	59.7185
1036.148	59.7185
1036.313	36.53143
1036.478	-9.83416
1036.643	2.80986
1036.807	13.34719
1036.972	-37.2265
1037.137	38.63923
1037.301	0.70246
1037.466	-33.01256
1037.631	-41.44034
1037.795	23.88513
1037.96	-1.40491
1038.124	42.8549
1038.289	-14.04863
1038.454	34.42366
1038.618	2.80986
1038.783	11.23968
1038.947	76.58356
1039.111	30.20817
1039.276	68.15085
1039.44	-7.72688
1039.605	0.70246
1039.769	-7.72688
1039.933	2.80986
1040.098	-7.72688
1040.262	-22.47729
1040.426	30.20817
1040.591	9.13219
1040.755	17.5623
1040.919	-54.08124
1041.083	30.20817
1041.248	17.5623
1041.412	9.13219
1041.576	59.7185
1041.74	-7.72688
1041.904	-24.5844
1042.068	-37.2265
1042.232	38.63923
1042.397	19.66988
1042.561	9.13219
1042.725	59.7185
1042.889	-30.90556
1043.053	19.66988
1043.217	21.7775
1043.381	15.45473
1043.544	40.74705
1043.708	17.5623
1043.872	-58.29468
1044.036	-7.72688
1044.2	17.5623
1044.364	30.20817
1044.528	36.53143
1044.691	-3.51226
1044.855	25.99279
1045.019	-30.90556
1045.183	53.39447
1045.346	-7.72688
1045.51	34.42366
1045.674	28.10047
1045.837	-16.15583
1046.001	-3.51226
1046.165	-33.01256
1046.328	-30.90556
1046.492	34.42366
1046.655	-16.15583
1046.819	51.28651
1046.983	-16.15583
1047.146	36.53143
1047.31	-85.67951
1047.473	21.7775
1047.636	11.23968
1047.8	34.42366
1047.963	-35.11954
1048.127	-9.83416
1048.29	7.02472
