Data from mixed_try1_USB4F045381__21__00043.txt Node

Date: Thu Apr 03 19:34:07 EDT 2025
User: mmckonesweet
Spectrometer: USB4F04538
Trigger mode: 4
Integration Time (sec): 2.700000E-3
Scans to average: 1
Electric dark correction enabled: true
Nonlinearity correction enabled: true
Boxcar width: 0
XAxis mode: Wavelengths
Number of Pixels in Spectrum: 3648
>>>>>Begin Spectral Data<<<<<
345.52	115.58952
345.736	115.58952
345.952	115.58952
346.168	33.36978
346.384	12.29343
346.6	8.07845
346.816	-34.06606
347.032	-21.42373
347.248	29.15432
347.464	3.86356
347.68	-40.38689
347.896	31.26204
348.112	5.97099
348.328	-29.85205
348.544	-15.10224
348.76	48.12461
348.975	14.40096
349.191	83.96248
349.407	-2.45859
349.623	5.97099
349.839	-38.27997
350.055	37.58533
350.27	62.88058
350.486	-0.35123
350.702	37.58533
350.918	-21.42373
351.133	41.80097
351.349	50.23254
351.565	14.40096
351.781	43.90883
351.996	22.83131
352.212	31.26204
352.428	39.69314
352.644	58.66448
352.859	24.93896
353.075	56.55646
353.291	-71.98763
353.506	24.93896
353.722	31.26204
353.938	-17.20943
354.153	10.18593
354.369	33.36978
354.584	39.69314
354.8	81.85419
355.016	102.93811
355.231	-10.88778
355.447	62.88058
355.662	-29.85205
355.878	88.17913
356.093	27.04663
356.309	75.52945
356.524	46.01671
356.74	71.31307
356.955	39.69314
357.171	37.58533
357.386	46.01671
357.602	67.09678
357.817	109.26371
358.033	22.83131
358.248	12.29343
358.464	92.39587
358.679	-0.35123
358.895	12.29343
359.11	-19.31659
359.325	24.93896
359.541	14.40096
359.756	-27.74501
359.972	67.09678
360.187	5.97099
360.402	-44.60065
360.618	37.58533
360.833	50.23254
361.048	31.26204
361.264	22.83131
361.479	48.12461
361.694	33.36978
361.909	3.86356
362.125	-17.20943
362.34	20.72369
362.555	46.01671
362.77	50.23254
362.986	22.83131
363.201	79.74592
363.416	22.83131
363.631	-122.53679
363.847	-17.20943
364.062	71.31307
364.277	96.6127
364.492	14.40096
364.707	-25.63794
364.922	-42.49378
365.138	5.97099
365.353	43.90883
365.568	-29.85205
365.783	24.93896
365.998	33.36978
366.213	22.83131
366.428	-12.99502
366.643	-122.53679
366.858	71.31307
367.073	29.15432
367.288	48.12461
367.503	3.86356
367.718	46.01671
367.933	5.97099
368.148	8.07845
368.363	-21.42373
368.578	5.97099
368.793	102.93811
369.008	14.40096
369.223	56.55646
369.438	22.83131
369.653	48.12461
369.868	-6.67324
370.083	105.04662
370.298	50.23254
370.513	48.12461
370.728	14.40096
370.943	31.26204
371.157	54.44846
371.372	105.04662
371.587	50.23254
371.802	41.80097
372.017	22.83131
372.232	46.01671
372.446	8.07845
372.661	58.66448
372.876	54.44846
373.091	12.29343
373.306	12.29343
373.52	52.34049
373.735	24.93896
373.95	69.20492
374.165	71.31307
374.379	92.39587
374.594	46.01671
374.809	50.23254
375.023	8.07845
375.238	29.15432
375.453	8.07845
375.667	67.09678
375.882	81.85419
376.097	54.44846
376.311	20.72369
376.526	27.04663
376.741	-8.78052
376.955	20.72369
377.17	-65.66794
377.384	33.36978
377.599	3.86356
377.813	-17.20943
378.028	48.12461
378.242	33.36978
378.457	54.44846
378.672	39.69314
378.886	37.58533
379.101	54.44846
379.315	100.82962
379.53	31.26204
379.744	-46.70749
379.958	1.75615
380.173	54.44846
380.387	69.20492
380.602	88.17913
380.816	-55.13461
381.031	41.80097
381.245	-8.78052
381.459	62.88058
381.674	-2.45859
381.888	58.66448
382.103	-4.56592
382.317	31.26204
382.531	-4.56592
382.746	37.58533
382.96	81.85419
383.174	-0.35123
383.388	33.36978
383.603	-12.99502
383.817	52.34049
384.031	46.01671
384.246	16.50851
384.46	16.50851
384.674	56.55646
384.888	73.42125
385.103	46.01671
385.317	75.52945
385.531	115.58952
385.745	16.50851
385.959	41.80097
386.174	50.23254
386.388	64.98867
386.602	62.88058
386.816	-34.06606
387.03	14.40096
387.244	1.75615
387.458	31.26204
387.672	-27.74501
387.887	37.58533
388.101	8.07845
388.315	33.36978
388.529	81.85419
388.743	-4.56592
388.957	18.61609
389.171	3.86356
389.385	79.74592
389.599	67.09678
389.813	75.52945
390.027	39.69314
390.241	121.91552
390.455	3.86356
390.669	-17.20943
390.883	102.93811
391.097	48.12461
391.311	22.83131
391.525	18.61609
391.738	-2.45859
391.952	113.4809
392.166	37.58533
392.38	62.88058
392.594	67.09678
392.808	-21.42373
393.022	10.18593
393.236	3.86356
393.449	60.77252
393.663	-67.77453
393.877	46.01671
394.091	56.55646
394.305	43.90883
394.518	22.83131
394.732	71.31307
394.946	-0.35123
395.16	39.69314
395.373	46.01671
395.587	113.4809
395.801	37.58533
396.015	20.72369
396.228	88.17913
396.442	35.47754
396.656	-21.42373
396.869	71.31307
397.083	62.88058
397.297	12.29343
397.51	-0.35123
397.724	83.96248
397.938	43.90883
398.151	12.29343
398.365	67.09678
398.578	41.80097
398.792	111.37229
399.005	-17.20943
399.219	37.58533
399.433	69.20492
399.646	75.52945
399.86	-8.78052
400.073	-10.88778
400.287	41.80097
400.5	54.44846
400.714	75.52945
400.927	100.82962
401.141	-2.45859
401.354	-4.56592
401.567	81.85419
401.781	62.88058
401.994	115.58952
402.208	29.15432
402.421	3.86356
402.635	-25.63794
402.848	37.58533
403.061	8.07845
403.275	1.75615
403.488	60.77252
403.701	33.36978
403.915	24.93896
404.128	29.15432
404.341	-0.35123
404.555	37.58533
404.768	8.07845
404.981	8.07845
405.195	92.39587
405.408	64.98867
405.621	41.80097
405.834	12.29343
406.048	29.15432
406.261	39.69314
406.474	-67.77453
406.687	62.88058
406.9	16.50851
407.114	5.97099
407.327	29.15432
407.54	20.72369
407.753	20.72369
407.966	37.58533
408.179	52.34049
408.392	56.55646
408.605	73.42125
408.819	5.97099
409.032	81.85419
409.245	-10.88778
409.458	46.01671
409.671	50.23254
409.884	62.88058
410.097	83.96248
410.31	126.13296
410.523	79.74592
410.736	5.97099
410.949	-10.88778
411.162	140.89469
411.375	-15.10224
411.588	29.15432
411.801	14.40096
412.014	-34.06606
412.227	33.36978
412.44	20.72369
412.653	48.12461
412.865	29.15432
413.078	-8.78052
413.291	50.23254
413.504	37.58533
413.717	37.58533
413.93	-25.63794
414.143	96.6127
414.356	62.88058
414.568	46.01671
414.781	46.01671
414.994	22.83131
415.207	5.97099
415.42	12.29343
415.632	-21.42373
415.845	88.17913
416.058	20.72369
416.271	14.40096
416.483	75.52945
416.696	14.40096
416.909	73.42125
417.121	12.29343
417.334	50.23254
417.547	102.93811
417.759	16.50851
417.972	81.85419
418.185	58.66448
418.397	12.29343
418.61	20.72369
418.823	81.85419
419.035	62.88058
419.248	105.04662
419.46	73.42125
419.673	41.80097
419.885	105.04662
420.098	5.97099
420.311	43.90883
420.523	113.4809
420.736	18.61609
420.948	96.6127
421.161	56.55646
421.373	24.93896
421.586	117.69816
421.798	54.44846
422.01	8.07845
422.223	98.72115
422.435	124.02423
422.648	81.85419
422.86	29.15432
423.073	33.36978
423.285	138.7858
423.497	35.47754
423.71	88.17913
423.922	5.97099
424.134	46.01671
424.347	79.74592
424.559	79.74592
424.771	75.52945
424.984	58.66448
425.196	14.40096
425.408	27.04663
425.621	14.40096
425.833	83.96248
426.045	64.98867
426.257	-2.45859
426.47	81.85419
426.682	-50.9211
426.894	71.31307
427.106	62.88058
427.318	24.93896
427.531	14.40096
427.743	50.23254
427.955	-40.38689
428.167	20.72369
428.379	31.26204
428.591	12.29343
428.804	52.34049
429.016	105.04662
429.228	41.80097
429.44	-21.42373
429.652	79.74592
429.864	43.90883
430.076	48.12461
430.288	64.98867
430.5	48.12461
430.712	81.85419
430.924	-2.45859
431.136	37.58533
431.348	46.01671
431.56	-48.81431
431.772	92.39587
431.984	12.29343
432.196	100.82962
432.408	-4.56592
432.62	64.98867
432.832	10.18593
433.044	71.31307
433.256	62.88058
433.468	22.83131
433.679	46.01671
433.891	62.88058
434.103	43.90883
434.315	31.26204
434.527	62.88058
434.739	79.74592
434.95	79.74592
435.162	50.23254
435.374	-10.88778
435.586	20.72369
435.798	71.31307
436.009	121.91552
436.221	62.88058
436.433	27.04663
436.645	96.6127
436.856	48.12461
437.068	75.52945
437.28	37.58533
437.491	20.72369
437.703	64.98867
437.915	98.72115
438.126	46.01671
438.338	83.96248
438.55	50.23254
438.761	67.09678
438.973	83.96248
439.184	39.69314
439.396	29.15432
439.608	22.83131
439.819	22.83131
440.031	14.40096
440.242	24.93896
440.454	-17.20943
440.665	71.31307
440.877	79.74592
441.088	54.44846
441.3	24.93896
441.511	20.72369
441.723	132.45929
441.934	109.26371
442.146	35.47754
442.357	33.36978
442.569	83.96248
442.78	102.93811
442.991	56.55646
443.203	96.6127
443.414	90.28749
443.626	16.50851
443.837	90.28749
444.048	43.90883
444.26	81.85419
444.471	64.98867
444.682	75.52945
444.894	71.31307
445.105	56.55646
445.316	-0.35123
445.528	130.35049
445.739	64.98867
445.95	126.13296
446.161	92.39587
446.373	60.77252
446.584	46.01671
446.795	121.91552
447.006	96.6127
447.217	88.17913
447.429	8.07845
447.64	115.58952
447.851	43.90883
448.062	56.55646
448.273	50.23254
448.484	107.15516
448.695	71.31307
448.907	54.44846
449.118	111.37229
449.329	41.80097
449.54	109.26371
449.751	119.80683
449.962	75.52945
450.173	56.55646
450.384	16.50851
450.595	39.69314
450.806	56.55646
451.017	79.74592
451.228	136.67694
451.439	41.80097
451.65	58.66448
451.861	24.93896
452.072	90.28749
452.283	94.50427
452.494	109.26371
452.705	105.04662
452.915	96.6127
453.126	58.66448
453.337	5.97099
453.548	33.36978
453.759	81.85419
453.97	92.39587
454.181	155.65745
454.391	67.09678
454.602	-10.88778
454.813	107.15516
455.024	64.98867
455.235	115.58952
455.445	140.89469
455.656	140.89469
455.867	46.01671
456.078	79.74592
456.288	102.93811
456.499	79.74592
456.71	14.40096
456.921	73.42125
457.131	94.50427
457.342	145.11251
457.553	113.4809
457.763	147.22146
457.974	18.61609
458.184	183.07674
458.395	71.31307
458.606	121.91552
458.816	79.74592
459.027	157.7665
459.237	121.91552
459.448	109.26371
459.659	88.17913
459.869	71.31307
460.08	143.00359
460.29	48.12461
460.501	22.83131
460.711	178.85816
460.922	119.80683
461.132	105.04662
461.343	113.4809
461.553	195.73297
461.764	69.20492
461.974	50.23254
462.184	121.91552
462.395	134.5681
462.605	75.52945
462.816	105.04662
463.026	159.87558
463.236	130.35049
463.447	96.6127
463.657	147.22146
463.867	48.12461
464.078	46.01671
464.288	164.09378
464.498	161.98467
464.709	96.6127
464.919	113.4809
465.129	88.17913
465.339	151.43941
465.55	180.96744
465.76	161.98467
465.97	126.13296
466.18	130.35049
466.391	189.40476
466.601	159.87558
466.811	138.7858
467.021	143.00359
467.231	212.60907
467.441	185.18606
467.651	216.8283
467.862	174.63967
468.072	271.68532
468.282	176.7489
468.492	206.28038
468.702	208.38993
468.912	214.71868
469.122	320.22329
469.332	235.81579
469.542	265.355
469.752	244.25518
469.962	294.89792
470.172	275.90563
470.382	265.355
470.592	275.90563
470.802	311.78121
471.012	280.12601
471.222	316.00221
471.432	332.88694
471.642	309.67074
471.852	326.55503
472.062	406.7706
472.272	351.8836
472.482	383.5478
472.691	368.7707
472.901	360.32701
473.111	400.43691
473.321	326.55503
473.531	478.56239
473.741	434.21827
473.95	510.24083
474.16	383.5478
474.37	459.55694
474.58	527.13733
474.79	510.24083
474.999	493.34525
475.209	506.01685
475.419	626.42187
475.628	560.93302
475.838	594.73216
476.048	632.76015
476.258	605.29508
476.467	727.84706
476.677	742.64038
476.886	799.70503
477.096	797.5914
477.306	746.86714
477.515	774.34207
477.725	806.04598
477.935	907.51217
478.144	907.51217
478.354	856.7766
478.563	947.68104
478.773	994.19557
478.982	1015.3396
479.192	970.93789
479.401	1042.82774
479.611	1019.56848
479.82	1025.91184
480.03	1006.88191
480.239	1017.45403
480.449	1070.31686
480.658	1321.98119
480.868	1239.49783
481.077	1288.14145
481.287	1241.61274
481.496	1398.12207
481.705	1309.29123
481.915	1446.7682
482.124	1465.80367
482.333	1497.52941
482.543	1389.6619
482.752	1713.25638
482.961	1529.25502
483.171	1687.87797
483.38	1635.00495
483.589	1601.16545
483.799	1670.95878
484.008	1702.6821
484.217	1592.70549
484.426	1876.08828
484.636	1888.77534
484.845	1859.1719
485.054	1876.08828
485.263	1990.26464
485.472	1865.51558
485.682	2305.20013
485.891	2091.73927
486.1	2271.39049
486.309	2032.54766
486.518	2271.39049
486.727	2188.96978
486.936	2417.1767
487.146	2381.26278
487.355	2450.97525
487.564	2438.30112
487.773	2588.25249
487.982	2541.79487
488.191	2687.48309
488.4	2548.13034
488.609	2598.81023
488.818	2518.56394
489.027	2626.25894
489.236	2740.25387
489.445	2835.22021
489.654	2822.55963
489.863	3020.84902
490.072	2873.19889
490.281	2881.63798
490.49	2930.15822
490.698	3067.23808
490.907	3122.05176
491.116	3035.60999
491.325	3054.58726
491.534	3214.78863
491.743	3227.4321
491.952	3235.86075
492.16	3332.77082
492.369	3446.48809
492.578	3299.06706
492.787	3467.54116
492.996	3385.42408
493.204	3619.06938
493.413	3427.53879
493.622	3635.89991
493.831	3387.52999
494.039	3562.25752
494.248	3627.4848
494.457	3745.2686
494.665	3804.13778
494.874	3919.72859
495.083	3871.39795
495.291	3659.0399
495.5	3764.1925
495.709	3896.61526
495.917	3968.04857
496.126	4094.04975
496.335	3938.63768
496.543	4213.68148
496.752	4024.75827
496.96	4110.84429
497.169	4249.34782
497.377	4154.92356
497.586	4106.64578
497.794	4337.43813
498.003	4299.68978
498.211	4595.19591
498.42	4282.9105
498.628	4500.93291
498.837	4339.53506
499.045	4375.17948
499.254	4373.08292
499.462	4618.23113
499.671	4628.70078
499.879	4936.25638
500.087	4666.38692
500.296	4810.78277
500.504	4731.27373
500.713	4852.61645
500.921	4727.08814
501.129	4695.69332
501.338	4626.6069
501.546	4886.07682
501.754	4846.34198
501.962	4944.61836
502.171	4810.78277
502.379	5118.04607
502.587	5030.30736
502.795	5099.24836
503.004	4971.79223
503.212	5326.78255
503.42	5038.66519
503.628	5333.04104
503.837	5136.8419
504.045	5360.1587
504.253	5345.55737
504.461	5406.04109
504.669	5428.97802
504.877	5458.16637
505.085	5412.2969
505.294	5631.1168
505.502	5308.00584
505.71	5516.52923
505.918	5666.52035
506.126	5789.33858
506.334	5320.52386
506.542	5789.33858
506.75	5360.1587
506.958	5726.8989
507.166	5593.62327
507.374	6070.05439
507.582	5789.33858
507.79	5959.89867
507.998	6036.8068
508.206	6070.05439
508.414	5847.59645
508.622	6157.30064
508.83	5968.21462
509.037	6140.6855
509.245	5812.22781
509.453	6115.75998
509.661	6045.11926
509.869	6454.0434
510.077	6153.147
510.285	6441.60225
510.492	6223.74617
510.7	6412.56963
510.908	6136.53148
511.116	6310.91951
511.324	6321.29454
511.531	6574.26481
511.739	6487.21572
511.947	6325.44439
512.155	6445.74939
512.362	6530.74537
512.57	6352.41612
512.778	6597.05664
512.985	6514.16385
513.193	6754.45132
513.401	6700.62071
513.608	6663.34427
513.816	6464.41039
514.024	6880.68561
514.231	6725.46753
514.439	6961.34847
514.646	6661.27314
514.854	6957.21275
515.061	6543.18054
515.269	6810.33598
515.477	6773.08139
515.684	7066.77892
515.892	6882.75431
516.099	7068.8456
516.307	6953.07694
516.514	7137.03351
516.722	6973.75509
516.929	7114.3069
517.136	7010.97008
517.344	7223.78306
517.551	6917.9189
517.759	7345.57974
517.966	7114.3069
518.173	7463.17543
518.381	7225.84805
518.588	7287.78747
518.796	7106.04202
519.003	7492.0478
519.21	7560.08741
519.418	7537.41014
519.625	7287.78747
519.832	7628.1037
520.039	7601.31218
520.247	7510.60638
520.454	7621.92136
520.661	7735.23396
520.868	7463.17543
521.076	8130.30507
521.283	7609.5561
521.49	7634.28585
521.697	7733.1743
521.904	7967.8413
522.112	7755.8294
522.319	8222.79167
522.526	7856.71683
522.733	8083.01851
522.94	8048.06072
523.147	7949.32471
523.354	8039.83451
523.561	8233.06548
523.768	8095.35516
523.975	8391.22014
524.183	8091.24302
524.39	8335.77649
524.597	8288.53552
524.804	8343.99126
525.011	8383.00716
525.218	8569.77664
525.425	8265.93834
525.632	8424.06899
525.838	8434.33324
526.045	8545.15672
526.252	8497.96091
526.459	8801.48275
526.666	8660.02659
526.873	8875.25154
527.08	8826.07494
527.287	8887.54407
527.494	8662.07731
527.701	8729.74055
527.907	8760.48994
528.114	9037.05202
528.321	9059.5725
528.528	8893.69009
528.735	9059.5725
528.941	8938.75604
529.148	8821.97643
529.355	9098.46657
529.562	8760.48994
529.768	9141.4475
529.975	8737.94079
530.182	8920.32101
530.388	9145.54053
530.595	9166.00464
530.802	8873.20272
531.008	9709.74468
531.215	9301.02536
531.422	9354.19536
531.628	9552.46314
531.835	9241.7071
532.042	9288.75377
532.248	9677.07038
532.455	9433.92955
532.661	9777.12308
532.868	9679.11264
533.074	9744.45684
533.281	9734.24784
533.487	9907.74969
533.694	9685.23932
533.9	9946.51781
534.107	9611.7099
534.313	9856.73092
534.52	9924.07375
534.726	9664.8165
534.933	9734.24784
535.139	10077.06679
535.345	9938.35654
535.552	10032.19719
535.758	10095.42056
535.965	10136.20264
536.171	10146.39729
536.377	10346.14329
536.584	10227.94204
536.79	10390.96653
536.996	10480.59405
537.203	10608.88136
537.409	10199.40388
537.615	10183.09515
537.821	10315.57833
538.028	10464.3
538.234	10478.55734
538.44	10712.69691
538.646	10517.25268
538.853	10539.65315
539.059	10454.1158
539.265	10555.94344
539.471	10468.37359
539.677	10763.57539
539.883	10641.45437
540.09	10582.41345
540.296	10676.05975
540.502	11243.51681
540.708	10753.40029
540.914	11072.76056
541.12	10844.96556
541.326	11276.03343
541.532	11078.8603
541.738	11188.639
541.944	11095.12578
542.15	11123.58871
542.356	11125.6217
542.562	11172.37744
542.768	11097.15892
542.974	11064.62743
543.18	10859.20692
543.386	11540.13639
543.592	11399.9793
543.798	11631.51901
544.004	11698.52121
544.21	11542.16732
544.415	11206.93244
544.621	11728.97354
544.827	11351.21815
545.033	11599.02955
545.239	11371.53599
545.445	11887.29432
545.651	11785.81263
545.856	11956.28998
546.062	11731.00363
546.268	11637.61053
546.474	11659.94538
546.679	11544.19824
546.885	11627.45796
547.091	11842.64498
547.297	11692.4305
547.502	11795.96176
547.708	11769.57359
547.914	11992.8133
548.119	12146.99484
548.325	12082.08173
548.531	12047.59345
548.736	12246.37824
548.942	12179.44851
549.147	12114.53926
549.353	11960.34825
549.559	12080.05307
549.764	12410.62752
549.97	12297.07735
550.175	12412.65501
550.381	12402.5175
550.586	12250.43433
550.792	12293.02158
550.997	12288.96579
551.203	12497.80349
551.408	12485.64013
551.614	12447.12127
551.819	12818.02559
552.025	12998.34155
552.23	12589.02139
552.435	12597.12903
552.641	12953.77293
552.846	12972.00585
553.052	12645.77283
553.257	12767.36732
553.462	12815.99933
553.668	12858.54971
553.873	12761.2881
554.078	12763.31451
554.283	12852.47123
554.489	13006.44467
554.694	13095.5738
554.899	13081.3948
555.105	12799.78902
555.31	13093.54825
555.515	13146.21121
555.72	13338.60769
555.925	13251.52785
556.131	13257.60344
556.336	13016.57346
556.541	13474.27522
556.746	13587.65594
556.951	13383.1572
557.156	13148.23665
557.361	13405.43122
557.567	13263.679
557.772	13541.09023
557.977	13585.63138
558.182	13715.19626
558.387	13613.97487
558.592	13678.7575
558.797	13796.16766
559.002	13613.97487
559.207	13844.74821
559.412	13901.42345
559.617	13707.09885
559.822	14026.91126
560.027	13690.90387
560.232	13925.71219
560.437	13413.53075
560.642	13741.5125
560.847	13632.19533
561.051	13962.14458
561.256	13662.56216
561.461	14047.15033
561.666	13820.45814
561.871	14051.19812
562.076	13848.79651
562.281	13885.23075
562.485	13765.80395
562.69	14041.07864
562.895	13848.79651
563.1	14215.126
563.305	13818.43395
563.509	14215.126
563.714	14170.60376
563.919	14627.92961
564.123	13954.04857
564.328	14247.50521
564.533	14008.69589
564.737	14049.17423
564.942	14281.9076
565.147	14368.9231
565.351	14010.71983
565.556	14419.5121
565.761	14330.47478
565.965	14561.15652
566.17	14229.29197
566.374	14435.70038
566.579	14555.08618
566.784	14696.72491
566.988	14526.75776
567.193	14569.25029
567.397	14150.36605
567.602	14791.82258
567.806	14633.99983
568.011	15020.45593
568.215	14882.87204
568.42	14512.59346
568.624	14644.11684
568.828	14712.91188
569.033	14688.6314
569.237	15060.92148
569.442	14824.19587
569.646	14678.5145
569.85	15259.20214
570.055	15261.22541
570.259	15285.50472
570.463	15141.85238
570.668	15075.0844
570.872	14832.28917
571.076	15014.38608
571.281	15386.66894
571.485	15036.64216
571.689	14901.08179
571.893	15109.48004
572.098	15595.0709
572.302	15071.03785
572.506	15451.41454
572.71	15398.8087
572.914	15724.56721
573.119	15319.90047
573.323	15580.90744
573.527	15336.08673
573.731	15730.63744
573.935	15321.92375
574.139	15730.63744
574.343	15230.87631
574.547	15688.14601
574.751	15748.84819
574.955	15673.98229
575.159	15548.53397
575.364	15894.53733
575.568	15667.91213
575.772	15566.74403
575.976	15633.51475
576.18	15653.74848
576.383	15827.76241
576.587	15680.05245
576.791	15586.97749
576.995	15971.43134
577.199	15803.48094
577.403	16090.82338
577.607	16048.32732
577.811	16009.87908
578.015	15852.04405
578.219	16248.67201
578.422	16034.16212
578.626	16232.48194
578.83	16165.69904
579.034	16210.22077
579.238	16451.05793
579.442	16513.80158
579.645	16078.68158
579.849	16503.6815
580.053	16321.52877
580.257	16151.53321
580.46	16007.8555
580.664	16973.3137
580.868	16121.17811
581.071	16572.49908
581.275	16467.24965
581.479	16434.86634
581.682	16283.0763
581.886	16074.63432
582.09	16604.8847
582.293	16843.74692
582.497	16475.34556
582.7	16845.77132
582.904	16738.48152
583.107	16655.48837
583.311	16697.99657
583.515	16857.91778
583.718	16750.62719
583.922	17173.75896
584.125	16823.50306
584.329	16884.23541
584.532	16916.62693
584.735	17060.37246
584.939	16785.0404
585.142	16908.52899
585.346	16756.70006
585.549	17102.89137
585.753	16738.48152
585.956	17236.53033
586.159	17145.41151
586.363	17325.63002
586.566	17374.23229
586.769	17374.23229
586.973	17244.63006
587.176	17451.18951
587.379	17295.25448
587.582	17275.00449
587.786	17428.91196
587.989	17459.29053
588.192	17426.88675
588.395	17605.11758
588.599	17501.82171
588.802	17647.65362
589.005	17272.97951
589.208	17487.6445
589.411	17390.43344
589.615	17643.60251
589.818	17761.09021
590.021	17908.97887
590.224	17900.8749
590.427	17866.43367
590.63	17443.08854
590.833	17779.32207
591.036	17763.11596
591.239	18091.333
591.442	17592.96469
591.645	17943.42134
591.848	18229.13102
592.051	18030.54508
592.254	17813.76079
592.457	18115.64907
592.66	18127.8073
592.863	18289.92968
593.066	18279.79634
593.269	18271.68973
593.472	18531.13106
593.675	18547.34822
593.878	18310.19665
594.081	18462.21088
594.284	18445.99501
594.486	18707.50602
594.689	18760.22153
594.892	18589.91944
595.095	18482.48106
595.298	18810.91204
595.5	18569.64721
595.703	18979.22244
595.906	18500.72455
596.109	18650.73844
596.311	18362.89251
596.514	18508.83287
596.717	18936.63527
596.92	18867.68837
597.122	18500.72455
597.325	18531.13106
597.528	18514.91415
597.73	19149.58898
597.933	18620.3285
598.136	18770.35943
598.338	18547.34822
598.541	18954.8867
598.743	18946.77491
598.946	18723.72589
599.148	18987.33448
599.351	18936.63527
599.554	18711.56096
599.756	18904.18909
599.959	19133.36236
600.161	19092.79695
600.363	19287.52585
600.566	19419.39507
600.768	19036.0081
600.971	19429.53958
601.173	19297.66901
601.376	19299.69766
601.578	19376.78926
601.78	19478.23468
601.983	19370.70286
602.185	19287.52585
602.388	19378.81806
602.59	19583.74895
602.792	19127.27744
602.995	19165.81586
603.197	19395.04867
603.399	19476.20567
603.601	19476.20567
603.804	19646.65705
604.006	19547.2235
604.208	19336.21399
604.41	19543.1652
604.613	19693.3334
604.815	19490.40883
605.017	19729.86426
605.219	19809.01913
605.421	19403.16407
605.623	19397.07751
605.826	19330.12784
606.028	19094.82518
606.23	19253.03985
606.432	19520.84485
606.634	19693.3334
606.836	19559.3985
607.038	19699.42178
607.24	19654.77452
607.442	19567.51525
607.644	19717.68716
607.846	19802.93006
608.048	19561.42768
608.25	19888.18037
608.452	19766.39648
608.654	19819.16765
608.856	19786.69275
609.058	20024.19026
609.26	19934.86821
609.462	20162.24945
609.664	20243.46983
609.866	19884.12067
610.067	19800.90038
610.269	20172.40163
610.471	19928.77836
610.673	20058.70323
610.875	20286.11321
611.077	20105.39919
611.278	19794.81137
611.48	20060.73345
611.682	19711.59866
611.884	20481.07799
612.085	20397.80706
612.287	20342.97395
612.489	19831.34601
612.69	20109.45982
612.892	19993.73864
613.094	20550.13728
613.295	19908.47916
613.497	20200.82829
613.699	19985.61837
613.9	20280.02119
614.102	19928.77836
614.304	20304.38952
614.505	20085.09633
614.707	20440.45715
614.908	19924.71849
615.11	20233.31691
615.311	20312.51243
615.513	20046.52204
615.714	19981.55826
615.916	20310.4817
616.117	19839.465
616.319	19871.94165
616.52	19746.10064
616.722	20009.97939
616.923	20127.73283
617.124	19886.15052
617.326	19776.54456
617.527	20245.50042
617.729	20533.8876
617.93	20466.86051
618.131	20178.49299
618.333	20336.88157
618.534	20383.59077
618.735	20688.27033
618.937	20349.06636
619.138	20125.70248
619.339	20180.52345
619.54	20474.98476
619.742	20148.03658
619.943	20509.51359
620.144	20292.20528
620.345	20749.2175
620.546	20655.7667
620.748	20862.99554
620.949	20432.33318
621.15	20686.23882
621.351	20271.89855
621.552	20387.65255
621.753	20024.19026
621.954	20255.65346
622.155	20054.64282
622.356	20802.0414
622.558	20562.32471
622.759	20661.86105
622.96	20720.77502
623.161	20765.47071
623.362	20351.09718
623.563	20515.60703
623.764	20501.38905
623.965	20812.20017
624.166	20901.60175
624.366	20808.13665
624.567	20688.27033
624.768	21114.97861
624.969	20310.4817
625.17	20452.64322
625.371	20684.20732
625.572	20913.79349
625.773	20899.5698
625.973	20688.27033
626.174	20552.16851
626.375	20852.83626
626.576	21137.33498
626.777	20781.72419
626.977	20694.36488
627.178	20787.81931
627.379	20936.14541
627.58	20793.91447
627.78	21119.04337
627.981	21045.8802
628.182	20854.86811
628.382	20611.07595
628.583	20554.19974
628.784	20690.30184
628.984	20464.82945
629.185	21257.25484
629.386	20515.60703
629.586	21367.02433
629.787	21182.04921
629.987	21009.30061
630.188	20950.36961
630.388	21060.10596
630.589	20678.11283
630.79	21137.33498
630.99	20560.29346
631.191	21031.65465
631.391	21253.18953
631.591	21263.35284
631.792	21025.55804
631.992	21397.51793
632.193	21350.76144
632.393	21692.33551
632.594	21021.49366
632.794	21175.9517
632.994	20641.5467
633.195	21147.49713
633.395	20932.08138
633.595	21112.94623
633.796	21125.14053
633.996	21112.94623
634.196	21135.30256
634.397	21489.00413
634.597	21324.3348
634.797	21509.33549
634.997	21204.40706
635.198	21570.33195
635.398	21318.23644
635.598	21944.52059
635.798	21859.09642
635.998	21572.36523
636.199	21747.24171
636.399	21517.46815
636.599	21114.97861
636.799	21560.16563
636.999	21035.71907
637.199	21476.8055
637.399	21806.21819
637.599	21745.2081
637.799	21576.43179
637.999	22005.54197
638.199	21570.33195
638.399	21682.16801
638.599	21826.55566
638.799	22038.08811
638.999	21745.2081
639.199	22082.84062
639.399	21684.2015
639.599	21751.30895
639.799	21517.46815
639.999	21836.72454
640.199	21588.63158
640.399	21842.82592
640.599	20889.41015
640.799	22009.61019
640.998	22198.79876
641.198	21899.77375
641.398	21877.40103
641.598	21828.58943
641.798	22017.74666
641.997	21922.14694
642.197	21883.50263
642.397	21773.67904
642.597	21419.88048
642.796	21694.36902
642.996	21753.34257
643.196	21791.98219
643.395	21706.57018
643.595	21840.79212
643.795	21820.45438
643.994	22023.84905
644.194	21716.73792
644.394	22056.39573
644.593	21848.92733
644.793	22090.97764
644.992	21832.65698
645.192	22046.22479
645.392	22351.39362
645.591	22137.76665
645.791	22070.63521
645.99	22237.45417
646.19	21903.84157
646.389	22471.44935
646.589	22158.11031
646.788	22495.869
646.987	22103.18328
647.187	22506.04401
647.386	22245.59232
647.586	22304.59567
647.785	22416.50703
647.984	22717.70428
648.184	22176.41993
648.383	22249.66141
648.582	22040.12227
648.782	22398.19351
648.981	22243.55777
649.18	22172.3511
649.38	22361.56735
649.579	22628.15105
649.778	22343.25471
649.977	22526.39429
650.177	22284.24933
650.376	22398.19351
650.575	22219.14355
650.774	22644.43295
650.973	22233.38511
651.173	22190.66095
651.372	22510.11404
651.571	22567.09593
651.77	22324.94237
651.969	22504.009
652.168	22198.79876
652.367	22463.30958
652.566	22147.93843
652.765	22589.48244
652.964	22821.51305
653.163	22746.19991
653.362	22736.02282
653.561	22133.69796
653.76	22721.77505
653.959	22760.44798
654.158	22337.15056
654.357	22497.904
654.556	22339.18527
654.755	22701.42137
654.954	22819.4775
655.153	22204.90216
655.352	22538.60464
655.551	22839.83318
655.749	22611.86937
655.948	23092.27171
656.147	22868.3317
656.346	23218.51013
656.545	23004.7267
656.743	22797.08665
656.942	22640.36245
657.141	22935.50944
657.34	22656.64452
657.538	22819.4775
657.737	22793.01563
657.936	23591.18862
658.135	23075.98381
658.333	23185.93127
658.532	23092.27171
658.731	23016.94192
658.929	23006.76256
659.128	22760.44798
659.326	22876.47426
659.525	23238.87233
659.724	22786.90913
659.922	22854.08236
660.121	22813.37087
660.319	22709.5628
660.518	22463.30958
660.716	22685.13869
660.915	22953.83127
661.113	22933.47369
661.312	22845.93995
661.51	22996.58329
661.709	22815.40641
661.907	23039.33679
662.105	23069.87589
662.304	23163.53379
662.502	22876.47426
662.701	23163.53379
662.899	22774.69622
663.097	23346.79738
663.296	23067.83993
663.494	23379.38028
663.692	22978.26082
663.891	23595.26219
664.089	23234.79986
664.287	23043.40862
664.485	22752.30621
664.684	23324.3971
664.882	22974.18919
665.08	22854.08236
665.278	23086.16372
665.476	23322.36073
665.675	23493.42677
665.873	23440.4754
666.071	23073.94783
666.269	23118.74002
666.467	22790.98013
666.665	23065.80397
666.863	22856.11797
667.061	22978.26082
667.259	23086.16372
667.457	23240.90857
667.655	22605.7638
667.853	22795.05114
668.051	23063.76801
668.249	22894.79522
668.447	22847.97555
668.645	22823.54861
668.843	22786.90913
669.041	22697.35068
669.239	22528.42934
669.437	22709.5628
669.635	22670.89152
669.833	22780.80266
670.031	22294.42245
670.229	22713.63354
670.426	22754.34165
670.624	22847.97555
670.822	22923.29503
671.02	22858.15358
671.218	22736.02282
671.415	22689.20934
671.613	22583.37698
671.811	22974.18919
672.009	22884.61687
672.206	23308.10624
672.404	22540.6397
672.602	22821.51305
672.799	22935.50944
672.997	23316.25164
673.195	22927.36648
673.392	23367.1616
673.59	23132.99241
673.788	22923.29503
673.985	22790.98013
674.183	22927.36648
674.38	22827.61973
674.578	22742.12907
674.775	22762.48343
674.973	22835.76202
675.17	23106.52381
675.368	23027.12135
675.565	23116.70397
675.763	22896.8309
675.96	22907.00934
676.158	22862.22482
676.355	22416.50703
676.553	22703.45672
676.75	22872.40298
676.947	23163.53379
677.145	22953.83127
677.342	23008.79843
677.539	22880.54556
677.737	22676.99743
677.934	22514.18408
678.131	22876.47426
678.329	22801.15769
678.526	23010.83429
678.723	23018.9778
678.92	23458.80448
679.118	23135.02848
679.315	23137.06455
679.512	23291.81557
679.709	23078.01978
679.906	22567.09593
680.104	23043.40862
680.301	22966.04599
680.498	22229.31608
680.695	22365.63686
680.892	22339.18527
681.089	22457.20479
681.286	22506.04401
681.483	22060.46414
681.68	22422.6116
681.877	22290.3532
682.075	22428.71621
682.272	22158.11031
682.469	22451.10004
682.665	22398.19351
682.862	22298.49173
683.059	22383.94986
683.256	22666.82093
683.453	22300.52637
683.65	22483.65911
683.847	22457.20479
684.044	22467.37946
684.241	22031.98563
684.438	22449.06512
684.635	22099.11471
684.831	22630.18627
685.028	22111.32044
685.225	22318.83832
685.422	22168.28229
685.619	22326.97706
685.815	22274.07631
686.012	22447.03022
686.209	21946.55458
686.405	22211.00559
686.602	22054.36154
686.799	22196.76431
686.996	22668.85622
687.192	22107.25185
687.389	22713.63354
687.586	22286.28395
687.782	22304.59567
687.979	22208.97111
688.175	22152.00718
688.372	21930.28276
688.568	21814.35313
688.765	21926.21484
688.962	21966.8947
689.158	21916.04511
689.355	21745.2081
689.551	21879.43489
689.748	21637.43216
689.944	21615.06495
690.14	21863.16408
690.337	22038.08811
690.533	22066.56677
690.73	21983.16707
690.926	22345.28943
691.123	22027.91734
691.319	21781.81373
691.515	22233.38511
691.712	21698.43606
691.908	21722.8386
692.104	21810.28565
692.301	21802.15074
692.497	21501.2029
692.693	21755.3762
692.889	21916.04511
693.086	21802.15074
693.282	21946.55458
693.478	22253.73053
693.674	21757.40984
693.87	21972.99681
694.067	21722.8386
694.263	21588.63158
694.459	21704.53664
694.655	22001.47377
694.851	21735.04009
695.047	21901.80766
695.243	21647.59923
695.439	21342.6301
695.635	21802.15074
695.831	21765.54441
696.027	21564.23215
696.224	21558.13238
696.42	21556.09913
696.615	21442.24351
696.811	21458.50783
697.007	21576.43179
697.203	21056.04144
697.399	21432.07843
697.595	21686.235
697.791	21696.40254
697.987	21672.0006
698.183	21627.26519
698.379	21306.03983
698.575	21596.76486
698.77	21448.3426
698.966	21708.60372
699.162	21651.66609
699.358	21932.31672
699.554	21143.43226
699.749	21401.58381
699.945	21428.01243
700.141	21718.77147
700.337	21637.43216
700.532	21855.02877
700.728	21552.03264
700.924	21708.60372
701.119	21525.60087
701.315	21119.04337
701.511	20808.13665
701.706	21352.79429
701.902	21025.55804
702.097	21421.91346
702.293	21220.66763
702.489	21192.21181
702.684	21338.56445
702.88	21442.24351
703.075	21279.61434
703.271	21204.40706
703.466	21251.15688
703.662	20966.62609
703.857	20763.43904
704.053	21141.39983
704.248	21584.56497
704.443	21458.50783
704.639	21600.83152
704.834	21369.05721
705.03	21151.56202
705.225	21047.91244
705.42	21080.42881
705.616	21338.56445
705.811	20830.4862
706.006	21041.81574
706.202	20991.01131
706.397	21224.73281
706.592	21558.13238
706.787	21411.74859
706.983	21011.33277
707.178	21131.23774
707.373	21171.88671
707.568	20797.97793
707.763	20791.88274
707.959	20785.7876
708.154	20832.51801
708.349	20940.20944
708.544	21082.46112
708.739	21060.10596
708.934	20596.85659
709.129	20970.69025
709.324	20659.8296
709.519	20696.3964
709.714	20379.52901
709.909	20730.93296
710.104	20562.32471
710.299	20600.91925
710.494	20763.43904
710.689	21029.62244
710.884	21127.17293
711.079	21114.97861
711.274	20960.52988
711.469	21251.15688
711.664	20893.474
711.859	20765.47071
712.054	20663.89251
712.249	20592.79396
712.443	20692.33336
712.638	20298.29738
712.833	20117.58111
713.028	20848.77257
713.223	20046.52204
713.417	20627.3269
713.612	20925.98538
713.807	21082.46112
714.002	20814.23193
714.196	21157.65939
714.391	20789.85102
714.586	21249.12424
714.78	21056.04144
714.975	20820.32725
715.17	20921.9214
715.364	20928.01738
715.559	20856.89996
715.754	20785.7876
715.948	20570.44975
716.143	20127.73283
716.337	19859.76278
716.532	20564.35597
716.726	20712.64875
716.921	21275.54894
717.115	20923.95339
717.31	20881.2825
717.504	20887.37823
717.699	20932.08138
717.893	20680.14432
718.088	20444.51916
718.282	20556.23098
718.476	20345.00475
718.671	20330.78923
718.865	20217.07247
719.059	19898.32971
719.254	20016.06974
719.448	19940.95809
719.642	20168.34075
719.837	19699.42178
720.031	20131.79355
720.225	19813.07852
720.419	19999.82889
720.614	20042.46168
720.808	19809.01913
721.002	19668.98024
721.196	19969.37803
721.39	20182.55391
721.585	20389.68344
721.779	20676.08134
721.973	20282.05186
722.167	19796.84104
722.361	19768.42609
722.555	19821.19736
722.749	19530.9904
722.943	19577.66128
723.137	19289.55447
723.331	19171.90101
723.525	19508.67033
723.719	19760.30769
723.913	19906.44926
724.107	19671.00965
724.301	19322.01303
724.495	19267.23982
724.689	19750.15977
724.883	19218.55504
725.077	19612.15856
725.271	19506.64126
725.465	19725.80521
725.659	19847.58406
725.853	19977.49817
726.046	19648.68641
726.24	19169.87262
726.434	19251.0113
726.628	19689.2745
726.822	19322.01303
727.015	19656.80389
727.209	19476.20567
727.403	19953.13796
727.596	19823.22708
727.79	19762.33728
727.984	19679.12732
728.177	19953.13796
728.371	19896.29984
728.565	19457.94476
728.758	19673.03906
728.952	19666.95084
729.146	19671.00965
729.339	19884.12067
729.533	19800.90038
729.726	19772.48532
729.92	19888.18037
730.113	19936.89816
730.307	19526.93217
730.5	19668.98024
730.694	19806.98943
730.887	19904.41937
731.081	19991.70857
731.274	19569.54445
731.468	19224.64051
731.661	19504.61219
731.854	19232.75452
732.048	19068.45848
732.241	19094.82518
732.435	19760.30769
732.628	19468.08967
732.821	19470.11866
733.014	19433.59741
733.208	20020.12999
733.401	19597.95365
733.594	19630.42232
733.788	19354.47265
733.981	19742.04152
734.174	19338.24271
734.367	19498.52501
734.56	19827.28654
734.754	19535.04865
734.947	19559.3985
735.14	19437.65526
735.333	19224.64051
735.526	19614.18785
735.719	19131.33405
735.912	19050.20502
736.105	18656.82053
736.298	18948.80285
736.491	18873.77174
736.684	19017.75522
736.877	18969.08248
737.07	19111.05118
737.263	19117.136
737.456	19255.0684
737.649	18865.66059
737.842	18754.13883
738.035	19182.04301
738.228	19009.64294
738.421	19151.61732
738.614	19141.47563
738.807	19204.35576
739	18995.44659
739.192	19044.1206
739.385	19490.40883
739.578	19141.47563
739.771	19263.18267
739.964	18885.93857
740.156	19551.28182
740.349	19161.75912
740.542	18987.33448
740.735	19011.671
740.927	19092.79695
741.12	18930.55153
741.313	18865.66059
741.505	18971.11046
741.698	18746.02863
741.891	18859.57728
742.083	18938.66319
742.276	19139.44731
742.468	18877.82733
742.661	18729.80841
742.854	18819.02276
743.046	18616.27391
743.239	18492.61629
743.431	18808.88438
743.624	18618.3012
743.816	18814.96739
744.009	18685.2041
744.201	18881.88294
744.393	18685.2041
744.586	18561.53843
744.778	18867.68837
744.971	18723.72589
745.163	18841.32755
745.355	18616.27391
745.548	18806.85671
745.74	18790.63554
745.932	18754.13883
746.125	18476.39997
746.317	18768.33185
746.509	18812.93972
746.702	18691.28639
746.894	18346.67812
747.086	18107.54366
747.278	18589.91944
747.471	18843.35528
747.663	18794.69081
747.855	18863.63282
748.047	18681.14926
748.239	18750.08372
748.431	18632.49237
748.623	18573.70163
748.815	18085.25406
749.008	18535.18533
749.2	18468.29189
749.392	19076.57124
749.584	18409.5102
749.776	18510.85996
749.968	18575.72884
750.16	18705.47855
750.352	18364.91932
750.544	18559.51125
750.736	18450.04896
750.928	18379.10713
751.12	18233.18416
751.311	18034.59751
751.503	18115.64907
751.695	18302.08981
751.887	18427.75245
752.079	18750.08372
752.271	18523.02257
752.463	18269.66309
752.654	18395.32199
752.846	18251.42348
753.038	18113.62271
753.23	18131.86008
753.421	18223.05134
753.613	18261.55656
753.805	18468.29189
753.997	18488.56219
754.188	18119.7018
754.38	18075.12257
754.572	17763.11596
754.763	18054.85986
754.955	18042.70241
755.146	17827.94172
755.338	17949.49953
755.53	17803.63165
755.721	17957.60383
755.913	18468.29189
756.104	17846.1746
756.296	17809.70912
756.487	17858.33
756.679	17844.14871
756.87	17637.52586
757.062	17684.11424
757.253	17599.04112
757.445	17566.63383
757.636	17198.05723
757.827	17520.04979
758.019	17629.42371
758.21	17483.59389
758.401	17451.18951
758.593	17655.75589
758.784	17266.90458
758.975	17189.95776
759.167	17104.91611
759.358	17185.90804
759.549	17194.00749
759.74	17074.5453
759.932	17173.75896
760.123	17374.23229
760.314	17303.35455
760.505	17301.32953
760.696	17060.37246
760.888	17572.71013
761.079	17418.78593
761.27	17434.98762
761.461	17064.42183
761.652	17325.63002
761.843	17218.3061
762.034	16855.89336
762.225	17102.89137
762.416	17074.5453
762.607	16975.33827
762.798	17560.55755
762.989	17090.74299
763.18	17131.23799
763.371	16505.70551
763.562	17159.58517
763.753	17088.71827
763.944	17311.45468
764.135	17127.18844
764.326	17214.2563
764.517	16906.50451
764.708	16859.94219
764.899	16554.28242
765.089	16313.43346
765.28	16430.81847
765.471	16544.16213
765.662	16368.07739
765.853	16394.38794
766.043	16264.8622
766.234	16467.24965
766.425	16082.72884
766.615	16645.36753
766.806	16536.06594
766.997	16347.83874
767.187	16337.71948
767.378	16845.77132
767.569	16519.87365
767.759	16329.62411
767.95	16459.15377
768.141	16323.5526
768.331	16086.7761
768.522	16527.96978
768.712	16888.28431
768.903	16702.04502
769.093	16428.79453
769.284	16032.13852
769.474	15868.2319
769.665	15862.16145
769.855	15975.47845
770.046	16052.37454
770.236	15985.59624
770.426	15609.23439
770.617	15785.26994
770.807	15985.59624
770.998	15714.45018
771.188	15945.12528
771.378	15854.06753
771.569	15926.91353
771.759	15845.97362
771.949	15562.69734
772.139	15671.9589
772.33	15589.00084
772.52	15795.38715
772.71	15722.54381
772.9	15645.65498
773.09	15854.06753
773.281	16076.65795
773.471	15918.81945
773.661	15722.54381
773.851	15536.39396
774.041	15497.95076
774.231	15645.65498
774.421	15508.06737
774.611	15427.13488
774.802	15273.36506
774.992	14909.175
775.182	15153.992
775.372	15427.13488
775.562	15277.41161
775.752	15421.06498
775.942	15018.43265
776.131	15204.57377
776.321	14998.19983
776.511	15113.52658
776.701	14935.47787
776.891	15002.24639
777.081	14795.86926
777.271	14872.7555
777.461	15156.01527
777.651	15129.71276
777.84	14998.19983
778.03	14961.78067
778.22	14623.88279
778.41	14892.98857
778.599	14745.28565
778.789	14992.12998
778.979	14979.99026
779.169	15048.78182
779.358	14593.5315
779.548	15083.1775
779.738	14929.40799
779.927	14692.67816
780.117	14751.35571
780.307	14731.12215
780.496	14907.1517
780.686	14710.88851
780.875	14459.98263
781.065	14688.6314
781.254	14678.5145
781.444	14808.00925
781.633	14518.66388
781.823	14370.94668
782.012	14650.18704
782.202	14447.84153
782.391	14453.91208
782.581	14257.62362
782.77	14014.7677
782.96	14292.02584
783.149	13958.09658
783.338	14283.93125
783.528	13879.15844
783.717	14176.67503
783.906	13974.28853
784.096	14014.7677
784.285	14381.06455
784.474	14253.57626
784.663	14334.522
784.853	14348.68722
785.042	14225.24456
785.231	14115.96145
785.42	14144.29469
785.61	14330.47478
785.799	14233.33937
785.988	14271.78931
786.177	13972.26455
786.366	14202.98367
786.555	14006.67195
786.744	14156.43738
786.933	13911.54381
787.122	14103.8185
787.312	13954.04857
787.501	14174.65128
787.69	13674.70868
787.879	13575.50854
788.068	13690.90387
788.257	13638.26875
788.445	13368.98257
788.634	13820.45814
788.823	13557.28721
789.012	13630.17085
789.201	13253.55305
789.39	13452.00265
789.579	13360.88269
789.768	13798.19188
789.957	13464.15138
790.145	13480.34948
790.334	13650.41552
790.523	13298.10641
790.712	13310.25697
790.9	13360.88269
791.089	12953.77293
791.278	13140.13488
791.467	13051.01042
791.655	13565.38561
791.844	13156.33834
792.033	13245.45222
792.221	12980.10923
792.41	13243.427
792.599	12864.62814
792.787	12759.26168
792.976	13154.31293
793.164	13190.76974
793.353	13044.93341
793.541	13184.6937
793.73	12897.04561
793.918	13004.4189
794.107	12836.26172
794.295	12880.83705
794.484	12661.98666
794.672	12763.31451
794.861	12864.62814
795.049	12919.33183
795.238	12589.02139
795.426	12745.07657
795.614	12548.48168
795.803	12674.14677
795.991	12528.21088
796.179	12751.15593
796.368	12661.98666
796.556	12803.84163
796.744	12534.29219
796.932	12781.55199
797.121	12461.3127
797.309	12491.72184
797.497	12643.74608
797.685	12443.06651
797.874	12516.0481
798.062	12432.92951
798.25	12220.01293
798.438	12566.72486
798.626	12597.12903
798.814	12390.35228
799.002	12516.0481
799.19	12359.93814
799.378	12297.07735
799.566	12485.64013
799.755	12475.50382
799.943	12617.39771
800.131	12311.27231
800.318	12045.56465
800.506	12258.54643
800.694	12443.06651
800.882	12434.95692
801.07	12775.47288
801.258	12670.09343
801.446	12795.73639
801.634	12317.35575
801.822	12532.26509
802.01	12175.3919
802.197	12637.66578
802.385	12361.9658
802.573	12623.47819
802.761	12288.96579
802.949	12550.50872
803.136	12315.32794
803.324	12542.40051
803.512	12445.09389
803.699	12467.39465
803.887	12813.97306
804.075	12611.31717
804.262	12451.176
804.45	12520.10239
804.638	12347.77206
804.825	12690.35993
805.013	12546.45463
805.201	12730.89118
805.388	12353.85513
805.576	12418.73743
805.763	12301.13309
805.951	12351.82744
806.138	12142.938
806.326	12465.36734
806.513	12051.65101
806.701	12473.47653
806.888	11909.61748
807.075	12355.88281
807.263	12205.81571
807.45	12469.42195
807.638	12347.77206
807.825	12584.96753
808.012	12230.15358
808.2	12576.85974
808.387	12540.37344
808.574	12978.08339
808.761	12461.3127
808.949	12252.46237
809.136	12268.68639
809.323	12266.65842
809.51	11990.78429
809.698	12276.79824
809.885	12499.8307
810.072	12609.29031
810.259	12293.02158
810.446	12361.9658
810.633	12280.85412
810.82	12363.99345
811.008	12319.38356
811.195	12603.2097
811.382	12477.53109
811.569	12530.23799
811.756	12524.15665
811.943	12722.78512
812.13	12647.79958
812.317	12591.04831
812.504	12288.96579
812.691	12455.2307
812.878	12491.72184
813.064	12716.70551
813.251	12321.41135
813.438	12605.23658
813.625	12345.74435
813.812	12098.31074
813.999	12447.12127
814.186	12254.49039
814.372	12477.53109
814.559	12276.79824
814.746	11988.75528
814.933	12248.40629
815.12	11984.69723
815.306	11948.17333
815.493	11866.99966
815.68	12264.63043
815.866	12246.37824
816.053	12323.43914
816.24	12183.50508
816.426	12363.99345
816.613	12274.77029
816.799	12370.07636
816.986	12102.36791
817.173	12224.06921
817.359	12029.33403
817.546	12455.2307
817.732	11942.08576
817.919	12386.29715
818.105	12088.16766
818.292	12262.60244
818.478	12260.57444
818.665	12100.33933
818.851	11931.93965
819.037	12191.61814
819.224	11806.11067
819.41	12100.33933
819.597	12004.98716
819.783	12073.96704
819.969	12021.21854
820.156	11980.63915
820.342	12118.59631
820.528	12234.20978
820.714	11952.23167
820.901	12171.33527
821.087	12019.18964
821.273	12394.40738
821.459	11915.70544
821.646	12465.36734
821.832	12305.18879
822.018	12146.99484
822.204	11708.67221
822.39	11761.45386
822.576	11414.20023
822.762	11731.00363
822.948	11385.75788
823.134	11927.88114
823.32	11637.61053
823.507	11519.82658
823.693	12100.33933
823.879	11927.88114
824.065	11864.97015
824.25	11621.36631
824.436	11560.44526
824.622	11684.30944
824.808	11905.5588
824.994	11818.28907
825.18	11603.09086
825.366	11795.96176
825.552	11464.98537
825.738	11696.49098
825.923	11635.58003
826.109	11860.9111
826.295	11690.40025
826.481	11747.244
826.667	11674.15791
826.852	11745.21398
827.038	11670.09723
827.224	11477.17291
827.409	11424.35774
827.595	11659.94538
827.781	11125.6217
827.966	11280.09782
828.152	11204.89988
828.338	11436.54644
828.523	10989.38763
828.709	11032.09315
828.894	10787.99442
829.08	11117.48969
829.266	10895.82496
829.451	11200.83472
829.637	10680.13074
829.822	11030.05967
830.008	10910.0643
830.193	11141.8852
830.378	11021.92561
830.564	11208.965
830.749	11225.22505
830.935	11237.41965
831.12	11133.75354
831.305	11208.965
831.491	10958.88069
831.676	11288.22649
831.861	10859.20692
832.047	10861.24135
832.232	10724.90843
832.417	11001.58971
832.602	10804.27283
832.788	10993.45504
832.973	11064.62743
833.158	11131.72059
833.343	10899.8934
833.528	10883.61936
833.714	10602.77356
833.899	10751.36524
834.084	10413.37576
834.269	10741.18978
834.454	10551.87094
834.639	10635.34717
834.824	10423.56126
835.009	10452.07892
835.194	10439.85737
835.379	10661.8109
835.564	10174.94046
835.749	10549.83467
835.934	10154.55276
836.119	10476.52061
836.304	10313.54055
836.489	10535.58045
836.674	10174.94046
836.859	10285.01036
837.044	10258.51567
837.228	10368.55571
837.413	10152.51391
837.598	10535.58045
837.783	9942.4372
837.968	10248.3248
838.152	9950.59836
838.337	10119.89048
838.522	9785.28904
838.707	10183.09515
838.891	9811.82674
839.076	10264.63003
839.261	9903.66852
839.445	10276.85839
839.63	9940.39688
839.815	10134.16367
839.999	10085.22416
840.184	10390.96653
840.368	10297.23791
840.553	10158.63041
840.737	9991.40065
840.922	10093.3813
841.106	9875.09874
841.291	10111.73406
841.475	9958.75928
841.66	9777.12308
841.844	9672.98581
842.029	9695.45016
842.213	9693.40802
842.397	9773.04001
842.582	9709.74468
842.766	9646.43463
842.951	9538.16021
843.135	9452.32623
843.319	9346.01609
843.504	9595.36728
843.688	9480.9407
843.872	9719.9546
844.056	9368.50846
844.241	9864.89454
844.425	9501.37768
844.609	9313.29635
844.793	9558.59273
844.977	9713.8287
845.161	9548.37667
845.346	9654.60451
845.53	9415.53155
845.714	9576.98064
845.898	9384.8653
846.082	9501.37768
846.266	9611.7099
846.45	9703.61855
846.634	9327.61176
846.818	9464.58996
847.002	9262.16326
847.186	9480.9407
847.37	9313.29635
847.554	9611.7099
847.738	9339.88146
847.922	9325.56675
848.106	9433.92955
848.29	9057.52527
848.473	9112.79439
848.657	8977.66971
848.841	8948.9971
849.025	8905.98166
849.209	8793.28477
849.392	8983.81339
849.576	8754.34039
849.76	8883.44663
849.944	8875.25154
850.127	8961.28578
850.311	8916.22414
850.495	9350.10576
850.678	8803.5322
850.862	9221.24926
851.046	8705.13806
851.229	8926.46618
851.413	8580.03414
851.596	9116.8879
851.78	8817.87784
851.964	9108.70081
852.147	8778.93761
852.331	8895.73873
852.514	8436.38603
852.698	8530.79384
852.881	8161.13842
853.065	8259.77507
853.248	8218.68201
853.431	8280.31864
853.615	8167.30455
853.798	8405.59212
853.982	8070.68113
854.165	7965.78398
854.348	8041.89109
854.532	8518.48206
854.715	8017.21076
854.898	8249.50254
855.081	8029.55129
855.265	8547.20848
855.448	8058.34303
855.631	8249.50254
855.814	7918.46006
855.997	8015.15393
856.181	7712.57655
856.364	7963.72664
856.547	7939.03701
856.73	8152.91663
856.913	7718.7561
857.096	8148.80562
857.279	8080.96233
857.462	8286.48133
857.645	7982.24194
857.828	8245.39339
858.011	8196.07746
858.194	7815.54433
858.377	7533.28672
858.56	7665.19372
858.743	7593.0679
858.926	7726.9952
859.109	7543.5951
859.292	7788.77774
859.475	7500.29627
859.658	7838.19024
859.841	7636.34652
860.023	7932.86414
860.206	7547.71831
860.389	7576.57834
860.572	7469.36272
860.755	7574.51705
860.937	7378.59619
861.12	7421.92182
861.303	7467.30031
861.486	7667.25408
861.668	7510.60638
861.851	7415.73303
862.034	7271.27223
862.216	7419.85892
862.399	7037.84305
862.581	6957.21275
862.764	7124.63751
862.947	7366.21568
863.129	7199.00146
863.312	7591.00678
863.494	7234.10779
863.677	7467.30031
863.859	7234.10779
864.042	7176.2822
864.224	6847.58317
864.406	7143.2312
864.589	7021.30629
864.771	7118.43921
864.954	6710.97395
865.136	7072.97889
865.318	6454.0434
865.501	6897.23464
865.683	6841.37582
865.865	6988.22846
866.048	6688.19606
866.23	6901.37168
866.412	6963.4163
866.594	7083.31173
866.777	6766.87157
866.959	6876.54812
867.141	6655.05961
867.323	6752.3812
867.505	6771.01147
867.687	6719.25613
867.869	6793.77929
868.052	6895.16609
868.234	6804.12739
868.416	6797.9186
868.598	6758.5915
868.78	6849.65225
868.962	6522.4548
869.144	6752.3812
869.326	6487.21572
869.508	6568.04837
869.69	6534.89052
869.872	6717.18562
870.054	6675.77058
870.236	6837.23747
870.417	6644.70326
870.599	6706.83272
870.781	6601.20031
870.963	6659.20199
871.145	6526.60013
871.327	6578.40899
871.508	6209.21326
871.69	6449.89644
871.872	6393.9034
872.054	6559.75947
872.235	6169.76101
872.417	6362.78882
872.599	6420.86513
872.78	6406.34776
872.962	6269.41354
873.144	6381.45819
873.325	6335.8186
873.507	6408.42174
873.689	6130.30028
873.87	6516.23662
874.052	6319.21958
874.233	6410.4957
874.415	6070.05439
874.596	6439.52864
874.778	6094.98612
874.959	6246.58127
875.141	5986.92412
875.322	6319.21958
875.503	6288.09239
875.685	6420.86513
875.866	6346.19222
876.048	6412.56963
876.229	6350.34151
876.41	6385.60669
876.592	6053.43135
876.773	6476.85001
876.954	6030.57221
877.136	6275.64004
877.317	6020.18075
877.498	6215.44179
877.679	6165.60765
877.86	6219.59403
878.042	5957.81963
878.223	6288.09239
878.404	6229.97421
878.585	6238.27793
878.766	6013.94559
878.947	6451.96993
879.128	6132.37737
879.309	6103.29595
879.49	6126.14603
879.672	6281.86632
879.853	6269.41354
880.034	6194.67921
880.215	5876.71845
880.396	6246.58127
880.576	6030.57221
880.757	6094.98612
880.938	6248.65705
881.119	6225.82221
881.3	6036.8068
881.481	6406.34776
881.662	6331.66898
881.843	6342.04284
882.023	6431.23398
882.204	6406.34776
882.385	6229.97421
882.566	6121.99168
882.747	6138.60851
882.927	6277.71549
883.108	6126.14603
883.289	6369.01215
883.469	6024.3374
883.65	6416.71743
883.831	6229.97421
884.011	6555.61487
884.192	6493.43487
884.373	6458.19026
884.553	6259.03559
884.734	6630.20341
884.914	6082.52068
885.095	6690.26689
885.275	6277.71549
885.456	6543.18054
885.636	6580.48104
885.817	6572.19269
885.997	6398.05161
886.178	6721.32662
886.358	6383.53245
886.538	6414.64354
886.719	6458.19026
886.899	6512.09106
887.08	6530.74537
887.26	6503.79965
887.44	6182.22053
887.621	6499.65381
887.801	6082.52068
887.981	6400.12569
888.161	6140.6855
888.342	6173.91428
888.522	6304.69421
888.702	6398.05161
888.882	6346.19222
889.062	6512.09106
889.242	6286.01705
889.423	6692.3377
889.603	6464.41039
889.783	6528.67276
889.963	6030.57221
890.143	6342.04284
890.323	6198.83191
890.503	6402.19974
890.683	6200.90823
890.863	6485.14262
891.043	6283.9417
891.223	6644.70326
891.403	6310.91951
891.583	6435.38136
891.763	6146.91636
891.943	6259.03559
892.122	6240.3538
892.302	6097.06361
892.482	5909.99507
892.662	6169.76101
892.842	5937.02787
893.022	6084.59831
893.201	5943.26565
893.381	6188.44998
893.561	6094.98612
893.741	6339.96812
893.92	6209.21326
894.1	6229.97421
894.28	6053.43135
894.459	6138.60851
894.639	5822.63106
894.819	5978.60903
894.998	5968.21462
895.178	6254.88425
895.357	5972.37245
895.537	6144.83943
895.716	6082.52068
895.896	6240.3538
896.075	5889.19789
896.255	6016.024
896.434	5912.07465
896.614	5957.81963
896.793	5812.22781
896.973	6061.74305
897.152	5793.50047
897.331	5939.10715
897.511	5720.65376
897.69	5853.83727
897.87	5524.86527
898.049	5943.26565
898.228	5462.33576
898.407	5601.95582
898.587	5355.98701
898.766	5928.71051
898.945	5537.36864
899.124	5479.01236
899.304	5272.53353
899.483	5624.86841
899.662	5186.95489
899.841	5389.3579
900.02	5182.77932
900.199	5237.05447
900.378	5028.21785
900.557	5372.6732
900.737	5132.66521
900.916	5287.14059
901.095	5099.24836
901.274	5030.30736
901.453	4900.71389
901.632	5174.4279
901.811	4952.97996
901.989	5278.79384
902.168	4990.60264
902.347	5170.25205
902.526	4781.49378
902.705	4856.79932
902.884	4710.34487
903.063	4929.98466
903.242	4785.67819
903.42	5024.03875
903.599	4758.47788
903.778	4810.78277
903.957	4588.91311
904.135	4798.23089
904.314	4459.02387
904.493	4660.1064
904.672	4519.7891
904.85	4184.30459
905.029	4144.42933
905.207	4588.91311
905.386	4138.13254
905.565	4538.6435
905.743	4007.95695
905.922	4505.12333
906.1	4131.83557
906.279	4291.30031
906.457	3976.45094
906.636	4287.10545
906.814	3898.71657
906.993	4073.05472
907.171	3949.14203
907.35	3787.31958
907.528	3802.03557
907.707	3825.15876
907.885	3711.62222
908.063	3852.48308
908.242	3772.60262
908.42	3829.36272
908.598	3623.27713
908.777	3856.68652
908.955	3530.68952
909.133	3745.2686
909.311	3410.69376
909.49	3770.50012
909.668	3623.27713
909.846	3865.09317
910.024	3669.55732
910.202	3663.24692
910.38	3741.06307
910.559	3884.00696
910.737	3738.96028
910.915	4075.15432
911.093	3694.79718
911.271	3976.45094
911.449	3619.06938
911.627	3659.0399
911.805	3610.65367
911.983	3492.80247
912.161	3513.85156
912.339	4045.75807
912.517	3812.54641
912.695	4064.65612
912.872	3823.05675
913.05	4066.7558
913.228	3787.31958
913.406	3881.90551
913.584	3669.55732
913.762	3825.15876
913.939	3555.94425
914.117	3795.72883
914.295	3490.69746
914.473	3984.853
914.65	3755.78207
914.828	3871.39795
915.006	3705.31297
915.184	3846.17776
915.361	3417.01078
915.539	3642.21104
915.716	3475.96188
915.894	3631.69239
916.072	3400.16503
916.249	3452.8042
916.427	3385.42408
916.604	3545.42177
916.782	3518.06116
916.959	3669.55732
917.137	3400.16503
917.314	3707.41607
917.492	3480.17214
917.669	3633.79616
917.847	3490.69746
918.024	3576.98782
918.201	3349.62105
918.379	3463.33069
918.556	3016.63146
918.733	3486.48738
918.911	3098.86266
919.088	3334.87716
919.265	3149.45456
919.442	3349.62105
919.62	3231.64646
919.797	3600.13361
919.974	3379.10627
920.151	3469.64637
920.328	3168.42413
920.506	3326.4517
920.683	3267.46581
920.86	3130.48368
921.037	2641.03815
921.214	3046.15307
921.391	2767.69141
921.568	3210.574
921.745	2919.611
921.922	3157.88565
922.099	2928.04881
922.276	3065.12965
922.453	2944.92372
922.63	2961.79769
922.807	2801.45757
922.984	2966.01603
923.161	2670.59473
923.338	3008.19616
923.514	2742.36453
923.691	2820.44949
923.868	2778.24371
924.045	2788.79567
924.222	2719.14653
924.399	2786.6853
924.575	2700.14882
924.752	2831.00007
924.929	2649.48313
925.105	2778.24371
925.282	2431.96391
925.459	2672.70582
925.635	2440.4135
925.812	2674.81689
925.989	2336.89446
926.165	2531.23553
926.342	2379.15011
926.518	2381.26278
926.695	2237.57849
926.871	2463.649
927.048	2370.6993
927.224	2281.95626
927.401	1981.80772
927.577	2142.47033
927.754	2087.51149
927.93	2307.31315
928.107	2142.47033
928.283	2339.00733
928.459	2079.05583
928.636	2436.18873
928.812	2167.83416
928.988	2195.3103
929.165	1971.23644
929.341	2248.14499
929.517	1981.80772
929.693	2102.30861
929.87	1823.22358
930.046	2051.57414
930.222	1772.4708
930.398	1931.06417
930.574	1848.59901
930.751	1954.32206
930.927	1742.86394
931.103	2277.72998
931.279	1732.28989
931.455	1941.63603
931.631	1692.10773
931.807	1846.48442
931.983	1681.53329
932.159	1658.26928
932.335	1550.40531
932.511	1797.84749
932.687	1552.52034
932.863	1723.83059
933.039	1584.2455
933.215	1812.65028
933.391	1599.05046
933.566	1717.48608
933.742	1279.6816
933.918	1607.51039
934.094	1364.28149
934.27	1503.87455
934.445	1256.4172
934.621	1317.7512
934.797	1157.01885
934.973	1298.71631
935.148	1025.91184
935.324	1186.62608
935.5	1051.28583
935.675	1127.41242
935.851	958.25223
936.027	1000.53871
936.202	825.06936
936.378	1059.74401
936.553	825.06936
936.729	1047.05678
936.904	850.435
937.08	835.63822
937.255	683.47028
937.431	725.73377
937.606	615.85832
937.782	772.22855
937.957	617.971
938.133	569.38248
938.308	484.89782
938.483	531.3616
938.659	417.32708
938.834	383.5478
939.009	444.77578
939.185	419.43842
939.36	512.35284
939.535	413.10444
939.71	324.44443
939.886	489.12151
940.061	396.21454
940.236	349.77279
940.411	366.65975
940.586	451.11047
940.761	353.99443
940.937	299.11864
941.112	311.78121
941.287	252.69488
941.462	324.44443
941.637	332.88694
941.812	288.56699
941.987	305.44984
942.162	286.45672
942.337	231.59621
942.512	170.42125
942.687	240.03545
942.862	282.23623
943.037	166.20292
943.212	221.0476
943.386	248.47499
943.561	223.15728
943.736	218.93794
943.911	208.38993
944.086	242.1453
944.26	284.34646
944.435	202.06136
944.61	256.91485
944.785	269.5752
944.959	189.40476
945.134	199.95188
945.309	159.87558
945.483	204.17086
945.658	151.43941
945.833	223.15728
946.007	248.47499
946.182	172.53045
946.357	242.1453
946.531	216.8283
946.706	231.59621
946.88	242.1453
947.055	240.03545
947.229	244.25518
947.404	147.22146
947.578	168.31207
947.752	199.95188
947.927	138.7858
948.101	259.02486
948.276	140.89469
948.45	271.68532
948.624	206.28038
948.799	301.22902
948.973	297.00827
949.147	284.34646
949.321	267.46509
949.496	265.355
949.67	261.13489
949.844	311.78121
950.018	214.71868
950.193	176.7489
950.367	225.26699
950.541	278.01581
950.715	275.90563
950.889	223.15728
951.063	256.91485
951.237	180.96744
951.411	231.59621
951.585	265.355
951.759	286.45672
951.933	322.33385
952.107	271.68532
952.281	206.28038
952.455	320.22329
952.629	180.96744
952.803	271.68532
952.977	271.68532
953.151	278.01581
953.325	261.13489
953.499	278.01581
953.672	307.56028
953.846	248.47499
954.02	284.34646
954.194	199.95188
954.368	166.20292
954.541	332.88694
954.715	250.58493
954.889	227.37671
955.062	265.355
955.236	294.89792
955.41	248.47499
955.583	307.56028
955.757	299.11864
955.93	299.11864
956.104	292.78759
956.278	231.59621
956.451	248.47499
956.625	193.62355
956.798	256.91485
956.972	204.17086
957.145	261.13489
957.319	290.67728
957.492	299.11864
957.665	320.22329
957.839	223.15728
958.012	301.22902
958.185	227.37671
958.359	202.06136
958.532	271.68532
958.705	280.12601
958.879	353.99443
959.052	244.25518
959.225	301.22902
959.398	318.11274
959.572	151.43941
959.745	320.22329
959.918	269.5752
960.091	197.84241
960.264	191.51415
960.438	259.02486
960.611	180.96744
960.784	267.46509
960.957	261.13489
961.13	303.33942
961.303	269.5752
961.476	360.32701
961.649	214.71868
961.822	197.84241
961.995	242.1453
962.168	218.93794
962.341	197.84241
962.514	189.40476
962.686	218.93794
962.859	229.48645
963.032	265.355
963.205	235.81579
963.378	292.78759
963.551	206.28038
963.723	273.79547
963.896	180.96744
964.069	250.58493
964.242	301.22902
964.414	164.09378
964.587	210.49949
964.76	191.51415
964.932	231.59621
965.105	206.28038
965.278	273.79547
965.45	235.81579
965.623	172.53045
965.795	124.02423
965.968	286.45672
966.14	140.89469
966.313	172.53045
966.485	197.84241
966.658	341.32972
966.83	240.03545
967.003	248.47499
967.175	286.45672
967.348	235.81579
967.52	164.09378
967.692	332.88694
967.865	172.53045
968.037	174.63967
968.209	193.62355
968.382	212.60907
968.554	170.42125
968.726	225.26699
968.898	138.7858
969.071	223.15728
969.243	218.93794
969.415	124.02423
969.587	235.81579
969.759	185.18606
969.932	202.06136
970.104	223.15728
970.276	132.45929
970.448	267.46509
970.62	151.43941
970.792	214.71868
970.964	197.84241
971.136	164.09378
971.308	237.92561
971.48	115.58952
971.652	174.63967
971.824	159.87558
971.996	166.20292
972.168	214.71868
972.339	83.96248
972.511	159.87558
972.683	193.62355
972.855	151.43941
973.027	105.04662
973.199	193.62355
973.37	191.51415
973.542	199.95188
973.714	113.4809
973.886	105.04662
974.057	140.89469
974.229	231.59621
974.401	170.42125
974.572	202.06136
974.744	170.42125
974.915	151.43941
975.087	77.63768
975.259	168.31207
975.43	121.91552
975.602	105.04662
975.773	43.90883
975.945	107.15516
976.116	159.87558
976.288	113.4809
976.459	64.98867
976.63	132.45929
976.802	124.02423
976.973	130.35049
977.145	115.58952
977.316	180.96744
977.487	157.7665
977.659	185.18606
977.83	143.00359
978.001	31.26204
978.172	115.58952
978.344	107.15516
978.515	54.44846
978.686	157.7665
978.857	180.96744
979.028	130.35049
979.2	136.67694
979.371	134.5681
979.542	113.4809
979.713	164.09378
979.884	153.54842
980.055	109.26371
980.226	164.09378
980.397	86.0708
980.568	52.34049
980.739	117.69816
980.91	105.04662
981.081	115.58952
981.252	121.91552
981.423	98.72115
981.594	153.54842
981.765	172.53045
981.936	115.58952
982.106	155.65745
982.277	105.04662
982.448	83.96248
982.619	126.13296
982.79	155.65745
982.96	107.15516
983.131	105.04662
983.302	96.6127
983.472	134.5681
983.643	180.96744
983.814	67.09678
983.984	90.28749
984.155	138.7858
984.326	58.66448
984.496	81.85419
984.667	90.28749
984.837	75.52945
985.008	136.67694
985.178	37.58533
985.349	100.82962
985.519	124.02423
985.69	73.42125
985.86	151.43941
986.031	37.58533
986.201	96.6127
986.371	90.28749
986.542	54.44846
986.712	24.93896
986.882	62.88058
987.053	56.55646
987.223	113.4809
987.393	88.17913
987.563	41.80097
987.734	126.13296
987.904	121.91552
988.074	115.58952
988.244	64.98867
988.414	132.45929
988.585	155.65745
988.755	75.52945
988.925	64.98867
989.095	88.17913
989.265	60.77252
989.435	88.17913
989.605	155.65745
989.775	88.17913
989.945	109.26371
990.115	64.98867
990.285	37.58533
990.455	29.15432
990.625	56.55646
990.795	54.44846
990.965	56.55646
991.134	185.18606
991.304	56.55646
991.474	119.80683
991.644	56.55646
991.814	168.31207
991.984	8.07845
992.153	151.43941
992.323	16.50851
992.493	138.7858
992.662	105.04662
992.832	-4.56592
993.002	126.13296
993.171	117.69816
993.341	126.13296
993.511	73.42125
993.68	8.07845
993.85	79.74592
994.019	29.15432
994.189	46.01671
994.358	96.6127
994.528	56.55646
994.697	58.66448
994.867	62.88058
995.036	119.80683
995.206	105.04662
995.375	56.55646
995.544	90.28749
995.714	157.7665
995.883	39.69314
996.052	107.15516
996.222	5.97099
996.391	54.44846
996.56	-34.06606
996.73	86.0708
996.899	31.26204
997.068	143.00359
997.237	43.90883
997.406	75.52945
997.576	20.72369
997.745	56.55646
997.914	109.26371
998.083	12.29343
998.252	98.72115
998.421	90.28749
998.59	33.36978
998.759	33.36978
998.928	83.96248
999.097	20.72369
999.266	96.6127
999.435	81.85419
999.604	62.88058
999.773	37.58533
999.942	56.55646
1000.111	60.77252
1000.28	105.04662
1000.448	119.80683
1000.617	149.33043
1000.786	-38.27997
1000.955	-0.35123
1001.124	20.72369
1001.292	75.52945
1001.461	75.52945
1001.63	62.88058
1001.798	71.31307
1001.967	107.15516
1002.136	71.31307
1002.304	31.26204
1002.473	98.72115
1002.642	-42.49378
1002.81	-25.63794
1002.979	37.58533
1003.147	29.15432
1003.316	33.36978
1003.484	29.15432
1003.653	-46.70749
1003.821	3.86356
1003.99	50.23254
1004.158	48.12461
1004.327	3.86356
1004.495	107.15516
1004.663	71.31307
1004.832	18.61609
1005	1.75615
1005.168	-48.81431
1005.337	20.72369
1005.505	60.77252
1005.673	113.4809
1005.842	58.66448
1006.01	-25.63794
1006.178	-8.78052
1006.346	24.93896
1006.514	-4.56592
1006.683	138.7858
1006.851	12.29343
1007.019	31.26204
1007.187	62.88058
1007.355	46.01671
1007.523	67.09678
1007.691	48.12461
1007.859	-0.35123
1008.027	56.55646
1008.195	-6.67324
1008.363	8.07845
1008.531	64.98867
1008.699	77.63768
1008.867	29.15432
1009.035	75.52945
1009.203	33.36978
1009.37	105.04662
1009.538	50.23254
1009.706	64.98867
1009.874	71.31307
1010.042	41.80097
1010.209	37.58533
1010.377	81.85419
1010.545	96.6127
1010.713	71.31307
1010.88	48.12461
1011.048	16.50851
1011.216	-25.63794
1011.383	134.5681
1011.551	75.52945
1011.718	62.88058
1011.886	-2.45859
1012.054	29.15432
1012.221	73.42125
1012.389	75.52945
1012.556	56.55646
1012.724	12.29343
1012.891	-0.35123
1013.058	96.6127
1013.226	35.47754
1013.393	90.28749
1013.561	16.50851
1013.728	71.31307
1013.895	67.09678
1014.063	111.37229
1014.23	124.02423
1014.397	8.07845
1014.565	-55.13461
1014.732	54.44846
1014.899	46.01671
1015.066	96.6127
1015.233	22.83131
1015.401	46.01671
1015.568	46.01671
1015.735	-17.20943
1015.902	33.36978
1016.069	124.02423
1016.236	58.66448
1016.403	67.09678
1016.57	18.61609
1016.737	-50.9211
1016.904	41.80097
1017.071	54.44846
1017.238	24.93896
1017.405	8.07845
1017.572	62.88058
1017.739	14.40096
1017.906	52.34049
1018.073	41.80097
1018.24	29.15432
1018.407	12.29343
1018.573	96.6127
1018.74	64.98867
1018.907	79.74592
1019.074	48.12461
1019.241	8.07845
1019.407	58.66448
1019.574	39.69314
1019.741	88.17913
1019.907	79.74592
1020.074	67.09678
1020.241	-34.06606
1020.407	-29.85205
1020.574	92.39587
1020.74	79.74592
1020.907	48.12461
1021.073	24.93896
1021.24	-8.78052
1021.406	-2.45859
1021.573	54.44846
1021.739	39.69314
1021.906	113.4809
1022.072	-25.63794
1022.239	41.80097
1022.405	143.00359
1022.571	-4.56592
1022.738	-27.74501
1022.904	75.52945
1023.07	94.50427
1023.237	-10.88778
1023.403	113.4809
1023.569	-46.70749
1023.735	37.58533
1023.902	8.07845
1024.068	77.63768
1024.234	20.72369
1024.4	88.17913
1024.566	3.86356
1024.732	83.96248
1024.898	33.36978
1025.065	14.40096
1025.231	-4.56592
1025.397	58.66448
1025.563	-21.42373
1025.729	62.88058
1025.895	24.93896
1026.061	29.15432
1026.227	73.42125
1026.392	46.01671
1026.558	-4.56592
1026.724	56.55646
1026.89	-10.88778
1027.056	41.80097
1027.222	88.17913
1027.388	29.15432
1027.553	12.29343
1027.719	33.36978
1027.885	29.15432
1028.051	-4.56592
1028.216	20.72369
1028.382	5.97099
1028.548	41.80097
1028.713	31.26204
1028.879	-4.56592
1029.045	-67.77453
1029.21	-34.06606
1029.376	113.4809
1029.541	39.69314
1029.707	105.04662
1029.873	1.75615
1030.038	22.83131
1030.204	79.74592
1030.369	35.47754
1030.534	12.29343
1030.7	105.04662
1030.865	62.88058
1031.031	92.39587
1031.196	-34.06606
1031.361	24.93896
1031.527	16.50851
1031.692	-53.02787
1031.857	14.40096
1032.023	41.80097
1032.188	20.72369
1032.353	20.72369
1032.518	24.93896
1032.684	71.31307
1032.849	37.58533
1033.014	62.88058
1033.179	75.52945
1033.344	54.44846
1033.509	-4.56592
1033.674	37.58533
1033.839	3.86356
1034.004	12.29343
1034.17	-27.74501
1034.335	29.15432
1034.5	20.72369
1034.664	8.07845
1034.829	37.58533
1034.994	-50.9211
1035.159	52.34049
1035.324	35.47754
1035.489	-31.95906
1035.654	90.28749
1035.819	100.82962
1035.984	79.74592
1036.148	14.40096
1036.313	20.72369
1036.478	77.63768
1036.643	79.74592
1036.807	67.09678
1036.972	22.83131
1037.137	62.88058
1037.301	58.66448
1037.466	62.88058
1037.631	81.85419
1037.795	8.07845
1037.96	79.74592
1038.124	22.83131
1038.289	20.72369
1038.454	-8.78052
1038.618	8.07845
1038.783	22.83131
1038.947	29.15432
1039.111	12.29343
1039.276	46.01671
1039.44	29.15432
1039.605	50.23254
1039.769	50.23254
1039.933	20.72369
1040.098	29.15432
1040.262	33.36978
1040.426	83.96248
1040.591	3.86356
1040.755	77.63768
1040.919	10.18593
1041.083	14.40096
1041.248	-34.06606
1041.412	81.85419
1041.576	71.31307
1041.74	12.29343
1041.904	105.04662
1042.068	121.91552
1042.232	-53.02787
1042.397	33.36978
1042.561	20.72369
1042.725	73.42125
1042.889	46.01671
1043.053	58.66448
1043.217	22.83131
1043.381	54.44846
1043.544	39.69314
1043.708	8.07845
1043.872	54.44846
1044.036	56.55646
1044.2	22.83131
1044.364	54.44846
1044.528	-17.20943
1044.691	-44.60065
1044.855	24.93896
1045.019	64.98867
1045.183	16.50851
1045.346	-4.56592
1045.51	16.50851
1045.674	-34.06606
1045.837	24.93896
1046.001	3.86356
1046.165	-15.10224
1046.328	33.36978
1046.492	12.29343
1046.655	79.74592
1046.819	14.40096
1046.983	113.4809
1047.146	-38.27997
1047.31	3.86356
1047.473	12.29343
1047.636	8.07845
1047.8	50.23254
1047.963	12.29343
1048.127	54.44846
1048.29	27.04663
