Data from mixed_try1_USB4F045381__29__00051.txt Node

Date: Thu Apr 03 19:34:55 EDT 2025
User: mmckonesweet
Spectrometer: USB4F04538
Trigger mode: 4
Integration Time (sec): 2.700000E-3
Scans to average: 1
Electric dark correction enabled: true
Nonlinearity correction enabled: true
Boxcar width: 0
XAxis mode: Wavelengths
Number of Pixels in Spectrum: 3648
>>>>>Begin Spectral Data<<<<<
345.52	114.00805
345.736	114.00805
345.952	114.00805
346.168	14.92785
346.384	-29.32529
346.6	19.14299
346.816	101.35674
347.032	-31.43231
347.248	-44.07393
347.464	54.97546
347.68	-16.68263
347.896	-20.89695
348.112	42.32793
348.328	-37.75323
348.544	0.17561
348.76	-4.03909
348.975	-63.03467
349.191	-31.43231
349.407	4.39042
349.623	-33.53931
349.839	-31.43231
350.055	27.57355
350.27	52.86748
350.486	2.283
350.702	57.08346
350.918	-31.43231
351.133	25.46587
351.349	84.48956
351.565	54.97546
351.781	29.68125
351.996	-8.2537
352.212	59.19149
352.428	-16.68263
352.644	-1.93175
352.859	67.62381
353.075	61.29953
353.291	50.75953
353.506	-56.71465
353.722	21.25059
353.938	33.89672
354.153	2.283
354.369	19.14299
354.584	25.46587
354.8	76.05651
355.016	10.7128
355.231	0.17561
355.447	50.75953
355.662	-25.11117
355.878	19.14299
356.093	0.17561
356.309	-46.18078
356.524	17.0354
356.74	10.7128
356.955	-48.28761
357.171	-14.57544
357.386	27.57355
357.602	0.17561
357.817	-48.28761
358.033	27.57355
358.248	-8.2537
358.464	33.89672
358.679	71.84011
358.895	38.11228
359.11	14.92785
359.325	67.62381
359.541	17.0354
359.756	69.73195
359.972	-20.89695
360.187	19.14299
360.402	78.16474
360.618	88.70622
360.833	12.82031
361.048	25.46587
361.264	-31.43231
361.479	48.65159
361.694	101.35674
361.909	57.08346
362.125	97.13981
362.34	25.46587
362.555	25.46587
362.77	25.46587
362.986	59.19149
363.201	33.89672
363.416	-25.11117
363.631	10.7128
363.847	61.29953
364.062	33.89672
364.277	17.0354
364.492	27.57355
364.707	36.00449
364.922	-8.2537
365.138	4.39042
365.353	14.92785
365.568	59.19149
365.783	48.65159
365.998	71.84011
366.213	46.54368
366.428	-25.11117
366.643	6.49786
366.858	-6.14641
367.073	59.19149
367.288	0.17561
367.503	-4.03909
367.718	-20.89695
367.933	10.7128
368.148	0.17561
368.363	19.14299
368.578	-1.93175
368.793	0.17561
369.008	78.16474
369.223	-8.2537
369.438	59.19149
369.653	29.68125
369.868	-1.93175
370.083	50.75953
370.298	-12.46822
370.513	61.29953
370.728	-33.53931
370.943	10.7128
371.157	69.73195
371.372	-31.43231
371.587	69.73195
371.802	50.75953
372.017	10.7128
372.232	-20.89695
372.446	97.13981
372.661	-29.32529
372.876	-8.2537
373.091	50.75953
373.306	29.68125
373.52	-27.21824
373.735	33.89672
373.95	4.39042
374.165	-14.57544
374.379	33.89672
374.594	-25.11117
374.809	-8.2537
375.023	-73.56752
375.238	10.7128
375.453	-20.89695
375.667	-6.14641
375.882	-16.68263
376.097	8.60532
376.311	27.57355
376.526	-31.43231
376.741	-23.00407
376.955	4.39042
377.17	48.65159
377.384	-4.03909
377.599	19.14299
377.813	69.73195
378.028	40.22009
378.242	107.68229
378.457	2.283
378.672	-29.32529
378.886	36.00449
379.101	-6.14641
379.315	29.68125
379.53	46.54368
379.744	54.97546
379.958	-1.93175
380.173	27.57355
380.387	-4.03909
380.602	25.46587
380.816	17.0354
381.031	73.9483
381.245	-65.14129
381.459	54.97546
381.674	8.60532
381.888	76.05651
382.103	33.89672
382.317	19.14299
382.531	-4.03909
382.746	-33.53931
382.96	-14.57544
383.174	25.46587
383.388	40.22009
383.603	40.22009
383.817	0.17561
384.031	10.7128
384.246	50.75953
384.46	19.14299
384.674	59.19149
384.888	12.82031
385.103	52.86748
385.317	29.68125
385.531	25.46587
385.745	48.65159
385.959	-41.96706
386.174	42.32793
386.388	42.32793
386.602	44.4358
386.816	17.0354
387.03	-12.46822
387.244	38.11228
387.458	42.32793
387.672	-12.46822
387.887	8.60532
388.101	42.32793
388.315	67.62381
388.529	2.283
388.743	69.73195
388.957	-41.96706
389.171	12.82031
389.385	63.4076
389.599	12.82031
389.813	19.14299
390.027	92.92297
390.241	17.0354
390.455	42.32793
390.669	40.22009
390.883	48.65159
391.097	-14.57544
391.311	19.14299
391.525	50.75953
391.738	54.97546
391.952	42.32793
392.166	46.54368
392.38	-8.2537
392.594	31.78897
392.808	17.0354
393.022	59.19149
393.236	52.86748
393.449	25.46587
393.663	-41.96706
393.877	59.19149
394.091	48.65159
394.305	-12.46822
394.518	44.4358
394.732	63.4076
394.946	36.00449
395.16	8.60532
395.373	50.75953
395.587	4.39042
395.801	8.60532
396.015	88.70622
396.228	-16.68263
396.442	63.4076
396.656	8.60532
396.869	-39.86016
397.083	-48.28761
397.297	21.25059
397.51	29.68125
397.724	118.22533
397.938	-50.3944
398.151	17.0354
398.365	25.46587
398.578	-27.21824
398.792	12.82031
399.005	59.19149
399.219	10.7128
399.433	14.92785
399.646	-56.71465
399.86	8.60532
400.073	71.84011
400.287	73.9483
400.5	67.62381
400.714	0.17561
400.927	8.60532
401.141	65.5157
401.354	-25.11117
401.567	42.32793
401.781	71.84011
401.994	52.86748
402.208	84.48956
402.421	0.17561
402.635	27.57355
402.848	-6.14641
403.061	12.82031
403.275	54.97546
403.488	0.17561
403.701	42.32793
403.915	8.60532
404.128	-50.3944
404.341	19.14299
404.555	59.19149
404.768	36.00449
404.981	44.4358
405.195	-8.2537
405.408	17.0354
405.621	-37.75323
405.834	40.22009
406.048	0.17561
406.261	33.89672
406.474	17.0354
406.687	80.27299
406.9	50.75953
407.114	-25.11117
407.327	67.62381
407.54	-79.88693
407.753	44.4358
407.966	-8.2537
408.179	-23.00407
408.392	12.82031
408.605	-16.68263
408.819	33.89672
409.032	73.9483
409.245	46.54368
409.458	44.4358
409.671	-14.57544
409.884	61.29953
410.097	25.46587
410.31	78.16474
410.523	101.35674
410.736	42.32793
410.949	29.68125
411.162	48.65159
411.375	31.78897
411.588	65.5157
411.801	52.86748
412.014	54.97546
412.227	8.60532
412.44	42.32793
412.653	42.32793
412.865	33.89672
413.078	-25.11117
413.291	-23.00407
413.504	27.57355
413.717	-6.14641
413.93	33.89672
414.143	95.03138
414.356	2.283
414.568	109.79086
414.781	-1.93175
414.994	61.29953
415.207	25.46587
415.42	50.75953
415.632	14.92785
415.845	92.92297
416.058	52.86748
416.271	27.57355
416.483	54.97546
416.696	61.29953
416.909	97.13981
417.121	88.70622
417.334	19.14299
417.547	-31.43231
417.759	48.65159
417.972	-33.53931
418.185	-14.57544
418.397	111.89944
418.61	27.57355
418.823	17.0354
419.035	8.60532
419.248	63.4076
419.46	36.00449
419.673	59.19149
419.885	52.86748
420.098	2.283
420.311	-20.89695
420.523	139.31302
420.736	42.32793
420.948	46.54368
421.161	48.65159
421.373	-16.68263
421.586	21.25059
421.798	29.68125
422.01	90.81458
422.223	-50.3944
422.435	-4.03909
422.648	29.68125
422.86	-33.53931
423.073	50.75953
423.285	-23.00407
423.497	78.16474
423.71	63.4076
423.922	29.68125
424.134	69.73195
424.347	42.32793
424.559	29.68125
424.771	-1.93175
424.984	67.62381
425.196	109.79086
425.408	46.54368
425.621	46.54368
425.833	71.84011
426.045	61.29953
426.257	80.27299
426.47	-31.43231
426.682	63.4076
426.894	-4.03909
427.106	19.14299
427.318	52.86748
427.531	36.00449
427.743	8.60532
427.955	67.62381
428.167	12.82031
428.379	6.49786
428.591	29.68125
428.804	-16.68263
429.016	92.92297
429.228	-4.03909
429.44	63.4076
429.652	52.86748
429.864	101.35674
430.076	-39.86016
430.288	19.14299
430.5	21.25059
430.712	36.00449
430.924	61.29953
431.136	33.89672
431.348	44.4358
431.56	95.03138
431.772	71.84011
431.984	118.22533
432.196	0.17561
432.408	36.00449
432.62	42.32793
432.832	65.5157
433.044	67.62381
433.256	42.32793
433.468	54.97546
433.679	109.79086
433.891	80.27299
434.103	27.57355
434.315	95.03138
434.527	92.92297
434.739	29.68125
434.95	105.57375
435.162	118.22533
435.374	128.76891
435.586	57.08346
435.798	95.03138
436.009	80.27299
436.221	84.48956
436.433	12.82031
436.645	71.84011
436.856	67.62381
437.068	-33.53931
437.28	88.70622
437.491	170.94855
437.703	84.48956
437.915	101.35674
438.126	36.00449
438.338	139.31302
438.55	33.89672
438.761	76.05651
438.973	42.32793
439.184	19.14299
439.396	82.38126
439.608	109.79086
439.819	84.48956
440.031	76.05651
440.242	67.62381
440.454	69.73195
440.665	71.84011
440.877	78.16474
441.088	40.22009
441.3	67.62381
441.511	71.84011
441.723	76.05651
441.934	33.89672
442.146	111.89944
442.357	69.73195
442.569	118.22533
442.78	105.57375
442.991	69.73195
443.203	105.57375
443.414	122.44269
443.626	42.32793
443.837	101.35674
444.048	143.53082
444.26	59.19149
444.471	78.16474
444.682	59.19149
444.894	92.92297
445.105	80.27299
445.316	114.00805
445.528	92.92297
445.739	95.03138
445.95	101.35674
446.161	76.05651
446.373	101.35674
446.584	107.68229
446.795	137.20416
447.006	109.79086
447.217	139.31302
447.429	33.89672
447.64	118.22533
447.851	69.73195
448.062	76.05651
448.273	105.57375
448.484	118.22533
448.695	101.35674
448.907	78.16474
449.118	111.89944
449.329	109.79086
449.54	141.42191
449.751	173.05775
449.962	126.66015
450.173	118.22533
450.384	95.03138
450.595	50.75953
450.806	194.1509
451.017	141.42191
451.228	116.11668
451.439	59.19149
451.65	116.11668
451.861	130.87769
452.072	151.96666
452.283	170.94855
452.494	109.79086
452.705	143.53082
452.915	126.66015
453.126	95.03138
453.337	103.46523
453.548	86.59788
453.759	162.51195
453.97	52.86748
454.181	151.96666
454.391	194.1509
454.602	118.22533
454.813	196.26033
455.024	223.68471
455.235	105.57375
455.445	139.31302
455.656	141.42191
455.867	124.55141
456.078	173.05775
456.288	185.7134
456.499	160.40285
456.71	215.24608
456.921	132.98649
457.131	120.334
457.342	179.38548
457.553	149.85767
457.763	168.83937
457.974	244.78265
458.184	135.09531
458.395	168.83937
458.606	154.07568
458.816	189.93211
459.027	215.24608
459.237	272.21286
459.448	177.27622
459.659	223.68471
459.869	151.96666
460.08	267.99262
460.29	149.85767
460.501	227.90414
460.711	206.80777
460.922	198.36978
461.132	242.67277
461.343	213.13647
461.553	194.1509
461.764	227.90414
461.974	280.65356
462.184	244.78265
462.395	295.42551
462.605	223.68471
462.816	263.77245
463.026	223.68471
463.236	301.75662
463.447	265.88252
463.657	314.41933
463.867	392.52001
464.078	305.97745
464.288	322.8615
464.498	377.74241
464.709	305.97745
464.919	384.07557
465.129	352.41131
465.339	373.52039
465.55	234.23344
465.76	371.40941
465.97	308.08789
466.18	415.74358
466.391	468.53159
466.601	371.40941
466.811	417.85491
467.021	438.9691
467.231	453.74996
467.441	375.63139
467.651	472.75504
467.862	508.65683
468.072	506.54484
468.282	569.91058
468.492	517.10492
468.702	595.2603
468.912	531.88963
469.122	523.44114
469.332	658.64259
469.542	582.5852
469.752	607.93586
469.962	612.16115
470.172	650.19098
470.382	662.86847
470.592	717.80903
470.802	626.95005
471.012	804.46074
471.222	819.25658
471.432	848.84961
471.642	829.82532
471.852	977.8094
472.062	867.8746
472.272	914.38297
472.482	984.15239
472.691	1001.06731
472.901	996.83854
473.111	1039.12736
473.321	1081.41849
473.531	1256.94593
473.741	1100.45018
473.95	1233.68184
474.16	1091.9916
474.37	1358.46517
474.58	1326.73995
474.79	1417.68625
474.999	1299.24506
475.209	1360.58019
475.419	1381.73051
475.628	1567.85421
475.838	1413.45615
476.048	1612.26909
476.258	1572.08423
476.467	1715.89994
476.677	1758.19616
476.886	2016.1633
477.096	1918.90636
477.306	1876.61691
477.515	1819.52294
477.725	1948.50765
477.935	1792.03205
478.144	1885.07497
478.354	1980.22204
478.563	2064.78664
478.773	2189.49816
478.982	2375.4529
479.192	2417.70483
479.401	2331.08399
479.611	2286.71078
479.82	2375.4529
480.03	2569.77571
480.239	2544.43466
480.449	2447.27867
480.658	2837.85776
480.868	2886.38486
481.077	2848.40777
481.287	2688.01083
481.496	2989.7431
481.705	2858.95742
481.915	3105.71419
482.124	3025.5937
482.333	3164.73571
482.543	2983.41607
482.752	3246.92295
482.961	3227.9589
483.171	3447.01444
483.38	3253.244
483.589	3419.64282
483.799	3341.72264
484.008	3665.87628
484.217	3388.05646
484.426	3775.23072
484.636	3691.11654
484.845	3920.25386
485.054	3762.61557
485.263	3897.14059
485.472	3783.64043
485.682	3985.37811
485.891	3819.37819
486.1	3926.55706
486.309	4170.13925
486.518	4136.55832
486.727	4189.02616
486.936	4423.91829
487.146	4270.84954
487.355	4488.88497
487.564	4398.76424
487.773	4581.05933
487.982	4541.26203
488.191	4748.53835
488.4	4518.21782
488.609	4938.86954
488.818	4562.20898
489.027	4943.05051
489.236	4907.50929
489.445	4957.68321
489.654	4947.2314
489.863	5093.50424
490.072	4832.22367
490.281	5162.42208
490.49	5245.92487
490.698	5369.02323
490.907	5191.6523
491.116	5587.89441
491.325	5383.6227
491.534	5475.36449
491.743	5373.19462
491.952	5623.30628
492.16	5660.79377
492.369	5785.69685
492.578	5633.72024
492.787	5912.59455
492.996	5750.31627
493.204	5866.83829
493.413	5904.27608
493.622	5918.83315
493.831	5983.28631
494.039	6174.43343
494.248	6004.07283
494.457	6191.04551
494.665	6058.10673
494.874	6336.33729
495.083	6361.23295
495.291	6425.53118
495.5	6406.86626
495.709	6641.0784
495.917	6454.56176
496.126	6576.85493
496.335	6591.35895
496.543	6576.85493
496.752	6610.0053
496.96	6939.11791
497.169	6699.06767
497.377	6827.40852
497.586	6804.64478
497.794	6841.89311
498.003	6839.82395
498.211	7073.49555
498.42	7003.21756
498.628	7333.71309
498.837	7125.15403
499.045	7121.02186
499.254	7201.58303
499.462	7284.17488
499.671	7129.2861
499.879	7568.84839
500.087	7509.0599
500.296	7449.2533
500.504	7300.68902
500.713	7374.98529
500.921	7333.71309
501.129	7581.21617
501.338	7366.73155
501.546	7739.86812
501.754	7708.97173
501.962	7984.81337
502.171	7807.82356
502.379	7873.69807
502.587	7649.22525
502.795	8036.23544
503.004	7589.46093
503.212	8231.52444
503.42	7906.62738
503.628	8112.31687
503.837	7956.01145
504.045	8134.93036
504.253	8328.07486
504.461	8252.07072
504.669	8124.6518
504.877	8313.69776
505.085	8321.91336
505.294	8822.48874
505.502	8317.8056
505.71	8717.95218
505.918	8480.00335
506.126	8806.09398
506.334	8486.16039
506.542	8777.40036
506.75	8533.35871
506.958	8699.49961
507.166	8625.67434
507.374	8797.89617
507.582	8871.6661
507.79	8851.17679
507.998	8949.50914
508.206	8886.00754
508.414	8969.98989
508.622	9236.08136
508.83	8953.60543
509.037	9340.39269
509.245	8801.99511
509.453	9236.08136
509.661	9086.69665
509.869	9583.62041
510.077	9283.12909
510.285	9375.15355
510.492	9266.76567
510.7	9626.51953
510.908	9291.3104
511.116	9397.64335
511.324	9324.03298
511.531	9702.087
511.739	9178.79385
511.947	9653.07267
512.155	9428.30808
512.362	9624.47687
512.57	9812.33705
512.778	9653.07267
512.985	9787.84085
513.193	9471.23257
513.401	9653.07267
513.608	9779.67497
513.816	9995.99055
514.024	9902.13807
514.231	9708.21316
514.439	10002.1103
514.646	9828.66665
514.854	10206.02905
515.061	10002.1103
515.269	10140.79027
515.477	9881.73127
515.684	10089.81258
515.892	10059.22175
516.099	10002.1103
516.307	10124.47836
516.514	10407.7736
516.722	10322.20099
516.929	10283.48188
517.136	10136.71238
517.344	10383.32665
517.551	10320.16326
517.759	10218.25975
517.966	10474.99306
518.173	10664.35538
518.381	10741.69856
518.588	10780.36365
518.796	10709.13513
519.003	10831.23229
519.21	10597.17466
519.418	10816.98981
519.625	10867.85318
519.832	10849.5432
520.039	10678.60412
520.247	11115.96492
520.454	11101.73343
520.661	11323.27949
520.868	11181.01648
521.076	11376.10736
521.283	11099.70032
521.49	11122.06397
521.697	11388.29746
521.904	11156.62342
522.112	11065.13575
522.319	11571.10704
522.526	11189.14716
522.733	11475.64949
522.94	11262.3158
523.147	11526.42737
523.354	11467.52447
523.561	11514.24122
523.768	11439.0857
523.975	11497.99249
524.183	11794.4394
524.39	11786.32009
524.597	11906.06613
524.804	11912.15414
525.011	11753.84148
525.218	12222.54811
525.425	12003.46544
525.632	11774.14088
525.838	11920.27136
526.045	11995.34954
526.252	11920.27136
526.459	12358.41739
526.666	12289.47276
526.873	12287.44486
527.08	12184.01215
527.287	12427.35409
527.494	12163.729
527.701	12510.47341
527.907	12325.97386
528.114	12242.82913
528.321	12394.91426
528.528	12431.40895
528.735	12751.66255
528.941	12692.8932
529.148	12378.69371
529.355	12731.39781
529.562	12561.15061
529.768	12613.85073
529.975	12443.57336
530.182	12660.46663
530.388	12563.17761
530.595	12782.05858
530.802	12765.84752
531.008	13057.5938
531.215	13256.08455
531.422	12948.20168
531.628	12996.82221
531.835	13006.95112
532.042	13128.48845
532.248	13049.49117
532.455	13231.7819
532.661	13488.95462
532.868	13237.85762
533.074	13337.08893
533.281	13523.37451
533.487	13549.6949
533.694	13533.49781
533.9	13843.23009
534.107	13754.16435
534.313	13590.18663
534.52	13314.81339
534.726	13592.21118
534.933	13756.18864
535.139	13810.84321
535.345	13883.71267
535.552	13993.01027
535.758	14169.08594
535.965	13978.84249
536.171	13995.03423
536.377	14225.75049
536.584	13984.91441
536.79	14310.74448
536.996	14229.79789
537.203	14086.10989
537.409	14084.08604
537.615	14055.75187
537.821	14116.46741
538.028	14519.16975
538.234	14448.34741
538.44	14553.56859
538.646	14476.67655
538.853	14683.06711
539.059	14100.27679
539.265	14385.61758
539.471	14531.31056
539.677	14701.2775
539.883	14848.98156
540.09	14755.90825
540.296	14662.83325
540.502	15006.79878
540.708	14970.37965
540.914	15039.17126
541.12	14923.84392
541.326	15083.68332
541.532	14980.49609
541.738	14970.37965
541.944	15047.26436
542.15	15170.68399
542.356	15035.1247
542.562	15267.80105
542.768	14946.10017
542.974	15310.28989
543.18	15470.13016
543.386	15579.38993
543.592	15522.73648
543.798	15777.68204
544.004	16024.55006
544.21	15682.58168
544.415	15243.52176
544.621	15642.11407
544.827	15375.03501
545.033	15719.00284
545.239	15605.69351
545.445	16135.8497
545.651	15818.15097
545.856	16032.64442
546.062	15816.12752
546.268	15834.33867
546.474	15745.30721
546.679	15670.44136
546.885	16067.04574
547.091	15907.18424
547.297	15573.31989
547.502	15801.96335
547.708	16083.23475
547.914	16091.32929
548.119	16071.09298
548.325	16415.13302
548.531	16062.9985
548.736	16150.01544
548.942	16156.0865
549.147	16202.63178
549.353	15886.9492
549.559	16738.98759
549.764	16445.49206
549.97	16536.57195
550.175	16797.69249
550.381	16743.03613
550.586	16390.84611
550.792	16700.52685
550.997	16400.96562
551.203	16581.10146
551.408	16613.48723
551.614	16591.22195
551.819	17087.19973
552.025	16941.42714
552.23	17241.08642
552.435	17164.14101
552.641	16817.93604
552.846	17196.53857
553.052	16937.3781
553.257	17083.1503
553.462	17247.16124
553.668	17285.63569
553.873	17103.39756
554.078	17439.54438
554.283	16965.72161
554.489	17599.54749
554.694	17328.16134
554.899	17334.23654
555.105	17297.78574
555.31	17536.75909
555.515	17534.73371
555.72	17492.20144
555.925	17480.04962
556.131	17937.84969
556.336	17704.87702
556.541	17623.85352
556.746	17783.88008
556.951	17806.16393
557.156	17569.16562
557.361	17719.05668
557.567	18022.94682
557.772	17911.51137
557.977	17893.27749
558.182	18128.3139
558.387	18525.55647
558.592	18482.98782
558.797	18110.07659
559.002	18142.49868
559.207	18018.89444
559.412	18006.73736
559.617	18012.81588
559.822	18324.89043
560.027	18116.15566
560.232	18193.16005
560.437	18270.16975
560.642	18053.34017
560.847	18266.11648
561.051	18470.82566
561.256	18339.07772
561.461	18480.96078
561.666	18306.6499
561.871	18547.85501
562.076	18653.27264
562.281	18862.11199
562.485	18298.5431
562.69	18513.39382
562.895	18580.29008
563.1	18714.09531
563.305	18245.85032
563.509	18908.75178
563.714	18708.01288
563.919	18880.36209
564.123	18661.38213
564.328	18626.91725
564.533	18754.64572
564.737	18626.91725
564.942	18643.13587
565.147	18766.81116
565.351	18681.65611
565.556	18703.95795
565.761	19004.06578
565.965	18858.05645
566.17	18894.55683
566.374	18847.91769
566.579	19046.65577
566.784	18989.86951
566.988	19286.00438
567.193	18979.72944
567.397	19247.46134
567.602	19283.97576
567.806	19146.03938
568.011	19338.74989
568.215	19363.09492
568.42	19448.3072
568.624	19064.90917
568.828	19462.50996
569.033	19559.90579
569.237	19606.57804
569.442	19825.76424
569.646	19352.95109
569.85	19600.49023
570.055	19772.99272
570.259	19624.84169
570.463	20000.33641
570.668	19604.54876
570.872	19482.79997
571.076	19724.28307
571.281	19805.46717
571.485	19860.27023
571.689	19756.7559
571.893	20014.54715
572.098	20109.9674
572.302	19927.25591
572.506	19933.34574
572.71	19919.13619
572.914	20313.02012
573.119	19963.79548
573.323	20231.79398
573.527	20231.79398
573.731	20345.51245
573.935	20461.27512
574.139	20310.98938
574.343	20375.97499
574.547	20231.79398
574.751	20095.75528
574.955	20205.39694
575.159	20359.72818
575.364	20550.64509
575.568	20471.43039
575.772	20378.00586
575.976	20428.77896
576.18	20337.38927
576.383	20526.27066
576.587	20579.08268
576.791	20538.4578
576.995	20729.40926
577.199	20491.74125
577.403	20414.56223
577.607	20741.5989
577.811	20707.06198
578.015	20465.33722
578.219	21046.38826
578.422	20879.75858
578.626	21217.11061
578.83	20822.86698
579.034	20936.65341
579.238	20859.43978
579.442	21292.31882
579.645	20898.04585
579.849	21335.00702
580.053	21054.51724
580.257	21204.9152
580.46	21058.58176
580.664	21219.14319
580.868	21162.23244
581.071	21438.68572
581.275	21353.3025
581.479	21235.40399
581.682	21145.97281
581.886	21131.74584
582.09	21174.42733
582.293	21627.77353
582.497	21589.13991
582.7	21698.94444
582.904	21599.30652
583.107	21619.64002
583.311	21495.61178
583.515	21778.2548
583.718	21633.87371
583.922	21873.84178
584.125	21788.42322
584.329	21690.81038
584.532	21942.9951
584.735	21985.70965
584.939	21511.87694
585.142	22024.35759
585.346	21894.18053
585.549	21851.46959
585.753	21857.57105
585.956	22244.06641
586.159	21902.31614
586.363	22034.52833
586.566	22374.28463
586.769	22539.1134
586.973	22439.39934
587.176	22355.97179
587.379	22301.03503
587.582	22404.80669
587.786	22333.58982
587.989	22689.71817
588.192	22608.30779
588.395	22649.01227
588.599	22311.2083
588.802	22848.48445
589.005	22355.97179
589.208	22614.41337
589.411	22535.04327
589.615	22699.89486
589.818	22838.30649
590.021	22907.51826
590.224	22687.68284
590.427	22659.18862
590.63	22268.48118
590.833	22838.30649
591.036	22673.43564
591.239	23001.16395
591.442	22938.05412
591.645	22840.34208
591.848	22813.87975
592.051	23013.37913
592.254	22978.76977
592.457	22834.23533
592.66	23255.67139
592.863	23214.94677
593.066	23259.74393
593.269	23255.67139
593.472	23365.63427
593.675	23756.68684
593.878	23717.98395
594.081	23681.31905
594.284	23626.32351
594.486	23923.7325
594.689	23683.35596
594.892	23671.13452
595.095	23962.44097
595.298	23717.98395
595.5	24123.39764
595.703	24251.76784
595.906	23777.05721
596.109	23713.91003
596.311	23931.88157
596.514	23520.41241
596.717	23665.02384
596.92	23736.31677
597.122	23836.13295
597.325	23687.4298
597.528	23455.24047
597.73	24349.58087
597.933	23516.33907
598.136	23876.87626
598.338	23785.20544
598.541	24188.6002
598.743	24123.39764
598.946	23923.7325
599.148	24194.71308
599.351	24149.88584
599.554	24052.08557
599.756	24127.47271
599.959	24685.85871
600.161	23984.85161
600.363	24410.71711
600.566	24443.32406
600.768	24282.33375
600.971	24398.48967
601.173	24166.1865
601.376	24622.674
601.578	24563.56788
601.78	24889.69628
601.983	24655.28517
602.185	24626.75036
602.388	24859.11912
602.59	24447.39998
602.792	24908.04283
602.995	24767.39086
603.197	24775.54429
603.399	24441.28611
603.601	24392.37599
603.804	24408.6792
604.006	24573.75844
604.208	24492.23573
604.41	24975.31511
604.613	25042.5899
604.815	24488.1597
605.017	25067.05407
605.219	25079.28628
605.421	24645.09411
605.623	24738.85417
605.826	24816.312
606.028	24378.11082
606.23	24747.00746
606.432	24204.90127
606.634	24997.73976
606.836	24575.79656
607.038	25052.78326
607.24	25166.95278
607.442	25105.78967
607.644	25099.67347
607.846	25097.63474
608.048	24887.65779
608.25	25236.27337
608.452	25073.17016
608.654	24869.31145
608.856	24912.11986
609.058	25266.85678
609.26	25046.66724
609.462	25311.71332
609.664	25301.51856
609.866	25328.02505
610.067	25285.20706
610.269	25415.70288
610.471	25005.89425
610.673	25356.57089
610.875	25348.41489
611.077	25419.78101
611.278	25383.07812
611.48	25387.15618
611.682	25083.3637
611.884	25748.09715
612.085	25487.07139
612.287	25472.79748
612.489	25040.55123
612.69	25413.66381
612.892	25374.92201
613.094	25287.24599
613.295	25328.02505
613.497	25413.66381
613.699	25107.82841
613.9	25091.51857
614.102	25287.24599
614.304	25376.96103
614.505	25381.03909
614.707	25362.68791
614.908	25275.01244
615.11	25434.05454
615.311	25266.85678
615.513	25158.79759
615.714	25103.75093
615.916	25330.06402
616.117	24875.42687
616.319	25052.78326
616.52	25533.97205
616.722	25250.54557
616.923	25193.45742
617.124	25046.66724
617.326	24645.09411
617.527	25268.89569
617.729	25364.72692
617.93	25454.44547
618.131	25527.85451
618.333	25582.91302
618.534	25584.95225
618.735	25799.08247
618.937	25519.69782
619.138	25519.69782
619.339	25411.62475
619.54	25952.04542
619.742	25801.1219
619.943	25570.67767
620.144	25672.64108
620.345	26082.5819
620.546	25837.83209
620.748	26047.90744
620.949	25986.71846
621.15	25982.63925
621.351	25913.29383
621.552	25509.50201
621.753	25236.27337
621.954	25907.17521
622.155	25688.95569
622.356	25978.56005
622.558	26100.93918
622.759	25841.91104
622.96	25903.09615
623.161	25801.1219
623.362	25519.69782
623.563	26158.0516
623.764	25680.79837
623.965	25990.79768
624.166	25817.43747
624.366	26137.65415
624.567	25778.6882
624.768	26080.54222
624.969	25629.81585
625.17	25735.86085
625.371	25868.42438
625.572	26105.01859
625.773	25829.67422
625.973	26180.489
626.174	25690.99502
626.375	25680.79837
626.576	25801.1219
626.777	26278.40004
626.977	25703.23106
627.178	26105.01859
627.379	26060.14543
627.58	26111.13773
627.78	26325.31712
627.981	26074.42316
628.182	26096.85977
628.382	26419.15389
628.583	26076.46284
628.784	26255.96175
628.984	25725.66399
629.185	26137.65415
629.386	25674.6804
629.586	26280.4399
629.787	26162.13112
629.987	26545.63491
630.188	25919.41246
630.388	25947.96628
630.589	26119.2966
630.79	26284.51961
630.99	25919.41246
631.191	26323.27723
631.391	26413.03399
631.591	26529.31444
631.792	26510.95403
631.992	26308.99804
632.193	26561.95549
632.393	26570.11581
632.594	26359.99552
632.794	26396.71435
632.994	26115.21716
633.195	26386.51462
633.395	26129.49522
633.595	26231.48385
633.796	26041.78847
633.996	26627.23877
634.196	26349.79594
634.397	26865.94393
634.597	26072.38348
634.797	26694.5638
634.997	26455.87356
635.198	26688.44328
635.398	26478.31361
635.598	26743.52849
635.798	26843.5007
635.998	26910.8309
636.199	26512.99407
636.399	26912.87123
636.599	26572.1559
636.799	27027.13214
636.999	26121.33632
637.199	26782.29281
637.399	27096.50697
637.599	26976.12226
637.799	26847.58128
637.999	27282.19433
638.199	26918.99224
638.399	27186.28849
638.599	26829.21874
638.799	27286.27549
638.999	26953.67819
639.199	26898.58893
639.399	26900.62925
639.599	26835.33957
639.799	26521.15424
639.999	26984.28378
640.199	26498.71382
640.399	26770.05138
640.599	26323.27723
640.799	27396.46887
640.998	27002.64729
641.198	27192.41005
641.398	26863.90363
641.598	27145.47838
641.798	27255.66689
641.997	27398.50952
642.197	26855.74244
642.397	27135.27594
642.597	26823.09793
642.796	26717.00584
642.996	26729.24703
643.196	27000.6069
643.395	26876.14545
643.595	26814.93685
643.795	26935.31499
643.994	27031.21297
644.194	26994.48572
644.394	27235.26132
644.593	27378.10305
644.793	27545.43988
644.992	27220.9775
645.192	27225.05858
645.392	27625.02983
645.591	27210.77481
645.791	27021.01091
645.99	27088.34514
646.19	27208.73427
646.389	27259.74802
646.589	27402.59083
646.788	27280.15375
646.987	27578.09194
647.187	27525.0325
647.386	27327.08741
647.586	27669.92754
647.785	27655.64184
647.984	27555.64361
648.184	27671.96836
648.383	27349.53419
648.582	27159.76186
648.782	27418.91613
648.981	27539.31765
649.18	27571.96965
649.38	27765.84732
649.579	28065.86835
649.778	27539.31765
649.977	27761.76558
650.177	27647.47861
650.376	27514.82885
650.575	27069.98111
650.774	27555.64361
650.973	27563.80662
651.173	27747.4795
651.372	27796.46057
651.571	27841.36047
651.77	27631.15221
651.969	28094.44306
652.168	27574.01041
652.367	27992.39153
652.566	27574.01041
652.765	27778.09259
652.964	27896.46567
653.163	27671.96836
653.362	27949.53073
653.561	27596.45886
653.76	27710.74415
653.959	27490.34024
654.158	27663.80509
654.357	27308.72198
654.556	27274.03201
654.755	27869.93343
654.954	27671.96836
655.153	27567.88814
655.352	28023.00669
655.551	27804.62414
655.749	28176.08629
655.948	28198.53849
656.147	27974.02255
656.346	28445.52137
656.545	27886.26094
656.743	27939.32585
656.942	27684.2133
657.141	27543.39913
657.34	27941.36682
657.538	27769.92907
657.737	28104.64837
657.936	28772.13426
658.135	28416.94403
658.333	28159.7575
658.532	28225.07308
658.731	28282.22513
658.929	28180.1685
659.128	27859.72878
659.326	27957.69465
659.525	27998.51454
659.724	28071.99148
659.922	28153.63423
660.121	27937.28487
660.319	27765.84732
660.518	27600.54042
660.716	27996.47353
660.915	28559.83281
661.113	28194.45626
661.312	27910.75234
661.51	28272.01934
661.709	27853.606
661.907	28216.90857
662.105	27904.62947
662.304	28445.52137
662.502	28269.97819
662.701	28129.14122
662.899	27886.26094
663.097	28529.21335
663.296	28363.87239
663.494	28829.29427
663.692	28480.22271
663.891	28145.46987
664.089	27839.31956
664.287	28276.10166
664.485	28076.07358
664.684	28516.96563
664.882	28384.28448
665.08	28774.17567
665.278	28374.07842
665.476	28400.61422
665.675	28600.65913
665.873	28725.182
666.071	28145.46987
666.269	28602.70046
666.467	28039.33488
666.665	28339.37803
666.863	27806.66504
667.061	27853.606
667.259	28145.46987
667.457	28176.08629
667.655	27694.41745
667.853	28198.53849
668.051	28012.80161
668.249	28204.66184
668.447	28251.60786
668.645	28335.29565
668.843	27814.82864
669.041	27943.4078
669.239	27341.37171
669.437	27749.52037
669.635	27680.13165
669.833	27957.69465
670.031	27314.84378
670.229	27814.82864
670.426	27802.58325
670.624	27782.17435
670.822	27918.91618
671.02	28114.8537
671.218	27986.26853
671.415	28004.63756
671.613	27251.58576
671.811	27984.22753
672.009	28063.82731
672.206	28280.18397
672.404	27963.8176
672.602	27896.46567
672.799	28239.36101
672.997	28333.25447
673.195	28049.54004
673.392	28235.27874
673.59	28059.74522
673.788	27825.03317
673.985	27780.13347
674.183	27774.01083
674.38	27757.68383
674.578	27596.45886
674.775	27714.82583
674.973	27374.02177
675.17	28029.12976
675.368	27669.92754
675.565	27622.98904
675.763	27900.54757
675.96	27602.58119
676.158	27674.00918
676.355	27447.48559
676.553	28086.27883
676.75	27443.40422
676.947	27822.99226
677.145	27867.8925
677.342	27933.20293
677.539	27857.68785
677.737	27837.27864
677.934	27727.07092
678.131	27741.35692
678.329	27641.3562
678.526	27978.10454
678.723	27831.1559
678.92	27698.49912
679.118	27502.58452
679.315	27759.7247
679.512	27512.78813
679.709	27735.23434
679.906	27574.01041
680.104	27767.8882
680.301	27188.32901
680.498	27304.64079
680.695	26921.03258
680.892	27520.95104
681.089	27190.36953
681.286	27337.29048
681.483	26625.19865
681.68	27082.22379
681.877	26965.92039
682.075	27147.51887
682.272	27316.88438
682.469	27325.04681
682.665	27200.57215
682.862	27414.8348
683.059	27029.17256
683.256	27067.94067
683.453	27333.20925
683.65	27155.68086
683.847	27663.80509
684.044	26988.36455
684.241	26586.43653
684.438	27125.07353
684.635	27114.87116
684.831	27382.18433
685.028	27084.26424
685.225	27339.33109
685.422	26935.31499
685.619	26939.39569
685.815	27002.64729
686.012	27043.45549
686.209	26759.85024
686.405	27106.70928
686.602	26572.1559
686.799	26780.25257
686.996	27290.35666
687.192	27214.85588
687.389	27220.9775
687.586	27098.54743
687.782	27090.3856
687.979	26843.5007
688.175	27035.2938
688.372	26755.76979
688.568	26796.57453
688.765	26584.39644
688.962	26488.51369
689.158	26639.47956
689.355	26582.35634
689.551	26741.48828
689.748	26441.59362
689.944	26625.19865
690.14	27025.09173
690.337	26612.95792
690.533	27284.23491
690.73	26702.72452
690.926	26876.14545
691.123	26461.99355
691.319	26490.55372
691.515	26637.43943
691.712	26231.48385
691.908	26162.13112
692.104	26064.22477
692.301	26351.83586
692.497	26092.78037
692.693	26408.95407
692.889	26419.15389
693.086	26527.27439
693.282	26398.7543
693.478	26484.43366
693.674	26423.23382
693.87	26184.56855
694.067	26047.90744
694.263	26292.67906
694.459	26056.06609
694.655	26123.37604
694.851	26156.01185
695.047	26386.51462
695.243	26404.87416
695.439	26184.56855
695.635	26510.95403
695.831	26119.2966
696.027	26051.98676
696.224	26007.11461
696.42	26082.5819
696.615	26347.75603
696.811	26005.07499
697.007	25909.21475
697.203	25662.44452
697.399	25907.17521
697.595	25956.12458
697.791	26274.32034
697.987	26345.71612
698.183	26580.31625
698.379	25778.6882
698.575	25976.52045
698.77	25737.90023
698.966	26115.21716
699.162	26037.70917
699.358	26625.19865
699.554	26170.29016
699.749	26158.0516
699.945	26086.66129
700.141	26113.17744
700.337	25931.64976
700.532	26296.75879
700.728	26282.47975
700.924	26525.23434
701.119	26184.56855
701.315	25144.52608
701.511	25001.817
701.706	25670.60177
701.902	25562.52081
702.097	26037.70917
702.293	25880.66142
702.489	25662.44452
702.684	25637.97297
702.88	25829.67422
703.075	25713.42782
703.271	25370.84397
703.466	25562.52081
703.662	25215.8847
703.857	25470.75836
704.053	25554.36398
704.248	25813.35857
704.443	25905.13568
704.639	25803.16134
704.834	25764.41232
705.03	25493.1888
705.225	25589.03072
705.42	25495.22795
705.616	25629.81585
705.811	24959.00645
706.006	25521.73699
706.202	25654.28731
706.397	25688.95569
706.592	25366.76594
706.787	25729.74273
706.983	25605.34468
707.178	25562.52081
707.373	25613.5017
707.568	25134.33221
707.763	25101.7122
707.959	25140.44852
708.154	25358.6099
708.349	24987.5467
708.544	25676.71972
708.739	25191.41859
708.934	25256.66226
709.129	24869.31145
709.324	25118.02213
709.519	25232.19562
709.714	24736.81585
709.909	25289.28492
710.104	24528.92045
710.299	24846.88841
710.494	25122.09964
710.689	25148.60364
710.884	25277.05136
711.079	25601.26617
711.274	25415.70288
711.469	25336.18096
711.664	25016.08741
711.859	25065.01538
712.054	24775.54429
712.249	24853.00376
712.443	24930.46664
712.638	25052.78326
712.833	24237.50395
713.028	24551.33929
713.223	24290.48476
713.417	25079.28628
713.612	24812.23518
713.807	24940.65938
714.002	25046.66724
714.196	25474.83661
714.391	25285.20706
714.586	25570.67767
714.78	25185.30211
714.975	25207.72929
715.17	24826.50408
715.364	24853.00376
715.559	25213.84585
715.754	24818.35041
715.948	24628.78855
716.143	24396.45178
716.337	24208.97657
716.532	24486.12169
716.726	24910.08134
716.921	25242.39001
717.115	25124.13839
717.31	24606.36865
717.504	24516.69212
717.699	24983.4695
717.893	24638.9795
718.088	24604.3305
718.282	24683.82046
718.476	24655.28517
718.671	24302.71136
718.865	24749.04579
719.059	24007.26259
719.254	24386.26233
719.448	23630.39718
719.642	24109.13495
719.837	23937.99339
720.031	23878.91346
720.225	23923.7325
720.419	24276.22052
720.614	24003.18784
720.808	23964.47829
721.002	23522.44908
721.196	23885.02506
721.39	24125.43517
721.585	24573.75844
721.779	24270.10731
721.973	24241.57933
722.167	23937.99339
722.361	23925.76976
722.555	24076.53503
722.749	23911.50899
722.943	23599.84496
723.137	23644.65511
723.331	23520.41241
723.525	23662.98696
723.719	24033.74873
723.913	24145.8107
724.107	23620.21303
724.301	23375.81649
724.495	23461.3502
724.689	23726.13184
724.883	23045.95353
725.077	23369.70715
725.271	23278.07048
725.465	23575.40368
725.659	23827.98442
725.853	23740.39076
726.046	23516.33907
726.24	23255.67139
726.434	23129.4293
726.628	23479.67957
726.822	23174.22345
727.015	23500.04584
727.209	23280.10678
727.403	23530.59581
727.596	23717.98395
727.79	23868.7275
727.984	23809.65042
728.177	24031.71132
728.371	23318.79709
728.565	23229.20024
728.758	22972.66234
728.952	22771.13415
729.146	23328.97895
729.339	23514.3024
729.533	23880.95066
729.726	23583.55073
729.92	23581.51396
730.113	23921.69524
730.307	23893.17391
730.5	23846.31867
730.694	23799.46496
730.887	23644.65511
731.081	23866.69032
731.274	23241.41763
731.468	23153.86227
731.661	23227.16402
731.854	22874.94753
732.048	22960.44756
732.241	23168.11506
732.435	23440.98453
732.628	23337.12448
732.821	23440.98453
733.014	23624.28668
733.208	23915.58348
733.401	23893.17391
733.594	23652.80257
733.788	23697.61444
733.981	23420.61917
734.174	23420.61917
734.367	23271.9616
734.56	23593.7346
734.754	23630.39718
734.947	23463.38679
735.14	23495.97256
735.333	23219.01918
735.526	22988.94889
735.719	22583.88577
735.912	22710.07164
736.105	22471.95809
736.298	22640.87126
736.491	22575.74521
736.684	22587.95607
736.877	22960.44756
737.07	22773.16962
737.263	22695.82417
737.456	23029.66622
737.649	22551.32388
737.842	22732.46086
738.035	22685.64752
738.228	22844.41325
738.421	22862.73373
738.614	22990.98473
738.807	22889.19712
739	22549.28879
739.192	22699.89486
739.385	22740.6025
739.578	22604.23741
739.771	22775.20509
739.964	22606.2726
740.156	23070.38489
740.349	22799.63105
740.542	22819.98639
740.735	22789.4535
740.927	22964.51914
741.12	22907.51826
741.313	23019.48677
741.505	23080.56476
741.698	22197.27292
741.891	22345.79811
742.083	22490.27279
742.276	22476.028
742.468	22004.0164
742.661	22211.51421
742.854	22209.47973
743.046	22158.61891
743.239	22386.49336
743.431	22754.85051
743.624	22351.90231
743.816	22364.11079
744.009	22539.1134
744.201	22046.73334
744.393	22268.48118
744.586	22307.13898
744.778	22488.23781
744.971	22476.028
745.163	22425.15518
745.355	22176.92854
745.548	22170.82529
745.74	22412.94604
745.932	22172.85971
746.125	22065.04111
746.317	22358.00653
746.509	21839.26678
746.702	22079.2807
746.894	21942.9951
747.086	21936.89315
747.278	22168.79089
747.471	21991.81186
747.663	22640.87126
747.855	22351.90231
748.047	22445.50404
748.239	22327.48573
748.431	21912.48573
748.623	22242.03187
748.815	22042.66498
749.008	22185.06625
749.2	21843.33437
749.392	22087.41769
749.584	21526.10916
749.776	21839.26678
749.968	22087.41769
750.16	22054.87009
750.352	22160.6533
750.544	22138.27524
750.736	21851.46959
750.928	21855.53723
751.12	21666.40857
751.311	21623.70677
751.503	22071.14377
751.695	22016.22107
751.887	22006.0505
752.079	22567.60471
752.271	21790.45692
752.463	21877.90949
752.654	21617.60665
752.846	21454.94999
753.038	21465.11529
753.23	21560.67394
753.421	21475.28069
753.613	21469.18144
753.805	21452.91694
753.997	21406.15795
754.188	21351.26965
754.38	21182.55734
754.572	21294.35155
754.763	21371.59831
754.955	21304.51527
755.146	21617.60665
755.338	21459.0161
755.53	21208.98032
755.721	21499.67805
755.913	21753.85098
756.104	21465.11529
756.296	21450.8839
756.487	21406.15795
756.679	21373.6312
756.87	21249.6324
757.062	21505.77747
757.253	21103.29252
757.445	20859.43978
757.636	20938.68543
757.827	20859.43978
758.019	20672.52625
758.21	21074.83999
758.401	20690.80972
758.593	20977.29455
758.784	20658.30601
758.975	20575.02012
759.167	20400.3457
759.358	20467.36827
759.549	20160.72663
759.74	20207.42745
759.932	20268.34491
760.123	20386.12938
760.314	20331.29692
760.505	20351.60488
760.696	20219.61064
760.888	20666.43184
761.079	20587.20786
761.27	20512.05252
761.461	20142.453
761.652	20404.40755
761.843	20438.9339
762.034	20548.61386
762.225	20327.23538
762.416	20339.42006
762.607	20144.48339
762.798	20434.87191
762.989	20530.33302
763.18	20160.72663
763.371	20331.29692
763.562	20380.03673
763.753	19963.79548
763.944	20274.43686
764.135	19898.83718
764.326	20390.19117
764.517	19842.0022
764.708	19929.28585
764.899	19494.97417
765.089	19888.68784
765.28	19693.84076
765.471	19770.96311
765.662	19592.37321
765.853	19809.52655
766.043	19379.32527
766.234	19547.73079
766.425	19338.74989
766.615	19649.19375
766.806	19975.97564
766.997	19693.84076
767.187	19466.56793
767.378	19949.58548
767.569	19482.79997
767.759	19703.98809
767.95	19478.74193
768.141	19428.0179
768.331	19393.52704
768.522	19286.00438
768.712	19608.60731
768.903	19570.05175
769.093	19409.75788
769.284	19194.72064
769.474	19123.72792
769.665	19101.41696
769.855	18979.72944
770.046	19150.09606
770.236	19004.06578
770.426	19058.82467
770.617	18738.42537
770.807	18983.78546
770.998	19073.0219
771.188	19097.36047
771.378	18732.3428
771.569	18920.91903
771.759	18521.50224
771.949	18521.50224
772.139	19087.21933
772.33	18440.42086
772.52	18783.03195
772.71	18955.39369
772.9	18752.61817
773.09	18845.88995
773.281	18618.80803
773.471	18616.78073
773.661	18651.24528
773.851	18507.31255
774.041	18274.22304
774.231	18647.19057
774.421	18217.47833
774.611	18221.53143
774.802	18136.41946
774.992	18335.02419
775.182	18081.70803
775.372	18274.22304
775.562	18539.74639
775.752	18401.90935
775.942	18308.67661
776.131	18067.52401
776.321	17907.45937
776.511	18164.7894
776.701	17638.03225
776.891	18071.57657
777.081	17550.93684
777.271	17830.47405
777.461	17889.22555
777.651	18000.65887
777.84	17828.44819
778.03	17370.68832
778.22	17719.05668
778.41	17666.3902
778.599	17686.64627
778.789	17899.35542
778.979	17891.25152
779.169	17761.59665
779.358	17668.41579
779.548	17870.99201
779.738	17911.51137
779.927	17751.46795
780.117	17739.31362
780.307	17378.78885
780.496	17330.1864
780.686	17326.13628
780.875	17073.02677
781.065	17232.98671
781.254	17056.82928
781.444	17295.76073
781.633	17054.8046
781.823	17253.23608
782.012	17431.44348
782.202	17376.76371
782.391	16779.47351
782.581	17014.31168
782.77	17000.13942
782.96	17087.19973
783.149	16581.10146
783.338	17034.55801
783.528	16473.82757
783.717	16809.83859
783.906	16783.52215
784.096	16791.61947
784.285	16902.96168
784.474	16854.37505
784.663	17071.00208
784.853	16599.31838
785.042	16860.4483
785.231	17020.38555
785.42	16793.64381
785.61	16767.32763
785.799	16334.17775
785.988	16941.42714
786.177	16500.13948
786.366	16755.18184
786.555	16801.74118
786.744	16538.59599
786.933	16166.20497
787.122	16390.84611
787.312	16615.51136
787.501	16564.90879
787.69	16079.18749
787.879	16087.28201
788.068	16301.7965
788.257	16135.8497
788.445	15923.37236
788.634	16305.84413
788.823	16058.95127
789.012	16212.75043
789.201	15897.06671
789.39	15828.26828
789.579	15836.36214
789.768	15996.21996
789.957	15872.78475
790.145	16180.37088
790.334	16182.39459
790.523	16481.92351
790.712	16032.64442
790.9	15710.90923
791.089	15712.93263
791.278	15937.53704
791.467	15443.82714
791.655	15931.46645
791.844	15886.9492
792.033	15767.56488
792.221	15565.22652
792.41	15607.71687
792.599	15031.07814
792.787	15397.29123
792.976	15300.17349
793.164	15589.50668
793.353	15526.78314
793.541	15427.64071
793.73	15075.59022
793.918	15326.47614
794.107	14873.26132
794.295	15334.56927
794.484	15360.87198
794.672	14917.77402
794.861	15059.40402
795.049	15247.56831
795.238	15097.84623
795.426	15283.98726
795.614	15022.98503
795.803	14877.30794
795.991	14911.70412
796.179	14968.35636
796.368	15049.28764
796.556	15085.70659
796.744	15029.05486
796.932	15057.38075
797.121	14899.56431
797.309	15069.5204
797.497	14770.07168
797.685	15162.5909
797.874	15041.19453
798.062	15109.98586
798.25	14810.53841
798.438	15298.15021
798.626	15039.17126
798.814	14911.70412
799.002	14846.95824
799.19	14992.6358
799.378	14792.32842
799.566	14768.04833
799.755	14699.25413
799.943	14956.21662
800.131	14751.86155
800.318	15041.19453
800.506	14687.11387
800.694	14802.44509
800.882	14676.99696
801.07	14911.70412
801.258	14788.28174
801.446	14982.51937
801.634	14739.72142
801.822	14859.09814
802.01	14699.25413
802.197	15134.26512
802.385	14917.77402
802.573	14978.4728
802.761	14488.81752
802.949	14602.13106
803.136	14407.87672
803.324	14865.16808
803.512	14713.41772
803.699	14804.46842
803.887	14814.58507
804.075	15114.0324
804.262	14842.9116
804.45	14944.07687
804.638	14606.1779
804.825	15201.03305
805.013	15128.1953
805.201	15136.28839
805.388	14581.89678
805.576	14786.25841
805.763	14496.91148
805.951	14575.82647
806.138	14442.27684
806.326	14816.6084
806.513	14286.46081
806.701	14468.58254
806.888	14150.87199
807.075	14537.38094
807.263	14359.31107
807.45	14697.23075
807.638	14614.27157
807.825	14551.54514
808.012	14413.94736
808.2	14741.74478
808.387	14571.77959
808.574	14796.37509
808.761	14646.64609
808.949	14721.51118
809.136	14118.49122
809.323	14715.44109
809.51	14345.14592
809.698	14456.44148
809.885	14579.87334
810.072	14753.8849
810.259	14654.73968
810.446	14764.00164
810.633	14830.77168
810.82	14596.06079
811.008	14375.49972
811.195	15010.84534
811.382	14691.16063
811.569	14867.19139
811.756	14535.35748
811.943	14859.09814
812.13	14733.65135
812.317	14513.09933
812.504	14660.80986
812.691	14927.89051
812.878	14725.55791
813.064	14857.07482
813.251	14950.14675
813.438	14824.70171
813.625	14298.60268
813.812	14470.60604
813.999	14573.80303
814.186	14701.2775
814.372	14638.55249
814.559	14670.9268
814.746	14585.94364
814.933	14415.9709
815.12	14183.25222
815.306	14003.13004
815.493	14197.41841
815.68	14492.8645
815.866	14138.72927
816.053	14567.73271
816.24	14333.00429
816.426	14517.14628
816.613	14468.58254
816.799	14739.72142
816.986	14509.05237
817.173	14622.36523
817.359	14592.01393
817.546	14310.74448
817.732	14395.73539
817.919	14124.56266
818.105	14148.84821
818.292	14248.01114
818.478	14337.05151
818.665	14395.73539
818.851	14462.51201
819.037	14270.27156
819.224	14233.84529
819.41	14078.01447
819.597	13999.08214
819.783	14114.44359
819.969	14073.96674
820.156	13837.15761
820.342	14256.10586
820.528	14213.60821
820.714	14221.70307
820.901	14341.09872
821.087	14411.92381
821.273	14367.40541
821.459	14110.39594
821.646	14308.72085
821.832	14685.09049
822.018	14122.53885
822.204	13796.67371
822.39	14047.65631
822.576	13853.35084
822.762	13827.03674
822.948	13671.16596
823.134	13940.38645
823.32	13606.38293
823.507	13687.36119
823.693	13725.82403
823.879	13905.97762
824.065	13950.50655
824.25	13912.04982
824.436	13808.819
824.622	13501.10294
824.808	13776.43133
824.994	13750.11577
825.18	13746.06718
825.366	13711.65365
825.552	13505.15235
825.738	13733.92133
825.923	13687.36119
826.109	14108.37212
826.295	13624.6035
826.481	13861.44739
826.667	14031.46507
826.852	14053.72798
827.038	13841.20593
827.224	13729.87269
827.409	13371.51377
827.595	13397.83786
827.781	13209.50391
827.966	13316.83846
828.152	12824.61091
828.338	13324.9387
828.523	13199.37738
828.709	13235.83239
828.894	12769.90032
829.08	13120.3865
829.266	12743.55672
829.451	12873.23916
829.637	12650.33301
829.822	13055.56815
830.008	12901.60421
830.193	12848.92543
830.378	12934.02013
830.564	12976.56401
830.749	12970.48645
830.935	13260.13493
831.12	12820.55841
831.305	13079.87561
831.491	12810.42707
831.676	13041.38847
831.861	12911.73433
832.047	12753.68899
832.232	12792.19031
832.417	12595.60886
832.602	12889.44789
832.788	13132.5394
832.973	13104.18237
833.158	13098.10574
833.343	12925.91628
833.528	13011.00264
833.714	12869.18693
833.899	13017.0799
834.084	12575.33952
834.269	12804.3482
834.454	12216.46366
834.639	12435.46378
834.824	12360.44506
835.009	12917.81234
835.194	12577.36648
835.379	12471.95607
835.564	12325.97386
835.749	12350.30668
835.934	12117.07492
836.119	12184.01215
836.304	12200.23814
836.489	12108.96076
836.674	11895.91929
836.859	12086.64619
837.044	12321.9183
837.228	12250.94134
837.413	11920.27136
837.598	12259.05343
837.783	12042.01425
837.968	12364.50036
838.152	11676.69581
838.337	11985.20449
838.522	12098.81789
838.707	12100.84648
838.891	11940.56386
839.076	12009.55229
839.261	12023.75464
839.445	12269.19339
839.63	11932.44696
839.815	12037.95661
839.999	11745.72149
840.184	12281.3611
840.368	12293.52855
840.553	12155.61553
840.737	11881.71337
840.922	11638.11815
841.106	11709.17975
841.291	11786.32009
841.475	11528.45837
841.66	11739.63139
841.844	11264.34807
842.029	11638.11815
842.213	11497.99249
842.397	11595.47588
842.582	11520.33434
842.766	11554.86041
842.951	11262.3158
843.135	11311.08749
843.319	11172.88563
843.504	11187.11451
843.688	11408.61349
843.872	11550.79866
844.056	11396.42399
844.241	11264.34807
844.425	11095.63406
844.609	11020.40046
844.793	11042.76877
844.977	11181.01648
845.161	10886.16223
845.346	11107.83271
845.53	11107.83271
845.714	11272.47705
845.898	11004.13176
846.082	11292.79879
846.266	11311.08749
846.45	11286.70238
846.634	10888.19651
846.818	11239.96014
847.002	11124.09696
847.186	11199.31028
847.37	11278.57368
847.554	11339.53494
847.738	11111.89883
847.922	11225.73316
848.106	11170.85289
848.29	11087.50142
848.473	11032.60152
848.657	10696.92306
848.841	10562.56114
849.025	10558.48873
849.209	10358.87781
849.392	10532.0168
849.576	10352.76531
849.76	10529.98041
849.944	10383.32665
850.127	10806.81626
850.311	10417.95928
850.495	10890.23078
850.678	10762.04914
850.862	11014.29978
851.046	10462.77239
851.229	10635.85611
851.413	10395.55036
851.596	10639.92758
851.78	10643.999
851.964	10513.68883
852.147	10100.00882
852.331	10472.95632
852.514	10138.75133
852.698	10201.95204
852.881	9648.98774
853.065	9810.29578
853.248	9324.03298
853.431	9773.5504
853.615	9555.01715
853.798	9763.34248
853.982	9624.47687
854.165	9757.21755
854.348	9499.84496
854.532	9710.25519
854.715	9847.03631
854.898	9791.9237
855.081	9810.29578
855.265	9891.93485
855.448	9722.50702
855.631	9877.64973
855.814	9722.50702
855.997	9926.6243
856.181	9671.45409
856.364	9755.17588
856.547	9677.58095
856.73	9356.75133
856.913	9195.16307
857.096	9602.00659
857.279	9536.62771
857.462	9528.45421
857.645	9438.52884
857.828	9624.47687
858.011	9272.90208
858.194	9321.98795
858.377	8986.37321
858.56	9313.80763
858.743	9133.77289
858.926	9311.76251
859.109	8949.50914
859.292	9191.07086
859.475	9264.72016
859.658	9317.89782
859.841	9191.07086
860.023	9383.33189
860.206	8949.50914
860.389	9088.74364
860.572	8937.21984
860.755	8943.36457
860.937	8824.53801
861.12	8787.64849
861.303	8920.83311
861.486	8900.34811
861.668	9078.50855
861.851	8904.44525
862.034	8592.85536
862.216	8736.40327
862.399	8469.74123
862.581	8590.80402
862.764	8326.02105
862.947	8672.84326
863.129	8547.72142
863.312	8746.65323
863.494	8535.41058
863.677	8681.04555
863.859	8549.77316
864.042	8512.83893
864.224	8449.21555
864.406	8644.13292
864.589	8326.02105
864.771	8463.58373
864.954	7978.64187
865.136	8165.76304
865.318	8050.63135
865.501	8371.20046
865.683	8223.30537
865.865	8233.57916
866.048	7871.63982
866.23	8289.04906
866.412	8235.63385
866.594	8379.41388
866.777	8065.02626
866.959	8256.17974
867.141	8157.54143
867.323	7976.58466
867.505	7853.11457
867.687	8034.1788
867.869	8143.15285
868.052	8278.77794
868.234	8122.59603
868.416	8044.46179
868.598	7890.16339
868.78	8102.03721
868.962	8005.38373
869.144	8266.45194
869.326	7764.58183
869.508	7869.58154
869.69	7886.04718
869.872	7995.0988
870.054	8155.48598
870.236	8116.42859
870.417	7984.81337
870.599	8067.08259
870.781	7766.64117
870.963	7947.78159
871.145	7688.3715
871.327	7970.41291
871.508	7575.03237
871.69	7809.88246
871.872	7702.79188
872.054	7647.16471
872.235	7463.69104
872.417	7424.50043
872.599	7300.68902
872.78	7665.70881
872.962	7368.79502
873.144	7663.64844
873.325	7500.81179
873.507	7778.99676
873.689	7459.56608
873.87	7673.95009
874.052	7548.2337
874.233	7680.13082
874.415	7308.94556
874.596	7750.16586
874.778	7399.74443
874.959	7420.37464
875.141	7284.17488
875.322	7542.04888
875.503	7572.97107
875.685	7684.2512
875.866	7647.16471
876.048	7671.8898
876.229	7490.50117
876.41	7708.97173
876.592	7469.87832
876.773	7696.61185
876.954	7261.46564
877.136	7676.01035
877.317	7257.3364
877.498	7665.70881
877.679	7389.4285
877.86	7651.28577
878.042	7451.3159
878.223	7323.39367
878.404	7434.8145
878.585	7428.62612
878.766	7482.25229
878.947	7506.9979
879.128	7302.75319
879.309	7344.03196
879.49	7238.75373
879.672	7663.64844
879.853	7438.93998
880.034	7407.99677
880.215	7302.75319
880.396	7506.9979
880.576	7325.4576
880.757	7350.22302
880.938	7331.64925
881.119	7634.80102
881.3	7502.87385
881.481	7776.93755
881.662	7618.3149
881.843	7879.87272
882.023	7756.34426
882.204	7665.70881
882.385	7436.87726
882.566	7410.05981
882.747	7296.56062
882.927	7643.04356
883.108	7348.15935
883.289	7581.21617
883.469	7476.0654
883.65	7778.99676
883.831	7531.74041
884.011	7698.67188
884.192	7509.0599
884.373	7836.64628
884.553	7572.97107
884.734	7731.62954
884.914	7405.93372
885.095	7700.73189
885.275	7465.75349
885.456	7704.85185
885.636	7395.61812
885.817	7770.75978
885.997	7527.61688
886.178	7803.7057
886.358	7647.16471
886.538	7772.81906
886.719	7653.34627
886.899	7746.04683
887.08	7696.61185
887.26	7774.87831
887.44	7308.94556
887.621	7535.86386
887.801	7482.25229
887.981	7492.56334
888.161	7333.71309
888.342	7333.71309
888.522	7296.56062
888.702	7801.64674
888.882	7395.61812
889.062	7708.97173
889.242	7506.9979
889.423	7840.76348
889.603	7605.94943
889.783	7708.97173
889.963	7209.84381
890.143	7572.97107
890.323	7474.00306
890.503	7663.64844
890.683	7556.47983
890.863	7772.81906
891.043	7622.43656
891.223	7912.80103
891.403	7564.72562
891.583	7855.17302
891.763	7327.5215
891.943	7533.80215
892.122	7461.62857
892.302	7449.2533
892.482	7251.14238
892.662	7566.78701
892.842	7135.48405
893.022	7085.89486
893.201	7005.28493
893.381	7081.76184
893.561	7515.24575
893.741	7645.10415
893.92	7445.12804
894.1	7399.74443
894.28	7118.95575
894.459	7232.55911
894.639	6966.00105
894.819	7110.69106
894.998	7085.89486
895.178	7350.22302
895.357	7017.68868
895.537	7317.20175
895.716	7463.69104
895.896	7385.30198
896.075	7195.38722
896.255	7335.7769
896.434	7069.36227
896.614	7364.66806
896.793	6970.13658
896.973	7127.22008
897.152	6817.06171
897.331	7168.53638
897.511	7116.88961
897.69	7145.81352
897.87	6792.22703
898.049	6792.22703
898.228	6578.92701
898.407	6705.27974
898.587	6684.57204
898.766	6808.78385
898.945	6423.4574
899.124	6678.35929
899.304	6386.12524
899.483	6589.28701
899.662	6267.85689
899.841	6485.6609
900.02	6029.01353
900.199	6143.28172
900.378	6272.00794
900.557	6207.6561
900.737	6265.78133
900.916	6371.60515
901.095	6272.00794
901.274	6118.35654
901.453	6174.43343
901.632	5958.33939
901.811	5858.51774
901.989	6068.49604
902.168	6029.01353
902.347	6159.89662
902.526	5725.33763
902.705	5881.39834
902.884	5887.638
903.063	6070.57383
903.242	5833.55383
903.42	6149.51248
903.599	5821.07061
903.778	6172.35681
903.957	5633.72024
904.135	5850.19682
904.314	5569.1442
904.493	5689.94542
904.672	5437.83926
904.85	5200.00295
905.029	5496.20854
905.207	5558.72658
905.386	5310.61383
905.565	5195.82767
905.743	5291.83548
905.922	5212.52823
906.1	4949.32181
906.279	5302.26813
906.457	5072.61506
906.636	5120.65671
906.814	5032.91922
906.993	4880.32623
907.171	4851.04785
907.35	5085.14884
907.528	4681.564
907.707	4802.93794
907.885	4564.30355
908.063	4700.40287
908.242	4455.35641
908.42	4597.81369
908.598	4476.31242
908.777	4576.87052
908.955	4618.75462
909.133	4828.04027
909.311	4432.30227
909.49	4549.64107
909.668	4493.07564
909.846	4825.94853
910.024	4438.59002
910.202	4662.72331
910.38	4578.96494
910.559	4853.13931
910.737	4639.69332
910.915	4825.94853
911.093	4715.05406
911.271	4761.09346
911.449	4537.07237
911.627	4648.06818
911.805	4272.94715
911.983	4591.53097
912.161	4453.26069
912.339	4717.147
912.517	4654.34908
912.695	4901.23662
912.872	4467.93028
913.05	4982.7652
913.228	4614.56661
913.406	4844.77333
913.584	4823.85678
913.762	5060.08043
913.939	4614.56661
914.117	4689.93705
914.295	4589.43669
914.473	4823.85678
914.65	4723.42567
914.828	4825.94853
915.006	4756.90851
915.184	4769.46308
915.361	4426.01431
915.539	4576.87052
915.716	4130.26129
915.894	4421.82224
916.072	4180.63219
916.249	4474.21692
916.427	4287.62981
916.604	4331.67148
916.782	4499.36148
916.959	4595.71947
917.137	4340.05929
917.314	4446.97339
917.492	4325.38039
917.669	4321.18623
917.847	4029.48341
918.024	4354.73712
918.201	4138.65728
918.379	4377.80014
918.556	4014.78265
918.733	4161.74452
918.911	4052.58256
919.088	4195.32141
919.265	4044.18316
919.442	4056.78214
919.62	4002.1812
919.797	4501.45672
919.974	4180.63219
920.151	4247.77443
920.328	3920.25386
920.506	4264.55659
920.683	3981.17714
920.86	3934.96104
921.037	3615.38755
921.214	3867.72018
921.391	3564.88799
921.568	3918.15276
921.745	3680.6001
921.922	4035.78342
922.099	3951.76803
922.276	4008.48201
922.453	3659.56578
922.63	3976.97608
922.807	3503.85347
922.984	3756.30773
923.161	3529.11101
923.338	3749.99972
923.514	3465.96224
923.691	3632.21833
923.868	3562.78361
924.045	3754.20508
924.222	3533.32034
924.399	3598.55556
924.575	3381.73871
924.752	3539.6342
924.929	3430.17072
925.105	3592.24325
925.282	3333.29741
925.459	3404.90301
925.635	3289.06041
925.812	3598.55556
925.989	3135.22652
926.165	3160.52031
926.342	2968.65247
926.518	3246.92295
926.695	3029.81112
926.871	3240.60175
927.048	2899.04286
927.224	3034.02849
927.401	2569.77571
927.577	3055.11439
927.754	2791.4336
927.93	2937.01372
928.107	2700.67654
928.283	2848.40777
928.459	2827.30741
928.636	2958.10659
928.812	2814.64652
928.988	2839.96779
929.165	2713.34179
929.341	2991.85208
929.517	2736.56018
929.693	2721.78502
929.87	2485.29906
930.046	2540.21099
930.222	2362.77652
930.398	2603.56111
930.574	2373.34019
930.751	2639.45469
930.927	2447.27867
931.103	2782.99213
931.279	2459.95253
931.455	2612.00698
931.631	2248.67331
931.807	2375.4529
931.983	2276.14511
932.159	2337.42268
932.335	2062.67266
932.511	2354.3254
932.687	2049.98862
932.863	2189.49816
933.039	2014.04916
933.215	2364.88927
933.391	2265.57922
933.566	2107.06474
933.742	1988.67897
933.918	2083.81215
934.094	1724.3593
934.27	1912.56308
934.445	1737.04823
934.621	2045.76055
934.797	1745.50744
934.973	1718.01479
935.148	1474.79264
935.324	1574.19924
935.5	1531.89881
935.675	1648.22336
935.851	1259.06086
936.027	1432.4916
936.202	1225.22226
936.378	1385.96058
936.553	1153.318
936.729	1218.87761
936.904	1187.15478
937.08	1113.1382
937.255	975.69508
937.431	924.95358
937.606	984.15239
937.782	861.53286
937.957	874.21642
938.133	836.16667
938.308	713.58257
938.483	711.46935
938.659	565.68581
938.834	717.80903
939.009	578.36028
939.185	711.46935
939.36	726.26209
939.535	574.1354
939.71	626.95005
939.886	675.54638
940.061	534.00179
940.236	443.19213
940.411	430.52323
940.586	506.54484
940.761	521.32906
940.937	447.41521
941.112	479.09034
941.287	455.86158
941.462	362.96564
941.637	460.08485
941.812	375.63139
941.987	358.74385
942.162	320.75093
942.337	346.07892
942.512	337.63597
942.687	333.4146
942.862	297.53586
943.037	295.42551
943.212	322.8615
943.386	280.65356
943.561	278.54336
943.736	388.29776
943.911	270.10273
944.086	251.11241
944.26	358.74385
944.435	303.86702
944.61	303.86702
944.785	255.33235
944.959	291.20486
945.134	333.4146
945.309	278.54336
945.483	310.19835
945.658	253.22237
945.833	337.63597
946.007	286.98428
946.182	381.9645
946.357	354.52214
946.531	337.63597
946.706	286.98428
946.88	320.75093
947.055	289.09456
947.229	379.85345
947.404	240.56291
947.578	407.29842
947.752	320.75093
947.927	362.96564
948.101	257.44235
948.276	354.52214
948.45	333.4146
948.624	322.8615
948.799	286.98428
948.973	339.74668
949.147	379.85345
949.321	375.63139
949.496	274.323
949.67	316.52984
949.844	343.96815
950.018	329.19331
950.193	236.34324
950.367	312.30883
950.541	316.52984
950.715	320.75093
950.889	400.96472
951.063	506.54484
951.237	371.40941
951.411	365.07655
951.585	339.74668
951.759	441.0806
951.933	375.63139
952.107	392.52001
952.281	341.85741
952.455	388.29776
952.629	341.85741
952.803	358.74385
952.977	346.07892
953.151	405.18717
953.325	312.30883
953.499	432.63468
953.672	392.52001
953.846	362.96564
954.02	403.07593
954.194	337.63597
954.368	390.40887
954.541	324.97208
954.715	310.19835
954.889	422.07762
955.062	346.07892
955.236	327.08269
955.41	263.77245
955.583	350.30049
955.757	320.75093
955.93	350.30049
956.104	348.18969
956.278	373.52039
956.451	272.21286
956.625	312.30883
956.798	280.65356
956.972	331.30395
957.145	194.1509
957.319	362.96564
957.492	329.19331
957.665	381.9645
957.839	358.74385
958.012	358.74385
958.185	303.86702
958.359	339.74668
958.532	379.85345
958.705	504.43287
958.879	362.96564
959.052	400.96472
959.225	286.98428
959.398	512.88085
959.572	413.63227
959.745	390.40887
959.918	251.11241
960.091	263.77245
960.264	297.53586
960.438	282.76378
960.611	333.4146
960.784	320.75093
960.957	251.11241
961.13	329.19331
961.303	297.53586
961.476	466.41988
961.649	346.07892
961.822	392.52001
961.995	299.64623
962.168	244.78265
962.341	177.27622
962.514	291.20486
962.686	362.96564
962.859	367.18749
963.032	303.86702
963.205	329.19331
963.378	219.46535
963.551	329.19331
963.723	286.98428
963.896	335.52528
964.069	295.42551
964.242	297.53586
964.414	227.90414
964.587	295.42551
964.76	348.18969
964.932	322.8615
965.105	295.42551
965.278	303.86702
965.45	341.85741
965.623	324.97208
965.795	322.8615
965.968	388.29776
966.14	244.78265
966.313	314.41933
966.485	329.19331
966.658	240.56291
966.83	303.86702
967.003	289.09456
967.175	303.86702
967.348	329.19331
967.52	286.98428
967.692	388.29776
967.865	303.86702
968.037	278.54336
968.209	261.6624
968.382	230.01389
968.554	189.93211
968.726	308.08789
968.898	255.33235
969.071	236.34324
969.243	238.45306
969.415	244.78265
969.587	227.90414
969.759	202.58873
969.932	189.93211
970.104	173.05775
970.276	187.82274
970.448	274.323
970.62	145.63975
970.792	291.20486
970.964	238.45306
971.136	253.22237
971.308	236.34324
971.48	246.89255
971.652	253.22237
971.824	244.78265
971.996	230.01389
972.168	221.57502
972.339	240.56291
972.511	187.82274
972.683	194.1509
972.855	227.90414
973.027	154.07568
973.199	227.90414
973.37	217.35571
973.542	289.09456
973.714	147.7487
973.886	173.05775
974.057	145.63975
974.229	185.7134
974.401	187.82274
974.572	162.51195
974.744	168.83937
974.915	164.62107
975.087	179.38548
975.259	238.45306
975.43	126.66015
975.602	230.01389
975.773	187.82274
975.945	187.82274
976.116	221.57502
976.288	185.7134
976.459	162.51195
976.63	204.69824
976.802	185.7134
976.973	158.29377
977.145	168.83937
977.316	160.40285
977.487	154.07568
977.659	225.79441
977.83	198.36978
978.001	156.18471
978.172	128.76891
978.344	143.53082
978.515	143.53082
978.686	135.09531
978.857	46.54368
979.028	232.12365
979.2	179.38548
979.371	126.66015
979.542	46.54368
979.713	99.24826
979.884	166.73021
980.055	202.58873
980.226	126.66015
980.397	187.82274
980.568	76.05651
980.739	151.96666
980.91	126.66015
981.081	208.91732
981.252	107.68229
981.423	105.57375
981.594	130.87769
981.765	135.09531
981.936	122.44269
982.106	173.05775
982.277	160.40285
982.448	158.29377
982.619	130.87769
982.79	206.80777
982.96	151.96666
983.131	154.07568
983.302	135.09531
983.472	76.05651
983.643	109.79086
983.814	103.46523
983.984	200.47924
984.155	118.22533
984.326	128.76891
984.496	69.73195
984.667	194.1509
984.837	143.53082
985.008	168.83937
985.178	103.46523
985.349	160.40285
985.519	82.38126
985.69	101.35674
985.86	95.03138
986.031	160.40285
986.201	116.11668
986.371	143.53082
986.542	86.59788
986.712	158.29377
986.882	114.00805
987.053	132.98649
987.223	160.40285
987.393	78.16474
987.563	76.05651
987.734	135.09531
987.904	88.70622
988.074	78.16474
988.244	103.46523
988.414	76.05651
988.585	52.86748
988.755	50.75953
988.925	111.89944
989.095	105.57375
989.265	88.70622
989.435	92.92297
989.605	59.19149
989.775	109.79086
989.945	147.7487
990.115	10.7128
990.285	-4.03909
990.455	63.4076
990.625	57.08346
990.795	145.63975
990.965	128.76891
991.134	84.48956
991.304	118.22533
991.474	88.70622
991.644	54.97546
991.814	126.66015
991.984	139.31302
992.153	44.4358
992.323	124.55141
992.493	101.35674
992.662	27.57355
992.832	71.84011
993.002	52.86748
993.171	-31.43231
993.341	71.84011
993.511	135.09531
993.68	44.4358
993.85	29.68125
994.019	59.19149
994.189	122.44269
994.358	101.35674
994.528	135.09531
994.697	-6.14641
994.867	105.57375
995.036	42.32793
995.206	78.16474
995.375	118.22533
995.544	92.92297
995.714	61.29953
995.883	69.73195
996.052	61.29953
996.222	40.22009
996.391	103.46523
996.56	67.62381
996.73	107.68229
996.899	33.89672
997.068	50.75953
997.237	65.5157
997.406	92.92297
997.576	52.86748
997.745	71.84011
997.914	19.14299
998.083	59.19149
998.252	105.57375
998.421	-8.2537
998.59	17.0354
998.759	65.5157
998.928	17.0354
999.097	21.25059
999.266	12.82031
999.435	76.05651
999.604	8.60532
999.773	36.00449
999.942	8.60532
1000.111	52.86748
1000.28	103.46523
1000.448	101.35674
1000.617	-8.2537
1000.786	38.11228
1000.955	46.54368
1001.124	71.84011
1001.292	86.59788
1001.461	80.27299
1001.63	17.0354
1001.798	92.92297
1001.967	76.05651
1002.136	12.82031
1002.304	84.48956
1002.473	50.75953
1002.642	71.84011
1002.81	6.49786
1002.979	76.05651
1003.147	4.39042
1003.316	17.0354
1003.484	21.25059
1003.653	36.00449
1003.821	63.4076
1003.99	63.4076
1004.158	25.46587
1004.327	101.35674
1004.495	-41.96706
1004.663	69.73195
1004.832	44.4358
1005	31.78897
1005.168	103.46523
1005.337	84.48956
1005.505	-33.53931
1005.673	42.32793
1005.842	-16.68263
1006.01	-37.75323
1006.178	86.59788
1006.346	42.32793
1006.514	8.60532
1006.683	54.97546
1006.851	90.81458
1007.019	50.75953
1007.187	63.4076
1007.355	69.73195
1007.523	17.0354
1007.691	27.57355
1007.859	2.283
1008.027	67.62381
1008.195	76.05651
1008.363	92.92297
1008.531	95.03138
1008.699	-41.96706
1008.867	42.32793
1009.035	25.46587
1009.203	-8.2537
1009.37	-8.2537
1009.538	25.46587
1009.706	10.7128
1009.874	42.32793
1010.042	44.4358
1010.209	65.5157
1010.377	-16.68263
1010.545	46.54368
1010.713	92.92297
1010.88	42.32793
1011.048	25.46587
1011.216	92.92297
1011.383	50.75953
1011.551	86.59788
1011.718	-4.03909
1011.886	50.75953
1012.054	25.46587
1012.221	84.48956
1012.389	10.7128
1012.556	50.75953
1012.724	23.35822
1012.891	50.75953
1013.058	19.14299
1013.226	12.82031
1013.393	29.68125
1013.561	67.62381
1013.728	80.27299
1013.895	-25.11117
1014.063	31.78897
1014.23	54.97546
1014.397	42.32793
1014.565	57.08346
1014.732	42.32793
1014.899	-4.03909
1015.066	118.22533
1015.233	52.86748
1015.401	8.60532
1015.568	50.75953
1015.735	42.32793
1015.902	33.89672
1016.069	14.92785
1016.236	42.32793
1016.403	19.14299
1016.57	103.46523
1016.737	21.25059
1016.904	33.89672
1017.071	69.73195
1017.238	92.92297
1017.405	-23.00407
1017.572	76.05651
1017.739	17.0354
1017.906	-8.2537
1018.073	101.35674
1018.24	116.11668
1018.407	27.57355
1018.573	10.7128
1018.74	17.0354
1018.907	69.73195
1019.074	-4.03909
1019.241	-1.93175
1019.407	-31.43231
1019.574	99.24826
1019.741	33.89672
1019.907	52.86748
1020.074	52.86748
1020.241	-8.2537
1020.407	25.46587
1020.574	33.89672
1020.74	57.08346
1020.907	-23.00407
1021.073	54.97546
1021.24	69.73195
1021.406	42.32793
1021.573	57.08346
1021.739	120.334
1021.906	-67.24789
1022.072	103.46523
1022.239	52.86748
1022.405	-50.3944
1022.571	90.81458
1022.738	4.39042
1022.904	21.25059
1023.07	25.46587
1023.237	4.39042
1023.403	84.48956
1023.569	29.68125
1023.735	48.65159
1023.902	-14.57544
1024.068	36.00449
1024.234	-20.89695
1024.4	80.27299
1024.566	-35.64629
1024.732	118.22533
1024.898	4.39042
1025.065	-16.68263
1025.231	44.4358
1025.397	-25.11117
1025.563	-16.68263
1025.729	17.0354
1025.895	46.54368
1026.061	42.32793
1026.227	38.11228
1026.392	97.13981
1026.558	44.4358
1026.724	25.46587
1026.89	36.00449
1027.056	-18.7898
1027.222	76.05651
1027.388	52.86748
1027.553	27.57355
1027.719	17.0354
1027.885	29.68125
1028.051	84.48956
1028.216	-65.14129
1028.382	59.19149
1028.548	42.32793
1028.713	67.62381
1028.879	44.4358
1029.045	36.00449
1029.21	12.82031
1029.376	8.60532
1029.541	33.89672
1029.707	21.25059
1029.873	31.78897
1030.038	95.03138
1030.204	38.11228
1030.369	19.14299
1030.534	25.46587
1030.7	48.65159
1030.865	0.17561
1031.031	17.0354
1031.196	44.4358
1031.361	27.57355
1031.527	31.78897
1031.692	8.60532
1031.857	71.84011
1032.023	-16.68263
1032.188	21.25059
1032.353	-6.14641
1032.518	52.86748
1032.684	-50.3944
1032.849	95.03138
1033.014	33.89672
1033.179	73.9483
1033.344	-16.68263
1033.509	8.60532
1033.674	-39.86016
1033.839	-6.14641
1034.004	67.62381
1034.17	59.19149
1034.335	78.16474
1034.5	84.48956
1034.664	10.7128
1034.829	12.82031
1034.994	14.92785
1035.159	76.05651
1035.324	8.60532
1035.489	23.35822
1035.654	-33.53931
1035.819	38.11228
1035.984	2.283
1036.148	0.17561
1036.313	48.65159
1036.478	4.39042
1036.643	19.14299
1036.807	78.16474
1036.972	25.46587
1037.137	36.00449
1037.301	42.32793
1037.466	4.39042
1037.631	76.05651
1037.795	69.73195
1037.96	19.14299
1038.124	33.89672
1038.289	17.0354
1038.454	21.25059
1038.618	12.82031
1038.783	-31.43231
1038.947	38.11228
1039.111	-6.14641
1039.276	29.68125
1039.44	109.79086
1039.605	8.60532
1039.769	-8.2537
1039.933	17.0354
1040.098	88.70622
1040.262	12.82031
1040.426	84.48956
1040.591	69.73195
1040.755	0.17561
1040.919	59.19149
1041.083	42.32793
1041.248	17.0354
1041.412	33.89672
1041.576	31.78897
1041.74	21.25059
1041.904	-8.2537
1042.068	29.68125
1042.232	76.05651
1042.397	-33.53931
1042.561	-50.3944
1042.725	33.89672
1042.889	38.11228
1043.053	143.53082
1043.217	25.46587
1043.381	21.25059
1043.544	-20.89695
1043.708	31.78897
1043.872	21.25059
1044.036	19.14299
1044.2	42.32793
1044.364	42.32793
1044.528	-16.68263
1044.691	71.84011
1044.855	10.7128
1045.019	29.68125
1045.183	71.84011
1045.346	-52.50118
1045.51	-48.28761
1045.674	17.0354
1045.837	19.14299
1046.001	76.05651
1046.165	-16.68263
1046.328	12.82031
1046.492	42.32793
1046.655	-16.68263
1046.819	33.89672
1046.983	46.54368
1047.146	78.16474
1047.31	-25.11117
1047.473	52.86748
1047.636	19.14299
1047.8	-41.96706
1047.963	-1.93175
1048.127	-4.03909
1048.29	-4.03909
