Data from mixed_try1_USB4F045381__11__00033.txt Node

Date: Thu Apr 03 19:32:53 EDT 2025
User: mmckonesweet
Spectrometer: USB4F04538
Trigger mode: 4
Integration Time (sec): 2.700000E-3
Scans to average: 1
Electric dark correction enabled: true
Nonlinearity correction enabled: true
Boxcar width: 0
XAxis mode: Wavelengths
Number of Pixels in Spectrum: 3648
>>>>>Begin Spectral Data<<<<<
345.52	-21.24814
345.736	-21.24814
345.952	-21.24814
346.168	-6.49763
346.384	-44.42508
346.6	-50.74553
346.816	-35.99745
347.032	6.14661
347.248	6.14661
347.464	-8.60492
347.68	10.36155
347.896	-48.63874
348.112	27.22227
348.328	-25.46235
348.544	69.38059
348.76	6.14661
348.975	44.08449
349.191	31.43768
349.407	-8.60492
349.623	-10.71218
349.839	-2.28298
350.055	4.03918
350.27	-6.49763
350.486	-35.99745
350.702	6.14661
350.918	-8.60492
351.133	-23.35526
351.349	-27.56942
351.565	14.57659
351.781	46.19237
351.996	65.16435
352.212	6.14661
352.428	-88.66349
352.644	54.62413
352.859	54.62413
353.075	-27.56942
353.291	-17.03383
353.506	-19.141
353.722	18.79172
353.938	54.62413
354.153	44.08449
354.369	-40.21131
354.584	-23.35526
354.8	-19.141
355.016	-31.78348
355.231	73.59693
355.447	10.36155
355.662	50.4082
355.878	-29.67646
356.093	41.97663
356.309	-23.35526
356.524	37.76098
356.74	-4.39031
356.955	6.14661
357.171	-52.8523
357.386	25.11459
357.602	25.11459
357.817	69.38059
358.033	52.51615
358.248	-27.56942
358.464	-27.56942
358.679	18.79172
358.895	-27.56942
359.11	103.11382
359.325	39.86879
359.541	23.00695
359.756	14.57659
359.972	6.14661
360.187	14.57659
360.402	-33.89048
360.618	-4.39031
360.833	-12.81942
361.048	18.79172
361.264	14.57659
361.479	56.73213
361.694	8.25407
361.909	52.51615
362.125	8.25407
362.34	41.97663
362.555	-50.74553
362.77	-31.78348
362.986	18.79172
363.201	-19.141
363.416	35.65319
363.631	-33.89048
363.847	-76.0251
364.062	-10.71218
364.277	4.03918
364.492	-44.42508
364.707	31.43768
364.922	31.43768
365.138	16.68414
365.353	-2.28298
365.568	29.32996
365.783	23.00695
365.998	31.43768
366.213	-14.92664
366.428	8.25407
366.643	-19.141
366.858	-29.67646
367.073	31.43768
367.288	27.22227
367.503	6.14661
367.718	14.57659
367.933	-0.17561
368.148	31.43768
368.363	-27.56942
368.578	-38.10439
368.793	46.19237
369.008	39.86879
369.223	-17.03383
369.438	75.70514
369.653	8.25407
369.868	-35.99745
370.083	-19.141
370.298	18.79172
370.513	10.36155
370.728	8.25407
370.943	-17.03383
371.157	-42.31821
371.372	-27.56942
371.587	-17.03383
371.802	-2.28298
372.017	-8.60492
372.232	14.57659
372.446	29.32996
372.661	18.79172
372.876	14.57659
373.091	86.24649
373.306	44.08449
373.52	4.03918
373.735	-19.141
373.95	10.36155
374.165	48.30027
374.379	-57.06577
374.594	-4.39031
374.809	-17.03383
375.023	8.25407
375.238	-59.17246
375.453	31.43768
375.667	16.68414
375.882	20.89932
376.097	14.57659
376.311	-0.17561
376.526	25.11459
376.741	-2.28298
376.955	25.11459
377.17	39.86879
377.384	1.93177
377.599	1.93177
377.813	75.70514
378.028	23.00695
378.242	39.86879
378.457	-69.70555
378.672	6.14661
378.886	-2.28298
379.101	-35.99745
379.315	14.57659
379.53	-17.03383
379.744	37.76098
379.958	-6.49763
380.173	23.00695
380.387	-2.28298
380.602	65.16435
380.816	48.30027
381.031	-4.39031
381.245	35.65319
381.459	-48.63874
381.674	41.97663
381.888	27.22227
382.103	56.73213
382.317	4.03918
382.531	-25.46235
382.746	1.93177
382.96	41.97663
383.174	23.00695
383.388	58.84015
383.603	-8.60492
383.817	-0.17561
384.031	39.86879
384.246	1.93177
384.46	48.30027
384.674	-17.03383
384.888	48.30027
385.103	23.00695
385.317	-23.35526
385.531	-10.71218
385.745	73.59693
385.959	-48.63874
386.174	6.14661
386.388	10.36155
386.602	-27.56942
386.816	77.81336
387.03	-31.78348
387.244	6.14661
387.458	16.68414
387.672	69.38059
387.887	10.36155
388.101	-35.99745
388.315	35.65319
388.529	58.84015
388.743	-21.24814
388.957	-35.99745
389.171	39.86879
389.385	-8.60492
389.599	31.43768
389.813	14.57659
390.027	-42.31821
390.241	-17.03383
390.455	27.22227
390.669	-10.71218
390.883	92.57157
391.097	-33.89048
391.311	31.43768
391.525	6.14661
391.738	-31.78348
391.952	69.38059
392.166	58.84015
392.38	-21.24814
392.594	67.27246
392.808	65.16435
393.022	39.86879
393.236	-19.141
393.449	27.22227
393.663	39.86879
393.877	33.54542
394.091	8.25407
394.305	29.32996
394.518	14.57659
394.732	-2.28298
394.946	16.68414
395.16	8.25407
395.373	39.86879
395.587	-10.71218
395.801	-0.17561
396.015	20.89932
396.228	-10.71218
396.442	-2.28298
396.656	-4.39031
396.869	-8.60492
397.083	37.76098
397.297	-0.17561
397.51	-27.56942
397.724	23.00695
397.938	67.27246
398.151	-42.31821
398.365	-25.46235
398.578	16.68414
398.792	-6.49763
399.005	56.73213
399.219	-0.17561
399.433	-10.71218
399.646	58.84015
399.86	-27.56942
400.073	14.57659
400.287	48.30027
400.5	73.59693
400.714	14.57659
400.927	33.54542
401.141	-76.0251
401.354	-17.03383
401.567	6.14661
401.781	31.43768
401.994	44.08449
402.208	-10.71218
402.421	-35.99745
402.635	-17.03383
402.848	6.14661
403.061	-25.46235
403.275	-33.89048
403.488	-27.56942
403.701	23.00695
403.915	-52.8523
404.128	-2.28298
404.341	39.86879
404.555	48.30027
404.768	39.86879
404.981	-0.17561
405.195	-2.28298
405.408	56.73213
405.621	67.27246
405.834	79.92161
406.048	-8.60492
406.261	71.48875
406.474	-12.81942
406.687	48.30027
406.9	-2.28298
407.114	-35.99745
407.327	-8.60492
407.54	-6.49763
407.753	-52.8523
407.966	18.79172
408.179	6.14661
408.392	-21.24814
408.605	48.30027
408.819	39.86879
409.032	-19.141
409.245	-27.56942
409.458	4.03918
409.671	75.70514
409.884	-35.99745
410.097	23.00695
410.31	-35.99745
410.523	-19.141
410.736	-0.17561
410.949	20.89932
411.162	69.38059
411.375	14.57659
411.588	-8.60492
411.801	6.14661
412.014	-4.39031
412.227	-35.99745
412.44	39.86879
412.653	-8.60492
412.865	37.76098
413.078	20.89932
413.291	41.97663
413.504	-2.28298
413.717	-6.49763
413.93	-10.71218
414.143	35.65319
414.356	8.25407
414.568	10.36155
414.781	-14.92664
414.994	-12.81942
415.207	48.30027
415.42	33.54542
415.632	50.4082
415.845	35.65319
416.058	-38.10439
416.271	41.97663
416.483	73.59693
416.696	-42.31821
416.909	31.43768
417.121	-35.99745
417.334	-10.71218
417.547	27.22227
417.759	6.14661
417.972	71.48875
418.185	10.36155
418.397	65.16435
418.61	8.25407
418.823	-14.92664
419.035	63.05626
419.248	-23.35526
419.46	-2.28298
419.673	-40.21131
419.885	-31.78348
420.098	-31.78348
420.311	56.73213
420.523	-27.56942
420.736	14.57659
420.948	65.16435
421.161	94.67998
421.373	-0.17561
421.586	10.36155
421.798	48.30027
422.01	-78.13156
422.223	6.14661
422.435	-38.10439
422.648	-6.49763
422.86	23.00695
423.073	-8.60492
423.285	79.92161
423.497	-31.78348
423.71	6.14661
423.922	8.25407
424.134	41.97663
424.347	-25.46235
424.559	35.65319
424.771	39.86879
424.984	50.4082
425.196	41.97663
425.408	35.65319
425.621	-35.99745
425.833	-0.17561
426.045	25.11459
426.257	44.08449
426.47	33.54542
426.682	-2.28298
426.894	-44.42508
427.106	-17.03383
427.318	-19.141
427.531	14.57659
427.743	90.46319
427.955	10.36155
428.167	23.00695
428.379	14.57659
428.591	35.65319
428.804	33.54542
429.016	44.08449
429.228	6.14661
429.44	29.32996
429.652	10.36155
429.864	71.48875
430.076	37.76098
430.288	23.00695
430.5	-25.46235
430.712	27.22227
430.924	12.46906
431.136	14.57659
431.348	-0.17561
431.56	46.19237
431.772	8.25407
431.984	10.36155
432.196	10.36155
432.408	39.86879
432.62	-10.71218
432.832	-0.17561
433.044	6.14661
433.256	41.97663
433.468	-10.71218
433.679	46.19237
433.891	-31.78348
434.103	-35.99745
434.315	-10.71218
434.527	44.08449
434.739	-8.60492
434.95	-29.67646
435.162	12.46906
435.374	-2.28298
435.586	-0.17561
435.798	-10.71218
436.009	18.79172
436.221	1.93177
436.433	-35.99745
436.645	-25.46235
436.856	-50.74553
437.068	31.43768
437.28	1.93177
437.491	-2.28298
437.703	82.02988
437.915	-19.141
438.126	-46.53192
438.338	-54.95905
438.55	-8.60492
438.761	31.43768
438.973	-65.49239
439.184	-35.99745
439.396	-8.60492
439.608	-73.91861
439.819	-57.06577
440.031	50.4082
440.242	60.94819
440.454	56.73213
440.665	-76.0251
440.877	-33.89048
441.088	-50.74553
441.3	25.11459
441.511	-31.78348
441.723	50.4082
441.934	39.86879
442.146	10.36155
442.357	-17.03383
442.569	122.09124
442.78	48.30027
442.991	-40.21131
443.203	-2.28298
443.414	-27.56942
443.626	35.65319
443.837	48.30027
444.048	8.25407
444.26	-54.95905
444.471	-40.21131
444.682	31.43768
444.894	25.11459
445.105	-2.28298
445.316	8.25407
445.528	-10.71218
445.739	20.89932
445.95	-14.92664
446.161	58.84015
446.373	-10.71218
446.584	-14.92664
446.795	41.97663
447.006	-27.56942
447.217	39.86879
447.429	-10.71218
447.64	18.79172
447.851	48.30027
448.062	-6.49763
448.273	-2.28298
448.484	44.08449
448.695	-73.91861
448.907	-10.71218
449.118	8.25407
449.329	16.68414
449.54	-2.28298
449.751	-2.28298
449.962	-40.21131
450.173	4.03918
450.384	-4.39031
450.595	-10.71218
450.806	73.59693
451.017	18.79172
451.228	73.59693
451.439	1.93177
451.65	-25.46235
451.861	48.30027
452.072	65.16435
452.283	6.14661
452.494	46.19237
452.705	39.86879
452.915	-17.03383
453.126	-2.28298
453.337	-40.21131
453.548	63.05626
453.759	58.84015
453.97	-10.71218
454.181	8.25407
454.391	-57.06577
454.602	6.14661
454.813	-35.99745
455.024	-33.89048
455.235	75.70514
455.445	-44.42508
455.656	101.00532
455.867	-2.28298
456.078	37.76098
456.288	-50.74553
456.499	-52.8523
456.71	25.11459
456.921	-27.56942
457.131	-57.06577
457.342	-31.78348
457.553	82.02988
457.763	105.22233
457.974	31.43768
458.184	-2.28298
458.395	-8.60492
458.606	-44.42508
458.816	-27.56942
459.027	-61.27913
459.237	-23.35526
459.448	48.30027
459.659	-31.78348
459.869	94.67998
460.08	56.73213
460.29	90.46319
460.501	46.19237
460.711	60.94819
460.922	41.97663
461.132	-76.0251
461.343	27.22227
461.553	35.65319
461.764	-27.56942
461.974	58.84015
462.184	-14.92664
462.395	6.14661
462.605	35.65319
462.816	-44.42508
463.026	1.93177
463.236	18.79172
463.447	-52.8523
463.657	65.16435
463.867	12.46906
464.078	16.68414
464.288	14.57659
464.498	63.05626
464.709	10.36155
464.919	23.00695
465.129	14.57659
465.339	65.16435
465.55	10.36155
465.76	23.00695
465.97	58.84015
466.18	31.43768
466.391	-42.31821
466.601	31.43768
466.811	-14.92664
467.021	-2.28298
467.231	23.00695
467.441	65.16435
467.651	-35.99745
467.862	12.46906
468.072	58.84015
468.282	50.4082
468.492	48.30027
468.702	52.51615
468.912	6.14661
469.122	39.86879
469.332	18.79172
469.542	37.76098
469.752	-6.49763
469.962	8.25407
470.172	39.86879
470.382	27.22227
470.592	23.00695
470.802	-6.49763
471.012	4.03918
471.222	-46.53192
471.432	-82.34441
471.642	31.43768
471.852	-61.27913
472.062	48.30027
472.272	48.30027
472.482	50.4082
472.691	-31.78348
472.901	6.14661
473.111	14.57659
473.321	56.73213
473.531	25.11459
473.741	1.93177
473.95	-6.49763
474.16	111.54801
474.37	25.11459
474.58	67.27246
474.79	60.94819
474.999	41.97663
475.209	65.16435
475.419	20.89932
475.628	-2.28298
475.838	52.51615
476.048	18.79172
476.258	14.57659
476.467	1.93177
476.677	31.43768
476.886	69.38059
477.096	10.36155
477.306	94.67998
477.515	-6.49763
477.725	54.62413
477.935	39.86879
478.144	23.00695
478.354	52.51615
478.563	41.97663
478.773	56.73213
478.982	27.22227
479.192	27.22227
479.401	-19.141
479.611	37.76098
479.82	48.30027
480.03	90.46319
480.239	-10.71218
480.449	20.89932
480.658	90.46319
480.868	41.97663
481.077	-4.39031
481.287	-10.71218
481.496	35.65319
481.705	67.27246
481.915	48.30027
482.124	10.36155
482.333	115.76524
482.543	65.16435
482.752	60.94819
482.961	90.46319
483.171	41.97663
483.38	65.16435
483.589	82.02988
483.799	56.73213
484.008	-23.35526
484.217	73.59693
484.426	88.35483
484.636	44.08449
484.845	1.93177
485.054	52.51615
485.263	23.00695
485.472	31.43768
485.682	86.24649
485.891	79.92161
486.1	29.32996
486.309	41.97663
486.518	18.79172
486.727	136.85268
486.936	65.16435
487.146	58.84015
487.355	33.54542
487.564	10.36155
487.773	77.81336
487.982	73.59693
488.191	14.57659
488.4	39.86879
488.609	25.11459
488.818	56.73213
489.027	23.00695
489.236	65.16435
489.445	25.11459
489.654	48.30027
489.863	50.4082
490.072	69.38059
490.281	41.97663
490.49	23.00695
490.698	14.57659
490.907	-4.39031
491.116	25.11459
491.325	56.73213
491.534	35.65319
491.743	60.94819
491.952	75.70514
492.16	86.24649
492.369	10.36155
492.578	44.08449
492.787	82.02988
492.996	35.65319
493.204	41.97663
493.413	58.84015
493.622	77.81336
493.831	111.54801
494.039	35.65319
494.248	23.00695
494.457	79.92161
494.665	141.07043
494.874	94.67998
495.083	109.43943
495.291	86.24649
495.5	109.43943
495.709	39.86879
495.917	107.33087
496.126	73.59693
496.335	115.76524
496.543	98.89685
496.752	82.02988
496.96	77.81336
497.169	31.43768
497.377	65.16435
497.586	92.57157
497.794	94.67998
498.003	73.59693
498.211	37.76098
498.42	52.51615
498.628	-2.28298
498.837	44.08449
499.045	157.94226
499.254	56.73213
499.462	44.08449
499.671	96.7884
499.879	39.86879
500.087	134.74384
500.296	46.19237
500.504	96.7884
500.713	115.76524
500.921	90.46319
501.129	111.54801
501.338	73.59693
501.546	46.19237
501.754	25.11459
501.962	166.37868
502.171	90.46319
502.379	132.63502
502.587	115.76524
502.795	141.07043
503.004	124.19996
503.212	145.28826
503.42	39.86879
503.628	103.11382
503.837	90.46319
504.045	71.48875
504.253	149.50617
504.461	128.41744
504.669	58.84015
504.877	77.81336
505.085	119.98255
505.294	149.50617
505.502	143.17933
505.71	128.41744
505.918	204.34665
506.126	134.74384
506.334	94.67998
506.542	111.54801
506.75	151.61516
506.958	166.37868
507.166	23.00695
507.374	132.63502
507.582	160.05133
507.79	160.05133
507.998	65.16435
508.206	155.83321
508.414	69.38059
508.622	183.25252
508.83	157.94226
509.037	157.94226
509.245	179.03394
509.453	170.59702
509.661	151.61516
509.869	160.05133
510.077	151.61516
510.285	101.00532
510.492	168.48784
510.7	98.89685
510.908	126.30869
511.116	149.50617
511.324	82.02988
511.531	200.12766
511.739	187.47118
511.947	187.47118
512.155	153.72418
512.362	170.59702
512.57	149.50617
512.778	162.16043
512.985	132.63502
513.193	168.48784
513.401	200.12766
513.608	185.36184
513.816	208.56572
514.024	212.78487
514.231	126.30869
514.439	225.4428
514.646	166.37868
514.854	162.16043
515.061	246.5409
515.269	134.74384
515.477	193.79933
515.684	166.37868
515.892	250.76076
516.099	233.8818
516.307	246.5409
516.514	183.25252
516.722	214.89448
516.929	149.50617
517.136	212.78487
517.344	149.50617
517.551	157.94226
517.759	189.58055
517.966	278.19166
518.173	204.34665
518.381	212.78487
518.588	160.05133
518.796	204.34665
519.003	263.42077
519.21	269.75104
519.418	284.52232
519.625	242.32113
519.832	221.22341
520.039	252.87071
520.247	271.86117
520.454	238.10143
520.661	183.25252
520.868	208.56572
521.076	229.66226
521.283	259.20069
521.49	301.40489
521.697	276.08147
521.904	254.98069
522.112	292.96345
522.319	339.39489
522.526	240.21127
522.733	265.53084
522.94	299.2945
523.147	328.84154
523.354	278.19166
523.561	309.84661
523.768	303.51529
523.975	225.4428
524.183	269.75104
524.39	295.07378
524.597	311.95708
524.804	299.2945
525.011	314.06758
525.218	343.61636
525.425	364.72473
525.632	316.17809
525.838	244.431
526.045	307.73615
526.252	360.50292
526.459	385.8348
526.666	273.97131
526.873	352.0595
527.08	387.9459
527.287	364.72473
527.494	356.28118
527.701	436.5057
527.907	413.28038
528.114	438.61718
528.321	267.64093
528.528	444.95174
528.735	421.72573
528.941	349.94869
529.148	453.39803
529.355	360.50292
529.562	402.72406
529.768	487.18564
529.975	436.5057
530.182	504.08088
530.388	419.61437
530.595	550.54751
530.802	447.06329
531.008	478.73838
531.215	451.28643
531.422	478.73838
531.628	472.40309
531.835	527.31334
532.042	472.40309
532.248	489.29749
532.455	453.39803
532.661	499.85698
532.868	457.62127
533.074	578.0082
533.281	512.52884
533.487	554.77208
533.694	497.74505
533.9	491.40936
534.107	554.77208
534.313	567.44613
534.52	537.87412
534.726	567.44613
534.933	466.06793
535.139	647.72597
535.345	645.61311
535.552	630.82344
535.758	539.98631
535.965	620.25976
536.171	495.63314
536.377	723.7966
536.584	597.02077
536.79	592.79566
536.996	601.24592
537.203	744.92987
537.409	582.23313
537.615	683.64637
537.821	563.22139
538.028	711.11715
538.234	681.53331
538.44	573.78333
538.646	571.67092
538.853	728.02317
539.059	622.37247
539.265	698.43809
539.471	685.75944
539.677	744.92987
539.883	685.75944
540.09	681.53331
540.296	649.83884
540.502	740.70313
540.708	787.19951
540.914	772.40468
541.12	728.02317
541.326	816.79058
541.532	782.97236
541.738	863.29445
541.944	782.97236
542.15	723.7966
542.356	791.42669
542.562	875.97805
542.768	914.03062
542.974	971.11408
543.18	751.27006
543.386	977.45701
543.592	892.88998
543.798	886.54795
544.004	867.52228
544.21	1019.74468
544.415	903.4602
544.621	897.11805
544.827	937.28621
545.033	943.62879
545.239	977.45701
545.445	1112.78575
545.651	869.63621
545.856	996.48615
546.062	947.85722
546.268	1078.95145
546.474	1021.85913
546.679	865.40836
546.885	994.37177
547.091	998.60053
547.297	869.63621
547.502	1129.70336
547.708	971.11408
547.914	1047.23299
548.119	1002.82931
548.325	1051.46204
548.531	1038.77494
548.736	1036.66044
548.942	1013.40137
549.147	1197.3765
549.353	1078.95145
549.559	1163.53942
549.764	1093.7538
549.97	1093.7538
550.175	1205.83591
550.381	1301.00754
550.586	1184.68748
550.792	1212.1805
550.997	1207.95077
551.203	1178.34303
551.408	1110.67107
551.614	1239.67408
551.819	1171.9986
552.025	1351.76759
552.23	1157.19508
552.435	1226.98467
552.641	1366.57277
552.846	1265.05319
553.052	1231.21446
553.257	1265.05319
553.462	1279.85784
553.668	1495.59062
553.873	1288.3177
554.078	1425.79394
554.283	1281.9728
554.489	1415.21869
554.694	1427.90899
554.899	1514.62601
555.105	1366.57277
555.31	1480.78528
555.515	1383.49304
555.72	1391.9532
555.925	1377.14793
556.131	1556.92663
556.336	1413.10364
556.541	1556.92663
556.746	1391.9532
556.951	1673.24993
557.156	1436.36919
557.361	1700.74347
557.567	1611.9166
557.772	1664.79029
557.977	1506.16584
558.182	1561.15666
558.387	1546.35152
558.592	1671.13503
558.797	1434.25414
559.002	1594.99673
559.207	1649.9858
559.412	1717.66231
559.617	1571.73173
559.822	1709.20292
560.027	1535.77637
560.232	1766.30277
560.437	1656.3306
560.642	1743.04018
560.847	1656.3306
561.051	1757.8437
561.256	1789.56489
561.461	1736.69576
561.666	1717.66231
561.871	1812.82651
562.076	1700.74347
562.281	1823.3998
562.485	1597.11172
562.69	1747.26977
562.895	1755.72892
563.1	1861.46268
563.305	1677.47974
563.509	1958.72688
563.714	1874.14996
563.919	2020.03921
564.123	1698.6286
564.328	1946.04092
564.533	1895.29501
564.737	1958.72688
564.942	1878.37901
565.147	2034.83791
565.351	1941.81222
565.556	1998.89763
565.761	1969.29835
565.965	2089.80154
566.17	1924.89719
566.374	2119.39529
566.579	2062.32033
566.784	2026.38155
566.988	2047.52225
567.193	2157.44217
567.397	1969.29835
567.602	2138.41905
567.806	1882.60804
568.011	2208.16724
568.215	2237.7546
568.42	2170.12389
568.624	2039.06605
568.828	2218.73435
569.033	2068.66226
569.237	2189.14591
569.442	2189.14591
569.646	2153.21487
569.85	2261.00059
570.055	2330.73184
570.259	2075.00412
570.463	2326.506
570.668	2144.76016
570.872	2425.80264
571.076	2195.48643
571.281	2256.77413
571.485	2231.4146
571.689	2277.90607
571.893	2322.28012
572.098	2339.18341
572.302	2292.69789
572.506	2356.08606
572.71	2258.88736
572.914	2499.73179
573.119	2280.01922
573.323	2392.00206
573.527	2214.50754
573.731	2520.8519
573.935	2383.5515
574.139	2584.20527
574.343	2267.34022
574.547	2415.24025
574.751	2463.82502
574.955	2759.42521
575.159	2546.19451
575.364	2687.659
575.568	2364.53715
575.772	2624.32352
575.976	2541.97086
576.18	2588.42845
576.383	2579.98204
576.587	2712.98998
576.791	2575.75877
576.995	2706.65741
577.199	2611.65507
577.403	2613.76651
577.607	2736.2084
577.811	2643.32535
578.015	2689.76999
578.219	2780.53
578.422	2449.03895
578.626	2750.98292
578.83	2639.10281
579.034	2755.20409
579.238	2797.41285
579.442	2905.02007
579.645	2712.98998
579.849	3014.69839
580.053	2738.31908
580.257	3023.1335
580.46	2565.20037
580.664	2810.07441
580.868	2900.80087
581.071	3061.08845
581.275	2765.75679
581.479	2968.30095
581.682	2706.65741
581.886	3027.35097
582.09	2845.94613
582.293	3014.69839
582.497	2978.84646
582.7	2877.59428
582.904	3124.33543
583.107	2921.89626
583.311	2959.86426
583.515	3103.25469
583.718	2879.70404
583.922	3069.5222
584.125	3075.84735
584.329	3067.41378
584.532	3084.28066
584.735	3153.84578
584.939	3023.1335
585.142	3174.92267
585.346	3056.87148
585.549	3316.09503
585.753	3103.25469
585.956	3269.74825
586.159	3084.28066
586.363	3250.78583
586.566	3158.06129
586.769	3299.24261
586.973	3305.5624
587.176	3379.28176
587.379	3303.45582
587.582	3593.99669
587.786	3389.81136
587.989	3579.26743
588.192	3394.02308
588.395	3402.44629
588.599	3398.23472
588.802	3347.69035
589.005	3231.82206
589.208	3631.8677
589.411	3313.98854
589.615	3501.39773
589.818	3366.64567
590.021	3684.45618
590.224	3381.38772
590.427	3558.22406
590.63	3421.3975
590.833	3667.62916
591.036	3562.43288
591.239	3753.85464
591.442	3554.01516
591.645	3554.01516
591.848	3463.50613
592.051	3722.31249
592.254	3474.03216
592.457	3629.76392
592.66	3734.92987
592.863	3768.57281
593.066	3692.86923
593.269	3877.87767
593.472	3722.31249
593.675	3848.4547
593.878	3882.08063
594.081	3875.77616
594.284	3774.88031
594.486	4100.5228
594.689	3722.31249
594.892	3827.43591
595.095	3840.04743
595.298	4066.93077
595.5	3932.50991
595.703	3877.87767
595.906	3957.7202
596.109	3970.32424
596.311	3789.59712
596.514	4060.63168
596.717	3798.00629
596.92	4285.18277
597.122	4043.83317
597.325	3987.1285
597.528	3903.09424
597.73	4197.07006
597.933	3890.48632
598.136	4205.46336
598.338	4060.63168
598.541	4125.71333
598.743	4176.08531
598.946	4108.91998
599.148	4236.93523
599.351	4257.91381
599.554	4087.92642
599.756	4075.32928
599.959	4142.50533
600.161	4318.73959
600.363	4285.18277
600.566	4421.47289
600.768	4228.5432
600.971	4327.12793
601.173	4125.71333
601.376	4220.15083
601.578	4234.83725
601.78	4402.60742
601.983	4257.91381
602.185	4377.45072
602.388	4234.83725
602.59	4578.61587
602.792	4304.05916
602.995	4375.35419
603.197	4253.71827
603.399	4444.52828
603.601	4243.22903
603.804	4532.53348
604.006	4264.20697
604.208	4641.43811
604.41	4289.37768
604.613	4442.43244
604.815	4234.83725
605.017	4679.12179
605.219	4431.95294
605.421	4718.8911
605.623	4341.8067
605.826	4829.78336
606.028	4297.76723
606.23	4720.98399
606.432	4540.91289
606.634	4597.46465
606.836	4507.39311
607.038	4802.58928
607.24	4543.00769
607.442	4438.24071
607.644	4421.47289
607.846	4806.77323
608.048	4528.34364
608.25	4758.65225
608.452	4519.96369
608.654	4817.23273
608.856	4436.14481
609.058	4934.34004
609.26	4976.14666
609.462	4875.79535
609.664	4660.28086
609.866	4754.46725
610.067	4879.97771
610.269	4806.77323
610.471	4586.99333
610.673	4932.24947
610.875	4737.72635
611.077	4838.15
611.278	4586.99333
611.48	5082.71178
611.682	4733.54089
611.884	4838.15
612.085	4729.35535
612.287	4997.04652
612.489	4785.85254
612.69	4930.15888
612.892	4764.92958
613.094	4990.7768
613.295	4720.98399
613.497	4907.16081
613.699	4817.23273
613.9	4917.61482
614.102	4967.78607
614.304	5130.75086
614.505	4873.70414
614.707	5241.40276
614.908	4813.049
615.11	5349.90313
615.311	4900.88813
615.513	5005.40581
615.714	4861.15637
615.916	4955.2445
616.117	4674.93507
616.319	5251.83823
616.52	5005.40581
616.722	5139.10423
616.923	5128.66246
617.124	5226.79211
617.326	4888.34215
617.527	4971.96641
617.729	5068.08876
617.93	5070.17783
618.131	4959.42512
618.333	5147.45723
618.534	5322.78397
618.735	5189.21662
618.937	5049.28606
619.138	5260.18619
619.339	5132.83924
619.54	5276.88099
619.742	5076.44491
619.943	5180.86549
620.144	5180.86549
620.345	5339.47315
620.546	5120.30863
620.748	5239.31559
620.949	5189.21662
621.15	5393.70262
621.351	5114.04301
621.552	5435.4068
621.753	5139.10423
621.954	5347.81718
622.155	5239.31559
622.356	5397.87346
622.558	5301.92038
622.759	5472.93253
622.96	5274.79422
623.161	5377.01832
623.362	5214.26779
623.563	5281.05446
623.764	5224.70478
623.965	5708.33634
624.166	5249.75118
624.366	5452.08584
624.567	5264.36003
624.768	5527.12289
624.969	5114.04301
625.17	5337.38708
625.371	5264.36003
625.572	5251.83823
625.773	5329.04259
625.973	5575.04725
626.174	5326.9564
626.375	5464.59413
626.576	5481.27054
626.777	5597.96319
626.977	5395.78805
627.178	5697.92661
627.379	5312.35247
627.58	5456.25537
627.78	5491.69253
627.981	5506.28232
628.182	5489.60818
628.382	5614.62753
628.583	5472.93253
628.784	5543.79364
628.984	5324.8702
629.185	5597.96319
629.386	5197.56738
629.586	5589.63045
629.787	5185.0411
629.987	5522.95496
630.188	5443.74651
630.388	5650.03425
630.589	5285.22783
630.79	5543.79364
630.99	5414.55589
631.191	5697.92661
631.391	5608.37858
631.591	5822.80444
631.792	5291.48771
631.992	5849.8501
632.193	5600.04631
632.393	5801.99737
632.594	5581.29733
632.794	5889.37121
632.994	5618.79338
633.195	5774.94465
633.395	5693.76256
633.595	5881.05168
633.796	5727.07237
633.996	5906.00912
634.196	5522.95496
634.397	5766.61993
634.597	5647.95169
634.797	5801.99737
634.997	5627.1248
635.198	5957.99288
635.398	5681.26982
635.598	5957.99288
635.798	5572.96384
635.998	5881.05168
636.199	5912.24795
636.399	5933.04252
636.599	5885.21149
636.799	6151.24321
636.999	5887.29136
637.199	5916.40705
637.399	5749.96937
637.599	6055.68247
637.799	5851.93037
637.999	5989.17607
638.199	5854.01062
638.399	6132.55046
638.599	5833.20709
638.799	6120.08757
638.999	6034.90181
639.199	6298.64163
639.399	5937.20115
639.599	6009.96191
639.799	5964.22994
639.999	6252.98152
640.199	6082.69381
640.399	6379.55677
640.599	5928.88379
640.799	6605.51653
640.998	5972.54569
641.198	6039.05813
641.398	6039.05813
641.598	6445.92219
641.798	6063.99408
641.997	6313.16748
642.197	6024.5106
642.397	6313.16748
642.597	6180.31705
642.796	6217.69093
642.996	6024.5106
643.196	6321.46745
643.395	6219.76704
643.595	6429.33307
643.795	6240.52679
643.994	6508.11814
644.194	5997.49069
644.394	6570.29322
644.593	6250.90579
644.793	6646.94718
644.992	6329.76704
645.192	6321.46745
645.392	6213.53865
645.591	6495.68062
645.791	6421.03795
645.99	6611.73172
646.19	6188.62301
646.389	6456.28963
646.589	6578.58166
646.788	6528.84548
646.987	6383.70531
647.187	6634.51896
647.386	6263.35981
647.586	6570.29322
647.785	6642.80453
647.984	6553.71524
648.184	6551.64289
648.383	6634.51896
648.582	6348.43977
648.782	6657.30341
648.981	6454.21619
649.18	6696.65181
649.38	6246.75426
649.579	6740.13251
649.778	6574.43749
649.977	6613.8034
650.177	6389.92794
650.376	6665.58797
650.575	6275.81299
650.774	6570.29322
650.973	6416.89025
651.173	6692.51026
651.372	6617.9467
651.571	6746.34321
651.77	6454.21619
651.969	6754.62383
652.168	6709.0759
652.367	6636.59039
652.566	6704.93463
652.765	6843.61739
652.964	6615.87506
653.163	6947.04539
653.362	6688.36863
653.561	6980.1304
653.76	6686.29777
653.959	6986.3332
654.158	6810.50843
654.357	6903.61253
654.556	6582.72574
654.755	6866.37641
654.954	6920.15956
655.153	6961.52079
655.352	6644.87587
655.551	6878.78927
655.749	6804.29985
655.948	6913.95459
656.147	7102.08163
656.346	6942.90935
656.545	6963.58862
656.743	6806.3694
656.942	6847.7556
657.141	6895.33847
657.34	6806.3694
657.538	6934.63702
657.737	6669.73012
657.936	7186.78159
658.135	6916.02294
658.333	6905.68099
658.532	6824.99432
658.731	7038.0153
658.929	6694.58105
659.128	6889.13269
659.326	6572.36537
659.525	6982.19802
659.724	6866.37641
659.922	7066.95115
660.121	6998.73818
660.319	7058.68421
660.518	6918.09126
660.716	7128.94177
660.915	6965.65642
661.113	7071.08448
661.312	7093.81622
661.51	7199.17357
661.709	7093.81622
661.907	7112.4129
662.105	7151.66663
662.304	7205.36926
662.502	6920.15956
662.701	7044.21621
662.899	7009.07505
663.097	7432.40794
663.296	7176.45433
663.494	7244.60402
663.692	7087.61692
663.891	7302.40916
664.089	6918.09126
664.287	7294.15234
664.485	7209.49961
664.684	7161.99523
664.882	7347.81541
665.08	7283.83082
665.278	7256.99229
665.476	7354.00635
665.675	7450.97214
665.873	7244.60402
666.071	7372.57799
666.269	7343.688
666.467	7203.30405
666.665	7471.59697
666.863	7102.08163
667.061	7190.91234
667.259	7469.53458
667.457	7277.63764
667.655	7290.0238
667.853	7395.27426
668.051	7062.81772
668.249	7380.83148
668.447	7066.95115
668.645	7401.46369
668.843	7116.54525
669.041	7461.28482
669.239	7205.36926
669.437	7292.08808
669.635	7174.38881
669.833	7316.85775
670.031	6944.97738
670.229	7389.08463
670.426	7050.41691
670.624	7215.69497
670.822	7201.23882
671.02	7393.21107
671.218	7248.73354
671.415	7248.73354
671.613	7316.85775
671.811	7603.54494
672.009	7360.19709
672.206	7568.50483
672.404	7153.7324
672.602	7477.784
672.799	7178.51982
672.997	7512.84016
673.195	7554.07475
673.392	7490.15747
673.59	7116.54525
673.788	7372.57799
673.985	6963.58862
674.183	7409.71597
674.38	7232.21496
674.578	7337.49674
674.775	7281.76645
674.973	7298.2808
675.17	7263.18613
675.368	7498.40603
675.565	7197.1083
675.763	7504.59221
675.96	7384.9581
676.158	7333.36911
676.355	7331.30527
676.553	7554.07475
676.75	7166.12651
676.947	7450.97214
677.145	7079.35088
677.342	7446.84691
677.539	7356.06995
677.737	7481.90858
677.934	7271.44427
678.131	7444.78426
678.329	7285.89517
678.526	7395.27426
678.723	7298.2808
678.92	7531.39679
679.118	7182.65075
679.315	7417.9679
679.512	7186.78159
679.709	7554.07475
679.906	7223.95514
680.104	7341.62427
680.301	7052.48377
680.498	7302.40916
680.695	7298.2808
680.892	7529.33503
681.089	7397.33743
681.286	7448.90953
681.483	7308.60155
681.68	7582.93386
681.877	7368.45111
682.075	7512.84016
682.272	7325.11361
682.469	7471.59697
682.665	7207.43445
682.862	7370.51456
683.059	7234.27986
683.256	7372.57799
683.453	7325.11361
683.65	7533.45853
683.847	7420.03082
684.044	7444.78426
684.241	7066.95115
684.438	7430.34514
684.635	7240.47442
684.831	7562.32063
685.028	7384.9581
685.225	7399.40057
685.422	7259.05693
685.619	7500.46811
685.815	7265.2507
686.012	7316.85775
686.209	7201.23882
686.405	7446.84691
686.602	7318.92175
686.799	7349.87907
686.996	7271.44427
687.192	7343.688
687.389	7314.79373
687.586	7178.51982
687.782	7228.0851
687.979	7323.04968
688.175	7281.76645
688.372	7422.09373
688.568	7118.61139
688.765	7389.08463
688.962	7351.94272
689.158	7273.50875
689.355	7246.66879
689.551	7500.46811
689.748	7223.95514
689.944	7298.2808
690.14	7261.12154
690.337	7306.53744
690.533	7259.05693
690.73	7578.81138
690.926	7242.53924
691.123	7422.09373
691.319	7240.47442
691.515	7457.15981
691.712	7335.43294
691.908	7339.56051
692.104	7093.81622
692.301	7368.45111
692.497	7215.69497
692.693	7349.87907
692.889	7256.99229
693.086	7358.13353
693.282	7389.08463
693.478	7512.84016
693.674	7190.91234
693.87	7384.9581
694.067	7339.56051
694.263	7347.81541
694.459	7176.45433
694.655	7521.08777
694.851	7360.19709
695.047	7327.17752
695.243	7267.31524
695.439	7213.62988
695.635	7052.48377
695.831	7438.5962
696.027	7106.21421
696.224	7281.76645
696.42	7300.34499
696.615	7306.53744
696.811	7182.65075
697.007	7401.46369
697.203	7042.14926
697.399	7339.56051
697.595	7141.33748
697.791	7320.98573
697.987	7172.32327
698.183	7265.2507
698.379	7221.89013
698.575	7296.21658
698.77	7122.74361
698.966	7430.34514
699.162	6978.06276
699.358	7290.0238
699.554	7215.69497
699.749	7490.15747
699.945	7306.53744
700.141	7364.32414
700.337	7290.0238
700.532	7300.34499
700.728	7271.44427
700.924	7473.65934
701.119	7172.32327
701.315	7308.60155
701.511	6911.88622
701.706	7300.34499
701.902	7145.46921
702.097	7308.60155
702.293	7393.21107
702.489	7422.09373
702.684	7089.68337
702.88	7366.38764
703.075	7112.4129
703.271	7182.65075
703.466	7164.06088
703.662	7261.12154
703.857	7120.67751
704.053	7141.33748
704.248	7380.83148
704.443	7399.40057
704.639	7211.56476
704.834	7591.17855
705.03	7223.95514
705.225	7250.79826
705.42	7157.86386
705.616	7267.31524
705.811	7019.41136
706.006	7455.09728
706.202	6998.73818
706.397	7471.59697
706.592	7182.65075
706.787	7197.1083
706.983	7050.41691
707.178	7455.09728
707.373	7102.08163
707.568	7318.92175
707.763	6951.18133
707.959	7261.12154
708.154	6994.60328
708.349	7269.37977
708.544	7207.43445
708.739	7527.27324
708.934	7077.28431
709.129	7149.60085
709.324	6816.71681
709.519	7120.67751
709.714	6845.6865
709.909	7087.61692
710.104	6721.49916
710.299	7180.5853
710.494	7004.94037
710.689	7104.14793
710.884	6849.82467
711.079	7318.92175
711.274	7318.92175
711.469	7636.51824
711.664	7153.7324
711.859	7329.24141
712.054	7261.12154
712.249	7366.38764
712.443	7040.08229
712.638	7223.95514
712.833	6742.20277
713.028	7054.55061
713.223	6963.58862
713.417	7226.02013
713.612	7366.38764
713.807	7455.09728
714.002	7234.27986
714.196	7285.89517
714.391	6845.6865
714.586	7287.95949
714.78	7170.2577
714.975	7405.58988
715.17	7283.83082
715.364	7558.19773
715.559	7265.2507
715.754	7292.08808
715.948	7242.53924
716.143	7153.7324
716.337	6992.53579
716.532	7325.11361
716.726	6934.63702
716.921	7339.56051
717.115	7166.12651
717.31	7273.50875
717.504	7131.00778
717.699	7292.08808
717.893	7116.54525
718.088	7306.53744
718.282	7234.27986
718.476	7143.40336
718.671	6812.57791
718.865	7205.36926
719.059	6920.15956
719.254	7106.21421
719.448	6704.93463
719.642	6889.13269
719.837	6564.07665
720.031	7161.99523
720.225	6843.61739
720.419	7188.84697
720.614	6876.72052
720.808	7137.20567
721.002	6760.83405
721.196	6922.22783
721.39	6967.7242
721.585	7087.61692
721.779	7159.92955
721.973	6998.73818
722.167	6789.81237
722.361	7054.55061
722.555	6926.36432
722.749	7066.95115
722.943	6872.58294
723.137	6887.06405
723.331	6853.96274
723.525	6911.88622
723.719	6651.08974
723.913	6909.81783
724.107	6746.34321
724.301	7013.20964
724.495	6520.55482
724.689	6918.09126
724.883	6624.16147
725.077	6924.29609
725.271	6545.42569
725.465	6901.54405
725.659	6752.55371
725.853	6984.26562
726.046	6802.23028
726.24	6884.99539
726.434	6389.92794
726.628	6969.79195
726.822	6777.39364
727.015	7042.14926
727.209	6690.43946
727.403	7066.95115
727.596	6992.53579
727.79	7331.30527
727.984	6973.9274
728.177	7287.95949
728.371	6951.18133
728.565	6975.99509
728.758	6994.60328
728.952	7217.76005
729.146	6827.06364
729.339	7108.28046
729.533	7141.33748
729.726	6959.45294
729.92	6982.19802
730.113	7110.34669
730.307	6953.24927
730.5	7124.80968
730.694	6971.85969
730.887	7302.40916
731.081	7116.54525
731.274	6909.81783
731.468	6779.46349
731.661	6845.6865
731.854	6876.72052
732.048	7172.32327
732.241	6893.2699
732.435	7091.74981
732.628	6849.82467
732.821	6918.09126
733.014	6735.99193
733.208	6889.13269
733.401	7073.15111
733.594	6814.64737
733.788	6951.18133
733.981	6944.97738
734.174	6829.13294
734.367	7133.07376
734.56	6738.06223
734.754	7004.94037
734.947	7035.94828
735.14	6812.57791
735.333	6781.53331
735.526	6949.11337
735.719	6733.9216
735.912	6671.80115
736.105	6721.49916
736.298	6994.60328
736.491	6986.3332
736.684	6973.9274
736.877	6835.34069
737.07	6806.3694
737.263	6669.73012
737.456	6895.33847
737.649	6663.51686
737.842	6793.95177
738.035	6934.63702
738.228	6986.3332
738.421	7009.07505
738.614	6878.78927
738.807	7021.47855
739	7062.81772
739.192	6820.85561
739.385	7093.81622
739.578	6897.40702
739.771	7091.74981
739.964	6930.50071
740.156	7256.99229
740.349	6959.45294
740.542	6916.02294
740.735	6802.23028
740.927	7031.81419
741.12	6853.96274
741.313	6882.92671
741.505	6831.20221
741.698	6688.36863
741.891	6715.28763
742.083	6918.09126
742.276	6773.25388
742.468	6947.04539
742.661	6678.01413
742.854	6649.01847
743.046	6555.78757
743.239	6624.16147
743.431	6835.34069
743.624	6810.50843
743.816	6918.09126
744.009	6775.32377
744.201	6804.29985
744.393	6624.16147
744.586	6597.2293
744.778	6901.54405
744.971	6744.273
745.163	6700.79327
745.355	6537.13577
745.548	6727.71048
745.74	6599.30114
745.932	6727.71048
746.125	6913.95459
746.317	7042.14926
746.509	6725.64007
746.702	6913.95459
746.894	6692.51026
747.086	6769.11403
747.278	6942.90935
747.471	6777.39364
747.663	6928.43253
747.855	7013.20964
748.047	6975.99509
748.239	6913.95459
748.431	6920.15956
748.623	7066.95115
748.815	6884.99539
749.008	6775.32377
749.2	6841.54825
749.392	6829.13294
749.584	6810.50843
749.776	6845.6865
749.968	6564.07665
750.16	6901.54405
750.352	6624.16147
750.544	6646.94718
750.736	6704.93463
750.928	6839.47909
751.12	6675.94316
751.311	6779.46349
751.503	6781.53331
751.695	6586.86973
751.887	6640.73317
752.079	6603.44476
752.271	6412.74246
752.463	6636.59039
752.654	6418.96411
752.846	6638.66179
753.038	6460.43644
753.23	6591.01363
753.421	6512.26379
753.613	6584.79775
753.805	6512.26379
753.997	6669.73012
754.188	6396.15036
754.38	6530.91809
754.572	6288.26533
754.763	6578.58166
754.955	6348.43977
755.146	6491.53459
755.338	6777.39364
755.53	6416.89025
755.721	6678.01413
755.913	6713.21708
756.104	6653.16099
756.296	6694.58105
756.487	6392.0021
756.679	6646.94718
756.87	6311.09243
757.062	6302.79199
757.253	6537.13577
757.445	6503.97239
757.636	6423.11176
757.827	6338.06627
758.019	6495.68062
758.21	6580.65371
758.401	6423.11176
758.593	6433.48049
758.784	6346.36511
758.975	6555.78757
759.167	6373.33379
759.358	6429.33307
759.549	6439.70144
759.74	6385.77954
759.932	6288.26533
760.123	6327.69218
760.314	6462.50982
760.505	6176.16392
760.696	6132.55046
760.888	6093.08173
761.079	6298.64163
761.27	6354.66359
761.461	6296.56642
761.652	6547.49811
761.843	6257.1329
762.034	6404.4466
762.225	6321.46745
762.416	6423.11176
762.607	6315.24251
762.798	6313.16748
762.989	6311.09243
763.18	6242.60263
763.371	6288.26533
763.562	6288.26533
763.753	6263.35981
763.944	6329.76704
764.135	6005.80493
764.326	6277.88844
764.517	6032.82361
764.708	6057.76041
764.899	6163.70399
765.089	6005.80493
765.28	5972.54569
765.471	6022.43228
765.662	5955.91381
765.853	6153.32007
766.043	6074.38305
766.234	6184.47008
766.425	5926.80439
766.615	6228.07122
766.806	6024.5106
766.997	6213.53865
767.187	6203.15755
767.378	5980.86107
767.569	5899.77008
767.759	6250.90579
767.95	5982.93985
768.141	5966.30892
768.331	6003.7264
768.522	5906.00912
768.712	5926.80439
768.903	6080.61616
769.093	5918.48657
769.284	5941.35968
769.474	6032.82361
769.665	5889.37121
769.855	5714.5819
770.046	5876.89178
770.236	5733.31729
770.426	5829.0461
770.617	5799.91653
770.807	5910.16837
770.998	5810.32048
771.188	6012.04036
771.378	5656.28179
771.569	5964.22994
771.759	5772.8635
771.949	5620.87627
772.139	5754.13215
772.33	5643.7865
772.52	5635.45584
772.71	5897.69035
772.9	5772.8635
773.09	5887.29136
773.281	5566.71347
773.471	5527.12289
773.661	5422.89653
773.851	5650.03425
774.041	5464.59413
774.231	5533.3746
774.421	5464.59413
774.611	5741.64352
774.802	5556.29572
774.992	5668.77623
775.182	5443.74651
775.372	5616.71047
775.562	5700.00861
775.752	5650.03425
775.942	5591.71367
776.131	5389.53169
776.321	5308.17971
776.511	5629.20759
776.701	5527.12289
776.891	5364.50411
777.081	5316.52514
777.271	5641.70387
777.461	5552.12846
777.651	5497.94544
777.84	5362.41832
778.03	5408.30015
778.22	5143.28077
778.41	5493.77686
778.599	5176.68978
778.789	5391.61717
778.979	5518.78695
779.169	5456.25537
779.358	5433.32182
779.548	5604.21249
779.738	5525.03894
779.927	5441.66162
780.117	5397.87346
780.307	5293.57429
780.496	5274.79422
780.686	5364.50411
780.875	5308.17971
781.065	5297.74739
781.254	5097.33367
781.444	5316.52514
781.633	5164.1621
781.823	5274.79422
782.012	5276.88099
782.202	5466.67877
782.391	5189.21662
782.581	5297.74739
782.77	4867.43036
782.96	5208.00531
783.149	4813.049
783.338	5210.09283
783.528	5097.33367
783.717	5122.39712
783.906	4919.70555
784.096	5197.56738
784.285	5166.25011
784.474	5301.92038
784.663	5055.55384
784.853	5157.89795
785.042	5055.55384
785.231	5347.81718
785.42	4865.33905
785.61	5216.35523
785.799	4921.79626
785.988	5028.39198
786.177	4829.78336
786.366	4854.88218
786.555	4850.69927
786.744	5068.08876
786.933	5005.40581
787.122	5272.70743
787.312	5247.66411
787.501	5197.56738
787.69	4911.34249
787.879	5147.45723
788.068	4748.18958
788.257	4915.52407
788.445	4813.049
788.634	5013.76474
788.823	4729.35535
789.012	4779.57589
789.201	4867.43036
789.39	4842.33318
789.579	4790.03686
789.768	4708.42628
789.957	4773.29904
790.145	4936.43059
790.334	4752.37472
790.523	4873.70414
790.712	4842.33318
790.9	4896.70623
791.089	4452.9114
791.278	4813.049
791.467	4551.38666
791.655	4815.14087
791.844	4643.53184
792.033	4538.81807
792.221	4547.19722
792.41	4748.18958
792.599	4379.54723
792.787	4595.37043
792.976	4607.93542
793.164	4773.29904
793.353	4679.12179
793.541	4691.6814
793.73	4385.83664
793.918	4670.74827
794.107	4467.58101
794.295	4760.74472
794.484	4578.61587
794.672	4540.91289
794.861	4549.29195
795.049	4616.31163
795.238	4427.76099
795.426	4796.31317
795.614	4371.16106
795.803	4410.99229
795.991	4234.83725
796.179	4429.85698
796.368	4375.35419
796.556	4442.43244
796.744	4310.3509
796.932	4695.86775
797.121	4287.28024
797.309	4624.68748
797.497	4473.86766
797.685	4545.10247
797.874	4452.9114
798.062	4670.74827
798.25	4436.14481
798.438	4603.74718
798.626	4415.1846
798.814	4616.31163
799.002	4467.58101
799.19	4503.20273
799.378	4494.82173
799.566	4356.48441
799.755	4394.22221
799.943	4457.10283
800.131	4385.83664
800.318	4287.28024
800.506	4218.05268
800.694	4276.79271
800.882	4111.01922
801.07	4635.15679
801.258	4402.60742
801.446	4628.87527
801.634	4410.99229
801.822	4295.66987
802.01	4373.25763
802.197	4436.14481
802.385	4194.97168
802.573	4478.05865
802.761	4492.72642
802.949	4620.4996
803.136	4316.64245
803.324	4524.15371
803.512	4375.35419
803.699	4442.43244
803.887	4503.20273
804.075	4499.01227
804.262	4239.03318
804.45	4572.33254
804.638	4570.23805
804.825	4599.55885
805.013	4436.14481
805.201	4553.48135
805.388	4201.26675
805.576	4404.70367
805.763	4297.76723
805.951	4207.56164
806.138	4209.65989
806.326	4346.00044
806.513	4278.89026
806.701	4519.96369
806.888	4329.22497
807.075	4465.48542
807.263	4272.59755
807.45	4566.04901
807.638	4440.33659
807.825	4459.19851
808.012	4241.13112
808.2	4496.91701
808.387	4369.06446
808.574	4482.24955
808.761	4398.41486
808.949	4496.91701
809.136	4276.79271
809.323	4530.43857
809.51	4150.90083
809.698	4352.29089
809.885	4436.14481
810.072	4647.71923
810.259	4528.34364
810.446	4769.11436
810.633	4530.43857
810.82	4731.44813
811.008	4591.18192
811.195	4863.24772
811.382	4695.86775
811.569	4614.21761
811.756	4616.31163
811.943	4773.29904
812.13	4394.22221
812.317	4425.66498
812.504	4427.76099
812.691	4633.06298
812.878	4605.84131
813.064	4656.09374
813.251	4398.41486
813.438	4664.46789
813.625	4467.58101
813.812	4628.87527
813.999	4285.18277
814.186	4553.48135
814.372	4299.86456
814.559	4591.18192
814.746	4308.25368
814.933	4507.39311
815.12	4343.90358
815.306	4446.62409
815.493	4429.85698
815.68	4427.76099
815.866	4280.98779
816.053	4478.05865
816.24	4400.51115
816.426	4725.16972
816.613	4272.59755
816.799	4616.31163
816.986	4234.83725
817.173	4434.04889
817.359	4213.85633
817.546	4387.93306
817.732	4253.71827
817.919	4335.51593
818.105	4331.32198
818.292	4360.67785
818.478	4293.57249
818.665	4400.51115
818.851	4499.01227
819.037	4582.80464
819.224	4297.76723
819.41	4457.10283
819.597	4230.64124
819.783	4511.58339
819.969	4314.54529
820.156	4390.02946
820.342	4369.06446
820.528	4260.01155
820.714	4293.57249
820.901	4362.77453
821.087	4398.41486
821.273	4379.54723
821.459	4201.26675
821.646	4408.89611
821.832	4402.60742
822.018	4545.10247
822.204	4203.36507
822.39	4232.73926
822.576	4285.18277
822.762	4488.53574
822.948	4159.296
823.134	4295.66987
823.32	3976.62599
823.507	4155.09846
823.693	4152.99966
823.879	4394.22221
824.065	4014.43262
824.25	4379.54723
824.436	4249.52264
824.622	4213.85633
824.808	4471.77214
824.994	4310.3509
825.18	4186.57795
825.366	4415.1846
825.552	4264.20697
825.738	4245.32692
825.923	4239.03318
826.109	4467.58101
826.295	4184.47946
826.481	4383.74019
826.667	4079.52841
826.852	4142.50533
827.038	4218.05268
827.224	4398.41486
827.409	4085.82695
827.595	4218.05268
827.781	4075.32928
827.966	4165.59215
828.152	3898.89168
828.338	4134.1095
828.523	3823.23192
828.709	4125.71333
828.894	3896.79037
829.08	4144.60424
829.266	3814.82369
829.451	4111.01922
829.637	3865.26831
829.822	4178.18388
830.008	3934.61088
830.193	4075.32928
830.378	3955.61945
830.564	4150.90083
830.749	3869.47151
830.935	4207.56164
831.12	3873.67463
831.305	4077.42886
831.491	3980.82705
831.676	4129.91145
831.861	3865.26831
832.047	4048.03292
832.232	3667.62916
832.417	4194.97168
832.602	3844.25111
832.788	3972.42485
832.973	3844.25111
833.158	3890.48632
833.343	3644.49002
833.528	3917.80257
833.714	3732.82702
833.899	3924.10584
834.084	3621.34859
834.269	3732.82702
834.454	3642.38635
834.639	3997.63049
834.824	3587.68426
835.009	3730.72415
835.194	3530.86491
835.379	3816.92578
835.564	3646.59367
835.749	3924.10584
835.934	3768.57281
836.119	3783.29003
836.304	3657.11165
836.489	3663.42221
836.674	3524.55081
836.859	3684.45618
837.044	3520.34133
837.228	3898.89168
837.413	3739.13551
837.598	4039.63334
837.783	3478.24245
837.968	3646.59367
838.152	3516.13177
838.337	3421.3975
838.522	3259.21374
838.707	3587.68426
838.891	3278.17555
839.076	3532.96957
839.261	3318.20151
839.445	3370.85777
839.63	3377.17579
839.815	3692.86923
839.999	3547.70168
840.184	3621.34859
840.368	3244.46472
840.553	3602.413
840.737	3305.5624
840.922	3410.86923
841.106	3511.92213
841.291	3522.44608
841.475	3404.55206
841.66	3446.66354
841.844	3158.06129
842.029	3478.24245
842.213	3322.41441
842.397	3372.9638
842.582	3149.63021
842.766	3415.08059
842.951	3109.57908
843.135	3349.79657
843.319	3303.45582
843.504	3288.70929
843.688	3202.32017
843.872	3233.92921
844.056	3236.03635
844.241	3579.26743
844.425	3263.42759
844.609	3183.35296
844.793	3208.64228
844.977	3385.59957
845.161	3012.58958
845.346	3191.783
845.53	3147.5224
845.714	3246.57178
845.898	3118.01137
846.082	3233.92921
846.266	3027.35097
846.45	3195.99792
846.634	2883.92352
846.818	3103.25469
847.002	2964.08263
847.186	3145.41458
847.37	3065.30536
847.554	3410.86923
847.738	3023.1335
847.922	3238.14347
848.106	3052.65445
848.29	3143.30673
848.473	2890.25264
848.657	2976.73739
848.841	2955.64583
849.025	3069.5222
849.209	2799.52314
849.392	3103.25469
849.576	2786.86117
849.76	2947.2088
849.944	2831.17591
850.127	3082.17235
850.311	2814.29482
850.495	2942.99019
850.678	3073.73898
850.862	3271.8551
851.046	2803.74369
851.229	2985.17359
851.413	2744.65106
851.596	2883.92352
851.78	2917.6773
851.964	3109.57908
852.147	2816.40501
852.331	3170.70742
852.514	2755.20409
852.698	2879.70404
852.881	2552.52991
853.065	2799.52314
853.248	2632.7689
853.431	2725.65477
853.615	2584.20527
853.798	2691.88096
853.982	2381.43884
854.165	2672.88174
854.348	2544.08269
854.532	2516.62797
854.715	2529.29962
854.898	2653.88149
855.081	2423.69018
855.265	2877.59428
855.448	2525.07578
855.631	2689.76999
855.814	2381.43884
855.997	2598.98619
856.181	2411.01522
856.364	2672.88174
856.547	2537.74716
856.73	2601.0977
856.913	2271.56659
857.096	2499.73179
857.279	2360.31162
857.462	2670.77065
857.645	2571.53545
857.828	2573.64711
858.011	2398.33988
858.194	2457.4882
858.377	2292.69789
858.56	2567.31208
858.743	2254.66088
858.926	2408.90269
859.109	2398.33988
859.292	2491.28343
859.475	2269.45341
859.658	2750.98292
859.841	2290.5848
860.023	2603.2092
860.206	2497.61971
860.389	2558.86519
860.572	2256.77413
860.755	2425.80264
860.937	2296.92403
861.12	2514.51598
861.303	2263.11381
861.486	2442.70191
861.668	2212.39411
861.851	2299.03709
862.034	2085.57374
862.216	2375.10078
862.399	2102.48476
862.581	2174.35106
862.764	2017.92508
862.947	2172.23748
863.129	2187.03238
863.312	2172.23748
863.494	2096.14319
863.677	2339.18341
863.859	2123.62285
864.042	2237.7546
864.224	2206.0538
864.406	2229.30125
864.589	2009.4685
864.771	2155.32852
864.954	1840.31682
865.136	2191.25942
865.318	1950.2696
865.501	1971.41263
865.683	1884.72255
865.865	2153.21487
866.048	1880.49353
866.23	2077.11806
866.412	1838.20221
866.594	2089.80154
866.777	2051.75031
866.959	2089.80154
867.141	1880.49353
867.323	2030.60975
867.505	1704.9732
867.687	1861.46268
867.869	1749.38456
868.052	2119.39529
868.234	1823.3998
868.416	2043.29417
868.598	1679.59464
868.78	1941.81222
868.962	1732.46613
869.144	1842.43143
869.326	1724.00682
869.508	1827.62908
869.69	1762.07324
869.872	2094.02931
870.054	1721.89199
870.236	1901.63843
870.417	1724.00682
870.599	1787.45017
870.781	1757.8437
870.963	2034.83791
871.145	1817.05584
871.327	1848.77522
871.508	1823.3998
871.69	1994.66924
871.872	1819.17049
872.054	1878.37901
872.235	1734.58094
872.417	1958.72688
872.599	1654.21567
872.78	1867.80634
872.962	1882.60804
873.144	1808.59716
873.325	1673.24993
873.507	1840.31682
873.689	1707.08806
873.87	1743.04018
874.052	1778.99126
874.233	1933.35475
874.415	1704.9732
874.596	1853.0044
874.778	1586.53675
874.959	1772.64703
875.141	1804.3678
875.322	1946.04092
875.503	1730.35131
875.685	2009.4685
875.866	1696.51373
876.048	1743.04018
876.229	1630.95129
876.41	1766.30277
876.592	1707.08806
876.773	1831.85835
876.954	1700.74347
877.136	1781.10599
877.317	1664.79029
877.498	1787.45017
877.679	1552.69659
877.86	1717.66231
878.042	1683.82443
878.223	1683.82443
878.404	1842.43143
878.585	1802.25311
878.766	1662.67537
878.947	1941.81222
879.128	1728.23648
879.309	1804.3678
879.49	1654.21567
879.672	1781.10599
879.853	1630.95129
880.034	1874.14996
880.215	1620.37648
880.396	1789.56489
880.576	1730.35131
880.757	1800.13841
880.938	1757.8437
881.119	1939.69786
881.3	1675.36484
881.481	1952.38393
881.662	2009.4685
881.843	2051.75031
882.023	1819.17049
882.204	1996.78344
882.385	1859.34812
882.566	1952.38393
882.747	1734.58094
882.927	1935.46913
883.108	1624.60641
883.289	1863.57724
883.469	1789.56489
883.65	1776.87652
883.831	1717.66231
884.011	1874.14996
884.192	1698.6286
884.373	1844.54603
884.553	1688.05421
884.734	1986.21238
884.914	1774.76177
885.095	1878.37901
885.275	1717.66231
885.456	1878.37901
885.636	1910.09624
885.817	1935.46913
885.997	1979.86966
886.178	1992.55503
886.358	1755.72892
886.538	1973.52689
886.719	1730.35131
886.899	1859.34812
887.08	1817.05584
887.26	2028.49565
887.44	1717.66231
887.621	1865.69179
887.801	1630.95129
887.981	1838.20221
888.161	1808.59716
888.342	1848.77522
888.522	1743.04018
888.702	2005.24018
888.882	1728.23648
889.062	1962.95549
889.242	1607.68664
889.423	1827.62908
889.603	1662.67537
889.783	1960.84119
889.963	1666.9052
890.143	2001.01182
890.323	1628.83634
890.503	1952.38393
890.683	1738.81057
890.863	2039.06605
891.043	1704.9732
891.223	2047.52225
891.403	1688.05421
891.583	1914.32511
891.763	1704.9732
891.943	1878.37901
892.122	1776.87652
892.302	1863.57724
892.482	1918.55396
892.662	1903.75289
892.842	1688.05421
893.022	1916.43953
893.201	1840.31682
893.381	1969.29835
893.561	1719.77715
893.741	1924.89719
893.92	1637.29615
894.1	1897.40949
894.28	1664.79029
894.459	1844.54603
894.639	1504.0508
894.819	1747.26977
894.998	1628.83634
895.178	1679.59464
895.357	1563.27168
895.537	1781.10599
895.716	1654.21567
895.896	1986.21238
896.075	1700.74347
896.255	1730.35131
896.434	1700.74347
896.614	1669.02012
896.793	1645.75593
896.973	1597.11172
897.152	1472.32508
897.331	1607.68664
897.511	1554.81161
897.69	1662.67537
897.87	1525.2012
898.049	1580.19175
898.228	1417.33374
898.407	1459.63477
898.587	1281.9728
898.766	1391.9532
898.945	1197.3765
899.124	1506.16584
899.304	1400.41337
899.483	1487.13043
899.662	1307.35249
899.841	1307.35249
900.02	1301.00754
900.199	1351.76759
900.378	1315.81245
900.557	1487.13043
900.737	1281.9728
900.916	1381.378
901.095	1279.85784
901.274	1459.63477
901.453	1078.95145
901.632	1197.3765
901.811	1138.16228
901.989	1260.82331
902.168	1148.73602
902.347	1487.13043
902.526	1034.54595
902.705	1121.24452
902.884	1104.32706
903.063	1275.62793
903.242	1062.03478
903.42	1353.88261
903.599	1032.43147
903.778	1212.1805
903.957	1112.78575
904.135	1131.81809
904.314	952.08568
904.493	1231.21446
904.672	971.11408
904.85	1072.60766
905.029	994.37177
905.207	1049.34751
905.386	895.00401
905.565	1049.34751
905.743	966.8855
905.922	1055.69112
906.1	846.38345
906.279	943.62879
906.457	865.40836
906.636	890.77596
906.814	886.54795
906.993	1036.66044
907.171	814.67687
907.35	935.17202
907.528	782.97236
907.707	884.43395
907.885	778.74526
908.063	863.29445
908.242	816.79058
908.42	816.79058
908.598	785.08593
908.777	785.08593
908.955	717.45683
909.133	886.54795
909.311	675.19421
909.49	728.02317
909.668	713.23036
909.846	825.2455
910.024	685.75944
910.202	903.4602
910.38	694.21183
910.559	806.22212
910.737	673.0812
910.915	747.04326
911.093	844.26962
911.271	833.70058
911.449	681.53331
911.627	850.61115
911.805	763.95071
911.983	867.52228
912.161	829.47302
912.339	833.70058
912.517	808.3358
912.695	892.88998
912.872	816.79058
913.05	865.40836
913.228	922.48709
913.406	903.4602
913.584	689.98561
913.762	892.88998
913.939	812.56317
914.117	1002.82931
914.295	770.29117
914.473	1038.77494
914.65	641.38743
914.828	977.45701
915.006	791.42669
915.184	799.88117
915.361	713.23036
915.539	782.97236
915.716	635.049
915.894	782.97236
916.072	698.43809
916.249	734.3631
916.427	645.61311
916.604	840.04198
916.782	624.48519
916.959	747.04326
917.137	706.89075
917.314	717.45683
917.492	694.21183
917.669	679.42027
917.847	641.38743
918.024	675.19421
918.201	651.95172
918.379	698.43809
918.556	660.40337
918.733	641.38743
918.911	529.42547
919.088	554.77208
919.265	571.67092
919.442	694.21183
919.62	546.32299
919.797	689.98561
919.974	580.12066
920.151	609.69639
920.328	573.78333
920.506	719.57007
920.683	506.19285
920.86	692.09872
921.037	548.43524
921.214	603.35852
921.391	592.79566
921.568	632.93621
921.745	537.87412
921.922	683.64637
922.099	533.64976
922.276	740.70313
922.453	573.78333
922.63	590.68313
922.807	455.50964
922.984	609.69639
923.161	548.43524
923.338	647.72597
923.514	592.79566
923.691	603.35852
923.868	605.47113
924.045	563.22139
924.222	512.52884
924.399	487.18564
924.575	472.40309
924.752	554.77208
924.929	535.76193
925.105	546.32299
925.282	444.95174
925.459	476.6266
925.635	463.95624
925.812	444.95174
925.989	474.51483
926.165	533.64976
926.342	436.5057
926.518	493.52124
926.695	347.8379
926.871	476.6266
927.048	371.05758
927.224	406.94654
927.401	368.94661
927.577	449.17485
927.754	335.1735
927.93	390.05702
928.107	387.9459
928.283	387.9459
928.459	339.39489
928.636	314.06758
928.812	377.39057
928.988	301.40489
929.165	337.28419
929.341	449.17485
929.517	425.9485
929.693	371.05758
929.87	286.63257
930.046	377.39057
930.222	221.22341
930.398	324.62032
930.574	290.85314
930.751	354.17033
930.927	250.76076
931.103	394.2793
931.279	276.08147
931.455	347.8379
931.631	333.06283
931.807	366.83566
931.983	335.1735
932.159	305.62571
932.335	276.08147
932.511	280.30186
932.687	276.08147
932.863	282.41208
933.039	233.8818
933.215	292.96345
933.391	259.20069
933.566	259.20069
933.742	206.45618
933.918	301.40489
934.094	204.34665
934.27	210.67529
934.445	200.12766
934.621	271.86117
934.797	195.90876
934.973	238.10143
935.148	252.87071
935.324	225.4428
935.5	149.50617
935.675	219.11374
935.851	183.25252
936.027	187.47118
936.202	145.28826
936.378	200.12766
936.553	113.65661
936.729	109.43943
936.904	174.81543
937.08	174.81543
937.255	143.17933
937.431	52.51615
937.606	174.81543
937.782	82.02988
937.957	128.41744
938.133	149.50617
938.308	90.46319
938.483	73.59693
938.659	44.08449
938.834	132.63502
939.009	56.73213
939.185	107.33087
939.36	60.94819
939.535	160.05133
939.71	50.4082
939.886	33.54542
940.061	18.79172
940.236	60.94819
940.411	90.46319
940.586	77.81336
940.761	69.38059
940.937	96.7884
941.112	65.16435
941.287	69.38059
941.462	79.92161
941.637	18.79172
941.812	107.33087
941.987	60.94819
942.162	41.97663
942.337	25.11459
942.512	73.59693
942.687	37.76098
942.862	56.73213
943.037	1.93177
943.212	86.24649
943.386	105.22233
943.561	-0.17561
943.736	-14.92664
943.911	60.94819
944.086	-2.28298
944.26	73.59693
944.435	33.54542
944.61	48.30027
944.785	82.02988
944.959	113.65661
945.134	84.13817
945.309	-12.81942
945.483	65.16435
945.658	56.73213
945.833	27.22227
946.007	58.84015
946.182	-35.99745
946.357	56.73213
946.531	126.30869
946.706	109.43943
946.88	-2.28298
947.055	75.70514
947.229	58.84015
947.404	12.46906
947.578	77.81336
947.752	52.51615
947.927	35.65319
948.101	39.86879
948.276	18.79172
948.45	107.33087
948.624	58.84015
948.799	79.92161
948.973	67.27246
949.147	124.19996
949.321	90.46319
949.496	23.00695
949.67	109.43943
949.844	39.86879
950.018	84.13817
950.193	67.27246
950.367	14.57659
950.541	56.73213
950.715	-4.39031
950.889	84.13817
951.063	54.62413
951.237	27.22227
951.411	12.46906
951.585	88.35483
951.759	56.73213
951.933	101.00532
952.107	151.61516
952.281	67.27246
952.455	73.59693
952.629	77.81336
952.803	48.30027
952.977	14.57659
953.151	12.46906
953.325	50.4082
953.499	46.19237
953.672	-19.141
953.846	65.16435
954.02	35.65319
954.194	143.17933
954.368	48.30027
954.541	73.59693
954.715	-6.49763
954.889	88.35483
955.062	44.08449
955.236	44.08449
955.41	134.74384
955.583	41.97663
955.757	52.51615
955.93	65.16435
956.104	75.70514
956.278	39.86879
956.451	73.59693
956.625	31.43768
956.798	52.51615
956.972	6.14661
957.145	101.00532
957.319	84.13817
957.492	25.11459
957.665	25.11459
957.839	134.74384
958.012	-4.39031
958.185	67.27246
958.359	18.79172
958.532	119.98255
958.705	56.73213
958.879	73.59693
959.052	1.93177
959.225	82.02988
959.398	111.54801
959.572	96.7884
959.745	56.73213
959.918	90.46319
960.091	14.57659
960.264	98.89685
960.438	1.93177
960.611	75.70514
960.784	90.46319
960.957	65.16435
961.13	128.41744
961.303	109.43943
961.476	119.98255
961.649	16.68414
961.822	20.89932
961.995	-19.141
962.168	109.43943
962.341	41.97663
962.514	82.02988
962.686	52.51615
962.859	23.00695
963.032	39.86879
963.205	126.30869
963.378	48.30027
963.551	41.97663
963.723	77.81336
963.896	18.79172
964.069	48.30027
964.242	84.13817
964.414	-29.67646
964.587	90.46319
964.76	39.86879
964.932	73.59693
965.105	92.57157
965.278	130.52622
965.45	48.30027
965.623	84.13817
965.795	14.57659
965.968	27.22227
966.14	27.22227
966.313	63.05626
966.485	65.16435
966.658	16.68414
966.83	141.07043
967.003	84.13817
967.175	107.33087
967.348	73.59693
967.52	48.30027
967.692	71.48875
967.865	33.54542
968.037	117.87389
968.209	94.67998
968.382	8.25407
968.554	73.59693
968.726	119.98255
968.898	90.46319
969.071	90.46319
969.243	65.16435
969.415	63.05626
969.587	35.65319
969.759	39.86879
969.932	41.97663
970.104	-8.60492
970.276	86.24649
970.448	69.38059
970.62	109.43943
970.792	115.76524
970.964	41.97663
971.136	58.84015
971.308	56.73213
971.48	18.79172
971.652	103.11382
971.824	16.68414
971.996	6.14661
972.168	-10.71218
972.339	44.08449
972.511	56.73213
972.683	27.22227
972.855	77.81336
973.027	8.25407
973.199	54.62413
973.37	82.02988
973.542	65.16435
973.714	67.27246
973.886	52.51615
974.057	126.30869
974.229	16.68414
974.401	48.30027
974.572	84.13817
974.744	84.13817
974.915	111.54801
975.087	39.86879
975.259	23.00695
975.43	60.94819
975.602	48.30027
975.773	-52.8523
975.945	111.54801
976.116	75.70514
976.288	27.22227
976.459	16.68414
976.63	-19.141
976.802	31.43768
976.973	75.70514
977.145	82.02988
977.316	25.11459
977.487	73.59693
977.659	46.19237
977.83	63.05626
978.001	73.59693
978.172	46.19237
978.344	79.92161
978.515	124.19996
978.686	48.30027
978.857	58.84015
979.028	56.73213
979.2	65.16435
979.371	16.68414
979.542	65.16435
979.713	58.84015
979.884	88.35483
980.055	18.79172
980.226	82.02988
980.397	33.54542
980.568	50.4082
980.739	23.00695
980.91	44.08449
981.081	14.57659
981.252	23.00695
981.423	44.08449
981.594	101.00532
981.765	16.68414
981.936	111.54801
982.106	-2.28298
982.277	69.38059
982.448	73.59693
982.619	-17.03383
982.79	10.36155
982.96	-21.24814
983.131	20.89932
983.302	94.67998
983.472	8.25407
983.643	31.43768
983.814	31.43768
983.984	10.36155
984.155	18.79172
984.326	56.73213
984.496	-10.71218
984.667	84.13817
984.837	6.14661
985.008	77.81336
985.178	56.73213
985.349	14.57659
985.519	16.68414
985.69	23.00695
985.86	39.86879
986.031	27.22227
986.201	67.27246
986.371	25.11459
986.542	50.4082
986.712	14.57659
986.882	115.76524
987.053	56.73213
987.223	33.54542
987.393	35.65319
987.563	86.24649
987.734	-46.53192
987.904	20.89932
988.074	-14.92664
988.244	82.02988
988.414	31.43768
988.585	35.65319
988.755	41.97663
988.925	-2.28298
989.095	25.11459
989.265	31.43768
989.435	-6.49763
989.605	60.94819
989.775	48.30027
989.945	-21.24814
990.115	29.32996
990.285	39.86879
990.455	63.05626
990.625	65.16435
990.795	-2.28298
990.965	60.94819
991.134	69.38059
991.304	39.86879
991.474	-2.28298
991.644	77.81336
991.814	23.00695
991.984	107.33087
992.153	20.89932
992.323	-31.78348
992.493	41.97663
992.662	105.22233
992.832	101.00532
993.002	-14.92664
993.171	71.48875
993.341	46.19237
993.511	48.30027
993.68	65.16435
993.85	33.54542
994.019	10.36155
994.189	-10.71218
994.358	44.08449
994.528	10.36155
994.697	10.36155
994.867	27.22227
995.036	4.03918
995.206	-0.17561
995.375	-10.71218
995.544	35.65319
995.714	16.68414
995.883	14.57659
996.052	-14.92664
996.222	58.84015
996.391	52.51615
996.56	25.11459
996.73	27.22227
996.899	16.68414
997.068	33.54542
997.237	39.86879
997.406	14.57659
997.576	73.59693
997.745	6.14661
997.914	41.97663
998.083	-10.71218
998.252	54.62413
998.421	56.73213
998.59	31.43768
998.759	54.62413
998.928	-6.49763
999.097	23.00695
999.266	35.65319
999.435	-35.99745
999.604	48.30027
999.773	82.02988
999.942	27.22227
1000.111	-10.71218
1000.28	18.79172
1000.448	58.84015
1000.617	31.43768
1000.786	75.70514
1000.955	115.76524
1001.124	37.76098
1001.292	-44.42508
1001.461	52.51615
1001.63	39.86879
1001.798	-2.28298
1001.967	6.14661
1002.136	-76.0251
1002.304	-10.71218
1002.473	67.27246
1002.642	65.16435
1002.81	18.79172
1002.979	1.93177
1003.147	-0.17561
1003.316	14.57659
1003.484	-17.03383
1003.653	35.65319
1003.821	33.54542
1003.99	35.65319
1004.158	14.57659
1004.327	33.54542
1004.495	-35.99745
1004.663	-35.99745
1004.832	86.24649
1005	23.00695
1005.168	33.54542
1005.337	-50.74553
1005.505	63.05626
1005.673	23.00695
1005.842	6.14661
1006.01	-27.56942
1006.178	-8.60492
1006.346	84.13817
1006.514	-23.35526
1006.683	29.32996
1006.851	37.76098
1007.019	-35.99745
1007.187	-2.28298
1007.355	-2.28298
1007.523	-27.56942
1007.691	52.51615
1007.859	37.76098
1008.027	-27.56942
1008.195	25.11459
1008.363	-23.35526
1008.531	-10.71218
1008.699	75.70514
1008.867	33.54542
1009.035	44.08449
1009.203	18.79172
1009.37	-14.92664
1009.538	-25.46235
1009.706	65.16435
1009.874	44.08449
1010.042	-0.17561
1010.209	23.00695
1010.377	31.43768
1010.545	-31.78348
1010.713	56.73213
1010.88	33.54542
1011.048	6.14661
1011.216	1.93177
1011.383	-17.03383
1011.551	27.22227
1011.718	33.54542
1011.886	-2.28298
1012.054	-27.56942
1012.221	50.4082
1012.389	33.54542
1012.556	-48.63874
1012.724	-84.4508
1012.891	14.57659
1013.058	56.73213
1013.226	-59.17246
1013.393	23.00695
1013.561	23.00695
1013.728	23.00695
1013.895	10.36155
1014.063	-8.60492
1014.23	10.36155
1014.397	8.25407
1014.565	27.22227
1014.732	52.51615
1014.899	6.14661
1015.066	107.33087
1015.233	12.46906
1015.401	8.25407
1015.568	25.11459
1015.735	23.00695
1015.902	48.30027
1016.069	8.25407
1016.236	39.86879
1016.403	23.00695
1016.57	14.57659
1016.737	-23.35526
1016.904	-35.99745
1017.071	-50.74553
1017.238	33.54542
1017.405	-2.28298
1017.572	10.36155
1017.739	23.00695
1017.906	-40.21131
1018.073	48.30027
1018.24	82.02988
1018.407	73.59693
1018.573	8.25407
1018.74	-38.10439
1018.907	8.25407
1019.074	8.25407
1019.241	-29.67646
1019.407	-14.92664
1019.574	-33.89048
1019.741	20.89932
1019.907	41.97663
1020.074	77.81336
1020.241	23.00695
1020.407	27.22227
1020.574	52.51615
1020.74	-2.28298
1020.907	8.25407
1021.073	-27.56942
1021.24	39.86879
1021.406	6.14661
1021.573	-80.238
1021.739	73.59693
1021.906	48.30027
1022.072	18.79172
1022.239	67.27246
1022.405	6.14661
1022.571	-10.71218
1022.738	56.73213
1022.904	58.84015
1023.07	35.65319
1023.237	69.38059
1023.403	-0.17561
1023.569	58.84015
1023.735	20.89932
1023.902	14.57659
1024.068	77.81336
1024.234	-6.49763
1024.4	14.57659
1024.566	25.11459
1024.732	8.25407
1024.898	-2.28298
1025.065	-4.39031
1025.231	-52.8523
1025.397	-10.71218
1025.563	-27.56942
1025.729	-14.92664
1025.895	16.68414
1026.061	-17.03383
1026.227	-14.92664
1026.392	16.68414
1026.558	82.02988
1026.724	58.84015
1026.89	23.00695
1027.056	-31.78348
1027.222	-59.17246
1027.388	75.70514
1027.553	-94.98234
1027.719	-27.56942
1027.885	77.81336
1028.051	-2.28298
1028.216	27.22227
1028.382	14.57659
1028.548	14.57659
1028.713	-10.71218
1028.879	14.57659
1029.045	6.14661
1029.21	-19.141
1029.376	77.81336
1029.541	58.84015
1029.707	86.24649
1029.873	23.00695
1030.038	-35.99745
1030.204	8.25407
1030.369	25.11459
1030.534	-44.42508
1030.7	25.11459
1030.865	-27.56942
1031.031	1.93177
1031.196	31.43768
1031.361	14.57659
1031.527	39.86879
1031.692	-10.71218
1031.857	39.86879
1032.023	44.08449
1032.188	10.36155
1032.353	-48.63874
1032.518	56.73213
1032.684	-2.28298
1032.849	46.19237
1033.014	39.86879
1033.179	10.36155
1033.344	94.67998
1033.509	-27.56942
1033.674	1.93177
1033.839	-0.17561
1034.004	35.65319
1034.17	27.22227
1034.335	73.59693
1034.5	25.11459
1034.664	23.00695
1034.829	-2.28298
1034.994	31.43768
1035.159	39.86879
1035.324	16.68414
1035.489	60.94819
1035.654	23.00695
1035.819	48.30027
1035.984	56.73213
1036.148	-31.78348
1036.313	60.94819
1036.478	12.46906
1036.643	48.30027
1036.807	6.14661
1036.972	84.13817
1037.137	-27.56942
1037.301	-10.71218
1037.466	31.43768
1037.631	6.14661
1037.795	-19.141
1037.96	14.57659
1038.124	69.38059
1038.289	-2.28298
1038.454	-12.81942
1038.618	6.14661
1038.783	1.93177
1038.947	-33.89048
1039.111	-52.8523
1039.276	12.46906
1039.44	-12.81942
1039.605	-35.99745
1039.769	6.14661
1039.933	33.54542
1040.098	-59.17246
1040.262	50.4082
1040.426	48.30027
1040.591	-10.71218
1040.755	-0.17561
1040.919	23.00695
1041.083	-4.39031
1041.248	-17.03383
1041.412	-0.17561
1041.576	-23.35526
1041.74	48.30027
1041.904	-31.78348
1042.068	6.14661
1042.232	60.94819
1042.397	-33.89048
1042.561	-6.49763
1042.725	44.08449
1042.889	77.81336
1043.053	18.79172
1043.217	14.57659
1043.381	-8.60492
1043.544	41.97663
1043.708	33.54542
1043.872	35.65319
1044.036	18.79172
1044.2	25.11459
1044.364	41.97663
1044.528	18.79172
1044.691	48.30027
1044.855	-23.35526
1045.019	-6.49763
1045.183	-6.49763
1045.346	33.54542
1045.51	31.43768
1045.674	-8.60492
1045.837	107.33087
1046.001	8.25407
1046.165	10.36155
1046.328	-33.89048
1046.492	14.57659
1046.655	-33.89048
1046.819	56.73213
1046.983	8.25407
1047.146	23.00695
1047.31	52.51615
1047.473	44.08449
1047.636	56.73213
1047.8	33.54542
1047.963	12.46906
1048.127	41.97663
1048.29	65.16435
