Data from mixed_try1_USB4F045381__17__00039.txt Node

Date: Thu Apr 03 19:33:31 EDT 2025
User: mmckonesweet
Spectrometer: USB4F04538
Trigger mode: 4
Integration Time (sec): 2.700000E-3
Scans to average: 1
Electric dark correction enabled: true
Nonlinearity correction enabled: true
Boxcar width: 0
XAxis mode: Wavelengths
Number of Pixels in Spectrum: 3648
>>>>>Begin Spectral Data<<<<<
345.52	43.20621
345.736	43.20621
345.952	43.20621
346.168	-30.55439
346.384	22.12877
346.6	36.88273
346.816	-13.69743
347.032	-7.37567
347.248	-81.11567
347.464	-13.69743
347.68	-62.1569
347.896	24.2364
348.112	20.02115
348.328	38.99053
348.544	30.55946
348.76	7.37596
348.975	20.02115
349.191	47.42198
349.407	28.45175
349.623	15.80599
349.839	-28.44736
350.055	17.91356
350.27	28.45175
350.486	-28.44736
350.702	-36.87534
350.918	-36.87534
351.133	-36.87534
351.349	-41.08919
351.565	-17.91182
351.781	5.26851
351.996	22.12877
352.212	7.37596
352.428	-22.12611
352.644	-26.3403
352.859	-17.91182
353.075	-3.16104
353.291	-30.55439
353.506	38.99053
353.722	53.7458
353.938	74.82672
354.153	-28.44736
354.369	30.55946
354.584	22.12877
354.8	-22.12611
355.016	24.2364
355.231	-9.48295
355.447	-51.62336
355.662	-38.98228
355.878	3.16109
356.093	-11.5902
356.309	-20.01897
356.524	5.26851
356.74	38.99053
356.955	-45.30293
357.171	7.37596
357.386	30.55946
357.602	66.39408
357.817	-9.48295
358.033	-64.26353
358.248	-30.55439
358.464	15.80599
358.679	-30.55439
358.895	-22.12611
359.11	36.88273
359.325	-5.26836
359.541	81.15143
359.756	79.04317
359.972	-5.26836
360.187	-43.19607
360.402	-22.12611
360.618	38.99053
360.833	-34.76838
361.048	-64.26353
361.264	32.66719
361.479	-36.87534
361.694	13.69845
361.909	20.02115
362.125	45.31408
362.34	-72.68981
362.555	36.88273
362.77	-26.3403
362.986	-43.19607
363.201	45.31408
363.416	5.26851
363.631	3.16109
363.847	70.61035
364.062	-30.55439
364.277	-7.37567
364.492	-11.5902
364.707	38.99053
364.922	-60.05024
365.138	5.26851
365.353	-36.87534
365.568	53.7458
365.783	30.55946
365.998	64.28597
366.213	49.5299
366.428	5.26851
366.643	-1.05368
366.858	-3.16104
367.073	-38.98228
367.288	-28.44736
367.503	-17.91182
367.718	-5.26836
367.933	-34.76838
368.148	32.66719
368.363	-41.08919
368.578	-22.12611
368.793	-38.98228
369.008	9.48343
369.223	13.69845
369.438	-28.44736
369.653	-3.16104
369.868	38.99053
370.083	20.02115
370.298	-15.80464
370.513	38.99053
370.728	11.59093
370.943	13.69845
371.157	49.5299
371.372	-85.32845
371.587	38.99053
371.802	-68.47672
372.017	24.2364
372.232	-15.80464
372.446	41.09836
372.661	-26.3403
372.876	-66.37014
373.091	-64.26353
373.306	87.47635
373.52	43.20621
373.735	-47.40976
373.95	15.80599
374.165	-5.26836
374.379	-30.55439
374.594	-24.23321
374.809	-55.83685
375.023	68.5022
375.238	36.88273
375.453	-17.91182
375.667	15.80599
375.882	11.59093
376.097	-36.87534
376.311	7.37596
376.526	30.55946
376.741	-15.80464
376.955	62.17789
377.17	17.91356
377.384	-72.68981
377.599	-28.44736
377.813	45.31408
378.028	-28.44736
378.242	53.7458
378.457	11.59093
378.672	53.7458
378.886	-38.98228
379.101	-1.05368
379.315	-76.90279
379.53	22.12877
379.744	38.99053
379.958	-5.26836
380.173	-30.55439
380.387	-30.55439
380.602	-9.48295
380.816	-53.73012
381.031	20.02115
381.245	17.91356
381.459	11.59093
381.674	-28.44736
381.888	-64.26353
382.103	-55.83685
382.317	13.69845
382.531	41.09836
382.746	-36.87534
382.96	15.80599
383.174	85.36802
383.388	64.28597
383.603	30.55946
383.817	13.69845
384.031	36.88273
384.246	45.31408
384.46	41.09836
384.674	-51.62336
384.888	-9.48295
385.103	9.48343
385.317	-38.98228
385.531	-1.05368
385.745	28.45175
385.959	-60.05024
386.174	-38.98228
386.388	11.59093
386.602	-41.08919
386.816	70.61035
387.03	-30.55439
387.244	11.59093
387.458	-38.98228
387.672	20.02115
387.887	-5.26836
388.101	-30.55439
388.315	-1.05368
388.529	36.88273
388.743	70.61035
388.957	-62.1569
389.171	7.37596
389.385	13.69845
389.599	-26.3403
389.813	-30.55439
390.027	7.37596
390.241	-3.16104
390.455	55.85379
390.669	7.37596
390.883	-9.48295
391.097	11.59093
391.311	-5.26836
391.525	36.88273
391.738	41.09836
391.952	-38.98228
392.166	-9.48295
392.38	-26.3403
392.594	-28.44736
392.808	-17.91182
393.022	13.69845
393.236	13.69845
393.449	5.26851
393.663	-81.11567
393.877	7.37596
394.091	45.31408
394.305	49.5299
394.518	-47.40976
394.732	38.99053
394.946	5.26851
395.16	-26.3403
395.373	49.5299
395.587	36.88273
395.801	53.7458
396.015	36.88273
396.228	89.5847
396.442	-9.48295
396.656	-22.12611
396.869	9.48343
397.083	-47.40976
397.297	11.59093
397.51	11.59093
397.724	-30.55439
397.938	15.80599
398.151	-11.5902
398.365	-45.30293
398.578	-15.80464
398.792	28.45175
399.005	-30.55439
399.219	13.69845
399.433	7.37596
399.646	-22.12611
399.86	11.59093
400.073	57.9618
400.287	11.59093
400.5	-5.26836
400.714	9.48343
400.927	-17.91182
401.141	57.9618
401.354	3.16109
401.567	-15.80464
401.781	70.61035
401.994	-38.98228
402.208	-36.87534
402.421	-47.40976
402.635	-22.12611
402.848	38.99053
403.061	5.26851
403.275	-38.98228
403.488	38.99053
403.701	-9.48295
403.915	-13.69743
404.128	-11.5902
404.341	-30.55439
404.555	24.2364
404.768	-24.23321
404.981	5.26851
405.195	28.45175
405.408	5.26851
405.621	-62.1569
405.834	41.09836
406.048	-5.26836
406.261	20.02115
406.474	-5.26836
406.687	30.55946
406.9	41.09836
407.114	-81.11567
407.327	15.80599
407.54	3.16109
407.753	-11.5902
407.966	-1.05368
408.179	-1.05368
408.392	24.2364
408.605	22.12877
408.819	68.5022
409.032	1.05369
409.245	34.77495
409.458	-1.05368
409.671	-9.48295
409.884	45.31408
410.097	-28.44736
410.31	-9.48295
410.523	-38.98228
410.736	-17.91182
410.949	45.31408
411.162	34.77495
411.375	-47.40976
411.588	-36.87534
411.801	-60.05024
412.014	-9.48295
412.227	-34.76838
412.44	85.36802
412.653	-13.69743
412.865	15.80599
413.078	22.12877
413.291	89.5847
413.504	36.88273
413.717	-22.12611
413.93	-45.30293
414.143	36.88273
414.356	60.06984
414.568	-5.26836
414.781	38.99053
414.994	-1.05368
415.207	11.59093
415.42	45.31408
415.632	-13.69743
415.845	20.02115
416.058	32.66719
416.271	-9.48295
416.483	87.47635
416.696	-30.55439
416.909	3.16109
417.121	-64.26353
417.334	20.02115
417.547	45.31408
417.759	-15.80464
417.972	3.16109
418.185	70.61035
418.397	-41.08919
418.61	-7.37567
418.823	3.16109
419.035	-15.80464
419.248	-22.12611
419.46	-9.48295
419.673	-13.69743
419.885	-1.05368
420.098	-7.37567
420.311	30.55946
420.523	-38.98228
420.736	-13.69743
420.948	-1.05368
421.161	43.20621
421.373	11.59093
421.586	53.7458
421.798	-36.87534
422.01	-17.91182
422.223	47.42198
422.435	-47.40976
422.648	-26.3403
422.86	-13.69743
423.073	3.16109
423.285	7.37596
423.497	104.34378
423.71	28.45175
423.922	-41.08919
424.134	-11.5902
424.347	87.47635
424.559	-13.69743
424.771	-43.19607
424.984	-70.58328
425.196	20.02115
425.408	-24.23321
425.621	-3.16104
425.833	41.09836
426.045	70.61035
426.257	-3.16104
426.47	-13.69743
426.682	32.66719
426.894	-53.73012
427.106	-30.55439
427.318	74.82672
427.531	-7.37567
427.743	142.30062
427.955	-22.12611
428.167	51.63784
428.379	-55.83685
428.591	-36.87534
428.804	36.88273
429.016	62.17789
429.228	-3.16104
429.44	-11.5902
429.652	-20.01897
429.864	11.59093
430.076	24.2364
430.288	-93.7537
430.5	49.5299
430.712	53.7458
430.924	20.02115
431.136	-13.69743
431.348	13.69845
431.56	30.55946
431.772	85.36802
431.984	15.80599
432.196	-5.26836
432.408	3.16109
432.62	13.69845
432.832	-30.55439
433.044	-30.55439
433.256	41.09836
433.468	-55.83685
433.679	53.7458
433.891	-9.48295
434.103	74.82672
434.315	-72.68981
434.527	-3.16104
434.739	-36.87534
434.95	-53.73012
435.162	62.17789
435.374	26.34407
435.586	-9.48295
435.798	-38.98228
436.009	32.66719
436.221	38.99053
436.433	64.28597
436.645	72.71852
436.856	-11.5902
437.068	64.28597
437.28	5.26851
437.491	-17.91182
437.703	-15.80464
437.915	-32.6614
438.126	-26.3403
438.338	36.88273
438.55	45.31408
438.761	38.99053
438.973	-1.05368
439.184	45.31408
439.396	-22.12611
439.608	-13.69743
439.819	-1.05368
440.031	45.31408
440.242	-34.76838
440.454	11.59093
440.665	98.01833
440.877	22.12877
441.088	-55.83685
441.3	87.47635
441.511	-55.83685
441.723	-43.19607
441.934	13.69845
442.146	-30.55439
442.357	3.16109
442.569	28.45175
442.78	-28.44736
442.991	47.42198
443.203	11.59093
443.414	-55.83685
443.626	7.37596
443.837	57.9618
444.048	-9.48295
444.26	-20.01897
444.471	-43.19607
444.682	36.88273
444.894	45.31408
445.105	20.02115
445.316	3.16109
445.528	-30.55439
445.739	-30.55439
445.95	-11.5902
446.161	-17.91182
446.373	-53.73012
446.584	36.88273
446.795	30.55946
447.006	-1.05368
447.217	11.59093
447.429	9.48343
447.64	-20.01897
447.851	17.91356
448.062	51.63784
448.273	-9.48295
448.484	-26.3403
448.695	-28.44736
448.907	45.31408
449.118	7.37596
449.329	-102.17852
449.54	13.69845
449.751	32.66719
449.962	20.02115
450.173	28.45175
450.384	49.5299
450.595	-13.69743
450.806	53.7458
451.017	3.16109
451.228	13.69845
451.439	5.26851
451.65	30.55946
451.861	-3.16104
452.072	62.17789
452.283	20.02115
452.494	43.20621
452.705	72.71852
452.915	-43.19607
453.126	-22.12611
453.337	24.2364
453.548	30.55946
453.759	28.45175
453.97	13.69845
454.181	32.66719
454.391	-5.26836
454.602	5.26851
454.813	24.2364
455.024	30.55946
455.235	22.12877
455.445	5.26851
455.656	22.12877
455.867	30.55946
456.078	-11.5902
456.288	22.12877
456.499	7.37596
456.71	13.69845
456.921	66.39408
457.131	20.02115
457.342	-72.68981
457.553	22.12877
457.763	-62.1569
457.974	66.39408
458.184	36.88273
458.395	-49.51657
458.606	66.39408
458.816	57.9618
459.027	5.26851
459.237	-5.26836
459.448	95.90989
459.659	-51.62336
459.869	91.69308
460.08	-38.98228
460.29	70.61035
460.501	-79.00925
460.711	47.42198
460.922	87.47635
461.132	20.02115
461.343	70.61035
461.553	47.42198
461.764	55.85379
461.974	20.02115
462.184	28.45175
462.395	-20.01897
462.605	-55.83685
462.816	-5.26836
463.026	28.45175
463.236	66.39408
463.447	53.7458
463.657	70.61035
463.867	7.37596
464.078	53.7458
464.288	-60.05024
464.498	-28.44736
464.709	-26.3403
464.919	49.5299
465.129	49.5299
465.339	13.69845
465.55	-22.12611
465.76	20.02115
465.97	41.09836
466.18	28.45175
466.391	-22.12611
466.601	-5.26836
466.811	24.2364
467.021	-22.12611
467.231	28.45175
467.441	49.5299
467.651	62.17789
467.862	-1.05368
468.072	41.09836
468.282	36.88273
468.492	-7.37567
468.702	-53.73012
468.912	108.56086
469.122	7.37596
469.332	41.09836
469.542	-47.40976
469.752	11.59093
469.962	38.99053
470.172	47.42198
470.382	13.69845
470.592	20.02115
470.802	45.31408
471.012	15.80599
471.222	36.88273
471.432	62.17789
471.642	45.31408
471.852	53.7458
472.062	55.85379
472.272	91.69308
472.482	49.5299
472.691	51.63784
472.901	138.08285
473.111	36.88273
473.321	81.15143
473.531	20.02115
473.741	57.9618
473.95	45.31408
474.16	13.69845
474.37	1.05369
474.58	127.53879
474.79	62.17789
474.999	41.09836
475.209	41.09836
475.419	53.7458
475.628	87.47635
475.838	79.04317
476.048	154.95444
476.258	104.34378
476.467	89.5847
476.677	70.61035
476.886	81.15143
477.096	72.71852
477.306	72.71852
477.515	123.32132
477.725	100.12679
477.935	45.31408
478.144	62.17789
478.354	114.88664
478.563	112.77803
478.773	41.09836
478.982	104.34378
479.192	36.88273
479.401	91.69308
479.611	11.59093
479.82	112.77803
480.03	121.21262
480.239	157.06349
480.449	150.73642
480.658	173.93659
480.868	142.30062
481.077	98.01833
481.287	129.64756
481.496	62.17789
481.705	121.21262
481.915	87.47635
482.124	180.26435
482.333	201.3582
482.543	121.21262
482.752	129.64756
482.961	129.64756
483.171	146.51847
483.38	150.73642
483.589	142.30062
483.799	201.3582
484.008	144.40954
484.217	239.33216
484.426	148.62743
484.636	154.95444
484.845	264.65165
485.054	112.77803
485.263	197.13926
485.472	192.92041
485.682	230.89295
485.891	222.45405
486.1	207.68674
486.309	205.57721
486.518	237.22233
486.727	138.08285
486.936	235.11252
487.146	199.24872
487.355	239.33216
487.564	251.99156
487.773	273.09208
487.982	308.96725
488.191	197.13926
488.4	302.63595
488.609	323.7409
488.818	239.33216
489.027	226.67346
489.236	287.86356
489.445	323.7409
489.654	264.65165
489.863	342.73688
490.072	325.8515
490.281	332.18339
490.49	308.96725
490.698	268.87183
490.907	281.53282
491.116	378.62201
491.325	264.65165
491.534	365.95611
491.743	425.06875
491.952	444.07193
492.16	416.6233
492.369	382.84411
492.578	490.52941
492.787	384.95518
492.996	437.73739
493.204	496.86509
493.413	416.6233
493.622	494.75318
493.831	391.28851
494.039	520.09701
494.248	467.29976
494.457	560.2289
494.665	520.09701
494.874	534.88186
495.083	412.40067
495.291	566.56597
495.5	530.65755
495.709	556.00426
495.917	564.4536
496.126	623.60489
496.335	587.69039
496.543	634.16867
496.752	566.56597
496.96	610.92877
497.169	517.98495
497.377	651.07135
497.586	636.28146
497.794	682.76593
498.003	522.20909
498.211	722.91607
498.42	613.04142
498.628	767.29705
498.837	670.08778
499.045	712.34986
499.254	678.53983
499.462	758.84318
499.671	847.61653
499.879	788.43243
500.087	845.50269
500.296	822.25103
500.504	697.55762
500.713	807.4551
500.921	822.25103
501.129	832.81983
501.338	733.48255
501.546	815.90986
501.754	919.49208
501.962	904.69341
502.171	942.74787
502.379	1010.40594
502.587	879.32516
502.795	885.66711
503.004	815.90986
503.212	1016.74922
503.42	1046.35194
503.628	1023.09256
503.837	993.49078
504.045	1152.08439
504.253	1020.97811
504.461	1175.34704
504.669	1025.20702
504.877	1278.97661
505.085	1135.1664
505.294	1215.52905
505.502	1067.49742
505.71	1120.3634
505.918	1124.5928
506.126	1219.75881
506.334	1059.03916
506.542	1427.02772
506.75	1139.39587
506.958	1317.0462
507.166	1196.49531
507.374	1245.1376
507.582	1181.69149
507.79	1427.02772
507.998	1190.15079
508.206	1410.10733
508.414	1331.85121
508.622	1300.1263
508.83	1333.96622
509.037	1374.15163
509.245	1321.2762
509.453	1359.34643
509.661	1424.91267
509.869	1460.86855
510.077	1405.87723
510.285	1467.2137
510.492	1458.75349
510.7	1577.1955
510.908	1363.57648
511.116	1589.8855
511.324	1486.24916
511.531	1456.63844
511.739	1462.9836
511.947	1646.98964
512.155	1517.97483
512.362	1670.25381
512.57	1465.09865
512.778	1737.9294
512.985	1655.44938
513.193	1765.42162
513.401	1619.49525
513.608	1661.79415
513.816	1697.7474
514.024	1775.99537
514.231	1693.51765
514.439	1714.66628
514.646	1592.00049
514.854	1976.87447
515.061	1710.43658
515.269	1845.77955
515.477	1778.11012
515.684	1913.44409
515.892	1917.67295
516.099	1998.01672
516.307	1991.67411
516.514	2057.21151
516.722	1744.27381
516.929	2131.19714
517.136	1943.0456
517.344	1866.92528
517.551	1837.32112
517.759	1930.35937
517.966	1959.96023
518.173	2236.87405
518.381	2131.19714
518.588	2285.47813
518.796	2076.23725
519.003	2266.45972
519.21	2050.86947
519.418	2205.17319
519.625	2167.12962
519.832	2251.6671
520.039	2308.72183
520.247	2416.47254
520.454	2277.0256
520.661	2467.16941
520.868	2069.8954
521.076	2369.99506
521.283	2395.34703
521.49	2365.76959
521.697	2382.67123
521.904	2405.90992
522.112	2093.14853
522.319	2462.94491
522.526	2302.38275
522.733	2420.69751
522.94	2435.48459
523.147	2479.84265
523.354	2378.44588
523.561	2600.21791
523.768	2534.75534
523.975	2600.21791
524.183	2462.94491
524.39	2657.2242
524.597	2481.95482
524.804	2796.53355
525.011	2617.1096
525.218	2745.88226
525.425	2775.4298
525.632	2842.95698
525.838	2557.9853
526.045	2826.07651
526.252	2678.33533
526.459	2918.90784
526.666	2760.65636
526.873	2906.25066
527.08	2855.61674
527.287	3091.83529
527.494	2726.88604
527.701	2847.17695
527.907	2798.64386
528.114	2999.05765
528.321	2982.1858
528.528	3180.36726
528.735	2902.03148
528.941	3197.22725
529.148	3024.3636
529.355	3197.22725
529.562	3028.58105
529.768	3159.2908
529.975	2923.12678
530.182	3287.8315
530.388	3211.97888
530.595	3281.51128
530.802	3024.3636
531.008	3292.04489
531.215	3237.2655
531.422	3325.74957
531.628	3311.00431
531.835	3500.52068
532.042	3249.90791
532.248	3540.51112
532.455	3508.94027
532.661	3633.0949
532.868	3441.57544
533.074	3542.61569
533.281	3618.36809
533.487	3664.64925
533.694	3399.4631
533.9	3740.36214
534.107	3323.64315
534.313	3843.37535
534.52	3574.18212
534.726	3673.06302
534.933	3612.05631
535.139	3948.44175
535.345	3744.56768
535.552	3813.94782
535.758	3818.15199
535.965	3877.00205
536.171	3830.76402
536.377	3898.01614
536.584	3719.33328
536.79	3855.98596
536.996	4017.75788
537.203	4076.55404
537.409	3820.25404
537.615	3950.54257
537.821	3839.17165
538.028	4108.04529
538.234	4036.65841
538.44	4057.65704
538.646	4084.95216
538.853	4114.34298
539.059	4038.75837
539.265	4080.75314
539.471	4126.93779
539.677	4309.47706
539.883	4072.35485
540.09	4345.12675
540.296	4231.86509
540.502	4466.70785
540.708	4013.55754
540.914	4250.74637
541.12	4240.25698
541.326	4416.40734
541.532	4391.25236
541.738	4336.73915
541.944	4374.48063
542.15	4487.66267
542.356	4313.67147
542.562	4481.37646
542.768	4334.6422
542.974	4697.08876
543.18	4462.51663
543.386	4560.98713
543.592	4454.13391
543.798	4759.87286
544.004	4651.03418
544.21	4713.83317
544.415	4443.65502
544.621	4843.55326
544.827	4588.21501
545.033	4912.56212
545.239	4753.59537
545.445	5052.59408
545.651	4920.92514
545.856	5077.66349
546.062	4780.79637
546.268	5014.98372
546.474	5014.98372
546.679	4910.47131
546.885	4736.85438
547.091	4839.37011
547.297	4854.01075
547.502	4900.01691
547.708	4835.18686
547.914	5171.64401
548.119	4908.38048
548.325	5065.1292
548.531	4935.55953
548.736	5173.73193
548.942	4902.10784
549.147	5207.1355
549.353	5060.95092
549.559	5278.09826
549.764	5040.05813
549.97	5349.03398
550.175	5182.08338
550.381	5405.34598
550.586	5140.3224
550.792	5415.77225
550.997	5096.46335
551.203	5371.97797
551.408	5278.09826
551.614	5651.24907
551.819	5378.23493
552.025	5524.17062
552.23	5497.07699
552.435	5494.9927
552.641	5440.79291
552.846	5630.42255
553.052	5561.6783
553.257	5661.66144
553.462	5649.16652
553.668	5632.50531
553.873	5755.34628
554.078	5863.54478
554.283	5513.75046
554.489	5711.63264
554.694	5669.99092
554.899	5667.90859
555.105	5653.33159
555.31	6036.11408
555.515	5663.74385
555.72	5915.54058
555.925	5863.54478
556.131	6017.4096
556.336	5848.98332
556.541	5907.22224
556.746	5694.97708
556.951	6102.60347
557.156	5786.56393
557.361	6104.68088
557.567	6031.95769
557.772	6310.22782
557.977	5961.28469
558.182	6191.91069
558.387	6083.90577
558.592	6297.77697
558.797	5801.13036
559.002	6127.53079
559.207	6011.17434
559.412	6368.32068
559.617	6106.75826
559.822	6474.08572
560.027	6110.91295
560.232	6370.39509
560.437	6281.17452
560.642	6262.49497
560.847	6200.21613
561.051	6362.09732
561.256	6351.72459
561.461	6509.3273
561.666	6169.06879
561.871	6434.69013
562.076	6434.69013
562.281	6519.69119
562.485	6422.24768
562.69	6430.54274
562.895	6299.85217
563.1	6434.69013
563.305	6501.03576
563.509	6550.7794
563.714	6428.46901
563.919	6741.34016
564.123	6316.45293
564.328	6635.72729
564.533	6293.62649
564.737	6749.621
564.942	6759.97154
565.147	6900.68218
565.351	6509.3273
565.556	6722.70694
565.761	6697.85974
565.965	6824.13209
566.17	6519.69119
566.374	6908.956
566.579	6639.8701
566.784	6836.54774
566.988	6834.47852
567.193	6927.57078
567.397	6859.30762
567.602	6989.60681
567.806	6927.57078
568.011	6840.6861
568.215	7082.6229
568.42	6999.94418
568.624	6575.64622
568.828	7121.88274
569.033	6929.63897
569.237	7429.48563
569.442	7175.5937
569.646	6993.74183
569.85	7121.88274
570.055	7377.90841
570.259	7074.35664
570.463	7443.92482
570.668	7074.35664
570.872	7266.45502
571.076	7324.25364
571.281	7059.88983
571.485	7243.7437
571.689	7344.89184
571.893	7012.34828
572.098	7507.85707
572.302	7157.00314
572.506	7650.0838
572.71	7216.8996
572.914	7520.22866
573.119	7369.65479
573.323	7476.9247
573.527	7668.62764
573.731	7575.89125
573.935	7472.80002
574.139	7753.08346
574.343	7526.41416
574.547	7639.78093
574.751	7456.30043
574.955	7547.03111
575.159	7633.59895
575.364	7685.10961
575.568	7724.24887
575.772	7635.65963
575.976	7625.35602
576.18	7685.10961
576.383	7596.50306
576.587	7835.44541
576.791	7590.31974
576.995	7903.36898
577.199	7596.50306
577.403	7588.25859
577.607	7847.79683
577.811	7991.84181
578.015	7917.77412
578.219	7744.84543
578.422	7720.1293
578.626	7987.72763
578.83	7901.31102
579.034	7987.72763
579.238	7853.97226
579.442	8294.01326
579.645	7987.72763
579.849	7911.60061
580.053	8160.45328
580.257	8306.33768
580.46	8220.05191
580.664	7975.38461
580.868	7825.15199
581.071	8370.00264
581.275	8055.60113
581.479	8287.85079
581.682	8139.89815
581.886	8296.06738
582.09	8300.17556
582.293	8357.68185
582.497	8028.86572
582.7	8203.61258
582.904	8144.00934
583.107	8363.84233
583.311	8226.21633
583.515	8507.53769
583.718	8269.36231
583.922	8542.421
584.125	8423.38469
584.329	8489.06783
584.532	8450.07083
584.735	8712.65577
584.939	8211.8324
585.142	8569.09279
585.346	8606.01771
585.549	8731.10727
585.753	8589.60739
585.956	8644.98744
586.159	8497.27684
586.363	8882.76372
586.566	8770.05558
586.769	8843.83436
586.973	8710.60551
587.176	8878.6662
587.379	8802.84905
587.582	9048.65374
587.786	8745.45742
587.989	8782.35368
588.192	8972.89118
588.395	9159.18346
588.599	8753.6571
588.802	9183.73883
589.005	8993.36992
589.208	9181.69264
589.411	9069.12601
589.615	9153.04424
589.818	8999.51319
590.021	9308.52437
590.224	9017.94208
590.427	9351.46897
590.63	8884.81245
590.833	9140.76532
591.036	9118.25238
591.239	9480.25944
591.442	9283.98132
591.645	9324.88508
591.848	9275.79977
592.051	9339.19983
592.254	9328.97509
592.457	9349.42415
592.66	9320.795
592.863	9537.4791
593.066	9682.51637
593.269	9525.2188
593.472	9294.20788
593.675	9561.998
593.878	9363.73752
594.081	9874.41847
594.284	9621.24263
594.486	9962.1596
594.689	9702.93786
594.892	9866.25512
595.095	9400.53962
595.298	9719.27395
595.5	9729.48351
595.703	9798.89843
595.906	9533.3924
596.109	9817.27005
596.311	9639.62622
596.514	9737.65088
596.717	9933.59569
596.92	10206.87842
597.122	9817.27005
597.325	10092.70155
597.528	9688.64298
597.73	10162.02841
597.933	9688.64298
598.136	10109.01521
598.338	9778.48409
598.541	10149.79543
598.743	9929.5149
598.946	10035.59664
599.148	10102.89769
599.351	10094.74081
599.554	9947.878
599.756	9974.4004
599.959	10082.50506
600.161	10072.30821
600.363	10051.91346
600.566	9933.59569
600.768	10078.42636
600.971	10011.1197
601.173	10084.54439
601.376	10357.68928
601.578	10125.32796
601.78	10135.52298
601.983	10249.6836
602.185	10184.45424
602.388	10145.71766
602.59	10571.55422
602.792	10447.32615
602.995	10587.84294
603.197	10251.72179
603.399	10378.06352
603.601	10274.14102
603.804	10390.28743
604.006	10363.80169
604.208	10709.98318
604.41	10302.67222
604.613	10380.10087
604.815	10398.43645
605.017	10858.52877
605.219	10431.03041
605.421	10534.90166
605.623	10655.02553
605.826	10571.55422
606.028	10657.06115
606.23	10573.59035
606.432	10652.98989
606.634	10807.66407
606.836	10204.83992
607.038	10937.86332
607.24	10642.81151
607.442	10652.98989
607.644	10618.38214
607.846	10854.45986
608.048	10834.11462
608.25	10832.08003
608.452	10703.87721
608.654	10534.90166
608.856	10636.70433
609.058	10882.94126
609.26	10693.70035
609.462	10726.26524
609.664	10785.28128
609.866	10817.83759
610.067	10758.82705
610.269	10931.76128
610.471	10830.04543
610.673	10976.50723
610.875	10866.66645
611.077	10966.33817
611.278	10683.52319
611.48	10842.25286
611.682	10803.59457
611.884	11340.38156
612.085	10921.59098
612.287	11163.56882
612.489	10797.49025
612.69	11080.21578
612.892	10809.69879
613.094	11047.68284
613.295	11216.4176
613.497	11155.43761
613.699	11065.98296
613.9	10939.89731
614.102	10956.16884
614.304	11189.9941
614.505	10781.21153
614.707	11000.91183
614.908	10669.27466
615.11	11031.41532
615.311	11126.97702
615.513	11068.01625
615.714	11114.77898
615.916	11118.84504
616.117	10899.21533
616.319	11063.94966
616.52	10891.07839
616.722	11378.98561
616.923	11381.0173
617.124	11381.0173
617.326	10777.14173
617.527	11454.15172
617.729	11315.9982
617.93	11543.52127
618.131	11324.12615
618.333	11086.31539
618.534	10966.33817
618.735	11435.8693
618.937	11096.4812
619.138	11059.88302
619.339	11372.89047
619.54	11541.49034
619.742	11356.63634
619.943	11612.56711
620.144	11456.18305
620.345	11354.60453
620.546	11143.24047
620.748	11561.79915
620.949	11356.63634
621.15	11559.76831
621.351	11362.73171
621.552	11496.80766
621.753	11368.827
621.954	11618.65888
622.155	11226.58002
622.356	11330.222
622.558	11486.65187
622.759	11705.9653
622.96	11389.14398
623.161	11795.28515
623.362	11610.5365
623.563	11695.81424
623.764	11427.74352
623.965	11413.52305
624.166	11606.47526
624.366	11535.39752
624.567	11336.31777
624.768	11638.96419
624.969	11399.3021
625.17	11533.36656
625.371	11295.67762
625.572	11740.47724
625.773	11705.9653
625.973	11965.75924
626.174	11768.89695
626.375	11768.89695
626.576	11809.49359
626.777	11833.84993
626.977	11649.1165
627.178	12121.97717
627.379	11813.55306
627.58	11679.57208
627.78	11793.25534
627.981	11917.05831
628.182	11732.35702
628.382	11811.52333
628.583	11854.14595
628.784	11807.46384
628.984	11448.05766
629.185	11770.92686
629.386	11628.81165
629.586	12048.94597
629.787	11789.1957
629.987	11827.76096
630.188	11659.26859
630.388	11864.29365
630.589	11703.9351
630.79	11870.38216
630.99	11821.67191
631.191	11740.47724
631.391	12083.43417
631.591	12030.68661
631.792	11955.6136
631.992	12284.23399
632.193	11923.14618
632.393	12103.7203
632.594	11864.29365
632.794	11961.701
632.994	11984.02088
633.195	12101.69172
633.395	11866.32316
633.595	12148.34712
633.796	11693.784
633.996	12126.03416
634.196	12239.61802
634.397	12270.03838
634.597	11819.64221
634.797	12239.61802
634.997	11925.17546
635.198	12124.00567
635.398	12050.97475
635.598	12006.33979
635.798	12071.26212
635.998	12312.62419
636.199	12194.99855
636.399	12182.82899
636.599	12343.04073
636.799	12551.86008
636.999	12365.34521
637.199	12310.59636
637.399	12040.83078
637.599	12069.23341
637.799	12304.51284
637.999	12602.53407
638.199	12174.7158
638.399	12381.56613
638.599	12290.31772
638.799	12259.89844
638.999	12359.26225
639.199	12645.09725
639.399	12454.55492
639.599	12697.79084
639.799	12002.28188
639.999	12478.8826
640.199	12239.61802
640.399	12511.31807
640.599	11606.47526
640.799	12778.85017
640.998	12377.51094
641.198	12722.10961
641.398	12507.26372
641.598	12857.87433
641.798	12616.7221
641.997	12592.39959
642.197	12594.4265
642.397	12389.67642
642.597	12527.53518
642.796	12797.08727
642.996	12036.77313
643.196	12608.61469
643.395	12505.23654
643.595	12904.47442
643.795	12480.90987
643.994	12695.76423
644.194	12608.61469
644.394	13021.97543
644.593	12474.82806
644.793	13141.48518
644.992	12788.98195
645.192	12726.16265
645.392	12693.73763
645.591	12817.35017
645.791	12616.7221
645.99	12602.53407
646.19	12685.63113
646.389	12697.79084
646.589	12801.13989
646.788	12991.58889
646.987	12718.05654
647.187	13015.89821
647.386	12815.32391
647.586	12995.64049
647.785	12859.90048
647.984	12989.56308
648.184	13244.77715
648.383	12916.63051
648.582	12993.61469
648.782	13153.63779
648.981	13177.94251
649.18	13060.46346
649.38	13026.02689
649.579	13074.64281
649.778	13198.19594
649.977	13574.83368
650.177	12888.26601
650.376	12959.17532
650.575	12908.52647
650.774	13086.79635
650.973	12963.22709
651.173	13050.3352
651.372	13017.92396
651.571	13350.08275
651.77	13062.48909
651.969	13295.40627
652.168	13019.9497
652.367	13435.12918
652.566	13358.18272
652.765	13228.57525
652.964	13155.66321
653.163	13303.50668
653.362	13455.37731
653.561	13299.45648
653.76	13167.81562
653.959	13333.88263
654.158	13341.98273
654.357	13433.10435
654.556	13254.90319
654.755	13491.82298
654.954	13212.37308
655.153	13208.32249
655.352	13147.5615
655.551	13331.8576
655.749	13431.07951
655.948	13495.87243
656.147	13653.7896
656.346	13775.25051
656.545	13372.3575
656.743	13356.15773
656.942	13052.36086
657.141	13491.82298
657.34	13252.87799
657.538	13422.98012
657.737	13159.71403
657.936	13455.37731
658.135	13404.75626
658.333	13358.18272
658.532	13422.98012
658.731	13443.22848
658.929	13370.33254
659.128	13315.65717
659.326	13303.50668
659.525	13552.56311
659.724	13433.10435
659.922	13807.63822
660.121	13554.58773
660.319	13732.74048
660.518	13177.94251
660.716	13459.42689
660.915	13755.00781
661.113	13665.93621
661.312	13552.56311
661.51	13686.18029
661.709	13627.47153
661.907	13761.08065
662.105	13465.50123
662.304	13840.02517
662.502	13584.95653
662.701	13463.47645
662.899	13787.39599
663.097	13607.22648
663.296	13637.59393
663.494	13997.9015
663.692	13260.97876
663.891	13750.95923
664.089	13601.1529
664.287	13595.07928
664.485	13870.38728
664.684	14107.19155
664.882	13767.15347
665.08	13987.7817
665.278	14030.28445
665.476	13991.82963
665.675	13904.79691
665.873	13912.89318
666.071	13977.66183
666.269	14088.97701
666.467	13882.53195
666.665	13929.0856
666.863	13410.83091
667.061	13649.7407
667.259	13514.09475
667.457	13835.97684
667.655	13734.7648
667.853	14072.78616
668.051	13736.78911
668.249	14038.3801
668.447	13720.5945
668.645	13686.18029
668.843	13582.93196
669.041	13761.08065
669.239	13327.80752
669.437	13722.61884
669.635	13552.56311
669.833	13771.202
670.031	13876.45962
670.229	13649.7407
670.426	13708.44842
670.624	13890.62834
670.822	13732.74048
671.02	14018.14092
671.218	13611.27552
671.415	13586.98108
671.613	13732.74048
671.811	13807.63822
672.009	13805.61401
672.206	13864.31491
672.404	13694.27784
672.602	13825.85597
672.799	13736.78911
672.997	13965.51791
673.195	13777.27477
673.392	13817.75922
673.59	13722.61884
673.788	13886.58015
673.985	13896.7006
674.183	13514.09475
674.38	13360.2077
674.578	13993.85359
674.775	13676.05829
674.973	13678.0827
675.17	13906.82098
675.368	13912.89318
675.565	14093.0247
675.763	14084.92931
675.96	14008.02124
676.158	14103.14389
676.355	13621.39805
676.553	14196.2379
676.75	13757.03209
676.947	14010.04518
677.145	13957.42191
677.342	13813.71083
677.539	13846.09764
677.737	14058.61904
677.934	13868.36316
678.131	13872.4114
678.329	13864.31491
678.526	14048.4996
678.723	14064.69067
678.92	13959.44592
679.118	13676.05829
679.315	13933.13367
679.512	13738.81342
679.709	13989.80566
679.906	13621.39805
680.104	13819.78341
680.301	13536.36606
680.498	13886.58015
680.695	13605.20196
680.892	14196.2379
681.089	13570.78452
681.286	13880.50784
681.483	13684.1559
681.68	13633.54498
681.877	13730.71616
682.075	13714.52148
682.272	13422.98012
682.469	13868.36316
682.665	13690.22907
682.862	13672.00947
683.059	13647.71625
683.256	13773.22626
683.453	13477.64981
683.65	13779.29902
683.847	13514.09475
684.044	13676.05829
684.241	13473.6003
684.438	13688.20468
684.635	13465.50123
684.831	13698.32659
685.028	13714.52148
685.225	13789.42023
685.422	13372.3575
685.619	13680.1071
685.815	13678.0827
686.012	13627.47153
686.209	13443.22848
686.405	13655.81404
686.602	13422.98012
686.799	13471.57554
686.996	13222.49947
687.192	13524.21813
687.389	13499.92186
687.586	13663.91178
687.782	13449.30291
687.979	13669.98505
688.175	13333.88263
688.372	13578.88283
688.568	13234.651
688.765	13546.48925
688.962	13384.50715
689.158	13617.34905
689.355	13449.30291
689.551	13528.26745
689.748	13147.5615
689.944	13437.15401
690.14	13141.48518
690.337	13333.88263
690.533	13392.60684
690.73	13508.02067
690.926	13311.60703
691.123	13479.67456
691.319	13335.90766
691.515	13609.251
691.712	13473.6003
691.908	13252.87799
692.104	13398.68157
692.301	13568.75993
692.497	13165.79023
692.693	13621.39805
692.889	13236.67623
693.086	13493.84771
693.282	13392.60684
693.478	13350.08275
693.674	13139.45973
693.87	13410.83091
694.067	13540.41535
694.263	13469.55077
694.459	13572.8091
694.655	13360.2077
694.851	13418.9304
695.047	13368.30758
695.243	13236.67623
695.439	13289.33092
695.635	12845.71731
695.831	13471.57554
696.027	13269.07946
696.224	13404.75626
696.42	13149.58694
696.615	13556.61234
696.811	13082.74519
697.007	13390.58193
697.203	13129.3324
697.399	13038.18113
697.595	13198.19594
697.791	13481.69931
697.987	13175.91714
698.183	13463.47645
698.379	13052.36086
698.575	13433.10435
698.77	13198.19594
698.966	13202.24658
699.162	13317.68224
699.358	13238.70147
699.554	13121.23046
699.749	13550.53849
699.945	13175.91714
700.141	13281.23038
700.337	13455.37731
700.532	13554.58773
700.728	13327.80752
700.924	13386.53208
701.119	13212.37308
701.315	13094.89862
701.511	13001.71786
701.706	13325.78247
701.902	13161.73943
702.097	13167.81562
702.293	13271.10462
702.489	13562.68615
702.684	13410.83091
702.88	13265.02912
703.075	13107.05187
703.271	13329.83256
703.466	13173.89177
703.662	13568.75993
703.857	12977.40811
704.053	13155.66321
704.248	13256.92838
704.443	13493.84771
704.639	13011.84671
704.834	13123.25595
705.03	13169.84101
705.225	13370.33254
705.42	13192.11996
705.616	13036.15544
705.811	13129.3324
706.006	13139.45973
706.202	13175.91714
706.397	13139.45973
706.592	13082.74519
706.787	13159.71403
706.983	13109.0774
707.178	13305.53177
707.373	12863.95276
707.568	13139.45973
707.763	12995.64049
707.959	13234.651
708.154	13021.97543
708.349	13040.20682
708.544	12914.60451
708.739	12906.50045
708.934	12776.8238
709.129	12835.58631
709.324	12647.124
709.519	12981.45979
709.714	12772.77104
709.909	13236.67623
710.104	12754.53334
710.299	13070.59159
710.494	12797.08727
710.689	12872.05726
710.884	12922.70848
711.079	12920.68249
711.274	12744.40108
711.469	13479.67456
711.664	13143.51062
711.859	13441.20366
712.054	13092.87306
712.249	13309.58195
712.443	12632.93661
712.638	12983.48562
712.833	12381.56613
713.028	12768.71826
713.223	12511.31807
713.417	12908.52647
713.612	13056.41217
713.807	13044.25819
714.002	12884.21386
714.196	13139.45973
714.391	13139.45973
714.586	13135.40881
714.78	12880.16168
714.975	13289.33092
715.17	12965.25296
715.364	13131.35788
715.559	12880.16168
715.754	12819.37643
715.948	12821.40269
716.143	12944.99397
716.337	12693.73763
716.532	13090.8475
716.726	12801.13989
716.921	12817.35017
717.115	12949.04581
717.31	13030.07832
717.504	12947.01989
717.699	13165.79023
717.893	12821.40269
718.088	12799.11358
718.282	12853.82201
718.476	12886.23994
718.671	12486.99163
718.865	12752.5069
719.059	12551.86008
719.254	12703.87061
719.448	12491.0461
719.642	12586.31882
719.837	12324.79099
720.031	12714.00344
720.225	12274.0943
720.419	12649.15074
720.614	12414.00666
720.808	12622.80259
721.002	12203.11144
721.196	12401.84166
721.39	12292.34562
721.585	12693.73763
721.779	12811.27136
721.973	12886.23994
722.167	12387.64886
722.361	12561.99519
722.555	12596.4534
722.749	12855.84817
722.943	12466.71888
723.137	12667.39118
723.331	12401.84166
723.525	12316.67982
723.719	12134.14807
723.913	12663.33779
724.107	12401.84166
724.301	12489.01886
724.495	12251.78635
724.689	12586.31882
724.883	12468.74618
725.077	12434.28112
725.271	12373.45572
725.465	12188.9138
725.659	12182.82899
725.853	12375.48333
726.046	12314.65201
726.24	12296.40139
726.434	12063.14726
726.628	12442.39072
726.822	12405.89669
727.015	12596.4534
727.209	12201.08323
727.403	12349.12385
727.596	12280.17814
727.79	12752.5069
727.984	12799.11358
728.177	12916.63051
728.371	12213.25239
728.565	12231.50565
728.758	12476.85533
728.952	12549.83304
729.146	12377.51094
729.339	12636.99018
729.533	12582.26494
729.726	12685.63113
729.92	12405.89669
730.113	12673.47122
730.307	12420.08907
730.5	12503.20936
730.694	12452.52757
730.887	12677.52455
731.081	12549.83304
731.274	12681.57785
731.468	12462.66425
731.661	12436.30853
731.854	12316.67982
732.048	12363.31756
732.241	12081.40551
732.435	12268.0104
732.628	12294.37351
732.821	12328.84654
733.014	12229.47754
733.208	12097.63454
733.401	12069.23341
733.594	12233.53375
733.788	12249.75832
733.981	12223.39316
734.174	11990.10795
734.367	12111.83454
734.56	12038.80196
734.754	12134.14807
734.947	12201.08323
735.14	12192.97031
735.333	12304.51284
735.526	12434.28112
735.719	12274.0943
735.912	12124.00567
736.105	12304.51284
736.298	12353.17923
736.491	12115.89161
736.684	12077.34818
736.877	12259.89844
737.07	12414.00666
737.263	12178.77241
737.456	12361.28991
737.649	12274.0943
737.842	12205.13965
738.035	12105.74887
738.228	12310.59636
738.421	11949.52611
738.614	12178.77241
738.807	12053.00352
739	12349.12385
739.192	12172.68748
739.385	12239.61802
739.578	12253.81439
739.771	12124.00567
739.964	12292.34562
740.156	12476.85533
740.349	12375.48333
740.542	12381.56613
740.735	11959.67188
740.927	12148.34712
741.12	12085.46281
741.313	11850.08681
741.505	12028.65775
741.698	12192.97031
741.891	11888.64726
742.083	12142.26186
742.276	11890.67668
742.468	11996.19495
742.661	11500.86991
742.854	11746.56732
743.046	11630.84217
743.239	11764.8371
743.431	12073.29081
743.624	11959.67188
743.816	12028.65775
744.009	12316.67982
744.201	12199.05501
744.393	12022.57113
744.586	11919.08761
744.778	11892.70608
744.971	11825.73128
745.163	12050.97475
745.355	11858.20505
745.548	11712.05583
745.74	11618.65888
745.932	11559.76831
746.125	11783.10616
746.317	11979.9628
746.509	11760.77721
746.702	11996.19495
746.894	11571.95321
747.086	11687.69323
747.278	11687.69323
747.471	12134.14807
747.663	11939.38015
747.855	12050.97475
748.047	11953.58444
748.239	12136.17653
748.431	11923.14618
748.623	12101.69172
748.815	11748.59733
749.008	12061.11853
749.2	11992.13696
749.392	12048.94597
749.584	11584.13777
749.776	11584.13777
749.968	12006.33979
750.16	11990.10795
750.352	11740.47724
750.544	11843.99805
750.736	11671.45079
750.928	11846.02764
751.12	11833.84993
751.311	11874.44113
751.503	11850.08681
751.695	11606.47526
751.887	11736.41715
752.079	11892.70608
752.271	11606.47526
752.463	11573.98399
752.654	11679.57208
752.846	11582.10703
753.038	11295.67762
753.23	11584.13777
753.421	11594.29131
753.613	11500.86991
753.805	11697.84447
753.997	11590.22992
754.188	11567.89161
754.38	11417.58609
754.572	11521.1806
754.763	11703.9351
754.955	11616.6283
755.146	11622.72002
755.338	11632.87269
755.53	11482.58948
755.721	11543.52127
755.913	11758.74725
756.104	11578.04553
756.296	11403.36527
756.487	11634.9032
756.679	11439.93212
756.87	11131.04294
757.062	11194.05937
757.253	11322.09418
757.445	11383.04899
757.636	11216.4176
757.827	11226.58002
758.019	11584.13777
758.21	11431.80643
758.401	11238.77458
758.593	11253.00109
758.784	11423.68058
758.975	11330.222
759.167	11350.54087
759.358	11468.37083
759.549	11354.60453
759.74	11220.4826
759.932	11208.28748
760.123	11194.05937
760.314	11061.91635
760.505	10950.0671
760.696	10793.42064
760.888	10929.72724
761.079	10893.11264
761.27	11192.02674
761.461	10846.32191
761.652	10917.52279
761.843	11009.04634
762.034	11279.42043
762.225	11120.87805
762.416	11013.11352
762.607	10925.65914
762.798	11031.41532
762.989	11086.31539
763.18	10825.9762
763.371	10736.44113
763.562	11049.71623
763.753	11118.84504
763.944	10893.11264
764.135	10620.41799
764.326	11082.249
764.517	10681.48772
764.708	10925.65914
764.899	10541.0107
765.089	10740.5114
765.28	10396.39921
765.471	10467.69466
765.662	10355.65178
765.853	10671.3102
766.043	10341.38894
766.234	10880.90695
766.425	10567.48191
766.615	10622.45383
766.806	10683.52319
766.997	10764.93205
767.187	10545.08333
767.378	10467.69466
767.569	10534.90166
767.759	10720.15955
767.95	10736.44113
768.141	10587.84294
768.331	10581.73476
768.522	10783.24641
768.712	10481.95185
768.903	10598.02298
769.093	10424.9193
769.284	10418.80807
769.474	10304.71006
769.665	10296.55861
769.855	10045.79476
770.046	10288.40695
770.236	10082.50506
770.426	10098.81928
770.617	10345.4641
770.807	10282.29306
770.998	10272.10297
771.188	10437.14141
771.378	10378.06352
771.569	10435.10443
771.759	10033.55697
771.949	9860.13246
772.139	10198.72436
772.33	10090.66228
772.52	9970.32019
772.71	10437.14141
772.9	10129.40601
773.09	10325.08775
773.281	10086.5837
773.471	10070.2688
773.661	10162.02841
773.851	9970.32019
774.041	9925.43405
774.231	9872.37766
774.421	9858.09154
774.611	9823.39366
774.802	9602.85777
774.992	9827.47598
775.182	9510.91438
775.372	9888.70376
775.562	9709.06401
775.752	10031.51729
775.942	9696.81158
776.131	9798.89843
776.321	9441.42465
776.511	9739.69268
776.701	9774.40104
776.891	9802.98112
777.081	9711.10603
777.271	9611.02898
777.461	9725.39973
777.651	9827.47598
777.84	9606.94341
778.03	9713.14803
778.22	9623.28531
778.41	9788.69145
778.599	9400.53962
778.789	9768.27636
778.979	9880.54083
779.169	9682.51637
779.358	9764.19316
779.548	9964.19977
779.738	9631.45589
779.927	9794.81568
780.117	9492.52185
780.307	9490.47815
780.496	9529.30563
780.686	9668.22041
780.875	9320.795
781.065	9120.2991
781.254	9062.98451
781.444	9269.66343
781.633	8931.92842
781.823	9453.6889
782.012	9467.99645
782.202	9161.22984
782.391	9150.99779
782.581	9296.25315
782.77	9110.06534
782.96	9247.16224
783.149	9071.17314
783.338	9296.25315
783.528	9308.52437
783.717	9357.60332
783.906	9331.02007
784.096	9376.00547
784.285	9263.52695
784.474	9331.02007
784.663	9187.83116
784.853	9226.70485
785.042	9306.47921
785.231	9314.65976
785.42	9165.32254
785.61	9128.4858
785.799	8940.12154
785.988	9013.8469
786.177	8587.55601
786.366	8800.79959
786.555	9077.31443
786.744	8772.10531
786.933	8815.1454
787.122	8925.78339
787.312	8862.27539
787.501	9040.46435
787.69	8753.6571
787.879	9116.20565
788.068	8829.49032
788.257	8614.22243
788.445	8784.4033
788.634	8882.76372
788.823	8698.30356
789.012	8868.42208
789.201	8694.20277
789.39	8706.50493
789.579	8413.11992
789.768	8759.80667
789.957	8681.89993
790.145	8796.70063
790.334	8482.91086
790.523	8686.00095
790.712	8587.55601
790.9	8753.6571
791.089	8324.82298
791.278	8437.75455
791.467	8330.9844
791.655	8374.10941
791.844	8382.32273
792.033	8427.49046
792.221	8123.4526
792.41	8152.23147
792.599	8300.17556
792.787	8341.25304
792.976	8102.89387
793.164	8160.45328
793.353	8154.28695
793.541	8271.41666
793.73	8117.28519
793.918	8431.59615
794.107	8162.50869
794.295	8287.85079
794.484	8390.53574
794.672	8261.1447
794.861	8170.7301
795.049	8640.88568
795.238	8047.37522
795.426	8032.97909
795.614	8127.56411
795.803	8004.18384
795.991	8242.65392
796.179	8199.50254
796.368	8133.73122
796.556	8296.06738
796.744	8181.00642
796.932	8521.90207
797.121	8086.44543
797.309	8080.27693
797.497	8197.4475
797.685	8230.32585
797.874	8008.29769
798.062	8207.72253
798.25	7930.12058
798.438	7891.02092
798.626	7913.65847
798.814	8119.34102
799.002	7932.17825
799.19	8104.94983
799.378	7919.83192
799.566	8053.54468
799.755	7761.32116
799.943	8004.18384
800.131	7987.72763
800.318	8166.61943
800.506	7827.21072
800.694	7707.77011
800.882	7991.84181
801.07	8220.05191
801.258	7985.67051
801.446	8117.28519
801.634	7862.20587
801.822	7870.43916
802.01	7946.58138
802.197	8135.78688
802.385	7899.25304
802.573	8174.84069
802.761	7759.26177
802.949	8234.43528
803.136	7899.25304
803.324	8026.80901
803.512	7921.88969
803.699	7808.68144
803.887	8160.45328
804.075	8069.9957
804.262	7765.43989
804.45	8020.63876
804.638	7882.78846
804.825	8316.60749
805.013	7944.52385
805.201	8164.56407
805.388	7987.72763
805.576	8057.65756
805.763	8057.65756
805.951	7876.6139
806.138	8109.0617
806.326	8032.97909
806.513	7948.63888
806.701	7952.75384
806.888	7699.53022
807.075	7687.16976
807.263	7676.86879
807.45	8084.38928
807.638	7676.86879
807.825	8086.44543
808.012	7788.09137
808.2	7864.26423
808.387	8185.11681
808.574	8236.48997
808.761	7882.78846
808.949	8162.50869
809.136	7919.83192
809.323	8111.1176
809.51	8195.39243
809.698	7979.49903
809.885	7905.42692
810.072	8030.92242
810.259	8016.52515
810.446	8222.10673
810.633	8119.34102
810.82	8345.36036
811.008	7932.17825
811.195	8333.03817
811.382	8111.1176
811.569	8199.50254
811.756	7944.52385
811.943	8259.09025
812.13	8207.72253
812.317	8376.16277
812.504	8117.28519
812.691	8069.9957
812.878	8139.89815
813.064	8170.7301
813.251	7930.12058
813.438	8267.30794
813.625	7973.32737
813.812	8109.0617
813.999	8053.54468
814.186	8014.46832
814.372	7971.27011
814.559	8127.56411
814.746	7893.07898
814.933	8104.94983
815.12	7829.26942
815.306	7950.69637
815.493	7742.78587
815.68	8080.27693
815.866	7783.97311
816.053	8152.23147
816.24	7905.42692
816.426	7862.20587
816.613	7967.15553
816.799	7781.91395
816.986	7954.81128
817.173	8107.00577
817.359	7751.02399
817.546	8004.18384
817.732	7769.55853
817.919	8014.46832
818.105	7798.38667
818.292	7544.96952
818.478	7652.14431
818.665	8156.34242
818.851	7899.25304
819.037	8059.71397
819.224	7884.84661
819.41	7998.01292
819.597	7674.80853
819.783	7765.43989
819.969	7781.91395
820.156	7952.75384
820.342	7893.07898
820.528	8080.27693
820.714	7724.24887
820.901	8041.20557
821.087	7843.67977
821.273	8024.75228
821.459	7720.1293
821.646	8035.03574
821.832	7866.32256
822.018	7989.78473
822.204	7732.48774
822.39	7821.03448
822.576	7567.64592
822.762	7703.65021
822.948	7495.4847
823.134	7460.42545
823.32	7503.73303
823.507	7569.70728
823.693	7637.72029
823.879	7858.08911
824.065	7464.5504
824.25	7695.41015
824.436	7612.99097
824.622	7648.02327
824.808	7742.78587
824.994	7944.52385
825.18	7520.22866
825.366	7699.53022
825.552	7437.73673
825.738	7676.86879
825.923	7722.1891
826.109	7691.29
826.295	7293.29224
826.481	7740.72628
826.667	7489.29823
826.852	7582.07501
827.038	7140.47669
827.224	7511.98102
827.409	7359.33728
827.595	7388.22494
827.781	7196.24776
827.966	7509.91905
828.152	7342.82812
828.338	7373.78164
828.523	7282.97067
828.709	7266.45502
828.894	7026.8187
829.08	7237.54924
829.266	7270.58406
829.451	7369.65479
829.637	7080.55637
829.822	7144.60844
830.008	7030.95291
830.193	7419.17127
830.378	7320.12574
830.564	7437.73673
830.749	7287.09936
830.935	7287.09936
831.12	7150.80589
831.305	7674.80853
831.491	7212.76941
831.676	7115.68435
831.861	6991.67433
832.047	7159.06885
832.232	6946.18372
832.417	7229.28965
832.602	7099.15434
832.788	7334.57301
832.973	7113.61818
833.158	7115.68435
833.343	6931.70714
833.528	7099.15434
833.714	6865.51438
833.899	7039.22105
834.084	6882.06475
834.269	7142.54258
834.454	6722.70694
834.639	6946.18372
834.824	6594.29414
835.009	6722.70694
835.194	6712.35434
835.379	6702.00117
835.564	6851.03161
835.749	7053.68943
835.934	6602.58151
836.119	6855.16966
836.304	6612.9402
836.489	6662.6539
836.674	6513.47292
836.859	6834.47852
837.044	6660.58276
837.228	6970.99814
837.413	6784.81048
837.598	7039.22105
837.783	6610.86851
837.968	6890.33939
838.152	6542.48972
838.337	6521.7639
838.522	6559.06871
838.707	6770.3215
838.891	6235.51006
839.076	6588.07838
839.261	6511.40012
839.445	6766.18158
839.63	6447.13175
839.815	6652.29797
839.999	6644.01282
840.184	6617.08352
840.368	6438.83743
840.553	6492.74386
840.737	6360.02282
840.922	6442.98464
841.106	6304.0025
841.291	6368.32068
841.475	6285.32527
841.66	6206.44496
841.844	6131.68501
842.029	6376.61817
842.213	6181.52836
842.397	6318.52792
842.582	5971.67949
842.766	6397.36025
842.951	5957.12661
843.135	6158.68517
843.319	6152.45472
843.504	6252.11663
843.688	5763.6715
843.872	6052.73869
844.056	5886.42475
844.241	6011.17434
844.425	6110.91295
844.609	5998.7032
844.793	5952.96843
844.977	6019.48797
845.161	5699.14111
845.346	5884.34487
845.53	5769.91518
845.714	5977.91608
845.898	5778.23974
846.082	5909.30186
846.266	5884.34487
846.45	5986.23121
846.634	5728.28668
846.818	5855.22409
847.002	5532.50632
847.186	5988.30994
847.37	5780.32083
847.554	5903.06293
847.738	5517.9186
847.922	5869.78506
848.106	5765.75275
848.29	5869.78506
848.473	5645.00136
848.657	5767.83398
848.841	5719.95985
849.025	5707.46889
849.209	5303.13749
849.392	5769.91518
849.576	5653.33159
849.76	5728.28668
849.944	5490.82405
850.127	5522.08664
850.311	5455.38672
850.495	5678.32002
850.678	5447.04754
850.862	5898.90353
851.046	5509.58224
851.229	5549.17659
851.413	5436.62303
851.596	5609.59367
851.78	5595.01205
851.964	5676.23778
852.147	5394.91913
852.331	5669.99092
852.514	5386.57722
852.698	5332.34566
852.881	4937.65007
853.065	5234.27151
853.248	5014.98372
853.431	5056.77255
853.615	4927.19716
853.798	5111.08417
853.982	4962.73471
854.165	5361.54924
854.348	5324.00094
854.532	5411.60182
854.715	5167.4681
854.898	5219.66031
855.081	5096.46335
855.265	5284.35839
855.448	5077.66349
855.631	5213.39801
855.814	5002.44527
855.997	5017.07338
856.181	4797.53354
856.364	5294.79146
856.547	5159.11599
856.73	5136.14579
856.913	4950.1928
857.096	4954.37353
857.279	4847.73632
857.462	4927.19716
857.645	4854.01075
857.828	4851.9193
858.011	4929.28779
858.194	5115.26134
858.377	4588.21501
858.56	5035.87929
858.743	4805.90158
858.926	4761.96531
859.109	4751.50282
859.292	4958.55416
859.475	4828.91182
859.658	5069.30739
859.841	4810.08547
860.023	4973.18566
860.206	4667.78256
860.389	4851.9193
860.572	4644.75317
860.755	4697.08876
860.937	4770.3349
861.12	4617.53313
861.303	4491.85337
861.486	4787.07298
861.668	4527.47074
861.851	4422.69559
862.034	4384.96312
862.216	4428.98365
862.399	4307.37983
862.581	4399.6377
862.764	4284.30883
862.947	4491.85337
863.129	4403.83024
863.312	4328.3512
863.494	4309.47706
863.677	4563.08172
863.859	4355.61077
864.042	4227.66901
864.224	4198.2941
864.406	4278.01628
864.589	4284.30883
864.771	4298.99067
864.954	4189.90051
865.136	4141.63078
865.318	4271.72355
865.501	4382.86667
865.683	4110.14454
865.865	4317.86579
866.048	4210.88386
866.23	4374.48063
866.412	4244.4528
866.594	4116.44217
866.777	4284.30883
866.959	4131.13589
867.141	4066.05591
867.323	4349.32042
867.505	4015.65772
867.687	4114.34298
867.869	4000.95602
868.052	4009.35711
868.234	3937.93737
868.416	3996.75534
868.598	3908.52243
868.78	4093.34995
868.962	3795.02808
869.144	4013.55754
869.326	3832.86596
869.508	3942.13919
869.69	3809.74357
869.872	3933.73548
870.054	3862.29099
870.236	3984.15284
870.417	3818.15199
870.599	4053.45748
870.781	3935.83644
870.963	3990.45418
871.145	3912.72481
871.327	4105.94602
871.508	3864.39263
871.69	3904.31997
871.872	4057.65704
872.054	4047.15798
872.235	3929.53351
872.417	3944.24006
872.599	3923.2304
872.78	3965.2477
872.962	3853.88424
873.144	3921.12932
873.325	3885.40792
873.507	3977.85131
873.689	3902.21871
873.87	4078.6536
874.052	3748.77314
874.233	3763.49165
874.415	3870.69743
874.596	3845.47716
874.778	3492.1008
874.959	3805.53924
875.141	3374.1923
875.322	3635.19866
875.503	3618.36809
875.685	3912.72481
875.866	3664.64925
876.048	3925.33145
876.229	3559.45164
876.41	3668.85617
876.592	3643.61349
876.773	3713.02425
876.954	3652.02802
877.136	3816.04991
877.317	3542.61569
877.498	3763.49165
877.679	3551.03381
877.86	3675.16641
878.042	3601.53631
878.223	3786.61879
878.404	3715.12728
878.585	3946.34092
878.766	3500.52068
878.947	3988.35375
879.128	3607.84837
879.309	3677.26979
879.49	3847.57896
879.672	3656.23517
879.853	3729.84795
880.034	3740.36214
880.215	3769.79928
880.396	3597.32818
880.576	3736.15652
880.757	3889.61074
880.938	3673.06302
881.119	3891.71212
881.3	3694.09611
881.481	3912.72481
881.662	3879.10354
881.843	4040.8583
882.023	3868.59585
882.204	4013.55754
882.385	3788.72114
882.566	3752.97853
882.747	3694.09611
882.927	4084.95216
883.108	4030.35842
883.289	3828.66206
883.469	3736.15652
883.65	3866.49425
883.831	3780.31162
884.011	4095.44935
884.192	3700.40566
884.373	3973.65019
884.553	3908.52243
884.734	3950.54257
884.914	3761.38906
885.095	4000.95602
885.275	3494.2058
885.456	3942.13919
885.636	3933.73548
885.817	4139.53185
885.997	4152.12515
886.178	4021.95814
886.358	3841.27351
886.538	3929.53351
886.719	3744.56768
886.899	3958.94562
887.08	3740.36214
887.26	3858.08765
887.44	3713.02425
887.621	3973.65019
887.801	3668.85617
887.981	3807.64141
888.161	3725.64214
888.342	3813.94782
888.522	3652.02802
888.702	3818.15199
888.882	3799.2326
889.062	3797.13035
889.242	3685.6831
889.423	3940.03829
889.603	3681.47648
889.783	4082.85266
889.963	3630.99113
890.143	4005.1566
890.323	3853.88424
890.503	3982.05235
890.683	3973.65019
890.863	3971.5496
891.043	3734.05369
891.223	4030.35842
891.403	3816.04991
891.583	3832.86596
891.763	3662.54576
891.943	3937.93737
892.122	3660.44225
892.302	4076.55404
892.482	3826.56009
892.662	3963.14703
892.842	3685.6831
893.022	3870.69743
893.201	3622.57584
893.381	3992.55459
893.561	3761.38906
893.741	4000.95602
893.92	3683.5798
894.1	3801.33483
894.28	3593.11997
894.459	3673.06302
894.639	3477.36531
894.819	3527.88327
894.998	3500.52068
895.178	3525.77857
895.357	3630.99113
895.537	3569.9735
895.716	3529.98796
895.896	3736.15652
896.075	3557.34721
896.255	3628.88734
896.434	3315.21733
896.614	3601.53631
896.793	3277.29772
896.973	3403.67466
897.152	3351.02519
897.331	3605.74437
897.511	3211.97888
897.69	3618.36809
897.87	3420.52016
898.049	3504.73051
898.228	3348.91898
898.407	3487.89075
898.587	3155.07531
898.766	3435.25905
898.945	3115.02497
899.124	3266.76351
899.304	3222.51527
899.483	3148.75196
899.662	2944.22062
899.841	3053.88442
900.02	2921.01732
900.199	3178.25969
900.378	2904.14107
900.557	3049.66735
900.737	2912.57931
900.916	2948.43921
901.095	2861.94643
901.274	2826.07651
901.453	2845.06697
901.632	2887.2639
901.811	2644.55692
901.989	2756.43526
902.168	2735.32894
902.347	3049.66735
902.526	2766.98791
902.705	2876.71521
902.884	2921.01732
903.063	2908.36022
903.242	2800.75414
903.42	2838.73694
903.599	2680.44637
903.778	2912.57931
903.957	2638.22311
904.135	2802.86442
904.314	2543.20276
904.493	2726.88604
904.672	2437.59699
904.85	2724.77529
905.029	2391.12181
905.207	2549.53821
905.386	2395.34703
905.565	2348.8673
905.743	2431.25977
905.922	2549.53821
906.1	2526.30774
906.279	2509.41198
906.457	2205.17319
906.636	2534.75534
906.814	2401.68479
906.993	2181.92466
907.171	2150.22051
907.35	2460.83265
907.528	1985.33145
907.707	2082.57904
907.885	1943.0456
908.063	2213.62694
908.242	2000.13091
908.42	2184.03821
908.598	1828.86262
908.777	1959.96023
908.955	1904.98632
909.133	2120.62833
909.311	1811.94539
909.49	1959.96023
909.668	1727.35531
909.846	2033.95705
910.024	1911.32966
910.202	2025.50067
910.38	1951.50296
910.559	2232.64738
910.737	2141.76576
910.915	2069.8954
911.093	1809.83072
911.271	2095.26241
911.449	1879.61248
911.627	2133.31088
911.805	1856.35248
911.983	2095.26241
912.161	1845.77955
912.339	2219.96717
912.517	2042.41331
912.695	2260.12008
912.872	2152.33418
913.05	2315.06082
913.228	2234.76072
913.406	2306.60881
913.584	1940.93124
913.762	2279.13874
913.939	2154.44784
914.117	2355.20573
914.295	1998.01672
914.473	2188.26527
914.65	1987.44568
914.828	2179.81111
915.006	1924.01619
915.184	2052.98349
915.361	1938.81688
915.539	1974.76022
915.716	1852.12332
915.894	2027.61478
916.072	1750.61819
916.249	1803.48668
916.427	1843.66495
916.604	1921.90178
916.782	1786.56903
916.959	2203.05973
917.137	1795.02789
917.314	1784.45431
917.492	1611.03536
917.669	1668.1389
917.847	1837.32112
918.024	1807.71604
918.201	1625.84014
918.379	1778.11012
918.556	1509.51466
918.733	1761.19208
918.911	1558.16039
919.088	1615.26531
919.265	1498.93944
919.442	1873.2689
919.62	1543.35523
919.797	1822.51869
919.974	1674.48363
920.151	1795.02789
920.328	1592.00049
920.506	1744.27381
920.683	1562.39042
920.86	1482.01906
921.037	1517.97483
921.214	1490.47925
921.391	1460.86855
921.568	1661.79415
921.745	1568.73546
921.922	1790.79847
922.099	1424.91267
922.276	1699.86227
922.453	1513.74475
922.63	1551.81533
922.807	1350.88633
922.984	1433.37287
923.161	1338.19624
923.338	1541.2402
923.514	1289.55143
923.691	1346.6563
923.868	1346.6563
924.045	1363.57648
924.222	1317.0462
924.399	1391.07193
924.575	1405.87723
924.752	1338.19624
924.929	1274.7467
925.105	1482.01906
925.282	1268.40185
925.459	1410.10733
925.635	1304.35626
925.812	1295.89635
925.989	1114.01932
926.165	1190.15079
926.342	1245.1376
926.518	1298.01132
926.695	1133.05168
926.871	1219.75881
927.048	1033.66492
927.224	1223.98858
927.401	1054.81006
927.577	1154.19916
927.754	1084.41419
927.93	1137.28114
928.107	999.83392
928.283	1194.38047
928.459	1042.12291
928.636	1069.612
928.812	1116.13401
928.988	1086.52881
929.165	957.54748
929.341	1094.98734
929.517	985.03336
929.693	1094.98734
929.87	887.78111
930.046	944.86208
930.222	826.47853
930.398	968.11884
930.574	796.88685
930.751	860.29975
930.927	758.84318
931.103	1035.77941
931.279	966.00455
931.455	889.89512
931.631	820.1373
931.807	1020.97811
931.983	944.86208
932.159	820.1373
932.335	697.55762
932.511	769.41055
932.687	608.81612
932.863	788.43243
933.039	712.34986
933.215	805.34143
933.391	608.81612
933.566	752.50288
933.742	549.6674
933.918	587.69039
934.094	501.08894
934.27	627.83037
934.445	463.07638
934.621	636.28146
934.797	477.85847
934.973	541.21844
935.148	513.76086
935.324	473.63494
935.5	437.73739
935.675	492.64129
935.851	450.40661
936.027	458.85306
936.202	372.28898
936.378	410.28938
936.553	351.18
936.729	389.17739
936.904	401.84439
937.08	325.8515
937.255	300.52556
937.431	239.33216
937.606	230.89295
937.782	214.01547
937.957	180.26435
938.133	287.86356
938.308	167.60902
938.483	199.24872
938.659	184.48295
938.834	140.19172
939.009	205.57721
939.185	190.81102
939.36	108.56086
939.535	247.77168
939.71	150.73642
939.886	49.5299
940.061	157.06349
940.236	70.61035
940.411	112.77803
940.586	112.77803
940.761	91.69308
940.937	125.43005
941.112	53.7458
941.287	112.77803
941.462	95.90989
941.637	116.99528
941.812	57.9618
941.987	74.82672
942.162	106.45231
942.337	178.15507
942.512	57.9618
942.687	121.21262
942.862	104.34378
943.037	55.85379
943.212	38.99053
943.386	81.15143
943.561	64.28597
943.736	112.77803
943.911	89.5847
944.086	64.28597
944.26	64.28597
944.435	24.2364
944.61	45.31408
944.785	87.47635
944.959	87.47635
945.134	66.39408
945.309	89.5847
945.483	62.17789
945.658	140.19172
945.833	41.09836
946.007	62.17789
946.182	72.71852
946.357	87.47635
946.531	87.47635
946.706	129.64756
946.88	79.04317
947.055	146.51847
947.229	41.09836
947.404	91.69308
947.578	144.40954
947.752	41.09836
947.927	129.64756
948.101	116.99528
948.276	74.82672
948.45	100.12679
948.624	98.01833
948.799	62.17789
948.973	45.31408
949.147	146.51847
949.321	116.99528
949.496	121.21262
949.67	106.45231
949.844	49.5299
950.018	150.73642
950.193	138.08285
950.367	62.17789
950.541	79.04317
950.715	45.31408
950.889	140.19172
951.063	138.08285
951.237	53.7458
951.411	121.21262
951.585	186.59229
951.759	140.19172
951.933	104.34378
952.107	62.17789
952.281	157.06349
952.455	91.69308
952.629	131.75635
952.803	190.81102
952.977	163.39074
953.151	148.62743
953.325	112.77803
953.499	152.84542
953.672	45.31408
953.846	123.32132
954.02	129.64756
954.194	131.75635
954.368	91.69308
954.541	150.73642
954.715	83.25972
954.889	79.04317
955.062	66.39408
955.236	163.39074
955.41	70.61035
955.583	87.47635
955.757	121.21262
955.93	95.90989
956.104	81.15143
956.278	163.39074
956.451	81.15143
956.625	152.84542
956.798	79.04317
956.972	188.70164
957.145	157.06349
957.319	116.99528
957.492	53.7458
957.665	91.69308
957.839	182.37364
958.012	144.40954
958.185	116.99528
958.359	140.19172
958.532	76.93493
958.705	93.80147
958.879	121.21262
959.052	106.45231
959.225	133.86516
959.398	74.82672
959.572	22.12877
959.745	116.99528
959.918	138.08285
960.091	55.85379
960.264	138.08285
960.438	108.56086
960.611	112.77803
960.784	131.75635
960.957	95.90989
961.13	62.17789
961.303	142.30062
961.476	205.57721
961.649	123.32132
961.822	17.91356
961.995	79.04317
962.168	95.90989
962.341	91.69308
962.514	89.5847
962.686	116.99528
962.859	85.36802
963.032	135.97399
963.205	114.88664
963.378	36.88273
963.551	140.19172
963.723	123.32132
963.896	108.56086
964.069	89.5847
964.242	106.45231
964.414	87.47635
964.587	135.97399
964.76	104.34378
964.932	142.30062
965.105	146.51847
965.278	95.90989
965.45	104.34378
965.623	51.63784
965.795	32.66719
965.968	100.12679
966.14	104.34378
966.313	74.82672
966.485	131.75635
966.658	47.42198
966.83	3.16109
967.003	104.34378
967.175	87.47635
967.348	165.49987
967.52	123.32132
967.692	53.7458
967.865	87.47635
968.037	129.64756
968.209	-22.12611
968.382	36.88273
968.554	45.31408
968.726	106.45231
968.898	83.25972
969.071	112.77803
969.243	43.20621
969.415	28.45175
969.587	81.15143
969.759	125.43005
969.932	20.02115
970.104	135.97399
970.276	57.9618
970.448	83.25972
970.62	22.12877
970.792	55.85379
970.964	22.12877
971.136	62.17789
971.308	-5.26836
971.48	129.64756
971.652	24.2364
971.824	140.19172
971.996	55.85379
972.168	68.5022
972.339	74.82672
972.511	66.39408
972.683	79.04317
972.855	89.5847
973.027	133.86516
973.199	47.42198
973.37	123.32132
973.542	11.59093
973.714	45.31408
973.886	98.01833
974.057	70.61035
974.229	125.43005
974.401	121.21262
974.572	62.17789
974.744	32.66719
974.915	138.08285
975.087	38.99053
975.259	89.5847
975.43	28.45175
975.602	53.7458
975.773	62.17789
975.945	131.75635
976.116	68.5022
976.288	87.47635
976.459	3.16109
976.63	85.36802
976.802	95.90989
976.973	64.28597
977.145	-1.05368
977.316	131.75635
977.487	22.12877
977.659	87.47635
977.83	3.16109
978.001	38.99053
978.172	30.55946
978.344	62.17789
978.515	24.2364
978.686	22.12877
978.857	5.26851
979.028	57.9618
979.2	87.47635
979.371	36.88273
979.542	72.71852
979.713	-3.16104
979.884	62.17789
980.055	5.26851
980.226	104.34378
980.397	38.99053
980.568	28.45175
980.739	41.09836
980.91	13.69845
981.081	87.47635
981.252	64.28597
981.423	28.45175
981.594	91.69308
981.765	62.17789
981.936	70.61035
982.106	45.31408
982.277	112.77803
982.448	-1.05368
982.619	47.42198
982.79	62.17789
982.96	62.17789
983.131	24.2364
983.302	53.7458
983.472	57.9618
983.643	-3.16104
983.814	47.42198
983.984	15.80599
984.155	-7.37567
984.326	41.09836
984.496	72.71852
984.667	3.16109
984.837	-3.16104
985.008	30.55946
985.178	15.80599
985.349	28.45175
985.519	60.06984
985.69	-17.91182
985.86	24.2364
986.031	49.5299
986.201	32.66719
986.371	20.02115
986.542	11.59093
986.712	3.16109
986.882	70.61035
987.053	138.08285
987.223	-60.05024
987.393	3.16109
987.563	-11.5902
987.734	13.69845
987.904	36.88273
988.074	28.45175
988.244	-5.26836
988.414	34.77495
988.585	24.2364
988.755	47.42198
988.925	-28.44736
989.095	87.47635
989.265	7.37596
989.435	5.26851
989.605	28.45175
989.775	49.5299
989.945	47.42198
990.115	95.90989
990.285	-49.51657
990.455	55.85379
990.625	-22.12611
990.795	-34.76838
990.965	7.37596
991.134	49.5299
991.304	-13.69743
991.474	-3.16104
991.644	53.7458
991.814	11.59093
991.984	3.16109
992.153	32.66719
992.323	30.55946
992.493	47.42198
992.662	95.90989
992.832	5.26851
993.002	55.85379
993.171	-24.23321
993.341	79.04317
993.511	-36.87534
993.68	55.85379
993.85	62.17789
994.019	41.09836
994.189	36.88273
994.358	15.80599
994.528	5.26851
994.697	41.09836
994.867	-47.40976
995.036	13.69845
995.206	28.45175
995.375	36.88273
995.544	7.37596
995.714	-9.48295
995.883	81.15143
996.052	-81.11567
996.222	70.61035
996.391	20.02115
996.56	20.02115
996.73	-30.55439
996.899	-51.62336
997.068	-76.90279
997.237	-20.01897
997.406	62.17789
997.576	66.39408
997.745	-28.44736
997.914	62.17789
998.083	30.55946
998.252	45.31408
998.421	11.59093
998.59	-36.87534
998.759	98.01833
998.928	20.02115
999.097	45.31408
999.266	11.59093
999.435	47.42198
999.604	9.48343
999.773	24.2364
999.942	28.45175
1000.111	15.80599
1000.28	3.16109
1000.448	53.7458
1000.617	15.80599
1000.786	-24.23321
1000.955	28.45175
1001.124	-13.69743
1001.292	89.5847
1001.461	-9.48295
1001.63	9.48343
1001.798	-11.5902
1001.967	64.28597
1002.136	70.61035
1002.304	7.37596
1002.473	38.99053
1002.642	83.25972
1002.81	41.09836
1002.979	41.09836
1003.147	5.26851
1003.316	30.55946
1003.484	3.16109
1003.653	38.99053
1003.821	20.02115
1003.99	11.59093
1004.158	30.55946
1004.327	49.5299
1004.495	30.55946
1004.663	47.42198
1004.832	-9.48295
1005	79.04317
1005.168	112.77803
1005.337	-60.05024
1005.505	53.7458
1005.673	13.69845
1005.842	-7.37567
1006.01	47.42198
1006.178	38.99053
1006.346	41.09836
1006.514	55.85379
1006.683	-22.12611
1006.851	36.88273
1007.019	28.45175
1007.187	-3.16104
1007.355	-5.26836
1007.523	36.88273
1007.691	-34.76838
1007.859	-38.98228
1008.027	-30.55439
1008.195	-3.16104
1008.363	38.99053
1008.531	15.80599
1008.699	49.5299
1008.867	41.09836
1009.035	62.17789
1009.203	-32.6614
1009.37	41.09836
1009.538	38.99053
1009.706	32.66719
1009.874	55.85379
1010.042	-47.40976
1010.209	36.88273
1010.377	-1.05368
1010.545	-17.91182
1010.713	-47.40976
1010.88	34.77495
1011.048	-13.69743
1011.216	47.42198
1011.383	-20.01897
1011.551	-7.37567
1011.718	-64.26353
1011.886	-3.16104
1012.054	64.28597
1012.221	-43.19607
1012.389	11.59093
1012.556	53.7458
1012.724	20.02115
1012.891	-32.6614
1013.058	74.82672
1013.226	-47.40976
1013.393	43.20621
1013.561	-47.40976
1013.728	5.26851
1013.895	9.48343
1014.063	13.69845
1014.23	-9.48295
1014.397	3.16109
1014.565	-13.69743
1014.732	-3.16104
1014.899	38.99053
1015.066	49.5299
1015.233	-26.3403
1015.401	-26.3403
1015.568	-15.80464
1015.735	-57.94356
1015.902	-60.05024
1016.069	3.16109
1016.236	7.37596
1016.403	45.31408
1016.57	-68.47672
1016.737	22.12877
1016.904	-26.3403
1017.071	38.99053
1017.238	28.45175
1017.405	72.71852
1017.572	-26.3403
1017.739	66.39408
1017.906	-28.44736
1018.073	-55.83685
1018.24	-64.26353
1018.407	-72.68981
1018.573	36.88273
1018.74	5.26851
1018.907	3.16109
1019.074	45.31408
1019.241	22.12877
1019.407	13.69845
1019.574	-30.55439
1019.741	28.45175
1019.907	47.42198
1020.074	55.85379
1020.241	-30.55439
1020.407	41.09836
1020.574	22.12877
1020.74	17.91356
1020.907	5.26851
1021.073	-34.76838
1021.24	3.16109
1021.406	3.16109
1021.573	11.59093
1021.739	-22.12611
1021.906	28.45175
1022.072	24.2364
1022.239	49.5299
1022.405	28.45175
1022.571	-38.98228
1022.738	-55.83685
1022.904	57.9618
1023.07	-47.40976
1023.237	-3.16104
1023.403	20.02115
1023.569	-34.76838
1023.735	3.16109
1023.902	-108.49687
1024.068	20.02115
1024.234	-28.44736
1024.4	-24.23321
1024.566	-30.55439
1024.732	30.55946
1024.898	53.7458
1025.065	32.66719
1025.231	70.61035
1025.397	-5.26836
1025.563	36.88273
1025.729	-13.69743
1025.895	38.99053
1026.061	70.61035
1026.227	7.37596
1026.392	55.85379
1026.558	11.59093
1026.724	36.88273
1026.89	11.59093
1027.056	20.02115
1027.222	34.77495
1027.388	7.37596
1027.553	-7.37567
1027.719	-20.01897
1027.885	1.05369
1028.051	7.37596
1028.216	-20.01897
1028.382	30.55946
1028.548	-13.69743
1028.713	53.7458
1028.879	1.05369
1029.045	64.28597
1029.21	-11.5902
1029.376	-5.26836
1029.541	28.45175
1029.707	-11.5902
1029.873	-32.6614
1030.038	-28.44736
1030.204	15.80599
1030.369	72.71852
1030.534	-17.91182
1030.7	26.34407
1030.865	-22.12611
1031.031	24.2364
1031.196	26.34407
1031.361	87.47635
1031.527	5.26851
1031.692	-34.76838
1031.857	45.31408
1032.023	9.48343
1032.188	15.80599
1032.353	-22.12611
1032.518	-3.16104
1032.684	24.2364
1032.849	-9.48295
1033.014	22.12877
1033.179	-62.1569
1033.344	45.31408
1033.509	32.66719
1033.674	-26.3403
1033.839	28.45175
1034.004	-112.70897
1034.17	-87.4348
1034.335	22.12877
1034.5	20.02115
1034.664	28.45175
1034.829	-43.19607
1034.994	3.16109
1035.159	36.88273
1035.324	36.88273
1035.489	-22.12611
1035.654	36.88273
1035.819	17.91356
1035.984	-38.98228
1036.148	45.31408
1036.313	-26.3403
1036.478	-13.69743
1036.643	5.26851
1036.807	-5.26836
1036.972	28.45175
1037.137	49.5299
1037.301	-9.48295
1037.466	-22.12611
1037.631	32.66719
1037.795	3.16109
1037.96	-13.69743
1038.124	24.2364
1038.289	32.66719
1038.454	-5.26836
1038.618	20.02115
1038.783	11.59093
1038.947	30.55946
1039.111	-17.91182
1039.276	-34.76838
1039.44	-28.44736
1039.605	1.05369
1039.769	53.7458
1039.933	-15.80464
1040.098	30.55946
1040.262	-1.05368
1040.426	36.88273
1040.591	-13.69743
1040.755	-30.55439
1040.919	-5.26836
1041.083	53.7458
1041.248	66.39408
1041.412	24.2364
1041.576	-38.98228
1041.74	-11.5902
1041.904	22.12877
1042.068	-28.44736
1042.232	-5.26836
1042.397	-110.60293
1042.561	20.02115
1042.725	-3.16104
1042.889	-34.76838
1043.053	-22.12611
1043.217	89.5847
1043.381	-89.54113
1043.544	41.09836
1043.708	-11.5902
1043.872	-11.5902
1044.036	-15.80464
1044.2	-55.83685
1044.364	15.80599
1044.528	-13.69743
1044.691	-20.01897
1044.855	-30.55439
1045.019	-26.3403
1045.183	26.34407
1045.346	-20.01897
1045.51	7.37596
1045.674	-3.16104
1045.837	74.82672
1046.001	7.37596
1046.165	-17.91182
1046.328	22.12877
1046.492	3.16109
1046.655	-81.11567
1046.819	-13.69743
1046.983	-22.12611
1047.146	-131.6621
1047.31	5.26851
1047.473	22.12877
1047.636	9.48343
1047.8	-70.58328
1047.963	55.85379
1048.127	-47.40976
1048.29	-51.62336
