Data from mixed_try1_USB4F045381__8__00030.txt Node

Date: Thu Apr 03 19:32:37 EDT 2025
User: mmckonesweet
Spectrometer: USB4F04538
Trigger mode: 4
Integration Time (sec): 2.700000E-3
Scans to average: 1
Electric dark correction enabled: true
Nonlinearity correction enabled: true
Boxcar width: 0
XAxis mode: Wavelengths
Number of Pixels in Spectrum: 3648
>>>>>Begin Spectral Data<<<<<
345.52	-8.42931
345.736	-8.42931
345.952	-8.42931
346.168	10.53718
346.384	-12.64382
346.6	23.18258
346.816	-40.03573
347.032	44.26014
347.248	-35.82187
347.464	35.82884
347.68	10.53718
347.896	18.96735
348.112	10.53718
348.328	-2.10736
348.544	29.5056
348.76	-56.89021
348.975	-37.92881
349.191	31.61332
349.407	12.64469
349.623	-29.50088
349.839	-6.32202
350.055	23.18258
350.27	31.61332
350.486	-58.9969
350.702	2.10739
350.918	-21.07254
351.133	14.75222
351.349	-14.75104
351.565	23.18258
351.781	59.01582
351.996	-12.64382
352.212	35.82884
352.428	82.20557
352.644	10.53718
352.859	-65.31684
353.075	-124.29169
353.291	31.61332
353.506	-65.31684
353.722	-88.48797
353.938	44.26014
354.153	8.4297
354.369	14.75222
354.584	-12.64382
354.8	-73.74306
355.016	-21.07254
355.231	16.85977
355.447	-46.35635
355.662	-52.67674
355.878	12.64469
356.093	-44.2495
356.309	-23.17966
356.524	14.75222
356.74	90.63889
356.955	-16.85823
357.171	80.0973
357.386	-31.6079
357.602	-6.32202
357.817	-10.53658
358.033	52.69182
358.248	33.72107
358.464	21.07496
358.679	61.12386
358.895	2.10739
359.11	-2.10736
359.325	27.39791
359.541	27.39791
359.756	44.26014
359.972	-4.2147
360.187	18.96735
360.402	6.32224
360.618	134.91958
360.833	10.53718
361.048	-27.39383
361.264	25.29023
361.479	31.61332
361.694	14.75222
361.909	-35.82187
362.125	-6.32202
362.34	-33.71489
362.555	6.32224
362.77	52.69182
362.986	-23.17966
363.201	25.29023
363.416	-12.64382
363.631	-18.9654
363.847	-48.46317
364.062	-6.32202
364.277	61.12386
364.492	-23.17966
364.707	54.79979
364.922	-44.2495
365.138	-42.14263
365.353	2.10739
365.568	-31.6079
365.783	21.07496
365.998	-14.75104
366.213	10.53718
366.428	-18.9654
366.643	-48.46317
366.858	-65.31684
367.073	37.93663
367.288	-63.21022
367.503	-2.10736
367.718	2.10739
367.933	-48.46317
368.148	-48.46317
368.363	12.64469
368.578	10.53718
368.793	-10.53658
369.008	-54.78349
369.223	10.53718
369.438	40.04444
369.653	-21.07254
369.868	-6.32202
370.083	8.4297
370.298	-46.35635
370.513	29.5056
370.728	54.79979
370.943	-6.32202
371.157	33.72107
371.372	-14.75104
371.587	-31.6079
371.802	18.96735
372.017	-21.07254
372.232	-14.75104
372.446	-46.35635
372.661	-58.9969
372.876	14.75222
373.091	73.77262
373.306	35.82884
373.52	33.72107
373.735	-23.17966
373.95	6.32224
374.165	35.82884
374.379	44.26014
374.594	33.72107
374.809	-35.82187
375.023	52.69182
375.238	-6.32202
375.453	18.96735
375.667	-29.50088
375.882	-52.67674
376.097	63.23193
376.311	-8.42931
376.526	10.53718
376.741	-8.42931
376.955	-37.92881
377.17	56.90779
377.384	16.85977
377.599	61.12386
377.813	-21.07254
378.028	2.10739
378.242	14.75222
378.457	-56.89021
378.672	14.75222
378.886	-8.42931
379.101	-16.85823
379.315	-35.82187
379.53	37.93663
379.744	-4.2147
379.958	-2.10736
380.173	-58.9969
380.387	-46.35635
380.602	-18.9654
380.816	6.32224
381.031	27.39791
381.245	-6.32202
381.459	-29.50088
381.674	-27.39383
381.888	-14.75104
382.103	52.69182
382.317	71.66443
382.531	-27.39383
382.746	-48.46317
382.96	50.58386
383.174	10.53718
383.388	-6.32202
383.603	10.53718
383.817	12.64469
384.031	-27.39383
384.246	-2.10736
384.46	40.04444
384.674	52.69182
384.888	-48.46317
385.103	10.53718
385.317	-82.16888
385.531	-33.71489
385.745	-65.31684
385.959	23.18258
386.174	44.26014
386.388	4.2148
386.602	-12.64382
386.816	10.53718
387.03	35.82884
387.244	-21.07254
387.458	-23.17966
387.672	54.79979
387.887	12.64469
388.101	44.26014
388.315	-33.71489
388.529	18.96735
388.743	35.82884
388.957	-12.64382
389.171	-52.67674
389.385	-44.2495
389.599	27.39791
389.813	44.26014
390.027	29.5056
390.241	-16.85823
390.455	-2.10736
390.669	25.29023
390.883	14.75222
391.097	27.39791
391.311	2.10739
391.525	-56.89021
391.738	-40.03573
391.952	-2.10736
392.166	48.47593
392.38	-23.17966
392.594	46.36803
392.808	-4.2147
393.022	27.39791
393.236	40.04444
393.449	27.39791
393.663	56.90779
393.877	-2.10736
394.091	-23.17966
394.305	-48.46317
394.518	54.79979
394.732	-18.9654
394.946	25.29023
395.16	31.61332
395.373	2.10739
395.587	4.2148
395.801	29.5056
396.015	-35.82187
396.228	-2.10736
396.442	-10.53658
396.656	-6.32202
396.869	-56.89021
397.083	-4.2147
397.297	-0
397.51	-21.07254
397.724	-2.10736
397.938	88.53052
398.151	10.53718
398.365	-56.89021
398.578	-29.50088
398.792	59.01582
399.005	27.39791
399.219	2.10739
399.433	-18.9654
399.646	44.26014
399.86	73.77262
400.073	25.29023
400.287	2.10739
400.5	12.64469
400.714	44.26014
400.927	-48.46317
401.141	2.10739
401.354	35.82884
401.567	-63.21022
401.781	27.39791
401.994	31.61332
402.208	-44.2495
402.421	27.39791
402.635	67.44814
402.848	-40.03573
403.061	12.64469
403.275	16.85977
403.488	18.96735
403.701	-14.75104
403.915	-54.78349
404.128	-25.28676
404.341	-23.17966
404.555	6.32224
404.768	-12.64382
404.981	46.36803
405.195	10.53718
405.408	16.85977
405.621	14.75222
405.834	-6.32202
406.048	18.96735
406.261	-29.50088
406.474	-10.53658
406.687	-31.6079
406.9	63.23193
407.114	-18.9654
407.327	-23.17966
407.54	-6.32202
407.753	-14.75104
407.966	-29.50088
408.179	-82.16888
408.392	14.75222
408.605	-2.10736
408.819	-0
409.032	27.39791
409.245	54.79979
409.458	27.39791
409.671	12.64469
409.884	2.10739
410.097	-10.53658
410.31	54.79979
410.523	-2.10736
410.736	18.96735
410.949	52.69182
411.162	25.29023
411.375	10.53718
411.588	10.53718
411.801	40.04444
412.014	-42.14263
412.227	-40.03573
412.44	27.39791
412.653	-48.46317
412.865	69.55627
413.078	-12.64382
413.291	52.69182
413.504	-37.92881
413.717	-31.6079
413.93	37.93663
414.143	31.61332
414.356	44.26014
414.568	10.53718
414.781	-23.17966
414.994	-21.07254
415.207	16.85977
415.42	23.18258
415.632	-12.64382
415.845	48.47593
416.058	27.39791
416.271	2.10739
416.483	-67.42343
416.696	52.69182
416.909	-31.6079
417.121	54.79979
417.334	-2.10736
417.547	-2.10736
417.759	-25.28676
417.972	10.53718
418.185	-14.75104
418.397	77.98905
418.61	44.26014
418.823	-56.89021
419.035	-18.9654
419.248	18.96735
419.46	-6.32202
419.673	-52.67674
419.885	-2.10736
420.098	16.85977
420.311	14.75222
420.523	-18.9654
420.736	-16.85823
420.948	-14.75104
421.161	-18.9654
421.373	2.10739
421.586	10.53718
421.798	-56.89021
422.01	40.04444
422.223	27.39791
422.435	50.58386
422.648	-65.31684
422.86	27.39791
423.073	-50.56997
423.285	-4.2147
423.497	21.07496
423.71	40.04444
423.922	35.82884
424.134	-37.92881
424.347	46.36803
424.559	-48.46317
424.771	77.98905
424.984	18.96735
425.196	-40.03573
425.408	18.96735
425.621	35.82884
425.833	54.79979
426.045	4.2148
426.257	42.15228
426.47	44.26014
426.682	4.2148
426.894	23.18258
427.106	-6.32202
427.318	-4.2147
427.531	27.39791
427.743	44.26014
427.955	52.69182
428.167	40.04444
428.379	-27.39383
428.591	35.82884
428.804	-14.75104
429.016	-4.2147
429.228	21.07496
429.44	-90.59428
429.652	14.75222
429.864	35.82884
430.076	40.04444
430.288	27.39791
430.5	23.18258
430.712	37.93663
430.924	-18.9654
431.136	14.75222
431.348	-35.82187
431.56	-10.53658
431.772	-6.32202
431.984	-23.17966
432.196	-42.14263
432.408	77.98905
432.62	6.32224
432.832	-23.17966
433.044	-35.82187
433.256	77.98905
433.468	4.2148
433.679	-48.46317
433.891	-88.48797
434.103	-2.10736
434.315	23.18258
434.527	-46.35635
434.739	27.39791
434.95	-40.03573
435.162	44.26014
435.374	-48.46317
435.586	84.31387
435.798	-6.32202
436.009	-48.46317
436.221	4.2148
436.433	-4.2147
436.645	37.93663
436.856	-10.53658
437.068	-14.75104
437.28	-23.17966
437.491	27.39791
437.703	48.47593
437.915	-14.75104
438.126	-14.75104
438.338	10.53718
438.55	2.10739
438.761	27.39791
438.973	-8.42931
439.184	6.32224
439.396	35.82884
439.608	-18.9654
439.819	-54.78349
440.031	-29.50088
440.242	31.61332
440.454	-35.82187
440.665	21.07496
440.877	-77.95602
441.088	-0
441.3	-52.67674
441.511	-33.71489
441.723	-23.17966
441.934	29.5056
442.146	-12.64382
442.357	-25.28676
442.569	6.32224
442.78	10.53718
442.991	-27.39383
443.203	-6.32202
443.414	37.93663
443.626	-65.31684
443.837	-31.6079
444.048	29.5056
444.26	-37.92881
444.471	-2.10736
444.682	-18.9654
444.894	-40.03573
445.105	-35.82187
445.316	2.10739
445.528	-90.59428
445.739	2.10739
445.95	-31.6079
446.161	25.29023
446.373	18.96735
446.584	-2.10736
446.795	46.36803
447.006	-37.92881
447.217	69.55627
447.429	-25.28676
447.64	44.26014
447.851	-18.9654
448.062	69.55627
448.273	61.12386
448.484	69.55627
448.695	-77.95602
448.907	77.98905
449.118	-23.17966
449.329	-4.2147
449.54	-12.64382
449.751	-12.64382
449.962	40.04444
450.173	14.75222
450.384	-4.2147
450.595	77.98905
450.806	-12.64382
451.017	21.07496
451.228	105.39804
451.439	-61.10358
451.65	2.10739
451.861	-14.75104
452.072	18.96735
452.283	-18.9654
452.494	-33.71489
452.705	-48.46317
452.915	27.39791
453.126	44.26014
453.337	-27.39383
453.548	12.64469
453.759	-10.53658
453.97	25.29023
454.181	21.07496
454.391	27.39791
454.602	-6.32202
454.813	111.72373
455.024	-40.03573
455.235	2.10739
455.445	-8.42931
455.656	-27.39383
455.867	40.04444
456.078	-6.32202
456.288	-6.32202
456.499	44.26014
456.71	-12.64382
456.921	27.39791
457.131	27.39791
457.342	29.5056
457.553	2.10739
457.763	46.36803
457.974	29.5056
458.184	-23.17966
458.395	2.10739
458.606	77.98905
458.816	-6.32202
459.027	48.47593
459.237	23.18258
459.448	25.29023
459.659	2.10739
459.869	-18.9654
460.08	-56.89021
460.29	6.32224
460.501	-16.85823
460.711	6.32224
460.922	10.53718
461.132	63.23193
461.343	52.69182
461.553	-21.07254
461.764	2.10739
461.974	-12.64382
462.184	52.69182
462.395	2.10739
462.605	-14.75104
462.816	-27.39383
463.026	-35.82187
463.236	4.2148
463.447	4.2148
463.657	-27.39383
463.867	-10.53658
464.078	-65.31684
464.288	-6.32202
464.498	61.12386
464.709	-46.35635
464.919	-4.2147
465.129	-6.32202
465.339	-35.82187
465.55	50.58386
465.76	33.72107
465.97	18.96735
466.18	-8.42931
466.391	21.07496
466.601	27.39791
466.811	-16.85823
467.021	-14.75104
467.231	-10.53658
467.441	69.55627
467.651	-4.2147
467.862	16.85977
468.072	40.04444
468.282	-54.78349
468.492	33.72107
468.702	69.55627
468.912	6.32224
469.122	12.64469
469.332	-23.17966
469.542	52.69182
469.752	46.36803
469.962	-10.53658
470.172	4.2148
470.382	-44.2495
470.592	-54.78349
470.802	61.12386
471.012	-23.17966
471.222	61.12386
471.432	21.07496
471.642	-6.32202
471.852	-14.75104
472.062	27.39791
472.272	12.64469
472.482	-80.06246
472.691	-14.75104
472.901	-21.07254
473.111	-73.74306
473.321	-6.32202
473.531	27.39791
473.741	10.53718
473.95	2.10739
474.16	23.18258
474.37	12.64469
474.58	-33.71489
474.79	18.96735
474.999	-21.07254
475.209	-18.9654
475.419	44.26014
475.628	-14.75104
475.838	40.04444
476.048	31.61332
476.258	-27.39383
476.467	109.61514
476.677	37.93663
476.886	-2.10736
477.096	-40.03573
477.306	-6.32202
477.515	6.32224
477.725	12.64469
477.935	-14.75104
478.144	29.5056
478.354	27.39791
478.563	6.32224
478.773	69.55627
478.982	16.85977
479.192	59.01582
479.401	-58.9969
479.611	94.85568
479.82	21.07496
480.03	63.23193
480.239	21.07496
480.449	52.69182
480.658	-31.6079
480.868	16.85977
481.077	44.26014
481.287	21.07496
481.496	31.61332
481.705	-21.07254
481.915	-10.53658
482.124	35.82884
482.333	-14.75104
482.543	2.10739
482.752	-2.10736
482.961	27.39791
483.171	48.47593
483.38	18.96735
483.589	44.26014
483.799	-42.14263
484.008	27.39791
484.217	27.39791
484.426	73.77262
484.636	-4.2147
484.845	-69.53
485.054	-27.39383
485.263	46.36803
485.472	10.53718
485.682	-4.2147
485.891	48.47593
486.1	12.64469
486.309	40.04444
486.518	10.53718
486.727	6.32224
486.936	-12.64382
487.146	12.64469
487.355	-35.82187
487.564	46.36803
487.773	18.96735
487.982	-14.75104
488.191	44.26014
488.4	46.36803
488.609	31.61332
488.818	-0
489.027	21.07496
489.236	63.23193
489.445	-31.6079
489.654	-27.39383
489.863	29.5056
490.072	-4.2147
490.281	-0
490.49	27.39791
490.698	-23.17966
490.907	75.88082
491.116	44.26014
491.325	2.10739
491.534	21.07496
491.743	23.18258
491.952	48.47593
492.16	61.12386
492.369	80.0973
492.578	2.10739
492.787	54.79979
492.996	27.39791
493.204	63.23193
493.413	-27.39383
493.622	73.77262
493.831	61.12386
494.039	14.75222
494.248	61.12386
494.457	16.85977
494.665	31.61332
494.874	4.2148
495.083	44.26014
495.291	35.82884
495.5	4.2148
495.709	111.72373
495.917	18.96735
496.126	44.26014
496.335	-10.53658
496.543	56.90779
496.752	6.32224
496.96	52.69182
497.169	-67.42343
497.377	23.18258
497.586	61.12386
497.794	-52.67674
498.003	-12.64382
498.211	2.10739
498.42	23.18258
498.628	-2.10736
498.837	73.77262
499.045	37.93663
499.254	120.15828
499.462	35.82884
499.671	37.93663
499.879	21.07496
500.087	48.47593
500.296	14.75222
500.504	59.01582
500.713	37.93663
500.921	6.32224
501.129	35.82884
501.338	-12.64382
501.546	54.79979
501.754	52.69182
501.962	69.55627
502.171	52.69182
502.379	40.04444
502.587	130.70195
502.795	69.55627
503.004	130.70195
503.212	35.82884
503.42	44.26014
503.628	46.36803
503.837	27.39791
504.045	40.04444
504.253	10.53718
504.461	52.69182
504.669	23.18258
504.877	10.53718
505.085	48.47593
505.294	-46.35635
505.502	-56.89021
505.71	61.12386
505.918	84.31387
506.126	54.79979
506.334	46.36803
506.542	44.26014
506.75	80.0973
506.958	61.12386
507.166	113.83233
507.374	27.39791
507.582	120.15828
507.79	63.23193
507.998	48.47593
508.206	10.53718
508.414	29.5056
508.622	10.53718
508.83	-6.32202
509.037	99.07256
509.245	35.82884
509.453	2.10739
509.661	82.20557
509.869	84.31387
510.077	69.55627
510.285	80.0973
510.492	12.64469
510.7	63.23193
510.908	23.18258
511.116	14.75222
511.324	46.36803
511.531	-2.10736
511.739	82.20557
511.947	56.90779
512.155	-8.42931
512.362	25.29023
512.57	23.18258
512.778	21.07496
512.985	63.23193
513.193	29.5056
513.401	124.37568
513.608	63.23193
513.816	14.75222
514.024	52.69182
514.231	10.53718
514.439	2.10739
514.646	37.93663
514.854	31.61332
515.061	86.42218
515.269	23.18258
515.477	103.28953
515.684	46.36803
515.892	8.4297
516.099	56.90779
516.307	67.44814
516.514	82.20557
516.722	77.98905
516.929	6.32224
517.136	27.39791
517.344	69.55627
517.551	23.18258
517.759	52.69182
517.966	27.39791
518.173	120.15828
518.381	40.04444
518.588	65.34002
518.796	35.82884
519.003	115.94096
519.21	48.47593
519.418	139.13728
519.625	65.34002
519.832	44.26014
520.039	94.85568
520.247	27.39791
520.454	-2.10736
520.661	69.55627
520.868	120.15828
521.076	18.96735
521.283	113.83233
521.49	80.0973
521.697	29.5056
521.904	23.18258
522.112	96.96411
522.319	94.85568
522.526	16.85977
522.733	42.15228
522.94	56.90779
523.147	61.12386
523.354	128.59318
523.561	14.75222
523.768	61.12386
523.975	107.50658
524.183	52.69182
524.39	63.23193
524.597	40.04444
524.804	118.04961
525.011	23.18258
525.218	65.34002
525.425	94.85568
525.632	82.20557
525.838	103.28953
526.045	48.47593
526.252	52.69182
526.459	120.15828
526.666	128.59318
526.873	10.53718
527.08	86.42218
527.287	107.50658
527.494	111.72373
527.701	94.85568
527.907	44.26014
528.114	80.0973
528.321	31.61332
528.528	67.44814
528.735	6.32224
528.941	-2.10736
529.148	130.70195
529.355	86.42218
529.562	88.53052
529.768	18.96735
529.975	77.98905
530.182	179.20971
530.388	-0
530.595	94.85568
530.802	73.77262
531.008	103.28953
531.215	27.39791
531.422	54.79979
531.628	82.20557
531.835	99.07256
532.042	86.42218
532.248	80.0973
532.455	99.07256
532.661	82.20557
532.868	164.4453
533.074	92.74727
533.281	162.33619
533.487	149.68192
533.694	82.20557
533.9	113.83233
534.107	111.72373
534.313	-21.07254
534.52	162.33619
534.726	153.89993
534.933	151.79091
535.139	153.89993
535.345	172.88198
535.552	147.57295
535.758	69.55627
535.965	126.48442
536.171	158.11802
536.377	71.66443
536.584	52.69182
536.79	151.79091
536.996	118.04961
537.203	61.12386
537.409	69.55627
537.615	170.77278
537.821	54.79979
538.028	111.72373
538.234	145.464
538.44	145.464
538.646	196.08454
538.853	149.68192
539.059	69.55627
539.265	189.75633
539.471	94.85568
539.677	187.64696
539.883	113.83233
540.09	143.35507
540.296	113.83233
540.502	139.13728
540.708	103.28953
540.914	94.85568
541.12	145.464
541.326	61.12386
541.532	170.77278
541.738	206.63197
541.944	181.31899
542.15	168.6636
542.356	187.64696
542.562	145.464
542.768	130.70195
542.974	164.4453
543.18	221.39921
543.386	187.64696
543.592	206.63197
543.798	179.20971
544.004	196.08454
544.21	156.00896
544.415	174.9912
544.621	149.68192
544.827	238.27725
545.033	225.6186
545.239	193.97512
545.445	204.52245
545.651	179.20971
545.856	196.08454
546.062	141.24617
546.268	212.96067
546.474	183.42829
546.679	181.31899
546.885	166.55444
547.091	168.6636
547.297	162.33619
547.502	187.64696
547.708	109.61514
547.914	139.13728
548.119	177.10045
548.325	187.64696
548.531	229.83807
548.736	219.28955
548.942	244.60683
549.147	246.71673
549.353	189.75633
549.559	217.1799
549.764	153.89993
549.97	280.47771
550.175	299.47036
550.381	219.28955
550.586	246.71673
550.792	345.90302
550.997	153.89993
551.203	244.60683
551.408	246.71673
551.614	276.25732
551.819	242.49695
552.025	204.52245
552.23	297.36
552.435	215.07028
552.641	352.2354
552.846	284.69817
553.052	236.16742
553.257	261.48656
553.462	238.27725
553.668	293.13931
553.873	276.25732
554.078	307.91202
554.283	343.79226
554.489	307.91202
554.694	231.94784
554.899	242.49695
555.105	274.14716
555.31	373.34447
555.515	170.77278
555.72	284.69817
555.925	295.24965
556.131	356.45708
556.336	265.70668
556.541	390.23295
556.746	221.39921
556.951	305.80158
557.156	305.80158
557.361	288.91871
557.567	356.45708
557.772	318.4645
557.977	354.34623
558.182	303.69116
558.387	335.34939
558.592	386.01073
558.797	307.91202
559.002	364.90064
559.207	324.7962
559.412	310.02248
559.617	206.63197
559.822	453.574
560.027	364.90064
560.232	381.78858
560.437	316.35397
560.642	352.2354
560.847	394.45523
561.051	373.34447
561.256	364.90064
561.461	428.23586
561.666	314.24345
561.871	377.56649
562.076	367.01157
562.281	375.45547
562.485	362.78973
562.69	352.2354
562.895	392.34408
563.1	502.14492
563.305	438.79314
563.509	451.4624
563.714	419.79031
563.919	394.45523
564.123	428.23586
564.328	508.48083
564.533	436.68165
564.737	438.79314
564.942	390.23295
565.147	504.25687
565.351	402.9
565.556	487.36163
565.761	434.57018
565.965	487.36163
566.17	432.45872
566.374	432.45872
566.579	544.38677
566.784	430.34728
566.988	464.13222
567.193	462.02054
567.397	417.67897
567.602	527.48935
567.806	542.27454
568.011	544.38677
568.215	516.92892
568.42	436.68165
568.624	457.79724
568.828	415.56764
569.033	419.79031
569.237	474.69081
569.442	516.92892
569.646	398.67758
569.85	540.16233
570.055	563.39742
570.259	535.93795
570.463	510.59283
570.668	474.69081
570.872	567.62216
571.076	476.80258
571.281	580.2967
571.485	506.36885
571.689	603.53457
571.893	578.18424
572.098	485.24979
572.302	592.97171
572.506	552.83581
572.71	546.49901
572.914	584.52165
573.119	491.58535
573.323	622.54853
573.527	535.93795
573.731	656.3536
573.935	635.22506
574.139	595.08425
574.343	567.62216
574.547	660.57945
574.751	620.43582
574.955	516.92892
575.159	605.64718
575.364	658.46652
575.568	550.72353
575.772	635.22506
575.976	652.12779
576.18	660.57945
576.383	586.63414
576.587	715.51969
576.791	614.09776
576.995	816.96672
577.199	527.48935
577.403	770.4673
577.607	671.14428
577.811	730.31258
578.015	592.97171
578.219	745.10599
578.422	538.05013
578.626	812.73931
578.83	749.33277
579.034	690.1617
579.238	774.69432
579.442	753.55959
579.645	755.67302
579.849	789.48922
580.053	620.43582
580.257	736.65255
580.46	719.74618
580.664	740.87925
580.868	764.12683
581.071	751.44618
581.275	757.78646
581.479	876.15421
581.682	753.55959
581.886	755.67302
582.09	770.4673
582.293	888.83812
582.497	677.48332
582.7	863.47061
582.904	707.06685
583.107	918.43502
583.311	778.92139
583.515	880.38215
583.718	736.65255
583.922	816.96672
584.125	916.3209
584.329	969.17598
584.532	865.58452
584.735	871.92631
584.939	880.38215
585.142	888.83812
585.346	855.01504
585.549	958.60461
585.753	884.61012
585.956	1028.37872
586.159	971.29028
586.363	1032.60768
586.566	1005.11991
586.769	1032.60768
586.973	922.66327
587.176	1007.23431
587.379	1032.60768
587.582	1079.12766
587.786	838.10432
587.989	1125.65016
588.192	922.66327
588.395	992.4336
588.599	1024.14979
588.802	1104.50328
589.005	1015.692
589.208	1191.20821
589.411	967.06169
589.615	1239.85032
589.818	1074.89846
590.021	1159.48609
590.224	1081.24227
590.427	1252.53983
590.63	907.86452
590.833	1153.14177
591.036	1146.79749
591.239	1159.48609
591.442	1108.73262
591.645	1136.22377
591.848	1108.73262
592.051	1102.38862
592.254	986.09053
592.457	1311.75872
592.66	1112.96198
592.863	1313.87371
593.066	1170.06004
593.269	1400.58962
593.472	1051.63825
593.675	1271.57427
593.878	1246.19506
594.081	1326.5637
594.284	1167.94524
594.486	1390.01441
594.689	1227.16091
594.892	1286.37898
595.095	1267.34438
595.298	1421.74009
595.5	1313.87371
595.703	1442.8906
595.906	1256.76969
596.109	1311.75872
596.311	1296.95383
596.514	1370.97908
596.717	1197.55274
596.92	1574.02299
597.122	1311.75872
597.325	1485.19163
597.528	1315.9887
597.73	1373.09412
597.933	1379.43922
598.136	1535.95263
598.338	1366.74902
598.541	1447.12071
598.743	1493.65183
598.946	1637.4724
599.148	1387.89937
599.351	1491.53678
599.554	1311.75872
599.756	1569.79297
599.959	1430.20029
600.161	1565.56294
600.363	1531.72256
600.566	1624.78266
600.768	1497.88192
600.971	1567.67796
601.173	1404.81971
601.376	1557.10288
601.578	1370.97908
601.78	1700.91971
601.983	1464.04112
602.185	1540.18269
602.388	1421.74009
602.59	1700.91971
602.792	1472.50133
602.995	1652.27698
603.197	1637.4724
603.399	1717.83855
603.601	1618.43776
603.804	1612.09285
604.006	1544.41274
604.208	1698.80484
604.41	1703.03457
604.613	1749.5608
604.815	1626.89762
605.017	1707.2643
605.219	1711.49401
605.421	1629.01258
605.623	1565.56294
605.826	1772.82326
606.028	1605.74791
606.23	1793.97054
606.432	1669.19636
606.634	1937.7597
606.836	1607.86289
607.038	1800.31464
607.24	1719.95339
607.442	1878.55522
607.644	1700.91971
607.846	1785.51167
608.048	1675.54108
608.25	1762.24947
608.452	1612.09285
608.654	1719.95339
608.856	1609.97787
609.058	1901.81463
609.26	1768.59375
609.462	1946.21712
609.664	1626.89762
609.866	1992.73122
610.067	1736.87199
610.269	2136.48148
610.471	1846.83685
610.673	1819.34672
610.875	1840.49304
611.077	2066.72445
611.278	1804.54402
611.48	1996.95962
611.682	1884.89876
611.884	2098.43321
612.085	1817.23206
612.287	1897.5857
612.489	1806.6587
612.69	2013.87298
612.892	1944.10277
613.094	1980.04585
613.295	1745.33121
613.497	2005.41636
613.699	1918.73016
613.9	2098.43321
614.102	1961.01738
614.304	2015.98712
614.505	1946.21712
614.707	2030.78592
614.908	1897.5857
615.11	2018.10126
615.311	1986.38856
615.513	2064.61048
615.714	1891.24225
615.916	2081.52208
616.117	1893.35674
616.319	1988.50279
616.52	1965.24597
616.722	2117.45765
616.923	1855.29519
617.124	2092.09159
617.326	1933.53095
617.527	2083.63599
617.729	1906.04355
617.93	2187.20851
618.131	1946.21712
618.333	2163.9592
618.534	2030.78592
618.735	2083.63599
618.937	1920.84457
619.138	2178.75433
619.339	1999.07382
619.54	2275.96902
619.742	2039.24223
619.943	2111.11624
620.144	2123.799
620.345	2301.32623
620.546	2003.30218
620.748	2140.70891
620.949	2030.78592
621.15	2202.003
621.351	2136.48148
621.552	2267.51632
621.753	2125.91276
621.954	2259.06347
622.155	1903.92909
622.356	2263.28991
622.558	2199.88952
622.759	2204.11646
622.96	2221.02386
623.161	2318.23028
623.362	2032.90001
623.563	2303.43927
623.764	2174.52719
623.965	2221.02386
624.166	2254.83699
624.366	2339.35948
624.567	2240.04403
624.768	2290.76089
624.969	2111.11624
625.17	2409.07873
625.371	2013.87298
625.572	2246.38392
625.773	2284.42157
625.973	2358.37491
626.174	2269.62951
626.375	2464.00104
626.576	2269.62951
626.777	2250.61047
626.977	2174.52719
627.178	2364.71321
627.379	2250.61047
627.58	2542.14685
627.78	2411.19126
627.981	2352.03652
628.182	2252.72373
628.382	2495.68364
628.583	2233.70405
628.784	2421.75375
628.984	2210.4568
629.185	2472.44998
629.386	2354.14933
629.586	2670.94658
629.787	2358.37491
629.987	2476.67438
630.188	2166.07282
630.388	2455.55193
630.589	2326.68208
630.79	2563.26463
630.99	2413.30378
631.191	2550.5941
631.391	2402.74108
631.591	2552.70589
631.792	2390.06549
631.992	2588.60442
632.193	2373.16413
632.393	2565.37635
632.594	2449.21498
632.794	2673.05766
632.994	2569.59974
633.195	2599.16215
633.395	2588.60442
633.595	2664.61324
633.796	2590.71599
633.996	2814.47067
634.196	2444.99029
634.397	2759.60109
634.597	2561.15291
634.797	2812.36047
634.997	2626.61083
635.198	2592.82755
635.398	2559.04117
635.598	2563.26463
635.798	2637.16746
635.998	2725.83067
636.199	2639.27875
636.399	2683.61291
636.599	2521.02789
636.799	2837.68193
636.999	2556.92942
637.199	2645.61254
637.399	2597.05063
637.599	2689.9459
637.799	2540.035
637.999	2616.05389
638.199	2506.24394
638.399	2706.83332
638.599	2715.27671
638.799	2949.49385
638.999	2753.26939
639.199	3027.52669
639.399	2654.05742
639.599	2985.34934
639.799	2742.7163
639.999	2919.96258
640.199	2641.39002
640.399	2871.44072
640.599	2597.05063
640.799	2852.45185
640.998	2681.50189
641.198	2858.7816
641.398	2711.05504
641.598	2776.48502
641.798	2858.7816
641.997	3059.15568
642.197	2784.92666
642.397	2917.85309
642.597	2844.01198
642.796	3027.52669
642.996	2575.93474
643.196	3040.1787
643.395	2867.22107
643.595	2981.13127
643.795	2808.14004
643.994	3145.59023
644.194	2808.14004
644.394	3139.26666
644.593	2947.38457
644.793	3132.94294
644.992	2957.93082
645.192	3105.53851
645.392	2818.69103
645.591	3179.31348
645.791	2825.02145
645.99	3213.03254
646.19	2968.47671
646.389	3116.079
646.589	2998.00319
646.788	3322.58994
646.987	3179.31348
647.187	3299.41816
647.386	3086.56464
647.586	3215.13984
647.785	3029.6354
647.984	3299.41816
648.184	2953.71237
648.383	3290.99155
648.582	3069.6979
648.782	3238.31906
648.981	3088.67291
649.18	3246.74736
649.38	3128.72705
649.579	3113.97093
649.778	3156.12919
649.977	3326.80277
650.177	3234.10481
650.376	3250.96142
650.575	3164.56007
650.774	3288.88485
650.973	3052.83016
651.173	3217.24713
651.372	3272.03067
651.571	3507.88783
651.77	3187.74364
651.969	3381.56321
652.168	3179.31348
652.367	3415.25606
652.566	3088.67291
652.765	3518.41195
652.964	3267.81695
653.163	3482.62809
653.362	3221.46165
653.561	3463.68156
653.76	3187.74364
653.959	3575.23426
654.158	3221.46165
654.357	3419.46735
654.556	3002.22101
654.755	3533.14495
654.954	3189.85114
655.153	3440.52272
655.352	3394.19856
655.551	3413.15039
655.749	3288.88485
655.948	3583.65124
656.147	3608.90036
656.346	3596.27613
656.545	3345.75964
656.743	3695.14771
656.942	3272.03067
657.141	3526.83092
657.34	3288.88485
657.538	3537.35422
657.737	3371.03327
657.936	3629.93923
658.135	3352.07828
658.333	3571.02567
658.532	3286.77814
658.731	3714.07577
658.929	3457.36573
659.128	3455.26042
659.326	3425.78415
659.525	3701.45724
659.724	3394.19856
659.922	3503.67806
660.121	3411.04471
660.319	3716.17879
660.518	3423.67857
660.716	3770.85054
660.915	3400.516
661.113	3781.36283
661.312	3600.48428
661.51	3768.74802
661.709	3419.46735
661.907	3720.38477
662.105	3665.70099
662.304	3718.28179
662.502	3549.98156
662.701	3819.20302
662.899	3463.68156
663.097	3663.59751
663.296	3507.88783
663.494	3793.97693
663.692	3642.56165
663.891	3770.85054
664.089	3600.48428
664.287	3701.45724
664.485	3577.33853
664.684	3840.22258
664.882	3703.56037
665.08	3903.26935
665.278	3886.45863
665.476	4008.30699
665.675	3718.28179
665.873	3806.59033
666.071	3611.00433
666.269	3798.18148
666.467	3568.92134
666.665	4109.09492
666.863	3684.63145
667.061	3878.0528
667.259	3726.6936
667.457	4048.20791
667.655	3636.25053
667.853	3907.47182
668.051	3611.00433
668.249	3711.97273
668.447	3690.94127
668.645	4031.40843
668.843	3598.38022
669.041	3890.66143
669.239	3777.15797
669.437	3754.02986
669.635	3709.86967
669.833	3831.81499
670.031	3625.73161
670.229	3602.58833
670.426	3469.99723
670.624	3804.48814
670.822	3747.72178
671.02	4088.10137
671.218	3775.05551
671.415	3869.64664
671.613	3838.12071
671.811	4130.08637
672.009	3878.0528
672.206	3859.1385
672.404	3524.72621
672.602	3802.38594
672.799	3775.05551
672.997	4163.66834
673.195	3844.42626
673.392	4037.70839
673.59	3558.39943
673.788	3888.56004
673.985	3745.61905
674.183	4050.30775
674.38	3743.5163
674.578	3827.61108
674.775	3726.6936
674.973	3959.99598
675.17	3777.15797
675.368	4050.30775
675.565	3915.87654
675.763	3905.3706
675.96	3720.38477
676.158	4232.91409
676.355	3861.24016
676.553	4010.40723
676.75	3728.79651
676.947	3930.58401
677.145	3833.91692
677.342	3854.9351
677.539	3735.10511
677.737	3953.69375
677.934	3709.86967
678.131	4088.10137
678.329	3764.54293
678.526	4050.30775
678.723	3825.50909
678.92	3983.1026
679.118	3920.07877
679.315	4020.90809
679.512	3802.38594
679.709	3890.66143
679.906	3766.64549
680.104	3989.40397
680.301	3669.90789
680.498	3720.38477
680.695	3747.72178
680.892	3991.50439
681.089	3808.69249
681.286	3978.90158
681.483	3886.45863
681.68	3953.69375
681.877	3779.26041
682.075	3995.70516
682.272	3844.42626
682.469	4065.00607
682.665	3779.26041
682.862	4090.20082
683.059	3705.66349
683.256	3983.1026
683.453	3846.52806
683.65	4096.49904
683.847	3821.30506
684.044	3945.29049
684.241	3659.39049
684.438	3844.42626
684.635	3745.61905
684.831	4071.30504
685.028	3810.79464
685.225	3924.28093
685.422	3693.0445
685.619	4138.48237
685.815	3793.97693
686.012	4075.50425
686.209	3869.64664
686.405	3920.07877
686.602	3819.20302
686.799	3878.0528
686.996	3938.98784
687.192	3966.29803
687.389	3905.3706
687.586	3964.19737
687.782	3852.83337
687.979	4174.16161
688.175	3810.79464
688.372	3793.97693
688.568	3701.45724
688.765	4050.30775
688.962	3802.38594
689.158	3894.86415
689.355	3793.97693
689.551	3920.07877
689.748	3831.81499
689.944	4010.40723
690.14	3760.33776
690.337	3863.34181
690.533	3905.3706
690.73	4016.7078
690.926	3928.483
691.123	3934.78596
691.319	3802.38594
691.515	4222.4238
691.712	3608.90036
691.908	3985.20307
692.104	3743.5163
692.301	3913.77539
692.497	3768.74802
692.693	4081.8029
692.889	3966.29803
693.086	3812.89676
693.282	3922.17986
693.478	4073.40465
693.674	3844.42626
693.87	4008.30699
694.067	4004.10647
694.263	4130.08637
694.459	3743.5163
694.655	3947.39134
694.851	3810.79464
695.047	3911.67422
695.243	3938.98784
695.439	4062.90637
695.635	3644.66532
695.831	3970.49929
696.027	3711.97273
696.224	3779.26041
696.42	3718.28179
696.615	3964.19737
696.811	3770.85054
697.007	3970.49929
697.203	3625.73161
697.399	3859.1385
697.595	3802.38594
697.791	3951.59297
697.987	3857.03681
698.183	4146.87803
698.379	3812.89676
698.575	4127.98732
698.77	3728.79651
698.966	3896.96548
699.162	3854.9351
699.358	4073.40465
699.554	3983.1026
699.749	4002.00617
699.945	3836.01883
700.141	3962.09668
700.337	3943.18963
700.532	3991.50439
700.728	3970.49929
700.924	3947.39134
701.119	3718.28179
701.315	3894.86415
701.511	3636.25053
701.706	3955.79451
701.902	3821.30506
702.097	4113.29338
702.293	3928.483
702.489	4142.68024
702.684	3859.1385
702.88	3995.70516
703.075	3899.06679
703.271	3793.97693
703.466	3899.06679
703.662	4029.3084
703.857	3846.52806
704.053	4023.0082
704.248	3913.77539
704.443	3962.09668
704.639	4046.10805
704.834	3888.56004
705.03	3844.42626
705.225	4180.45731
705.42	3810.79464
705.616	4121.69004
705.811	3869.64664
706.006	3978.90158
706.202	3726.6936
706.397	4008.30699
706.592	4008.30699
706.787	4081.8029
706.983	3913.77539
707.178	4251.79528
707.373	3848.62985
707.568	3871.74821
707.763	3678.32147
707.959	3934.78596
708.154	3781.36283
708.349	3859.1385
708.544	3987.30353
708.739	4096.49904
708.934	3768.74802
709.129	3878.0528
709.324	3726.6936
709.519	4025.10829
709.714	3657.28695
709.909	3976.80104
710.104	3819.20302
710.299	3943.18963
710.494	3836.01883
710.689	3964.19737
710.884	3819.20302
711.079	3951.59297
711.274	3718.28179
711.469	4088.10137
711.664	3844.42626
711.859	4100.69775
712.054	3936.88691
712.249	4020.90809
712.443	3777.15797
712.638	3934.78596
712.833	3777.15797
713.028	4014.60763
713.223	3701.45724
713.417	4060.80665
713.612	3857.03681
713.807	4276.96751
714.002	3911.67422
714.196	3951.59297
714.391	3894.86415
714.586	4239.20801
714.78	3903.26935
714.975	4020.90809
715.17	3903.26935
715.364	4235.01209
715.559	3970.49929
715.754	4079.70337
715.948	3978.90158
716.143	3827.61108
716.337	3743.5163
716.532	3947.39134
716.726	3798.18148
716.921	4140.58132
717.115	3873.84976
717.31	4195.14654
717.504	3873.84976
717.699	4157.37214
717.893	4016.7078
718.088	4106.99566
718.282	3970.49929
718.476	4023.0082
718.671	3699.35408
718.865	3865.44344
719.059	3894.86415
719.254	3890.66143
719.448	3467.89203
719.642	3903.26935
719.837	3533.14495
720.031	3905.3706
720.225	3621.52391
720.419	3913.77539
720.614	3697.25091
720.808	3953.69375
721.002	3699.35408
721.196	3823.40709
721.39	3575.23426
721.585	4048.20791
721.779	3646.76898
721.973	4035.60842
722.167	3817.10095
722.361	3882.25576
722.555	3793.97693
722.749	3863.34181
722.943	3705.66349
723.137	3880.15429
723.331	3699.35408
723.525	3783.46523
723.719	3718.28179
723.913	3711.97273
724.107	3625.73161
724.301	3827.61108
724.495	3701.45724
724.689	3840.22258
724.883	3583.65124
725.077	3924.28093
725.271	3661.49401
725.465	3743.5163
725.659	3741.41353
725.853	4031.40843
726.046	3659.39049
726.24	3785.56761
726.434	3646.76898
726.628	3814.99887
726.822	3663.59751
727.015	3869.64664
727.209	3629.93923
727.403	3890.66143
727.596	3949.49216
727.79	4060.80665
727.984	3970.49929
728.177	4050.30775
728.371	3808.69249
728.565	3878.0528
728.758	3871.74821
728.952	3861.24016
729.146	3701.45724
729.339	4073.40465
729.533	3886.45863
729.726	3968.39867
729.92	3955.79451
730.113	4104.89638
730.307	3936.88691
730.5	4029.3084
730.694	3865.44344
730.887	4086.0019
731.081	3863.34181
731.274	3804.48814
731.468	3709.86967
731.661	3861.24016
731.854	3840.22258
732.048	3764.54293
732.241	3762.44036
732.435	3964.19737
732.628	3676.2181
732.821	3697.25091
733.014	3964.19737
733.208	3852.83337
733.401	3836.01883
733.594	3785.56761
733.788	3829.71305
733.981	3955.79451
734.174	3869.64664
734.367	3941.08874
734.56	3894.86415
734.754	3928.483
734.947	3829.71305
735.14	3785.56761
735.333	4029.3084
735.526	4025.10829
735.719	3733.00226
735.912	3754.02986
736.105	3791.87463
736.298	4033.50844
736.491	3707.76659
736.684	3804.48814
736.877	3707.76659
737.07	3993.60479
737.263	3829.71305
737.456	4088.10137
737.649	3711.97273
737.842	3619.42003
738.035	3894.86415
738.228	3878.0528
738.421	3886.45863
738.614	3928.483
738.807	3852.83337
739	3962.09668
739.192	3676.2181
739.385	3930.58401
739.578	3930.58401
739.771	3861.24016
739.964	3878.0528
740.156	3999.90585
740.349	3938.98784
740.542	3957.89526
740.735	3936.88691
740.927	3915.87654
741.12	3823.40709
741.313	3804.48814
741.505	3741.41353
741.698	3913.77539
741.891	3848.62985
742.083	3890.66143
742.276	3913.77539
742.468	3926.38198
742.661	3779.26041
742.854	3703.56037
743.046	3528.93562
743.239	3800.28372
743.431	3886.45863
743.624	3861.24016
743.816	3793.97693
744.009	3869.64664
744.201	3878.0528
744.393	3770.85054
744.586	3737.20794
744.778	3726.6936
744.971	3711.97273
745.163	3833.91692
745.355	3585.75543
745.548	3785.56761
745.74	3709.86967
745.932	3697.25091
746.125	3821.30506
746.317	3930.58401
746.509	3869.64664
746.702	3941.08874
746.894	3642.56165
747.086	4098.59841
747.278	3838.12071
747.471	3836.01883
747.663	3863.34181
747.855	4062.90637
748.047	3884.35721
748.239	4033.50844
748.431	3922.17986
748.623	3915.87654
748.815	3777.15797
749.008	3983.1026
749.2	3751.92719
749.392	3871.74821
749.584	3747.72178
749.776	3844.42626
749.968	3711.97273
750.16	4071.30504
750.352	3718.28179
750.544	3806.59033
750.736	3848.62985
750.928	3917.97767
751.12	3768.74802
751.311	4020.90809
751.503	3831.81499
751.695	3865.44344
751.887	3491.04829
752.079	3634.14678
752.271	3781.36283
752.463	3911.67422
752.654	3579.44279
752.846	3825.50909
753.038	3672.01131
753.23	3800.28372
753.421	3640.45796
753.613	3714.07577
753.805	3545.77252
753.997	3814.99887
754.188	3667.80445
754.38	3560.50385
754.572	3592.06791
754.763	3751.92719
754.955	3672.01131
755.146	3770.85054
755.338	3663.59751
755.53	3667.80445
755.721	3709.86967
755.913	3743.5163
756.104	3703.56037
756.296	3882.25576
756.487	3520.51672
756.679	3781.36283
756.87	3608.90036
757.062	3509.99269
757.253	3491.04829
757.445	3451.04974
757.636	3524.72621
757.827	3476.31274
758.019	3448.94437
758.21	3819.20302
758.401	3617.31614
758.593	3684.63145
758.784	3608.90036
758.975	3602.58833
759.167	3840.22258
759.358	3707.76659
759.549	3562.60825
759.74	3381.56321
759.932	3385.77507
760.123	3592.06791
760.314	3358.39677
760.505	3650.97622
760.696	3297.31153
760.888	3398.4102
761.079	3389.98685
761.27	3476.31274
761.461	3347.86587
761.652	3665.70099
761.843	3562.60825
762.034	3583.65124
762.225	3459.47103
762.416	3484.73317
762.607	3537.35422
762.798	3693.0445
762.989	3381.56321
763.18	3680.42482
763.371	3442.62816
763.562	3701.45724
763.753	3438.41727
763.944	3537.35422
764.135	3408.939
764.326	3493.1533
764.517	3432.10079
764.708	3697.25091
764.899	3324.69636
765.089	3349.97208
765.28	3331.01553
765.471	3381.56321
765.662	3145.59023
765.853	3383.66915
766.043	3223.56888
766.234	3587.85961
766.425	3301.52477
766.615	3432.10079
766.806	3419.46735
766.997	3457.36573
767.187	3341.54712
767.378	3501.57314
767.569	3352.07828
767.759	3295.20489
767.95	3402.62178
768.141	3381.56321
768.331	3238.31906
768.522	3210.92522
768.712	3305.73794
768.903	3448.94437
769.093	3244.64031
769.284	3217.24713
769.474	3090.78116
769.665	3162.45237
769.855	3288.88485
770.046	3267.81695
770.236	3132.94294
770.426	3208.81789
770.617	3050.72162
770.807	3318.37705
770.998	3189.85114
771.188	3299.41816
771.378	3151.91365
771.569	3202.49579
771.759	3187.74364
771.949	3314.16408
772.139	3113.97093
772.33	3054.93868
772.52	2993.7853
772.71	3099.21403
772.9	3010.65648
773.09	3229.89049
773.281	2829.24167
773.471	3297.31153
773.661	3014.87413
773.851	3145.59023
774.041	2983.24032
774.231	3154.02143
774.421	2888.31875
774.611	2947.38457
774.802	2936.83794
774.992	2947.38457
775.182	3116.079
775.372	3158.23693
775.562	3086.56464
775.752	3044.39592
775.942	2869.3309
776.131	3145.59023
776.321	2721.60912
776.511	3016.98293
776.701	2938.9473
776.891	2987.45835
777.081	2888.31875
777.271	2991.67633
777.461	3000.11211
777.651	2979.02222
777.84	2784.92666
778.03	2871.44072
778.22	2913.63408
778.41	2881.9896
778.599	2839.79196
778.789	3166.66775
778.979	2888.31875
779.169	2858.7816
779.358	2869.3309
779.548	3223.56888
779.738	2938.9473
779.927	3080.23973
780.117	2903.08628
780.307	3035.96143
780.496	2759.60109
780.686	3130.83501
780.875	2865.11122
781.065	3010.65648
781.254	2784.92666
781.444	2708.94419
781.633	2664.61324
781.823	2993.7853
782.012	2894.64778
782.202	3052.83016
782.391	2719.49833
782.581	2934.72857
782.77	2529.47561
782.96	2770.15364
783.149	2867.22107
783.338	2778.59545
783.528	2685.72392
783.717	2725.83067
783.906	2658.27978
784.096	2706.83332
784.285	2761.71163
784.474	2888.31875
784.663	2677.2798
784.853	2698.38971
785.042	2698.38971
785.231	2793.36808
785.42	2704.72244
785.61	2774.37457
785.799	2630.83352
785.988	2698.38971
786.177	2421.75375
786.366	2683.61291
786.555	2552.70589
786.744	2571.71142
786.933	2571.71142
787.122	2751.1588
787.312	2711.05504
787.501	2626.61083
787.69	2508.35597
787.879	2833.46182
788.068	2453.43962
788.257	2725.83067
788.445	2373.16413
788.634	2666.72436
788.823	2411.19126
789.012	2523.13984
789.201	2278.08217
789.39	2611.83103
789.579	2421.75375
789.768	2502.01985
789.957	2434.42839
790.145	2711.05504
790.334	2436.54079
790.523	2616.05389
790.712	2311.89134
790.9	2620.2767
791.089	2352.03652
791.278	2457.66422
791.467	2294.98706
791.655	2622.38809
791.844	2193.54905
792.033	2470.33776
792.221	2170.30002
792.41	2347.81088
792.599	2212.57023
792.787	2352.03652
792.976	2466.11329
793.164	2512.57999
793.353	2356.26213
793.541	2349.92371
793.73	2411.19126
793.918	2495.68364
794.107	2282.30845
794.295	2639.27875
794.484	2413.30378
794.672	2556.92942
794.861	2493.57154
795.049	2461.88878
795.238	2299.21318
795.426	2546.3705
795.614	2282.30845
795.803	2326.68208
795.991	2212.57023
796.179	2480.89874
796.368	2250.61047
796.556	2428.09112
796.744	2030.78592
796.932	2552.70589
797.121	2284.42157
797.309	2330.90792
797.497	2299.21318
797.685	2360.48769
797.874	2269.62951
798.062	2204.11646
798.25	2233.70405
798.438	2356.26213
798.626	2309.77833
798.814	2440.76557
799.002	2292.87398
799.19	2250.61047
799.378	2187.20851
799.566	2375.27684
799.755	2280.19531
799.943	2356.26213
800.131	2111.11624
800.318	2390.06549
800.506	2195.66255
800.694	2225.25063
800.882	2089.9777
801.07	2326.68208
801.258	2294.98706
801.446	2385.84021
801.634	2242.15733
801.822	2240.04403
802.01	2077.29422
802.197	2406.96619
802.385	2273.85586
802.573	2303.43927
802.761	2303.43927
802.949	2314.00433
803.136	2320.34325
803.324	2461.88878
803.512	2341.47234
803.699	2339.35948
803.887	2212.57023
804.075	2455.55193
804.262	2123.799
804.45	2322.4562
804.638	2286.53469
804.825	2504.1319
805.013	2261.17669
805.201	2343.5852
805.388	2149.16367
805.576	2269.62951
805.763	2199.88952
805.951	2233.70405
806.138	2267.51632
806.326	2202.003
806.513	2392.17812
806.701	2144.93631
806.888	2140.70891
807.075	2428.09112
807.263	2123.799
807.45	2337.2466
807.638	2182.98144
807.825	2436.54079
808.012	2149.16367
808.2	2400.62851
808.387	2246.38392
808.574	2508.35597
808.761	2305.5523
808.949	2330.90792
809.136	2261.17669
809.323	2451.32731
809.51	2398.51592
809.698	2442.87794
809.885	2322.4562
810.072	2552.70589
810.259	2387.95286
810.446	2381.6149
810.633	2415.41629
810.82	2529.47561
811.008	2516.80396
811.195	2749.0482
811.382	2371.05142
811.569	2464.00104
811.756	2271.74269
811.943	2364.71321
812.13	2421.75375
812.317	2411.19126
812.504	2227.364
812.691	2436.54079
812.878	2303.43927
813.064	2472.44998
813.251	2259.06347
813.438	2292.87398
813.625	2478.78656
813.812	2542.14685
813.999	2406.96619
814.186	2546.3705
814.372	2278.08217
814.559	2455.55193
814.746	2453.43962
814.933	2396.40333
815.12	2225.25063
815.306	2227.364
815.493	2297.10012
815.68	2444.99029
815.866	2368.93869
816.053	2402.74108
816.24	2227.364
816.426	2461.88878
816.613	2216.79707
816.799	2381.6149
816.986	2242.15733
817.173	2328.795
817.359	2208.34336
817.546	2271.74269
817.732	2140.70891
817.919	2493.57154
818.105	2216.79707
818.292	2185.09498
818.478	2284.42157
818.665	2402.74108
818.851	2360.48769
819.037	2531.58751
819.224	2138.5952
819.41	2387.95286
819.597	2231.59071
819.783	2440.76557
819.969	2210.4568
820.156	2297.10012
820.342	2320.34325
820.528	2375.27684
820.714	2202.003
820.901	2288.64779
821.087	2151.27734
821.273	2449.21498
821.459	2187.20851
821.646	2271.74269
821.832	2301.32623
822.018	2337.2466
822.204	2170.30002
822.39	2275.96902
822.576	2147.04999
822.762	2292.87398
822.948	2193.54905
823.134	2227.364
823.32	1988.50279
823.507	2259.06347
823.693	2115.34386
823.879	2404.85364
824.065	2280.19531
824.25	2436.54079
824.436	2134.36775
824.622	2309.77833
824.808	2235.81739
824.994	2318.23028
825.18	2394.29073
825.366	2440.76557
825.552	2060.38251
825.738	2409.07873
825.923	2085.7499
826.109	2497.79572
826.295	2134.36775
826.481	2261.17669
826.667	2117.45765
826.852	2322.4562
827.038	2075.18028
827.224	2314.00433
827.409	2303.43927
827.595	2032.90001
827.781	1996.95962
827.966	2246.38392
828.152	1887.01326
828.338	2229.47736
828.523	2142.82261
828.709	2214.68365
828.894	2115.34386
829.08	2166.07282
829.266	1903.92909
829.451	2227.364
829.637	1889.12776
829.822	2254.83699
830.008	2070.95238
830.193	2233.70405
830.378	1956.78876
830.564	1973.70308
830.749	1984.27433
830.935	2073.06634
831.12	1772.82326
831.305	2328.795
831.491	2028.67183
831.676	2039.24223
831.861	2001.188
832.047	2030.78592
832.232	1933.53095
832.417	2068.83842
832.602	1897.5857
832.788	2005.41636
832.973	1882.78425
833.158	2083.63599
833.343	1821.46137
833.528	2058.26851
833.714	1861.63889
833.899	2062.4965
834.084	1827.8053
834.269	2037.12816
834.454	1755.90515
834.639	1870.0971
834.824	1827.8053
835.009	2009.64468
835.194	1899.70017
835.379	1973.70308
835.564	1954.67445
835.749	2009.64468
835.934	1863.75345
836.119	1762.24947
836.304	1806.6587
836.489	1920.84457
836.674	1743.21641
836.859	1941.98842
837.044	1832.03457
837.228	1887.01326
837.413	1726.29789
837.598	1853.18061
837.783	1787.6264
837.968	1937.7597
838.152	1626.89762
838.337	1880.66974
838.522	1700.91971
838.707	1863.75345
838.891	1777.05275
839.076	1882.78425
839.261	1574.02299
839.445	1844.72225
839.63	1648.04711
839.815	1774.938
839.999	1673.42618
840.184	1882.78425
840.368	1829.91994
840.553	1753.79037
840.737	1679.77088
840.922	1753.79037
841.106	1728.41272
841.291	1836.26381
841.475	1673.42618
841.66	1730.52754
841.844	1565.56294
842.029	1760.1347
842.213	1658.62177
842.397	1624.78266
842.582	1658.62177
842.766	1635.35745
842.951	1497.88192
843.135	1751.67558
843.319	1679.77088
843.504	1645.93217
843.688	1447.12071
843.872	1540.18269
844.056	1540.18269
844.241	1785.51167
844.425	1569.79297
844.609	1667.08145
844.793	1548.64279
844.977	1669.19636
845.161	1480.96153
845.346	1770.70851
845.53	1671.31127
845.714	1523.26242
845.898	1396.35953
846.082	1531.72256
846.266	1485.19163
846.45	1736.87199
846.634	1434.43039
846.818	1506.3421
847.002	1483.07658
847.186	1607.86289
847.37	1489.42173
847.554	1645.93217
847.738	1461.92607
847.922	1643.81723
848.106	1457.69597
848.29	1548.64279
848.473	1430.20029
848.657	1629.01258
848.841	1447.12071
849.025	1559.2179
849.209	1421.74009
849.392	1497.88192
849.576	1368.86405
849.76	1413.2799
849.944	1335.02372
850.127	1464.04112
850.311	1296.95383
850.495	1430.20029
850.678	1303.29877
850.862	1548.64279
851.046	1466.15618
851.229	1483.07658
851.413	1273.68922
851.596	1533.83759
851.78	1417.50999
851.964	1404.81971
852.147	1201.78244
852.331	1349.82882
852.514	1337.13873
852.698	1271.57427
852.881	1239.85032
853.065	1288.49394
853.248	1161.60087
853.431	1256.76969
853.615	1206.01215
853.798	1201.78244
853.982	1237.73541
854.165	1163.71566
854.348	1093.93002
854.532	1161.60087
854.715	1151.02701
854.898	1345.59879
855.081	1117.19135
855.265	1328.6787
855.448	1157.37131
855.631	1290.60891
855.814	1146.79749
855.997	1174.28964
856.181	1089.70075
856.364	1197.55274
856.547	1117.19135
856.73	1210.24188
856.913	994.54797
857.096	1229.27581
857.279	1051.63825
857.462	1165.83045
857.645	1108.73262
857.828	1237.73541
858.011	1159.48609
858.194	1129.87959
858.377	998.77672
858.56	1049.52372
858.743	981.86185
858.926	1144.68274
859.109	1000.89111
859.292	1068.55471
859.475	967.06169
859.658	1159.48609
859.841	1108.73262
860.023	1119.30605
860.206	952.26187
860.389	1186.97855
860.572	905.75044
860.755	1155.25654
860.937	956.49035
861.12	990.31924
861.303	977.6332
861.486	1110.84729
861.668	948.03341
861.851	1252.53983
862.034	888.83812
862.216	1045.29468
862.399	871.92631
862.581	977.6332
862.764	871.92631
862.947	1102.38862
863.129	960.71887
863.312	918.43502
863.494	812.73931
863.677	1049.52372
863.859	871.92631
864.042	1045.29468
864.224	948.03341
864.406	1125.65016
864.589	857.12892
864.771	994.54797
864.954	838.10432
865.136	983.97619
865.318	808.51194
865.501	964.94741
865.683	880.38215
865.865	914.20679
866.048	772.5808
866.23	888.83812
866.412	871.92631
866.594	948.03341
866.777	812.73931
866.959	848.67345
867.141	717.63293
867.323	753.55959
867.505	795.83004
867.687	909.9786
867.869	719.74618
868.052	863.47061
868.234	643.67633
868.416	897.29422
868.598	645.78918
868.78	825.42165
868.962	776.80785
869.144	814.85301
869.326	757.78646
869.508	787.37564
869.69	802.17095
869.872	827.5354
870.054	802.17095
870.236	914.20679
870.417	592.97171
870.599	884.61012
870.781	804.2846
870.963	732.42589
871.145	738.76589
871.327	808.51194
871.508	669.03129
871.69	742.99261
871.872	673.25728
872.054	861.3567
872.235	774.69432
872.417	800.0573
872.599	645.78918
872.78	842.33194
872.962	685.93553
873.144	747.21937
873.325	671.14428
873.507	726.08599
873.689	730.31258
873.87	719.74618
874.052	764.12683
874.233	795.83004
874.415	753.55959
874.596	764.12683
874.778	688.04861
874.959	626.77399
875.141	620.43582
875.322	888.83812
875.503	694.38792
875.685	855.01504
875.866	812.73931
876.048	850.78731
876.229	654.24069
876.41	690.1617
876.592	679.59635
876.773	688.04861
876.954	546.49901
877.136	742.99261
877.317	669.03129
877.498	825.42165
877.679	597.19681
877.86	781.03494
878.042	781.03494
878.223	717.63293
878.404	766.24031
878.585	787.37564
878.766	702.8405
878.947	730.31258
879.128	609.87244
879.309	717.63293
879.49	715.51969
879.672	679.59635
879.853	698.61419
880.034	812.73931
880.215	622.54853
880.396	867.69844
880.576	669.03129
880.757	774.69432
880.938	660.57945
881.119	711.29325
881.3	728.19928
881.481	842.33194
881.662	804.2846
881.843	967.06169
882.023	823.3079
882.204	736.65255
882.385	626.77399
882.566	738.76589
882.747	755.67302
882.927	850.78731
883.108	728.19928
883.289	762.01336
883.469	719.74618
883.65	764.12683
883.831	764.12683
884.011	778.92139
884.192	690.1617
884.373	859.24281
884.553	768.3538
884.734	888.83812
884.914	772.5808
885.095	833.87673
885.275	683.82246
885.456	939.57658
885.636	755.67302
885.817	933.23403
885.997	736.65255
886.178	893.06615
886.358	825.42165
886.538	810.62562
886.719	762.01336
886.899	745.10599
887.08	747.21937
887.26	880.38215
887.44	628.88674
887.621	848.67345
887.801	647.90204
887.981	823.3079
888.161	677.48332
888.342	821.19417
888.522	690.1617
888.702	778.92139
888.882	804.2846
889.062	742.99261
889.242	838.10432
889.423	863.47061
889.603	827.5354
889.783	783.14849
889.963	590.85917
890.143	726.08599
890.323	789.48922
890.503	838.10432
890.683	806.39826
890.863	808.51194
891.043	762.01336
891.223	751.44618
891.403	715.51969
891.583	783.14849
891.763	728.19928
891.943	844.44577
892.122	700.72734
892.302	871.92631
892.482	816.96672
892.662	844.44577
892.842	745.10599
893.022	922.66327
893.201	728.19928
893.381	816.96672
893.561	713.40647
893.741	833.87673
893.92	855.01504
894.1	848.67345
894.28	721.85944
894.459	736.65255
894.639	679.59635
894.819	685.93553
894.998	664.80534
895.178	694.38792
895.357	637.33786
895.537	781.03494
895.716	662.69239
895.896	806.39826
896.075	728.19928
896.255	821.19417
896.434	666.91831
896.614	762.01336
896.793	643.67633
896.973	704.95367
897.152	677.48332
897.331	753.55959
897.511	694.38792
897.69	791.60282
897.87	662.69239
898.049	618.32312
898.228	685.93553
898.407	538.05013
898.587	609.87244
898.766	618.32312
898.945	443.01617
899.124	626.77399
899.304	487.36163
899.483	658.46652
899.662	580.2967
899.841	502.14492
900.02	483.13796
900.199	618.32312
900.378	567.62216
900.557	592.97171
900.737	533.82578
900.916	609.87244
901.095	531.71362
901.274	561.28507
901.453	483.13796
901.632	491.58535
901.811	402.9
901.989	542.27454
902.168	383.89964
902.347	468.35561
902.526	407.12248
902.705	565.50978
902.884	369.12252
903.063	462.02054
903.242	432.45872
903.42	504.25687
903.599	369.12252
903.778	451.4624
903.957	436.68165
904.135	538.05013
904.314	415.56764
904.493	434.57018
904.672	356.45708
904.85	453.574
905.029	333.23872
905.207	375.45547
905.386	371.23349
905.565	451.4624
905.743	369.12252
905.922	419.79031
906.1	386.01073
906.279	457.79724
906.457	390.23295
906.636	392.34408
906.814	331.12806
906.993	398.67758
907.171	335.34939
907.35	314.24345
907.528	316.35397
907.707	324.7962
907.885	324.7962
908.063	407.12248
908.242	348.0138
908.42	358.56795
908.598	265.70668
908.777	341.68151
908.955	369.12252
909.133	354.34623
909.311	255.15652
909.49	367.01157
909.668	227.72833
909.846	310.02248
910.024	345.90302
910.202	373.34447
910.38	394.45523
910.559	267.81677
910.737	375.45547
910.915	341.68151
911.093	265.70668
911.271	358.56795
911.449	215.07028
911.627	400.78878
911.805	339.57079
911.983	299.47036
912.161	335.34939
912.339	411.34503
912.517	352.2354
912.695	396.5664
912.872	324.7962
913.05	383.89964
913.228	371.23349
913.406	381.78858
913.584	305.80158
913.762	356.45708
913.939	246.71673
914.117	364.90064
914.295	424.01305
914.473	284.69817
914.65	348.0138
914.828	432.45872
915.006	288.91871
915.184	356.45708
915.361	350.12459
915.539	257.26651
915.716	348.0138
915.894	303.69116
916.072	282.58793
916.249	284.69817
916.427	297.36
916.604	324.7962
916.782	215.07028
916.959	424.01305
917.137	206.63197
917.314	362.78973
917.492	255.15652
917.669	324.7962
917.847	297.36
918.024	238.27725
918.201	212.96067
918.379	229.83807
918.556	263.59661
918.733	316.35397
918.911	293.13931
919.088	236.16742
919.265	204.52245
919.442	310.02248
919.62	238.27725
919.797	297.36
919.974	267.81677
920.151	257.26651
920.328	196.08454
920.506	305.80158
920.683	293.13931
920.86	204.52245
921.037	179.20971
921.214	276.25732
921.391	320.57505
921.568	229.83807
921.745	189.75633
921.922	272.03701
922.099	297.36
922.276	267.81677
922.453	191.86571
922.63	204.52245
922.807	191.86571
922.984	318.4645
923.161	141.24617
923.338	189.75633
923.514	219.28955
923.691	259.37653
923.868	253.04654
924.045	263.59661
924.222	212.96067
924.399	250.93658
924.575	212.96067
924.752	137.02842
924.929	179.20971
925.105	179.20971
925.282	187.64696
925.459	164.4453
925.635	189.75633
925.812	280.47771
925.989	181.31899
926.165	164.4453
926.342	196.08454
926.518	212.96067
926.695	219.28955
926.871	208.74152
927.048	172.88198
927.224	162.33619
927.401	139.13728
927.577	164.4453
927.754	179.20971
927.93	96.96411
928.107	215.07028
928.283	126.48442
928.459	128.59318
928.636	111.72373
928.812	185.53762
928.988	172.88198
929.165	132.81075
929.341	145.464
929.517	162.33619
929.693	153.89993
929.87	170.77278
930.046	132.81075
930.222	137.02842
930.398	162.33619
930.574	179.20971
930.751	111.72373
930.927	105.39804
931.103	206.63197
931.279	162.33619
931.455	170.77278
931.631	156.00896
931.807	103.28953
931.983	208.74152
932.159	145.464
932.335	166.55444
932.511	120.15828
932.687	37.93663
932.863	153.89993
933.039	139.13728
933.215	149.68192
933.391	94.85568
933.566	132.81075
933.742	115.94096
933.918	94.85568
934.094	107.50658
934.27	69.55627
934.445	122.26697
934.621	77.98905
934.797	92.74727
934.973	94.85568
935.148	69.55627
935.324	94.85568
935.5	46.36803
935.675	56.90779
935.851	69.55627
936.027	69.55627
936.202	44.26014
936.378	94.85568
936.553	115.94096
936.729	21.07496
936.904	65.34002
937.08	56.90779
937.255	118.04961
937.431	-14.75104
937.606	132.81075
937.782	42.15228
937.957	71.66443
938.133	86.42218
938.308	77.98905
938.483	63.23193
938.659	50.58386
938.834	54.79979
939.009	31.61332
939.185	107.50658
939.36	61.12386
939.535	37.93663
939.71	63.23193
939.886	120.15828
940.061	48.47593
940.236	69.55627
940.411	16.85977
940.586	-27.39383
940.761	69.55627
940.937	-23.17966
941.112	-27.39383
941.287	-29.50088
941.462	69.55627
941.637	21.07496
941.812	52.69182
941.987	69.55627
942.162	73.77262
942.337	92.74727
942.512	33.72107
942.687	-31.6079
942.862	67.44814
943.037	14.75222
943.212	27.39791
943.386	84.31387
943.561	46.36803
943.736	52.69182
943.911	12.64469
944.086	31.61332
944.26	-4.2147
944.435	27.39791
944.61	44.26014
944.785	44.26014
944.959	-33.71489
945.134	75.88082
945.309	42.15228
945.483	80.0973
945.658	2.10739
945.833	48.47593
946.007	-31.6079
946.182	35.82884
946.357	12.64469
946.531	103.28953
946.706	21.07496
946.88	77.98905
947.055	-54.78349
947.229	69.55627
947.404	75.88082
947.578	96.96411
947.752	18.96735
947.927	23.18258
948.101	21.07496
948.276	61.12386
948.45	37.93663
948.624	80.0973
948.799	-4.2147
948.973	12.64469
949.147	80.0973
949.321	88.53052
949.496	12.64469
949.67	69.55627
949.844	-27.39383
950.018	48.47593
950.193	77.98905
950.367	4.2148
950.541	40.04444
950.715	-31.6079
950.889	113.83233
951.063	69.55627
951.237	4.2148
951.411	23.18258
951.585	-31.6079
951.759	6.32224
951.933	18.96735
952.107	8.4297
952.281	14.75222
952.455	80.0973
952.629	27.39791
952.803	111.72373
952.977	73.77262
953.151	21.07496
953.325	92.74727
953.499	-23.17966
953.672	103.28953
953.846	27.39791
954.02	23.18258
954.194	69.55627
954.368	31.61332
954.541	23.18258
954.715	46.36803
954.889	-52.67674
955.062	69.55627
955.236	35.82884
955.41	48.47593
955.583	42.15228
955.757	-12.64382
955.93	25.29023
956.104	56.90779
956.278	21.07496
956.451	29.5056
956.625	48.47593
956.798	4.2148
956.972	77.98905
957.145	113.83233
957.319	10.53718
957.492	48.47593
957.665	71.66443
957.839	18.96735
958.012	18.96735
958.185	75.88082
958.359	77.98905
958.532	80.0973
958.705	71.66443
958.879	122.26697
959.052	44.26014
959.225	23.18258
959.398	2.10739
959.572	46.36803
959.745	61.12386
959.918	-23.17966
960.091	77.98905
960.264	-31.6079
960.438	-21.07254
960.611	88.53052
960.784	44.26014
960.957	44.26014
961.13	71.66443
961.303	18.96735
961.476	52.69182
961.649	48.47593
961.822	8.4297
961.995	-21.07254
962.168	29.5056
962.341	12.64469
962.514	52.69182
962.686	145.464
962.859	35.82884
963.032	103.28953
963.205	86.42218
963.378	67.44814
963.551	27.39791
963.723	94.85568
963.896	23.18258
964.069	-23.17966
964.242	33.72107
964.414	-0
964.587	-0
964.76	25.29023
964.932	124.37568
965.105	103.28953
965.278	-12.64382
965.45	35.82884
965.623	27.39791
965.795	71.66443
965.968	-21.07254
966.14	21.07496
966.313	88.53052
966.485	88.53052
966.658	77.98905
966.83	120.15828
967.003	27.39791
967.175	63.23193
967.348	59.01582
967.52	6.32224
967.692	27.39791
967.865	10.53718
968.037	21.07496
968.209	25.29023
968.382	63.23193
968.554	54.79979
968.726	-12.64382
968.898	42.15228
969.071	61.12386
969.243	-6.32202
969.415	37.93663
969.587	73.77262
969.759	-14.75104
969.932	-23.17966
970.104	111.72373
970.276	48.47593
970.448	63.23193
970.62	56.90779
970.792	52.69182
970.964	-10.53658
971.136	2.10739
971.308	-4.2147
971.48	-10.53658
971.652	77.98905
971.824	54.79979
971.996	54.79979
972.168	63.23193
972.339	29.5056
972.511	86.42218
972.683	84.31387
972.855	29.5056
973.027	73.77262
973.199	-2.10736
973.37	18.96735
973.542	-14.75104
973.714	61.12386
973.886	4.2148
974.057	35.82884
974.229	35.82884
974.401	46.36803
974.572	46.36803
974.744	63.23193
974.915	23.18258
975.087	99.07256
975.259	-40.03573
975.43	21.07496
975.602	44.26014
975.773	10.53718
975.945	-4.2147
976.116	52.69182
976.288	-4.2147
976.459	35.82884
976.63	27.39791
976.802	-6.32202
976.973	63.23193
977.145	88.53052
977.316	35.82884
977.487	6.32224
977.659	-12.64382
977.83	61.12386
978.001	31.61332
978.172	86.42218
978.344	46.36803
978.515	37.93663
978.686	-69.53
978.857	18.96735
979.028	80.0973
979.2	23.18258
979.371	33.72107
979.542	61.12386
979.713	-16.85823
979.884	-2.10736
980.055	-21.07254
980.226	8.4297
980.397	103.28953
980.568	46.36803
980.739	44.26014
980.91	-10.53658
981.081	12.64469
981.252	4.2148
981.423	69.55627
981.594	2.10739
981.765	6.32224
981.936	48.47593
982.106	-29.50088
982.277	6.32224
982.448	40.04444
982.619	-4.2147
982.79	37.93663
982.96	2.10739
983.131	44.26014
983.302	48.47593
983.472	4.2148
983.643	18.96735
983.814	-25.28676
983.984	86.42218
984.155	-6.32202
984.326	18.96735
984.496	2.10739
984.667	46.36803
984.837	90.63889
985.008	29.5056
985.178	88.53052
985.349	77.98905
985.519	52.69182
985.69	35.82884
985.86	67.44814
986.031	86.42218
986.201	6.32224
986.371	-35.82187
986.542	27.39791
986.712	46.36803
986.882	-23.17966
987.053	21.07496
987.223	35.82884
987.393	33.72107
987.563	40.04444
987.734	40.04444
987.904	8.4297
988.074	8.4297
988.244	-21.07254
988.414	40.04444
988.585	59.01582
988.755	14.75222
988.925	-23.17966
989.095	52.69182
989.265	65.34002
989.435	31.61332
989.605	54.79979
989.775	-6.32202
989.945	52.69182
990.115	44.26014
990.285	6.32224
990.455	94.85568
990.625	48.47593
990.795	37.93663
990.965	56.90779
991.134	-14.75104
991.304	69.55627
991.474	14.75222
991.644	6.32224
991.814	40.04444
991.984	8.4297
992.153	14.75222
992.323	2.10739
992.493	-31.6079
992.662	-27.39383
992.832	2.10739
993.002	-6.32202
993.171	6.32224
993.341	14.75222
993.511	-63.21022
993.68	-40.03573
993.85	50.58386
994.019	65.34002
994.189	37.93663
994.358	56.90779
994.528	-31.6079
994.697	-29.50088
994.867	54.79979
995.036	86.42218
995.206	40.04444
995.375	52.69182
995.544	-14.75104
995.714	65.34002
995.883	35.82884
996.052	40.04444
996.222	6.32224
996.391	4.2148
996.56	94.85568
996.73	-14.75104
996.899	-52.67674
997.068	4.2148
997.237	14.75222
997.406	-23.17966
997.576	-4.2147
997.745	-18.9654
997.914	46.36803
998.083	-12.64382
998.252	52.69182
998.421	14.75222
998.59	14.75222
998.759	23.18258
998.928	52.69182
999.097	6.32224
999.266	10.53718
999.435	6.32224
999.604	-14.75104
999.773	35.82884
999.942	63.23193
1000.111	94.85568
1000.28	29.5056
1000.448	10.53718
1000.617	-4.2147
1000.786	-48.46317
1000.955	23.18258
1001.124	-44.2495
1001.292	12.64469
1001.461	-8.42931
1001.63	-2.10736
1001.798	-42.14263
1001.967	44.26014
1002.136	40.04444
1002.304	96.96411
1002.473	10.53718
1002.642	14.75222
1002.81	42.15228
1002.979	14.75222
1003.147	35.82884
1003.316	46.36803
1003.484	77.98905
1003.653	65.34002
1003.821	48.47593
1003.99	56.90779
1004.158	-94.80682
1004.327	63.23193
1004.495	52.69182
1004.663	82.20557
1004.832	-10.53658
1005	52.69182
1005.168	35.82884
1005.337	-14.75104
1005.505	21.07496
1005.673	-27.39383
1005.842	40.04444
1006.01	-6.32202
1006.178	-94.80682
1006.346	61.12386
1006.514	2.10739
1006.683	-2.10736
1006.851	-21.07254
1007.019	37.93663
1007.187	4.2148
1007.355	14.75222
1007.523	10.53718
1007.691	-6.32202
1007.859	-46.35635
1008.027	35.82884
1008.195	12.64469
1008.363	56.90779
1008.531	-48.46317
1008.699	40.04444
1008.867	103.28953
1009.035	63.23193
1009.203	-4.2147
1009.37	-12.64382
1009.538	4.2148
1009.706	-44.2495
1009.874	-14.75104
1010.042	52.69182
1010.209	27.39791
1010.377	48.47593
1010.545	-37.92881
1010.713	-14.75104
1010.88	71.66443
1011.048	69.55627
1011.216	54.79979
1011.383	56.90779
1011.551	14.75222
1011.718	-10.53658
1011.886	37.93663
1012.054	77.98905
1012.221	14.75222
1012.389	27.39791
1012.556	18.96735
1012.724	-0
1012.891	-37.92881
1013.058	10.53718
1013.226	10.53718
1013.393	-6.32202
1013.561	69.55627
1013.728	2.10739
1013.895	-2.10736
1014.063	23.18258
1014.23	37.93663
1014.397	65.34002
1014.565	23.18258
1014.732	44.26014
1014.899	-23.17966
1015.066	-14.75104
1015.233	27.39791
1015.401	73.77262
1015.568	12.64469
1015.735	-6.32202
1015.902	4.2148
1016.069	56.90779
1016.236	2.10739
1016.403	-2.10736
1016.57	-6.32202
1016.737	48.47593
1016.904	-0
1017.071	52.69182
1017.238	18.96735
1017.405	-35.82187
1017.572	10.53718
1017.739	35.82884
1017.906	-14.75104
1018.073	35.82884
1018.24	6.32224
1018.407	-52.67674
1018.573	-12.64382
1018.74	4.2148
1018.907	-18.9654
1019.074	59.01582
1019.241	-21.07254
1019.407	18.96735
1019.574	-25.28676
1019.741	14.75222
1019.907	48.47593
1020.074	-14.75104
1020.241	2.10739
1020.407	44.26014
1020.574	-14.75104
1020.74	63.23193
1020.907	44.26014
1021.073	29.5056
1021.24	10.53718
1021.406	2.10739
1021.573	-18.9654
1021.739	48.47593
1021.906	-12.64382
1022.072	61.12386
1022.239	23.18258
1022.405	63.23193
1022.571	18.96735
1022.738	-12.64382
1022.904	88.53052
1023.07	-6.32202
1023.237	99.07256
1023.403	10.53718
1023.569	40.04444
1023.735	29.5056
1023.902	-48.46317
1024.068	-27.39383
1024.234	-61.10358
1024.4	56.90779
1024.566	-77.95602
1024.732	-48.46317
1024.898	6.32224
1025.065	37.93663
1025.231	4.2148
1025.397	40.04444
1025.563	-23.17966
1025.729	-63.21022
1025.895	21.07496
1026.061	14.75222
1026.227	-23.17966
1026.392	18.96735
1026.558	2.10739
1026.724	25.29023
1026.89	14.75222
1027.056	90.63889
1027.222	-2.10736
1027.388	-31.6079
1027.553	21.07496
1027.719	-31.6079
1027.885	63.23193
1028.051	-31.6079
1028.216	8.4297
1028.382	-12.64382
1028.548	-35.82187
1028.713	-44.2495
1028.879	-23.17966
1029.045	-18.9654
1029.21	-31.6079
1029.376	23.18258
1029.541	-31.6079
1029.707	-46.35635
1029.873	27.39791
1030.038	21.07496
1030.204	35.82884
1030.369	10.53718
1030.534	-0
1030.7	-48.46317
1030.865	10.53718
1031.031	-21.07254
1031.196	-71.63655
1031.361	2.10739
1031.527	44.26014
1031.692	-23.17966
1031.857	-52.67674
1032.023	29.5056
1032.188	-18.9654
1032.353	-14.75104
1032.518	29.5056
1032.684	-33.71489
1032.849	-44.2495
1033.014	52.69182
1033.179	-4.2147
1033.344	48.47593
1033.509	2.10739
1033.674	-27.39383
1033.839	-50.56997
1034.004	-31.6079
1034.17	21.07496
1034.335	-27.39383
1034.5	6.32224
1034.664	-23.17966
1034.829	-44.2495
1034.994	-12.64382
1035.159	44.26014
1035.324	16.85977
1035.489	18.96735
1035.654	35.82884
1035.819	52.69182
1035.984	61.12386
1036.148	29.5056
1036.313	48.47593
1036.478	-56.89021
1036.643	75.88082
1036.807	71.66443
1036.972	-56.89021
1037.137	-23.17966
1037.301	65.34002
1037.466	-16.85823
1037.631	-8.42931
1037.795	37.93663
1037.96	-0
1038.124	10.53718
1038.289	48.47593
1038.454	31.61332
1038.618	33.72107
1038.783	10.53718
1038.947	-10.53658
1039.111	10.53718
1039.276	-14.75104
1039.44	23.18258
1039.605	10.53718
1039.769	-23.17966
1039.933	63.23193
1040.098	-16.85823
1040.262	27.39791
1040.426	-69.53
1040.591	8.4297
1040.755	10.53718
1040.919	-71.63655
1041.083	77.98905
1041.248	56.90779
1041.412	-6.32202
1041.576	-18.9654
1041.74	6.32224
1041.904	-63.21022
1042.068	27.39791
1042.232	35.82884
1042.397	4.2148
1042.561	-23.17966
1042.725	42.15228
1042.889	35.82884
1043.053	-4.2147
1043.217	52.69182
1043.381	-73.74306
1043.544	-94.80682
1043.708	-27.39383
1043.872	-4.2147
1044.036	31.61332
1044.2	35.82884
1044.364	-33.71489
1044.528	4.2148
1044.691	-27.39383
1044.855	6.32224
1045.019	-86.38163
1045.183	71.66443
1045.346	61.12386
1045.51	-29.50088
1045.674	35.82884
1045.837	35.82884
1046.001	-61.10358
1046.165	-10.53658
1046.328	-23.17966
1046.492	18.96735
1046.655	-73.74306
1046.819	103.28953
1046.983	48.47593
1047.146	10.53718
1047.31	-14.75104
1047.473	77.98905
1047.636	-25.28676
1047.8	56.90779
1047.963	-0
1048.127	-2.10736
1048.29	35.82884
