Data from mixed_try1_USB4F045381__1__00023.txt Node

Date: Thu Apr 03 19:31:57 EDT 2025
User: mmckonesweet
Spectrometer: USB4F04538
Trigger mode: 4
Integration Time (sec): 2.700000E-3
Scans to average: 1
Electric dark correction enabled: true
Nonlinearity correction enabled: true
Boxcar width: 0
XAxis mode: Wavelengths
Number of Pixels in Spectrum: 3648
>>>>>Begin Spectral Data<<<<<
345.52	-32.83698
345.736	-32.83698
345.952	-32.83698
346.168	-28.62294
346.384	-41.26476
346.6	-32.83698
346.816	-37.05092
347.032	7.20034
347.248	93.62577
347.464	-62.33245
347.68	-5.44397
347.896	47.24632
348.112	45.13842
348.328	-7.55127
348.544	57.78613
348.76	-24.40881
348.975	-81.29121
349.191	57.78613
349.407	-15.98024
349.623	5.09289
349.839	-7.55127
350.055	32.49155
350.27	26.16843
350.486	-7.55127
350.702	-37.05092
350.918	-32.83698
351.133	7.20034
351.349	9.30781
351.565	5.09289
351.781	24.06077
351.996	5.09289
352.212	-49.69214
352.428	43.03055
352.644	-11.7658
352.859	-39.15785
353.075	-53.90568
353.291	-37.05092
353.506	36.70708
353.722	51.46218
353.938	-5.44397
354.153	38.81488
354.369	-32.83698
354.584	36.70708
354.8	36.70708
355.016	15.63036
355.231	-26.51589
355.447	-53.90568
355.662	-56.01241
355.878	-43.37164
356.093	-20.19457
356.309	-32.83698
356.524	-32.83698
356.74	-37.05092
356.955	9.30781
357.171	13.52282
357.386	24.06077
357.602	-24.40881
357.817	-37.05092
358.033	-18.08741
358.248	-7.55127
358.464	-24.40881
358.679	9.30781
358.895	-13.87303
359.11	-20.19457
359.325	-15.98024
359.541	5.09289
359.756	-5.44397
359.972	19.84552
360.187	19.84552
360.402	-45.4785
360.618	21.95313
360.833	43.03055
361.048	34.5993
361.264	51.46218
361.479	-32.83698
361.694	-37.05092
361.909	53.57014
362.125	-51.79892
362.34	-43.37164
362.555	-22.3017
362.77	55.67812
362.986	-28.62294
363.201	-64.43909
363.416	57.78613
363.631	21.95313
363.847	51.46218
364.062	-41.26476
364.277	21.95313
364.492	-11.7658
364.707	-18.08741
364.922	-34.94396
365.138	47.24632
365.353	-68.65227
365.568	-9.65855
365.783	-43.37164
365.998	7.20034
366.213	-20.19457
366.428	-3.33665
366.643	38.81488
366.858	-62.33245
367.073	43.03055
367.288	5.09289
367.503	47.24632
367.718	-28.62294
367.933	28.27611
368.148	59.89417
368.363	-11.7658
368.578	-5.44397
368.793	-15.98024
369.008	-39.15785
369.223	-18.08741
369.438	32.49155
369.653	19.84552
369.868	17.73793
370.083	-3.33665
370.298	47.24632
370.513	-28.62294
370.728	5.09289
370.943	13.52282
371.157	-7.55127
371.372	5.09289
371.587	-28.62294
371.802	49.35423
372.017	-15.98024
372.232	-51.79892
372.446	-34.94396
372.661	-34.94396
372.876	9.30781
373.091	-1.2293
373.306	-22.3017
373.52	64.1103
373.735	-1.2293
373.95	-49.69214
374.165	-53.90568
374.379	15.63036
374.594	-70.75882
374.809	-34.94396
375.023	-62.33245
375.238	-53.90568
375.453	17.73793
375.667	24.06077
375.882	5.09289
376.097	-5.44397
376.311	15.63036
376.526	40.92271
376.741	-32.83698
376.955	-32.83698
377.17	-87.61033
377.384	89.40901
377.599	-9.65855
377.813	7.20034
378.028	40.92271
378.242	-81.29121
378.457	53.57014
378.672	-47.58533
378.886	0.87808
379.101	-47.58533
379.315	57.78613
379.53	13.52282
379.744	-20.19457
379.958	24.06077
380.173	-43.37164
380.387	-20.19457
380.602	47.24632
380.816	-3.33665
381.031	-70.75882
381.245	-9.65855
381.459	-70.75882
381.674	-41.26476
381.888	-18.08741
382.103	-53.90568
382.317	64.1103
382.531	38.81488
382.746	-11.7658
382.96	-9.65855
383.174	-51.79892
383.388	-20.19457
383.603	-18.08741
383.817	-22.3017
384.031	-45.4785
384.246	5.09289
384.46	-28.62294
384.674	95.73419
384.888	-43.37164
385.103	36.70708
385.317	-11.7658
385.531	-37.05092
385.745	76.75925
385.959	-24.40881
386.174	-18.08741
386.388	0.87808
386.602	15.63036
386.816	45.13842
387.03	34.5993
387.244	-41.26476
387.458	-7.55127
387.672	-15.98024
387.887	-9.65855
388.101	-3.33665
388.315	19.84552
388.529	45.13842
388.743	-15.98024
388.957	0.87808
389.171	17.73793
389.385	-20.19457
389.599	45.13842
389.813	32.49155
390.027	64.1103
390.241	32.49155
390.455	-11.7658
390.669	43.03055
390.883	7.20034
391.097	-45.4785
391.311	24.06077
391.525	5.09289
391.738	74.65103
391.952	9.30781
392.166	-20.19457
392.38	-3.33665
392.594	13.52282
392.808	-18.08741
393.022	-51.79892
393.236	-53.90568
393.449	-28.62294
393.663	-15.98024
393.877	-3.33665
394.091	57.78613
394.305	-7.55127
394.518	34.5993
394.732	13.52282
394.946	13.52282
395.16	-3.33665
395.373	-32.83698
395.587	-32.83698
395.801	-34.94396
396.015	21.95313
396.228	-20.19457
396.442	45.13842
396.656	47.24632
396.869	-58.11912
397.083	-15.98024
397.297	68.32652
397.51	-20.19457
397.724	15.63036
397.938	-3.33665
398.151	62.00222
398.365	-26.51589
398.578	-26.51589
398.792	-49.69214
399.005	7.20034
399.219	72.54284
399.433	-60.2258
399.646	21.95313
399.86	-1.2293
400.073	13.52282
400.287	62.00222
400.5	21.95313
400.714	43.03055
400.927	-37.05092
401.141	9.30781
401.354	64.1103
401.567	-15.98024
401.781	-37.05092
401.994	-7.55127
402.208	-9.65855
402.421	-34.94396
402.635	-7.55127
402.848	5.09289
403.061	32.49155
403.275	80.97574
403.488	21.95313
403.701	9.30781
403.915	34.5993
404.128	21.95313
404.341	13.52282
404.555	-37.05092
404.768	36.70708
404.981	47.24632
405.195	-11.7658
405.408	30.38382
405.621	-20.19457
405.834	59.89417
406.048	-1.2293
406.261	-3.33665
406.474	26.16843
406.687	17.73793
406.9	32.49155
407.114	55.67812
407.327	76.75925
407.54	32.49155
407.753	0.87808
407.966	-34.94396
408.179	80.97574
408.392	17.73793
408.605	9.30781
408.819	59.89417
409.032	55.67812
409.245	21.95313
409.458	97.84262
409.671	-3.33665
409.884	5.09289
410.097	38.81488
410.31	2.98547
410.523	76.75925
410.736	49.35423
410.949	17.73793
411.162	68.32652
411.375	89.40901
411.588	32.49155
411.801	-1.2293
412.014	49.35423
412.227	40.92271
412.44	64.1103
412.653	-37.05092
412.865	-32.83698
413.078	43.03055
413.291	21.95313
413.504	7.20034
413.717	5.09289
413.93	7.20034
414.143	59.89417
414.356	123.1456
414.568	9.30781
414.781	30.38382
414.994	-1.2293
415.207	118.92822
415.42	-26.51589
415.632	-1.2293
415.845	30.38382
416.058	36.70708
416.271	-24.40881
416.483	64.1103
416.696	-9.65855
416.909	26.16843
417.121	93.62577
417.334	64.1103
417.547	9.30781
417.759	43.03055
417.972	49.35423
418.185	72.54284
418.397	-7.55127
418.61	72.54284
418.823	34.5993
419.035	118.92822
419.248	59.89417
419.46	49.35423
419.673	59.89417
419.885	66.2184
420.098	13.52282
420.311	28.27611
420.523	91.51738
420.736	-37.05092
420.948	89.40901
421.161	0.87808
421.373	85.19233
421.586	57.78613
421.798	129.47183
422.01	80.97574
422.223	91.51738
422.435	89.40901
422.648	15.63036
422.86	89.40901
423.073	133.68943
423.285	74.65103
423.497	110.49372
423.71	83.08402
423.922	99.95108
424.134	163.21498
424.347	106.2766
424.559	-9.65855
424.771	93.62577
424.984	51.46218
425.196	53.57014
425.408	140.01598
425.621	26.16843
425.833	131.58062
426.045	93.62577
426.257	97.84262
426.47	144.23379
426.682	158.99679
426.894	108.38515
427.106	123.1456
427.318	112.60231
427.531	89.40901
427.743	83.08402
427.955	152.66967
428.167	182.19786
428.379	161.10588
428.591	133.68943
428.804	72.54284
429.016	203.2919
429.228	201.1824
429.44	74.65103
429.652	85.19233
429.864	131.58062
430.076	194.85404
430.288	133.68943
430.5	140.01598
430.712	142.12488
430.924	140.01598
431.136	91.51738
431.348	205.40141
431.56	165.32411
431.772	188.52586
431.984	161.10588
432.196	184.30718
432.408	224.38794
432.62	186.41651
432.832	152.66967
433.044	239.15634
433.256	209.6205
433.468	192.74463
433.679	224.38794
433.891	283.46719
434.103	161.10588
434.315	266.58589
434.527	234.9367
434.739	192.74463
434.95	253.9257
435.162	194.85404
435.374	258.14568
435.586	222.27825
435.798	218.05892
436.009	287.68771
436.221	279.24676
436.433	224.38794
436.645	351.00409
436.856	199.07293
437.068	165.32411
437.28	258.14568
437.491	232.82691
437.703	365.78019
437.915	275.02639
438.126	327.78622
438.338	239.15634
438.55	308.79138
438.761	253.9257
438.973	367.89113
439.184	239.15634
439.396	469.23549
439.608	302.46008
439.819	363.66927
440.031	268.69598
440.242	325.67561
440.454	310.90184
440.665	422.78141
440.877	372.11307
441.088	344.67174
441.3	340.45025
441.511	351.00409
441.723	386.89035
441.934	275.02639
442.146	365.78019
442.357	427.0042
442.569	435.44996
442.78	403.77968
442.991	351.00409
443.203	414.33604
443.414	427.0042
443.626	498.80101
443.837	416.44736
444.048	448.11907
444.26	435.44996
444.471	465.01208
444.682	494.57719
444.894	422.78141
445.105	513.58486
445.316	522.03308
445.528	462.9004
445.739	532.59368
445.95	494.57719
446.161	503.0249
446.373	519.921
446.584	536.81802
446.795	585.40185
447.006	589.62687
447.217	486.12972
447.429	500.91295
447.64	653.00817
447.851	536.81802
448.062	467.12378
448.273	534.70585
448.484	564.27757
448.695	598.07705
448.907	570.61472
449.118	648.7824
449.329	507.24884
449.54	646.66954
449.751	545.26687
449.962	570.61472
450.173	494.57719
450.384	667.79872
450.595	714.28698
450.806	807.27896
451.017	627.6543
451.228	688.92907
451.439	807.27896
451.65	682.58984
451.861	720.6267
452.072	762.89398
452.283	883.37696
452.494	934.11494
452.705	887.60495
452.915	870.69318
453.126	934.11494
453.337	946.80011
453.548	881.26297
453.759	896.06103
453.97	893.947
454.181	879.149
454.391	862.23749
454.602	967.94264
454.813	976.39985
455.024	1213.23794
455.235	1052.51931
455.445	1020.80191
455.656	1058.86295
455.867	1094.81112
456.078	984.85717
456.288	1025.03082
456.499	1181.51525
456.71	1147.67864
456.921	1151.90816
457.131	1314.75496
457.342	1111.72841
457.553	1149.7934
457.763	1283.03028
457.974	1348.59506
458.184	1213.23794
458.395	1359.17017
458.606	1215.35281
458.816	1361.2852
459.027	1441.65682
459.237	1380.32048
459.448	1536.83389
459.659	1352.8251
459.869	1623.54893
460.08	1570.67422
460.29	1680.65209
460.501	1758.90108
460.711	1763.13062
460.922	1657.38806
461.132	1697.57116
461.343	1659.50299
461.553	1805.42514
461.764	1794.85166
461.974	1695.45629
462.184	1727.17907
462.395	1957.66973
462.605	2131.021
462.816	1906.92457
463.026	2025.3245
463.236	1839.25952
463.447	2086.6307
463.657	2171.18068
463.867	2528.24367
464.078	2272.62317
464.288	2245.15117
464.498	2388.83312
464.709	2363.48077
464.919	2340.23984
465.129	2431.08373
465.339	2418.40899
465.55	2450.09512
465.76	2521.90787
465.97	2540.91494
466.18	2600.04195
466.391	3013.64399
466.601	2686.6035
466.811	2984.11908
467.021	3017.86159
467.231	3159.11516
467.441	2796.3577
467.651	3306.61568
467.862	2914.51304
468.072	3237.08991
468.282	3352.95586
468.492	3089.55135
468.702	3308.72223
468.912	3552.96292
469.122	3605.56903
469.332	3601.36097
469.542	3428.76703
469.752	3750.70062
469.962	3874.7254
470.172	4179.23316
470.382	3998.68066
470.592	4002.8813
470.802	4040.68331
471.012	4365.91952
471.222	4254.76716
471.432	4315.59387
471.642	4244.27798
471.852	4592.22906
472.062	4477.01091
472.272	4715.75171
472.482	4590.13478
472.691	5037.7946
472.901	4585.94616
473.111	4788.99079
473.321	4983.46187
473.531	5129.70666
473.741	5058.68764
473.95	5115.08729
474.16	5115.08729
474.37	5459.38245
474.58	5350.94609
474.79	5638.57988
474.999	5555.25391
475.209	5392.6599
475.419	5721.86811
475.628	6017.2364
475.838	5748.92866
476.048	5925.76469
476.258	6123.20337
476.467	6627.26877
476.677	6538.17203
476.886	6697.68718
477.096	6627.26877
477.306	6842.58282
477.515	6496.71711
477.725	6718.39342
477.935	6817.75151
478.144	6881.89236
478.354	6834.30608
478.563	7119.64445
478.773	7200.2062
478.982	7148.56795
479.192	7427.2509
479.401	7491.18856
479.611	7693.17841
479.82	7802.33306
480.03	7705.5385
480.239	7909.37125
480.449	7794.09703
480.658	8139.72685
480.868	8363.67121
481.077	8375.99166
481.287	8191.11098
481.496	8720.68577
481.705	8704.28376
481.915	8862.10464
482.124	8851.8598
482.333	9023.9141
482.543	8941.99909
482.752	9246.99177
482.961	9146.73432
483.171	9300.17319
483.38	9140.59478
483.589	9230.62598
483.799	9416.72406
484.008	9467.82613
484.217	9631.28567
484.426	9890.5744
484.636	9641.49855
484.845	10141.46992
485.054	10059.90158
485.263	10249.51375
485.472	10088.45306
485.682	10373.819
485.891	10453.2671
486.1	10377.89374
486.309	10852.25585
486.518	10903.11422
486.727	10827.84127
486.936	10646.71326
487.146	11012.94406
487.355	10791.21625
487.564	11078.01312
487.773	11405.22755
487.982	11218.28073
488.191	11543.35202
488.4	11364.59417
488.609	11557.56823
488.818	11653.00816
489.027	11841.79931
489.236	12209.02702
489.445	12286.09292
489.654	12300.28814
489.863	12168.4618
490.072	12054.86322
490.281	12428.0299
490.49	12300.28814
490.698	12413.8377
490.907	12353.01026
491.116	12819.20758
491.325	12798.94472
491.534	13044.08938
491.743	13033.96093
491.952	12809.07622
492.16	13098.78093
492.369	13410.66217
492.578	13149.41815
492.787	13337.76393
492.996	13305.36302
493.204	13509.87664
493.413	13459.25816
493.622	13740.66904
493.831	13783.17882
494.039	13716.37713
494.248	13989.637
494.457	13930.94097
494.665	13991.66096
494.874	14005.82864
495.083	14048.33094
495.291	14485.44504
495.5	14525.91465
495.709	14635.18015
495.917	14473.30405
496.126	14657.43754
496.335	14750.51265
496.543	14983.1938
496.752	14560.31342
496.96	14928.56495
497.169	15100.54392
497.377	15047.93879
497.586	15151.1257
497.794	15128.86973
498.003	15043.89224
498.211	15203.73074
498.42	15347.38341
498.628	15616.48476
498.837	15391.89578
499.045	15533.52757
499.254	15772.28622
499.462	15810.73164
499.671	15964.51755
499.879	16199.2589
500.087	16108.19299
500.296	16183.06916
500.504	16379.3774
500.713	16156.76106
500.921	16444.14276
501.129	16274.13788
501.338	16102.12204
501.546	16638.45165
501.754	16041.41335
501.962	16569.63163
502.171	16648.57245
502.379	16950.2001
502.587	16672.86263
502.795	16859.09869
503.004	16541.29472
503.212	16970.44557
503.42	16982.59299
503.628	17201.26328
503.837	16978.54384
504.045	16915.78339
504.253	17104.07247
504.461	17561.73905
504.669	17626.55422
504.877	17557.68821
505.085	17444.26993
505.294	17673.14219
505.502	17243.78634
505.71	17934.47295
505.918	17482.75002
506.126	18029.70083
506.334	17766.3234
506.542	18167.49134
506.75	17626.55422
506.958	18159.38555
507.166	17713.65489
507.374	18210.04769
507.582	18317.45907
507.79	18301.24536
507.998	18570.82975
508.206	18619.48379
508.414	18485.69054
508.622	18619.48379
508.83	18323.53927
509.037	18629.62033
509.245	18291.11191
509.453	19112.23433
509.661	19077.75435
509.869	19008.79791
510.077	18933.76239
510.285	19047.33182
510.492	18627.59302
510.7	19018.93827
510.908	18915.51134
511.116	18907.39987
511.324	18974.32145
511.531	19248.13752
511.739	18958.09763
511.947	18962.15356
512.155	19093.98008
512.362	19424.63639
512.57	19505.79581
512.778	19503.76675
512.985	19629.57676
513.193	19440.86774
513.401	19802.08436
513.608	19860.94683
513.816	19465.21527
514.024	19544.34887
514.231	19499.70862
514.439	19791.93602
514.646	19848.7681
514.854	20112.67449
515.061	19653.92894
515.269	19976.65232
515.477	19881.24505
515.684	20025.37451
515.892	19818.32193
516.099	20425.39401
516.307	20141.09942
516.514	20557.41587
516.722	20602.10419
516.929	20555.38463
517.136	20461.95214
517.344	20269.02179
517.551	20323.85077
517.759	20980.00402
517.966	20709.77071
518.173	20652.88883
518.381	20896.69123
518.588	20711.80227
518.796	20980.00402
519.003	20937.33075
519.21	20732.11806
519.418	21378.37462
519.625	21559.31844
519.832	21581.68446
520.039	21305.19285
520.247	21063.32372
520.454	21467.82605
520.661	21848.07991
520.868	21018.61473
521.076	21778.93269
521.283	21532.88648
521.49	21844.0123
521.697	21978.25143
521.904	21898.92629
522.112	21724.02485
522.319	21882.65519
522.526	21538.9861
522.733	22482.81121
522.94	21923.33341
523.147	22006.72853
523.354	21915.19764
523.561	22279.33236
523.768	21925.36736
523.975	22293.57469
524.183	22513.33615
524.39	22372.92811
524.597	23044.59625
524.804	22527.5814
525.011	22602.88063
525.218	22743.3164
525.425	22606.95099
525.632	22578.45873
525.838	22794.20301
526.045	22718.89159
526.252	22668.00818
526.459	23356.13094
526.666	23020.16539
526.873	23592.37675
527.08	23474.24862
527.287	23502.76136
527.494	23323.54861
527.701	23785.88446
527.907	23618.85515
528.114	23462.02907
528.321	23612.7447
528.528	23506.83466
528.735	23763.47693
528.941	23745.14376
529.148	23266.53151
529.355	23885.70413
529.562	23730.8848
529.768	24319.69291
529.975	23916.26256
530.182	23981.45603
530.388	24252.44707
530.595	24172.97849
530.802	23869.40657
531.008	24270.78656
531.215	24476.61101
531.422	24556.09484
531.628	24568.32347
531.835	24456.23116
532.042	24806.79945
532.248	24743.61025
532.455	24755.84024
532.661	24914.83789
532.868	24823.10671
533.074	24943.37745
533.281	25516.29921
533.487	25130.93426
533.694	24898.52978
533.9	25856.86725
534.107	25137.05057
534.313	25243.06964
534.52	25440.85149
534.726	25585.63199
534.933	25436.77332
535.139	25659.04568
535.345	25555.04372
535.552	25726.34378
535.758	25438.8124
535.965	25530.57342
536.171	25744.69817
536.377	25728.38315
536.584	25991.47755
536.79	25905.81552
536.996	26258.68153
537.203	26205.64632
537.409	25457.16428
537.615	25930.29006
537.821	26003.71524
538.028	26729.9271
538.234	26395.35438
538.44	26305.59824
538.646	26083.2618
538.853	26438.19365
539.059	26695.24386
539.265	26656.48075
539.471	26954.35831
539.677	26911.51101
539.883	27189.00918
540.09	26705.44477
540.296	26650.36031
540.502	27048.21648
540.708	27027.81228
540.914	27474.69482
541.12	26997.20624
541.326	27488.97976
541.532	27346.13316
541.738	27501.22404
541.944	27619.58772
542.15	27686.9344
542.356	27470.61342
542.562	27378.78326
542.768	27337.97068
542.974	27558.36461
543.18	27780.81376
543.386	28019.60499
543.592	28184.93108
543.798	28466.61431
544.004	28033.89214
544.21	28342.09962
544.415	28080.83603
544.621	28329.85249
544.827	27835.91803
545.033	28207.38334
545.239	28419.66568
545.445	29309.74275
545.651	28533.97636
545.856	29009.62584
546.062	28774.85614
546.268	28484.98566
546.474	28295.1525
546.679	28095.12341
546.885	28419.66568
547.091	28303.31717
547.297	28307.39952
547.502	28468.65556
547.708	28613.58756
547.914	28770.77331
548.119	28709.53137
548.325	28729.94525
548.531	28497.23328
548.736	28907.55037
548.942	28758.52485
549.147	28987.16901
549.353	29444.49646
549.559	29448.57997
549.764	29352.61843
549.97	29097.41282
550.175	29201.53474
550.381	29648.67752
550.586	29076.99707
550.792	29789.56873
550.997	29515.95862
551.203	29524.1258
551.408	30230.65382
551.614	29832.4497
551.819	30010.10464
552.025	30087.70374
552.23	29816.11403
552.435	30091.78795
552.641	30377.69427
552.846	30463.47078
553.052	30175.51525
553.257	30426.70915
553.462	29973.34775
553.668	30526.78343
553.873	30410.37078
554.078	30522.6987
554.283	30618.69106
554.489	31078.26996
554.694	30510.44456
554.899	30583.97009
555.105	31004.73257
555.31	30939.36757
555.515	30586.01249
555.72	30663.62463
555.925	30447.13223
556.131	30790.25905
556.336	31035.37292
556.541	31300.93662
556.746	31080.31269
556.951	30755.5362
557.156	30970.00724
557.361	31172.23718
557.567	31182.4512
557.772	31456.20141
557.977	31008.81793
558.182	31631.90726
558.387	31856.66614
558.592	31627.82093
558.797	31597.17371
559.002	31468.45955
559.207	31607.38941
559.412	31954.74971
559.617	31842.36264
559.822	32089.62188
560.027	31944.53247
560.232	31691.15977
560.437	31909.7942
560.642	32001.74965
560.847	31836.2326
561.051	31574.69933
561.256	31793.32278
561.461	31846.44935
561.666	32065.09903
561.871	31644.16628
562.076	31991.53218
562.281	31864.8396
562.485	31854.62277
562.69	32018.09769
562.895	31531.79425
563.1	32126.4067
563.305	32202.022
563.509	32116.18862
563.714	32676.21802
563.919	32263.3338
564.123	32334.86663
564.328	32249.02754
564.533	32459.54452
564.737	32246.9838
564.942	32584.23079
565.147	32688.48335
565.351	32995.14572
565.556	32224.50278
565.761	32473.85235
565.965	32637.37838
566.17	32465.67644
566.374	33064.66397
566.579	33432.75552
566.784	32665.99698
566.988	33033.99377
567.193	33152.5886
567.397	32888.82962
567.602	33402.07763
567.806	32960.38776
568.011	33404.1228
568.215	33136.23014
568.42	32831.58537
568.624	33074.8875
568.828	33342.76894
569.033	32852.02952
569.237	33336.6337
569.442	33312.09301
569.646	33123.96142
569.85	33121.91664
570.055	34015.77177
570.259	33933.9285
570.463	33657.7479
570.668	33105.55851
570.872	33457.29832
571.076	33498.20397
571.281	33682.29484
571.485	33602.51898
571.689	33395.94213
571.893	33590.24621
572.098	33753.89276
572.302	33903.23872
572.506	33907.33065
572.71	33510.47591
572.914	33890.96303
573.119	33950.29671
573.323	34099.66703
573.527	34058.74175
573.731	34515.14387
573.935	34558.13349
574.139	34543.80341
574.343	34015.77177
574.547	34238.82396
574.751	34674.82881
574.955	34859.11276
575.159	34275.66252
575.364	34472.15603
575.568	33989.17209
575.772	34654.35497
575.976	34361.62399
576.18	34578.60538
576.383	35281.05607
576.587	34949.2201
576.791	34662.54445
576.995	35498.25234
577.199	34965.60419
577.403	34875.49527
577.607	35498.25234
577.811	35272.86108
578.015	34443.49846
578.219	34451.68626
578.422	34793.58555
578.626	35149.94554
578.83	34885.73448
579.034	35115.12261
579.238	35266.71489
579.442	35535.1404
579.645	35108.97753
579.849	35203.20681
580.053	35658.11284
580.257	35383.5001
580.46	35850.8085
580.664	35748.30482
580.868	35639.66576
581.071	35416.28483
581.275	35520.79485
581.479	35801.60502
581.682	35709.357
581.886	35572.03015
582.09	35367.10822
582.293	36217.88799
582.497	35809.80538
582.7	35553.58506
582.904	35625.31833
583.107	35401.94136
583.311	35680.65986
583.515	35645.81474
583.718	36146.09797
583.922	36433.30264
584.125	36170.71087
584.329	36496.91434
584.532	36468.18572
584.735	36576.95065
584.939	36006.64087
585.142	36084.56945
585.346	36059.95952
585.549	36669.31244
585.753	36363.54189
585.956	36860.23586
586.159	36864.34237
586.363	36925.94344
586.566	37016.30289
586.769	36808.90666
586.973	36786.32315
587.176	36991.65807
587.379	37116.94643
587.582	36860.23586
587.786	36550.2708
587.989	36950.58559
588.192	37069.70347
588.395	37094.3515
588.599	37388.15375
588.802	36675.47036
589.005	36825.33154
589.208	37634.81859
589.411	37332.66913
589.615	36934.15738
589.818	37558.75186
590.021	37643.04266
590.224	37589.58845
590.427	37299.79191
590.63	37090.24343
590.833	37540.25074
591.036	36958.79987
591.239	37316.23028
591.442	36983.44335
591.645	37519.69467
591.848	37550.52907
592.051	37939.19329
592.254	38132.60465
592.457	37920.679
592.66	37791.09731
592.863	38383.73895
593.066	38396.09313
593.269	38420.80243
593.472	37836.34443
593.675	38746.26086
593.878	38488.75951
594.081	38348.73716
594.284	38412.56585
594.486	38752.44263
594.689	39317.40119
594.892	38768.92776
595.095	39156.50046
595.298	38808.08231
595.5	39189.50091
595.703	39263.76101
595.906	38653.54414
596.109	38040.00498
596.311	38548.48733
596.514	38707.11155
596.717	39024.52331
596.92	39327.71737
597.122	38746.26086
597.325	38727.71604
597.528	38799.83897
597.73	39183.31313
597.933	38754.50324
598.136	38711.23237
598.338	38832.81321
598.541	38876.09551
598.743	39302.95895
598.946	39144.12593
599.148	39170.93785
599.351	39100.81781
599.554	38997.72023
599.756	38880.21784
599.959	39540.28602
600.161	39519.64363
600.363	39889.29739
600.566	39348.35047
600.768	40021.54516
600.971	39313.27478
601.173	39309.14842
601.376	39228.69216
601.578	39697.20145
601.78	40011.21174
601.983	39239.00624
602.185	39569.18707
602.388	39759.15806
602.59	39589.8319
602.792	39947.15045
602.995	39274.07591
603.197	39591.89644
603.399	40282.03613
603.601	39870.70352
603.804	39511.38695
604.006	39833.51832
604.208	40219.99888
604.41	40228.26994
604.613	39945.08413
604.815	39829.38684
605.017	40036.0124
605.219	40143.49974
605.421	39391.68321
605.623	39976.08009
605.826	40021.54516
606.028	39602.21928
606.23	39670.35646
606.432	39951.28313
606.634	40327.53638
606.836	39845.91301
607.038	40288.2404
607.24	40114.55798
607.442	40532.35367
607.644	39969.88071
607.846	40197.25434
608.048	40350.28849
608.25	40002.94519
608.452	39988.47915
608.654	40368.90485
608.856	40019.47845
609.058	40248.94837
609.26	40277.90001
609.462	40172.44361
609.664	40815.96937
609.866	40209.66029
610.067	40368.90485
610.269	40284.10421
610.471	40230.33774
610.673	40652.39855
610.875	41012.7636
611.077	40666.88929
611.278	40319.26321
611.48	40358.56232
611.682	39878.96736
611.884	40596.51087
612.085	40203.45726
612.287	40339.94646
612.489	40313.05845
612.69	40052.54702
612.892	39589.8319
613.094	40089.75244
613.295	40038.07919
613.497	40313.05845
613.699	39695.13639
613.9	40230.33774
614.102	40652.39855
614.304	40745.56306
614.505	40662.74902
614.707	40621.34882
614.908	40368.90485
615.11	41230.39586
615.311	40917.46069
615.513	40967.18087
615.714	40851.17751
615.916	40110.42362
616.117	40294.44476
616.319	40826.32436
616.52	40486.82929
616.722	40366.83632
616.923	40306.85379
617.124	39259.63511
617.326	39459.78638
617.527	40733.1398
617.729	40633.76841
617.93	40524.07611
618.131	39792.2054
618.333	40445.44819
618.534	40503.38299
618.735	40350.28849
618.937	39943.01782
619.138	39721.98298
619.339	39982.27957
619.54	40199.32197
619.742	39961.61501
619.943	40079.41725
620.144	40238.60902
620.345	40364.76781
620.546	40950.60674
620.748	40826.32436
620.949	40155.904
621.15	40319.26321
621.351	40517.86805
621.552	40824.25334
621.753	40509.5908
621.954	40981.68386
622.155	40433.03472
622.356	40813.89841
622.558	40166.24118
622.759	40559.25699
622.96	40116.62518
623.161	40600.65041
623.362	40455.79305
623.563	40391.65939
623.764	40044.27962
623.965	40124.89408
624.166	40495.10605
624.366	40499.2445
624.567	40217.93114
624.768	40530.28426
624.969	40306.85379
625.17	40900.88878
625.371	40617.20905
625.572	40782.83534
625.773	40559.25699
625.973	41199.29756
626.174	40795.26026
626.375	40782.83534
626.576	40749.70425
626.777	40625.48864
626.977	40013.2784
627.178	40718.6465
627.379	40327.53638
627.58	41000.33139
627.78	40782.83534
627.981	40656.53871
628.182	40902.96023
628.382	40789.04775
628.583	40805.61467
628.784	40426.82814
628.984	40815.96937
629.185	41091.51075
629.386	40304.78559
629.586	41485.50352
629.787	41392.15034
629.987	41143.32734
630.188	41021.05198
630.388	41246.98272
630.589	40563.39613
630.79	41081.14831
630.99	40733.1398
631.191	41444.0102
631.391	41666.05614
631.591	41273.93799
631.792	41027.26838
631.992	41033.48489
632.193	41211.73656
632.393	40784.90613
632.594	40702.08342
632.794	40753.84547
632.994	40683.45083
633.195	41715.88008
633.395	41114.30914
633.595	41207.59018
633.796	41066.6414
633.996	41081.14831
634.196	41211.73656
634.397	41332.00234
634.597	41421.19093
634.797	41385.92767
634.997	41226.24927
635.198	41006.54744
635.398	41182.71289
635.598	41201.3707
635.798	41110.16387
635.998	40963.03727
636.199	41292.60051
636.399	41276.01155
636.599	41340.29802
636.799	41830.08677
636.999	42096.02287
637.199	41628.69284
637.399	41342.37197
637.599	41798.93577
637.799	41186.85899
637.999	41857.08655
638.199	41284.30593
638.399	41006.54744
638.599	41410.81902
638.799	41919.40179
638.999	41846.70177
639.199	41769.86403
639.399	41305.04273
639.599	41408.74468
639.799	41439.86113
639.999	41500.02733
640.199	41249.05613
640.399	41050.06277
640.599	40147.63445
640.799	42451.62048
640.998	41811.39583
641.198	41458.53231
641.398	41145.40016
641.598	41659.82865
641.798	41093.58327
641.997	41311.264
642.197	41157.83731
642.397	41784.3996
642.597	41838.39417
642.796	41257.34989
642.996	41170.27489
643.196	41599.63523
643.395	41684.73929
643.595	41724.18476
643.795	41618.31485
643.994	41796.85914
644.194	41458.53231
644.394	42289.37173
644.593	42407.93043
644.793	42507.80175
644.992	41956.79633
645.192	41836.3173
645.392	41979.65055
645.591	41861.24055
645.791	41790.62931
645.99	41776.09348
646.19	42235.30613
646.389	42243.62335
646.589	41855.00957
646.788	41668.132
646.987	41444.0102
647.187	42044.06606
647.386	41836.3173
647.586	42514.04469
647.785	42118.88637
647.984	42322.64716
648.184	42372.56646
648.383	42316.40777
648.582	42289.37173
648.782	42593.13209
648.981	42410.01078
649.18	42335.12629
649.38	42536.93649
649.579	42907.58657
649.778	42890.91923
649.977	43243.19722
650.177	42995.10401
650.376	42139.67269
650.575	41969.26208
650.774	42154.22387
650.973	42189.56504
651.173	41857.08655
651.372	41647.37399
651.571	42110.57219
651.77	42364.24606
651.969	42470.34652
652.168	42368.40623
652.367	42609.78446
652.566	42333.04641
652.765	42661.82848
652.964	42805.5123
653.163	42484.91195
653.362	42709.71617
653.561	42838.8392
653.76	42486.99277
653.959	42424.57359
654.158	42507.80175
654.357	41979.65055
654.556	42133.43666
654.755	42720.12745
654.954	42940.9238
655.153	42638.92811
655.352	42430.81498
655.551	42299.76995
655.749	43015.94493
655.948	42636.84633
656.147	42678.48428
656.346	42549.42359
656.545	42611.86607
656.743	42150.06633
656.942	41869.5487
657.141	41909.01514
657.34	41904.86057
657.538	42027.44155
657.737	42123.04353
657.936	42568.1551
658.135	42116.8078
658.333	42362.16599
658.532	42470.34652
658.731	43078.47566
658.929	42532.77423
659.128	42310.16849
659.326	42443.29812
659.525	42443.29812
659.724	42736.78618
659.922	42938.84012
660.121	42674.32025
660.319	42420.41272
660.518	42133.43666
660.716	42811.76084
660.915	42774.27138
661.113	42840.92225
661.312	42593.13209
661.51	42703.46955
661.709	43059.71519
661.907	42736.78618
662.105	42274.81476
662.304	42709.71617
662.502	42659.74656
662.701	42926.33835
662.899	42836.75617
663.097	43026.36589
663.296	42663.91041
663.494	43612.56078
663.692	42703.46955
663.891	43382.96319
664.089	42480.75033
664.287	42229.06835
664.485	41742.87101
664.684	42524.44986
664.882	42187.48605
665.08	42314.328
665.278	43180.63493
665.476	42478.66954
665.675	42507.80175
665.873	42782.60201
666.071	42210.35568
666.269	42626.43766
666.467	42127.20074
666.665	42826.34122
666.863	41859.16355
667.061	41828.00995
667.259	41790.62931
667.457	42326.80682
667.655	42256.09957
667.853	42301.84963
668.051	42370.48634
668.249	41730.4134
668.447	41906.93785
668.645	42208.27656
668.843	41819.70279
669.041	42035.7537
669.239	41431.56315
669.437	41263.57034
669.635	41502.10221
669.833	42289.37173
670.031	41450.23389
670.229	41294.67418
670.426	41427.41422
670.624	42031.5976
670.822	41913.16976
671.02	42353.84585
671.218	41938.09856
671.415	41929.78876
671.613	41944.33104
671.811	41882.0113
672.009	42129.27937
672.206	41813.47255
672.404	41593.40892
672.602	41676.43555
672.799	42027.44155
672.997	42749.28078
673.195	42982.60009
673.392	42745.11586
673.59	42493.23533
673.788	41527.0017
673.985	41500.02733
674.183	41562.27898
674.38	42075.2392
674.578	42216.59312
674.775	42420.41272
674.973	41846.70177
675.17	42482.83113
675.368	42085.63088
675.565	42526.53093
675.763	41921.47916
675.96	41645.29826
676.158	41655.67705
676.355	41452.30848
676.553	41560.20375
676.75	41199.29756
676.947	41365.1862
677.145	41859.16355
677.342	41840.47105
677.539	41439.86113
677.737	41512.47679
677.934	40666.88929
678.131	41193.07822
678.329	41834.24044
678.526	41686.81526
678.723	41911.09245
678.92	41647.37399
679.118	41543.60234
679.315	41444.0102
679.512	41514.55174
679.709	42114.72925
679.906	41406.67034
680.104	41473.05502
680.301	41278.08513
680.498	40459.93107
680.695	40708.29449
680.892	41369.3344
681.089	40983.75576
681.286	40923.67535
681.483	40364.76781
681.68	40853.24868
681.877	41004.47541
682.075	40913.31765
682.272	40513.72941
682.469	40726.92832
682.665	40346.15164
682.862	40337.87808
683.059	40203.45726
683.256	40246.88048
683.453	40617.20905
683.65	40428.89699
683.847	41103.94606
684.044	40876.03231
684.241	40582.02281
684.438	40967.18087
684.635	40246.88048
684.831	40439.2414
685.028	40435.10361
685.225	40408.20899
685.422	39971.94716
685.619	40191.05151
685.815	39823.1897
686.012	40137.29776
686.209	40133.16315
686.405	40089.75244
686.602	40217.93114
686.799	40205.52493
686.996	40126.96133
687.192	40279.96806
687.389	40745.56306
687.586	39984.34609
687.782	39759.15806
687.979	39843.8472
688.175	40052.54702
688.372	40155.904
688.568	39889.29739
688.765	39635.2541
688.962	39556.80067
689.158	39907.89212
689.355	39775.6814
689.551	39317.40119
689.748	39499.00224
689.944	39236.9434
690.14	39267.88694
690.337	39480.42586
690.533	39486.61789
690.73	39088.44484
690.926	40015.34507
691.123	39501.06633
691.319	39482.48986
691.515	39856.2422
691.712	39135.87644
691.908	38966.79558
692.104	38527.89069
692.301	38694.74929
692.497	38705.05115
692.693	39179.188
692.889	39065.76195
693.086	39786.00882
693.282	38900.83009
693.478	39544.41462
693.674	39412.31939
693.87	39131.75175
694.067	39071.94808
694.263	38999.78194
694.459	38797.77816
694.655	39063.69993
694.851	38398.15219
695.047	38258.15588
695.243	38254.03894
695.439	38175.82365
695.635	38163.47498
695.831	38443.45372
696.027	38040.00498
696.224	38472.28419
696.42	38249.92204
696.615	38490.81897
696.811	38175.82365
697.007	38216.98806
697.203	38190.23081
697.399	38332.26659
697.595	38060.58122
697.791	37616.3149
697.987	37978.2812
698.183	38188.17261
698.379	37698.55837
698.575	38066.75426
698.77	38256.0974
698.966	38177.88179
699.162	38219.04637
699.358	38834.87418
699.554	38305.5031
699.749	38249.92204
699.945	37883.65239
700.141	38494.93791
700.337	38803.96062
700.532	38381.67995
700.728	38420.80243
700.924	38511.41401
701.119	37922.73611
701.315	37396.37415
701.511	37182.68203
701.706	37819.89048
701.902	38128.48875
702.097	37924.79323
702.293	38301.38577
702.489	38149.06859
702.684	38406.38852
702.88	37850.74205
703.075	37712.95226
703.271	37340.88873
703.466	37305.95624
703.662	36977.28239
703.857	37047.11034
704.053	37538.1951
704.248	37770.53171
704.443	38624.70268
704.639	37873.36769
704.834	38142.89455
705.03	37712.95226
705.225	37425.14651
705.42	37028.62568
705.616	37365.54825
705.811	37172.41036
706.006	37127.21713
706.202	37221.71603
706.397	36987.5507
706.592	37293.62764
706.787	37569.03053
706.983	37308.01104
707.178	37743.79762
707.373	37297.73714
707.568	36589.26479
707.763	36749.37006
707.959	37264.86192
708.154	37053.27202
708.349	36714.47191
708.544	37108.72999
708.739	36529.74857
708.934	36367.64526
709.129	36749.37006
709.324	36800.69438
709.519	36726.78869
709.714	36554.37532
709.909	36367.64526
710.104	35844.65789
710.299	35307.69032
710.494	35746.25488
710.689	36006.64087
710.884	36579.00299
711.079	36938.26439
711.274	36640.57624
711.469	36909.51589
711.664	36661.10196
711.859	36117.384
712.054	36109.18022
712.249	36043.55337
712.443	35914.36776
712.638	36316.35486
712.833	36006.64087
713.028	36066.11192
713.223	35943.07372
713.417	35943.07372
713.612	36349.18028
713.807	36827.38468
714.002	36718.57748
714.196	37090.24343
714.391	36921.83651
714.586	37636.8746
714.78	36891.03541
714.975	36827.38468
715.17	36121.48593
715.364	36496.91434
715.559	36537.95739
715.754	36263.0169
715.948	36082.51859
716.143	36357.38688
716.337	36068.16274
716.532	35979.98301
716.726	36663.15457
716.921	35924.61976
717.115	36117.384
717.31	36002.5396
717.504	36224.04176
717.699	36482.54988
717.893	35883.61261
718.088	36205.58061
718.282	36139.94488
718.476	35289.25113
718.671	35129.4613
718.865	34883.68663
719.059	34943.07614
719.254	34793.58555
719.448	34420.98235
719.642	34750.58575
719.837	34472.15603
720.031	34891.87806
720.225	34404.6073
720.419	34959.46012
720.614	34652.3076
720.808	34891.87806
721.002	34339.10961
721.196	34900.06957
721.39	34820.20543
721.585	34947.17211
721.779	34852.96939
721.973	35004.51757
722.167	34470.10904
722.361	34504.90851
722.555	34578.60538
722.749	34355.48366
722.943	34163.10409
723.137	33745.70994
723.331	33723.20745
723.525	33809.12821
723.719	33641.38354
723.913	34294.08226
724.107	33860.27433
724.301	34349.34336
724.495	34128.31558
724.689	34410.74792
724.883	34026.00257
725.077	33406.16797
725.271	34118.08387
725.465	33888.91709
725.659	33989.17209
725.853	34089.43557
726.046	34140.59376
726.24	33436.84596
726.434	32974.69977
726.628	33549.33777
726.822	33547.29238
727.015	34138.54739
727.209	33784.57882
727.403	34259.28967
727.596	34601.12493
727.79	34881.63878
727.984	34523.33223
728.177	34895.9738
728.371	34466.01506
728.565	34011.67947
728.758	33766.1671
728.952	33870.50381
729.146	34026.00257
729.339	34418.93546
729.533	34355.48366
729.726	34095.57443
729.92	34316.5957
730.113	34463.96808
730.307	34283.84903
730.5	33802.99082
730.694	34030.09492
730.887	34152.87206
731.081	34496.72029
731.274	34089.43557
731.468	33622.97387
731.661	33645.47461
731.854	34142.64013
732.048	33811.17402
732.241	33886.87116
732.435	33776.3958
732.628	33226.20386
732.821	33295.73278
733.014	33442.98163
733.208	33207.7997
733.401	33721.16179
733.594	33620.92836
733.788	33586.1553
733.981	34234.73086
734.174	34292.03561
734.367	34011.67947
734.56	33739.57286
734.754	33862.32022
734.947	33929.83649
735.14	33575.92811
735.333	33134.18535
735.526	33195.53039
735.719	32657.82019
735.912	32557.65759
736.105	33240.51837
736.298	33246.6532
736.491	32909.27447
736.684	33046.26178
736.877	33132.14056
737.07	32827.49657
737.263	32982.87812
737.456	32917.45249
737.649	33062.61927
737.842	32925.63055
738.035	33410.25833
738.228	33596.38258
738.421	33692.52287
738.614	33483.88686
738.807	33207.7997
739	33483.88686
739.192	33177.12661
739.385	33645.47461
739.578	33449.11734
739.771	33571.83725
739.964	33373.44553
740.156	33872.54972
740.349	33269.1478
740.542	33097.37952
740.735	32400.2704
740.927	33074.8875
741.12	32968.56603
741.313	32941.98679
741.505	32982.87812
741.698	32543.3491
741.891	32449.32471
742.083	33420.48428
742.276	33363.21993
742.468	33426.61989
742.661	32661.90858
742.854	32598.5396
743.046	32197.93462
743.239	32249.02754
743.431	33103.51376
743.624	32690.52758
743.816	32259.24629
744.009	32580.14258
744.201	32565.83391
744.393	32351.21737
744.586	32091.66546
744.778	32308.29699
744.971	32590.36312
745.163	32420.70954
745.355	31864.8396
745.548	31584.91493
745.74	31954.74971
745.932	31832.14592
746.125	31660.51174
746.317	32150.93027
746.509	32014.01067
746.702	31838.27595
746.894	31415.34135
747.086	31703.4191
747.278	31711.59202
747.471	32011.96716
747.663	31709.54878
747.855	32226.5465
748.047	32079.40399
748.239	32273.55261
748.431	32302.16558
748.623	31907.75079
748.815	31566.52687
749.008	31478.67472
749.2	31682.98692
749.392	31533.83734
749.584	31145.6809
749.776	31586.95806
749.968	31967.01046
750.16	31940.44558
750.352	31901.62057
750.544	31811.71261
750.736	31411.25538
750.928	31785.14958
751.12	31300.93662
751.311	31209.00782
751.503	31503.19129
751.695	31501.14823
751.887	31098.69735
752.079	31211.05065
752.271	30771.87632
752.463	30563.54617
752.654	30494.10578
752.846	30416.49766
753.038	30767.79128
753.23	30283.75104
753.421	30731.02618
753.613	30806.59935
753.805	31300.93662
753.997	30763.70625
754.188	30857.66336
754.38	30671.79444
754.572	30367.48292
754.763	31021.07405
754.955	30467.55543
755.146	30549.2495
755.338	30404.24391
755.53	30373.60973
755.721	30733.06868
755.913	30918.94131
756.104	30731.02618
756.296	30724.89871
756.487	30132.63029
756.679	30526.78343
756.87	30165.3045
757.062	30055.03023
757.253	29916.17109
757.445	29773.23325
757.636	29567.00382
757.827	29250.53423
758.019	29767.10747
758.21	29413.87021
758.401	29926.38114
758.593	29695.64068
758.784	29646.63566
758.975	29509.83324
759.167	29991.72615
759.358	29183.16009
759.549	29618.04968
759.74	29087.20493
759.932	29072.91393
760.123	29330.15968
760.314	29226.03441
760.505	28979.00293
760.696	28976.96141
760.888	29154.57746
761.079	29034.12434
761.27	29334.24308
761.461	29464.91408
761.652	29168.86875
761.843	28899.38445
762.034	28419.66568
762.225	28456.40803
762.416	28801.39464
762.607	28742.19362
762.798	29252.57589
762.989	29154.57746
763.18	28921.84078
763.371	28331.89367
763.562	28286.98784
763.753	28389.04731
763.944	28629.91825
764.135	28562.55456
764.326	29199.49311
764.517	28721.77969
764.708	28607.46356
764.899	28203.3011
765.089	28176.76666
765.28	28119.6162
765.471	27901.22789
765.662	27639.99567
765.853	27835.91803
766.043	27260.42821
766.234	27697.13856
766.425	27578.77219
766.615	28191.05441
766.806	28333.93486
766.997	27982.86686
767.187	27911.43266
767.378	28411.50076
767.569	27615.50615
767.759	27754.28239
767.95	27988.98986
768.141	27482.85764
768.331	27591.0168
768.522	27268.59048
768.712	27329.80823
768.903	27701.22023
769.093	27268.59048
769.284	27340.0113
769.474	26960.47941
769.665	26868.66433
769.855	27031.89311
770.046	27217.5766
770.236	26864.58373
770.426	26613.63796
770.617	26738.08792
770.807	27062.4995
770.998	27248.18483
771.188	26756.44987
771.378	26968.64089
771.569	27242.06316
771.759	26523.8743
771.949	26415.75394
772.139	26644.23989
772.33	26022.0719
772.52	26170.97008
772.71	26415.75394
772.9	26344.35618
773.09	26348.436
773.281	26442.27362
773.471	26532.03451
773.661	26064.90466
773.851	25814.03838
774.041	25569.31819
774.231	25791.60455
774.421	25756.93452
774.611	25979.23992
774.802	25597.86743
774.992	25393.95298
775.182	25789.56512
775.372	25693.71413
775.562	25997.59638
775.752	26442.27362
775.942	25630.49561
776.131	25799.76228
776.321	25010.65105
776.511	25261.41969
776.701	25373.56266
776.891	25132.97303
777.081	25277.731
777.271	25506.10341
777.461	25530.57342
777.651	25183.94289
777.84	25126.85674
778.03	25145.20567
778.22	24835.33726
778.41	25410.26538
778.599	25591.7497
778.789	25679.43882
778.979	25438.8124
779.169	25218.60318
779.358	24984.14903
779.548	25181.90407
779.738	24922.992
779.927	24810.87625
780.117	24863.87554
780.307	24276.89977
780.496	24503.10519
780.686	24674.30864
780.875	24682.46163
781.065	24755.84024
781.254	24647.81172
781.444	24731.38035
781.633	24401.20687
781.823	24523.48562
782.012	24692.65291
782.202	24674.30864
782.391	24554.05675
782.581	23635.14981
782.77	23576.0826
782.96	24046.65241
783.149	23409.07894
783.338	23529.23802
783.528	23472.21202
783.717	23834.77486
783.906	23631.07612
784.096	23736.99576
784.285	24089.43908
784.474	24048.68984
784.663	24138.33964
784.853	23690.1457
785.042	23521.0913
785.231	23679.96111
785.42	23508.87131
785.61	23423.33454
785.799	23227.84276
785.988	23323.54861
786.177	23111.78355
786.366	23158.61319
786.555	23362.24022
786.744	22973.34094
786.933	23405.00594
787.122	23459.99248
787.312	23451.84619
787.501	22928.55399
787.69	22265.09021
787.879	22560.14263
788.068	22364.78904
788.257	22676.14938
788.445	22486.88115
788.634	22881.73303
788.823	22405.48497
789.012	22653.76122
789.201	22549.96715
789.39	22629.33826
789.579	22460.42676
789.768	22722.96235
789.957	22745.35182
790.145	22961.12616
790.334	23272.64037
790.523	22511.30113
790.712	22505.19609
790.9	22448.21725
791.089	21927.40131
791.278	22049.44558
791.467	22161.33143
791.655	22256.95192
791.844	21955.87708
792.033	21618.28444
792.221	21636.58491
792.41	22122.67867
792.599	21473.92529
792.787	21797.23593
792.976	21976.21738
793.164	22317.99054
793.353	22195.91662
793.541	22501.12608
793.73	21907.06194
793.918	21835.87713
794.107	21929.43527
794.295	22049.44558
794.484	21825.70826
794.672	21913.16371
794.861	21766.7307
795.049	21469.85913
795.238	21526.78689
795.426	21780.96637
795.614	21075.51742
795.803	21390.57209
795.991	20904.819
796.179	21331.619
796.368	21022.6791
796.556	21331.619
796.744	21179.16983
796.932	21203.56017
797.121	21014.55038
797.309	20866.21267
797.497	20961.71525
797.685	21061.29145
797.874	20728.05486
798.062	21146.65028
798.25	20849.95781
798.438	21191.36492
798.626	21301.12735
798.814	21154.78007
799.002	20925.13872
799.19	21179.16983
799.378	20654.92027
799.566	21467.82605
799.755	20847.92598
799.943	20791.03619
800.131	20925.13872
800.318	20583.82236
800.506	20311.66629
800.694	20693.51841
800.882	20644.76311
801.07	21126.3261
801.258	20980.00402
801.446	20612.26091
801.634	20212.16534
801.822	20516.79187
802.01	20860.11707
802.197	21000.32526
802.385	20797.13137
802.573	20969.84355
802.761	20963.74732
802.949	21223.88589
803.136	20935.29873
803.324	21110.06705
803.512	21534.91968
803.699	21069.42055
803.887	21008.45387
804.075	21018.61473
804.262	20860.11707
804.45	21077.54972
804.638	20772.75088
804.825	21189.3324
805.013	21108.03468
805.201	21290.96367
805.388	20786.97276
805.576	20394.92994
805.763	20559.44711
805.951	20362.43597
806.138	20691.48689
806.326	20990.16459
806.513	20671.17193
806.701	20900.7551
806.888	20646.79453
807.075	20833.70323
807.263	20551.32216
807.45	20778.84595
807.638	20317.75851
807.825	20388.83723
808.012	20559.44711
808.2	20510.69842
808.387	20480.23171
808.574	20963.74732
808.761	20533.04127
808.949	20411.17732
809.136	20372.59022
809.323	20498.51162
809.51	20445.70391
809.698	20579.75978
809.885	20508.66728
810.072	20758.5292
810.259	20687.42387
810.446	20949.52293
810.633	21132.42331
810.82	21246.24466
811.008	21183.23484
811.195	21504.42204
811.382	21370.24305
811.569	21246.24466
811.756	21435.29736
811.943	21038.93675
812.13	20906.85095
812.317	20721.96011
812.504	20847.92598
812.691	21079.58202
812.878	21026.74349
813.064	20927.17071
813.251	20744.30773
813.438	20912.94684
813.625	20403.0536
813.812	20411.17732
813.999	20472.10741
814.186	20650.85739
814.372	20299.48196
814.559	20762.59252
814.746	20407.11545
814.933	20415.23921
815.12	20429.45595
815.306	20453.82799
815.493	20642.73169
815.68	20732.11806
815.866	20602.10419
816.053	20368.5285
816.24	20407.11545
816.426	20847.92598
816.613	20439.6109
816.799	20551.32216
816.986	20437.5799
817.173	20342.12778
817.359	20043.64595
817.546	20390.86813
817.732	19962.44214
817.919	19883.2749
818.105	20068.00841
818.292	20193.89076
818.478	20216.22641
818.665	20303.54339
818.851	20112.67449
819.037	19960.41213
819.224	19962.44214
819.41	19712.78253
819.597	19994.92286
819.783	20128.9172
819.969	20063.94796
820.156	20003.0432
820.342	19850.79788
820.528	19765.55081
820.714	19917.78291
820.901	20005.0733
821.087	19903.57358
821.273	20118.76547
821.459	19992.89278
821.646	19895.45405
821.832	19986.80258
822.018	19897.48393
822.204	19323.19644
822.39	19501.73768
822.576	19440.86774
822.762	19459.12833
822.948	19205.53902
823.134	19252.19462
823.32	19118.31916
823.507	19361.7424
823.693	19682.34058
823.879	19647.84084
824.065	19607.25446
824.25	19631.60609
824.436	19824.41109
824.622	19268.42316
824.808	19386.08799
824.994	19653.92894
825.18	19418.5497
825.366	19556.52383
825.552	19175.11263
825.738	19739.16632
825.923	19280.59474
826.109	19678.28173
826.295	19294.7951
826.481	19369.85753
826.667	19564.64056
826.852	19469.27325
827.038	19150.77218
827.224	19341.45487
827.409	18897.26062
827.595	19150.77218
827.781	18676.24968
827.966	18820.20557
828.152	18522.17794
828.338	18718.82611
828.523	18386.37001
828.709	18627.59302
828.894	18526.23217
829.08	18720.8536
829.266	18860.76014
829.451	18641.78431
829.637	18212.07422
829.822	18599.211
830.008	18564.74815
830.193	18781.68021
830.378	18495.82581
830.564	18477.5824
830.749	18224.2335
830.935	18672.19487
831.12	18341.78008
831.305	18688.4142
831.491	18299.21866
831.676	18159.38555
831.861	17952.70747
832.047	18566.77535
832.232	18023.62222
832.417	18451.23136
832.602	18106.69934
832.788	18323.53927
832.973	18404.61187
833.158	17999.3081
833.343	18145.20056
833.528	18155.33268
833.714	18003.36042
833.899	17895.97878
834.084	17618.45214
834.269	17977.02061
834.454	17407.81614
834.639	17739.98886
834.824	17494.90186
835.009	17677.1934
835.194	17513.12984
835.379	17821.02005
835.564	17509.07916
835.749	17875.7192
835.934	17608.32461
836.119	17654.9119
836.304	17162.79113
836.489	17517.18054
836.674	17440.21946
836.859	17460.47193
837.044	17490.85123
837.228	17616.42663
837.413	17353.13734
837.598	17503.00315
837.783	16770.02671
837.968	17225.56201
838.152	16553.43906
838.337	17006.8881
838.522	16618.2102
838.707	16741.68662
838.891	16494.74214
839.076	16239.73373
839.261	16225.56746
839.445	16765.97809
839.63	16636.42749
839.815	16709.29852
839.999	16723.46824
840.184	17312.63595
840.368	17442.24469
840.553	17144.56784
840.737	16687.03205
840.922	17126.34479
841.106	16743.71089
841.291	16658.69332
841.475	16755.8566
841.66	16385.44906
841.844	16075.81477
842.029	16338.90006
842.213	16573.6798
842.397	16938.05294
842.582	16606.06544
842.766	16707.27428
842.951	15932.14096
843.135	16215.44875
843.319	15776.33309
843.504	15956.42337
843.688	15865.3653
843.872	15978.68241
844.056	16019.15383
844.241	16243.78125
844.425	16011.0595
844.609	16217.47249
844.793	16075.81477
844.977	15752.05194
845.161	15667.06906
845.346	15735.8646
845.53	15517.34094
845.714	15424.26854
845.898	15284.66169
846.082	15505.201
846.266	15701.46669
846.45	15476.87454
846.634	15035.79913
846.818	15513.29429
847.002	15491.03775
847.186	15509.24764
847.37	15527.45758
847.554	16061.64943
847.738	16049.50776
847.922	16063.67304
848.106	16031.29536
848.29	15750.02852
848.473	15529.48091
848.657	15213.8471
848.841	15264.42893
849.025	15205.75401
849.209	15092.45083
849.392	15387.84919
849.576	15276.56858
849.76	14752.536
849.944	14918.44846
850.127	15060.07845
850.311	15029.72929
850.495	15367.61628
850.678	15175.40495
850.862	15507.22432
851.046	14857.74926
851.229	14590.66498
851.413	14705.9987
851.596	14962.96092
851.78	15116.7301
851.964	15399.98896
852.147	14944.7513
852.331	14801.0962
852.514	14527.93812
852.698	14392.36279
852.881	14218.33022
853.065	14424.73958
853.248	14357.96202
853.431	14155.59414
853.615	13995.70888
853.798	14161.66546
853.982	14117.14201
854.165	14058.45038
854.348	13985.58907
854.532	14331.65522
854.715	13975.46919
854.898	14163.68923
855.081	14003.80469
855.265	14364.03277
855.448	14254.75674
855.631	13932.965
855.814	13651.59645
855.997	13598.95965
856.181	13554.41901
856.364	13904.62824
856.547	13459.25816
856.73	13578.71411
856.913	13319.53855
857.096	13562.51743
857.279	13406.61241
857.462	13532.14804
857.645	13473.43157
857.828	13637.42523
858.011	13762.93624
858.194	13594.91057
858.377	13394.46301
858.56	13056.24336
858.743	13289.16216
858.926	13418.76166
859.109	13325.61371
859.292	13335.73891
859.475	13137.26548
859.658	13477.48108
859.841	13355.98898
860.023	13080.5508
860.206	12940.77328
860.389	12904.30559
860.572	12825.28632
860.755	12896.20142
860.937	12776.65494
861.12	12890.12325
861.303	12770.57579
861.486	12948.87698
861.668	12821.23383
861.851	12586.14991
862.034	12521.28488
862.216	12464.52263
862.399	12046.74812
862.581	12405.72773
862.764	12456.41332
862.947	12622.63368
863.129	12409.78273
863.312	12596.28449
863.494	12681.40897
863.677	12800.97103
863.859	12298.26027
864.042	12338.81631
864.224	11965.59014
864.406	12245.53321
864.589	11805.26493
864.771	12028.48868
864.954	11496.6384
865.136	11726.09758
865.318	11583.96854
865.501	11815.41364
865.683	11551.47562
865.865	11795.116
866.048	11590.06069
866.23	11547.41384
866.412	11602.24476
866.594	11746.39816
866.777	11669.25125
866.959	11993.99688
867.141	11592.0914
867.323	11762.63799
867.505	11541.3211
867.687	11596.15277
867.869	11197.95521
868.052	11642.85593
868.234	11366.62593
868.416	11348.33971
868.598	11073.94663
868.78	11169.49772
868.962	11086.14596
869.144	11092.24548
869.326	10933.6258
869.508	11008.87687
869.69	11122.74163
869.872	11502.73176
870.054	11433.66858
870.236	11624.58136
870.417	11673.31193
870.599	11378.8163
870.781	11181.69404
870.963	11269.09
871.145	11169.49772
871.327	11151.20253
871.508	11206.08554
871.69	11518.98032
871.872	11325.98878
872.054	11626.6119
872.235	11409.29067
872.417	11620.52024
872.599	11260.96095
872.78	11258.92866
872.962	11366.62593
873.144	11380.848
873.325	11037.34627
873.507	10947.86367
873.689	11051.58016
873.87	11476.32656
874.052	11132.90648
874.233	11433.66858
874.415	11090.21232
874.596	11165.4322
874.778	10722.02519
874.959	10886.84032
875.141	10640.60615
875.322	11019.04476
875.503	10966.16869
875.685	11210.15065
875.866	10817.66803
876.048	11067.84681
876.229	11057.68024
876.41	10876.66877
876.592	10750.51729
876.773	10833.94507
876.954	10489.92882
877.136	10713.88416
877.317	10699.63689
877.498	10953.96544
877.679	10933.6258
877.86	11195.9226
878.042	11063.78022
878.223	11279.25108
878.404	11222.34571
878.585	11267.05775
878.766	11025.14536
878.947	10978.37153
879.128	10901.08002
879.309	10972.27016
879.49	10738.30668
879.672	11136.97234
879.853	10919.38738
880.034	11094.27864
880.215	10823.77201
880.396	11128.84057
880.576	10813.59866
880.757	11173.5632
880.938	10699.63689
881.119	11307.70075
881.3	11149.16968
881.481	11328.02073
881.662	11681.43319
881.843	11577.8763
882.023	11453.98244
882.204	11376.7846
882.385	11023.11184
882.566	10990.57396
882.747	10730.16603
882.927	11456.01377
883.108	10951.93153
883.289	11244.70235
883.469	10937.69382
883.65	11006.84326
883.831	11055.64689
884.011	11010.91047
884.192	11169.49772
884.373	11437.73143
884.553	10974.30396
884.734	11210.15065
884.914	10840.04877
885.095	11210.15065
885.275	10856.32479
885.456	11342.24412
885.636	10949.89761
885.817	11250.7994
885.997	10958.03324
886.178	10945.82972
886.358	10660.96274
886.538	11171.53047
886.719	10909.21674
886.899	10984.4728
887.08	11228.4431
887.26	11293.47616
887.44	10990.57396
887.621	11014.97764
887.801	10797.32068
887.981	11265.02549
888.161	11035.31281
888.342	11045.47999
888.522	11045.47999
888.702	11017.0112
888.882	10972.27016
889.062	11000.74236
889.242	10919.38738
889.423	11181.69404
889.603	10933.6258
889.783	11110.54346
889.963	10929.55774
890.143	11328.02073
890.323	11047.51339
890.503	11421.4798
890.683	11299.57248
890.863	11206.08554
891.043	11254.86405
891.223	11472.26408
891.403	11291.44404
891.583	11218.28073
891.763	11112.57652
891.943	11250.7994
892.122	10974.30396
892.302	10905.1484
892.482	10943.79576
892.662	11059.71358
892.842	10968.20252
893.022	11000.74236
893.201	10762.72748
893.381	10949.89761
893.561	10833.94507
893.741	11374.75289
893.92	11023.11184
894.1	11145.10394
894.28	10770.86736
894.459	11088.17915
894.639	10774.93723
894.819	10732.20121
894.998	10459.37767
895.178	10697.60152
895.357	10414.56409
895.537	10699.63689
895.716	10697.60152
895.896	10835.97965
896.075	10534.73196
896.255	11120.70863
896.434	11248.76706
896.614	11295.50828
896.793	11130.87353
896.973	11179.66135
897.152	10597.85332
897.331	10864.46252
897.511	10785.1117
897.69	10746.44714
897.87	10573.42067
898.049	10626.35581
898.228	10363.6319
898.407	10404.37831
898.587	10257.66644
898.766	10514.36766
898.945	10235.24601
899.124	10426.7866
899.304	10349.36942
899.483	10143.50884
899.662	10137.39203
899.841	10029.30762
900.02	9866.08505
900.199	10078.25642
900.378	10216.9008
900.557	10284.1612
900.737	10210.78549
900.916	10106.80612
901.095	9882.41152
901.274	10086.41376
901.453	10057.86208
901.632	10133.31409
901.811	10070.09885
901.989	10155.74208
902.168	10145.54775
902.347	10481.78213
902.526	9945.66769
902.705	9968.11005
902.884	9947.70797
903.063	9970.15018
903.242	9943.62738
903.42	10019.10892
903.599	9864.04418
903.778	9823.22356
903.957	9972.19029
904.135	9949.74825
904.314	9710.93586
904.493	9990.55066
904.672	9416.72406
904.85	9525.04851
905.029	9214.25911
905.207	9486.2204
905.386	9508.70054
905.565	9588.38732
905.743	9598.60184
905.922	9596.55897
906.1	9320.62458
906.279	9289.94687
906.457	9244.94611
906.636	9529.13534
906.814	9253.12866
906.993	9052.57773
907.171	9285.85622
907.35	9478.04533
907.528	9169.24464
907.707	9369.70118
907.885	9066.90826
908.063	9199.93721
908.242	9118.08182
908.42	9261.31096
908.598	8843.6636
908.777	8878.49546
908.955	8802.67826
909.133	8845.71268
909.311	8673.52679
909.49	8638.66387
909.668	8671.47618
909.846	8804.7277
910.024	8661.22284
910.202	8808.82652
910.38	8591.4878
910.559	8449.89977
910.737	8156.17113
910.915	8698.1327
911.093	8456.05766
911.271	8724.78609
911.449	8425.26651
911.627	8650.96904
911.805	7903.19749
911.983	8363.67121
912.161	7981.38478
912.339	8248.64648
912.517	7946.40992
912.695	8355.45719
912.872	8271.24547
913.05	8388.31141
913.228	8263.02793
913.406	8495.0536
913.584	8059.5426
913.762	8043.09076
913.939	7964.92676
914.117	7944.35239
914.295	7859.97597
914.473	8367.7781
914.65	8289.73378
914.828	8055.42976
915.006	7940.23727
915.184	7862.03434
915.361	7503.5612
915.539	7929.94911
915.716	7763.20892
915.894	7800.27408
916.072	7656.09357
916.249	7567.47414
916.427	7567.47414
916.604	7586.02565
916.782	7311.69767
916.959	7643.73043
917.137	7208.46703
917.314	7680.81756
917.492	7342.65614
917.669	7412.81048
917.847	6981.16421
918.024	7181.61803
918.201	6852.92823
918.379	6792.91693
918.556	6618.98251
918.733	6759.79903
918.911	6361.92445
919.088	6594.12149
919.265	6455.25291
919.442	6722.5344
919.62	6527.80917
919.797	7090.71659
919.974	6701.82861
920.151	6983.23182
920.328	6536.09951
920.506	7049.38348
920.683	6792.91693
920.86	6672.83666
921.037	6560.96829
921.214	6654.1966
921.391	6531.95438
921.568	6592.04959
921.745	6643.8402
921.922	6643.8402
922.099	6436.59099
922.276	6726.67528
922.453	6388.89085
922.63	6353.6263
922.807	5932.00284
922.984	6224.95719
923.161	5956.95335
923.338	6378.51962
923.514	5684.39308
923.691	6046.33147
923.868	5684.39308
924.045	5842.56897
924.222	5707.2954
924.399	5886.25143
924.575	5624.00056
924.752	5959.03241
924.929	5732.27649
925.105	5780.1474
925.282	5496.9033
925.459	5596.92161
925.635	5630.24898
925.812	5857.13095
925.989	5726.03153
926.165	5630.24898
926.342	5302.96362
926.518	5596.92161
926.695	5390.57443
926.871	5523.99695
927.048	5087.93402
927.224	5050.3307
927.401	4830.82921
927.577	5121.35288
927.754	4906.11538
927.93	5165.20611
928.107	4889.38768
928.283	5282.09781
928.459	5112.99872
928.636	5112.99872
928.812	4722.03043
928.988	4816.1868
929.165	4724.12329
929.341	4807.81921
929.517	4816.1868
929.693	4694.82117
929.87	4456.05498
930.046	4560.81258
930.222	4267.35348
930.398	4678.07512
930.574	4412.04038
930.751	4588.04049
930.927	4472.8199
931.103	4443.48036
931.279	4573.37977
931.455	4722.03043
931.631	4334.46745
931.807	4502.15513
931.983	4217.0036
932.159	4118.3664
932.335	3990.27915
932.511	3897.84103
932.687	3897.84103
932.863	4053.28249
933.039	3817.97681
933.215	4313.4967
933.391	3933.5604
933.566	3946.16585
933.742	3714.95203
933.918	3635.02335
934.094	3548.75393
934.27	3656.05988
934.445	3249.73232
934.621	3578.21531
934.797	3401.39341
934.973	3519.28894
935.148	3116.95735
935.324	3097.98425
935.5	2870.21
935.675	2876.53939
935.851	2633.82456
936.027	2874.42961
936.202	2576.81459
936.378	2726.71015
936.553	2486.00311
936.729	2566.25623
936.904	2281.07579
937.08	2264.17041
937.255	2018.98215
937.431	2169.06709
937.606	1883.6653
937.782	1951.32677
937.957	1881.55079
938.133	1788.50753
938.308	1585.47925
938.483	1655.27313
938.659	1564.32919
938.834	1716.60489
939.009	1454.34714
939.185	1433.19661
939.36	1344.36503
939.535	1414.16117
939.71	1221.69745
939.886	1244.96136
940.061	1257.65091
940.236	1314.75496
940.411	1170.9412
940.586	1289.37518
940.761	1111.72841
940.937	1088.46722
941.112	1088.46722
941.287	1120.18717
941.462	978.51417
941.637	948.91433
941.812	815.73372
941.987	874.92107
942.162	866.46532
942.337	877.03503
942.512	773.46144
942.687	874.92107
942.862	705.83416
943.037	790.36989
943.212	699.49467
943.386	798.82435
943.561	633.9926
943.736	722.73996
943.911	623.42883
944.086	786.14272
944.26	688.92907
944.435	710.06055
944.61	614.97804
944.785	731.19313
944.959	625.54156
945.134	604.41482
945.309	640.33102
945.483	672.02469
945.658	519.921
945.833	697.38152
946.007	536.81802
946.182	716.40021
946.357	686.81598
946.531	739.64646
946.706	581.17689
946.88	803.05163
947.055	574.83955
947.229	800.93799
947.404	657.23398
947.578	714.28698
947.752	714.28698
947.927	904.51724
948.101	743.87318
948.276	841.09888
948.45	659.3469
948.624	841.09888
948.799	612.86537
948.973	771.34792
949.147	665.68575
949.321	729.07982
949.496	701.60782
949.67	792.48349
949.844	786.14272
950.018	760.78051
950.193	767.12093
950.367	674.1377
950.541	538.93021
950.715	756.55362
950.889	524.14517
951.063	794.5971
951.237	669.9117
951.411	750.21336
951.585	877.03503
951.759	942.57169
951.933	716.40021
952.107	805.16529
952.281	739.64646
952.455	862.23749
952.629	631.87982
952.803	991.20022
952.977	688.92907
953.151	891.83297
953.325	800.93799
953.499	953.1428
953.672	784.02915
953.846	959.48555
954.02	705.83416
954.194	784.02915
954.368	674.1377
954.541	726.96652
954.715	665.68575
954.889	862.23749
955.062	646.66954
955.236	883.37696
955.41	824.18863
955.583	811.50632
955.757	735.41977
955.93	792.48349
956.104	682.58984
956.278	703.72099
956.451	593.85193
956.625	731.19313
956.798	678.36375
956.972	748.09996
957.145	604.41482
957.319	722.73996
957.492	707.94735
957.665	819.96116
957.839	752.32677
958.012	767.12093
958.185	642.44384
958.359	724.85324
958.532	614.97804
958.705	739.64646
958.879	741.75982
959.052	807.27896
959.225	640.33102
959.398	915.08767
959.572	739.64646
959.745	826.30238
959.918	638.2182
960.091	781.91558
960.264	699.49467
960.438	739.64646
960.611	712.17376
960.784	680.47679
960.957	756.55362
961.13	800.93799
961.303	792.48349
961.476	868.57925
961.649	695.26839
961.822	676.25072
961.995	642.44384
962.168	672.02469
962.341	625.54156
962.514	653.00817
962.686	549.49137
962.859	663.57279
963.032	566.38994
963.205	598.07705
963.378	515.69689
963.551	665.68575
963.723	513.58486
963.896	676.25072
964.069	659.3469
964.242	655.12107
964.414	646.66954
964.587	608.64007
964.76	526.25728
964.932	705.83416
965.105	494.57719
965.278	570.61472
965.45	551.60365
965.623	583.28936
965.795	547.37911
965.968	617.09072
966.14	562.16522
966.313	707.94735
966.485	640.33102
966.658	625.54156
966.83	557.94055
967.003	568.50232
967.175	551.60365
967.348	568.50232
967.52	462.9004
967.692	619.20341
967.865	557.94055
968.037	657.23398
968.209	511.47284
968.382	614.97804
968.554	564.27757
968.726	576.95198
968.898	454.45383
969.071	513.58486
969.243	380.55713
969.415	460.78874
969.587	386.89035
969.759	538.93021
969.932	515.69689
970.104	579.06443
970.276	507.24884
970.448	420.67004
970.62	393.22373
970.792	503.0249
970.964	376.33506
971.136	435.44996
971.308	452.34223
971.48	473.45896
971.652	412.22473
971.824	511.47284
971.996	319.34389
972.168	462.9004
972.339	448.11907
972.511	562.16522
972.683	372.11307
972.855	473.45896
973.027	351.00409
973.199	488.24157
973.37	353.11491
973.542	435.44996
973.714	367.89113
973.886	338.33954
974.057	302.46008
974.229	308.79138
974.401	376.33506
974.572	389.00146
974.744	285.57744
974.915	393.22373
975.087	291.9083
975.259	296.12896
975.43	310.90184
975.602	380.55713
975.773	275.02639
975.945	351.00409
976.116	296.12896
976.288	338.33954
976.459	313.01233
976.63	302.46008
976.802	321.45445
976.973	232.82691
977.145	234.9367
977.316	389.00146
977.487	241.26619
977.659	334.11816
977.83	266.58589
978.001	401.66845
978.172	245.48595
978.344	226.49765
978.515	294.01862
978.686	220.16857
978.857	207.51095
979.028	234.9367
979.2	180.08857
979.371	222.27825
979.542	251.81573
979.713	319.34389
979.884	251.81573
980.055	188.52586
980.226	165.32411
980.397	258.14568
980.568	199.07293
980.739	266.58589
980.91	230.71714
981.081	224.38794
981.252	203.2919
981.423	215.94929
981.594	260.25571
981.765	291.9083
981.936	207.51095
982.106	220.16857
982.277	224.38794
982.448	277.13656
982.619	201.1824
982.79	192.74463
982.96	199.07293
983.131	256.03568
983.302	186.41651
983.472	158.99679
983.643	215.94929
983.814	224.38794
983.984	199.07293
984.155	173.76082
984.326	133.68943
984.496	234.9367
984.667	161.10588
984.837	169.54242
985.008	133.68943
985.178	190.63523
985.349	222.27825
985.519	78.86748
985.69	127.36306
985.86	135.79826
986.031	150.56067
986.201	131.58062
986.371	167.43326
986.542	140.01598
986.712	173.76082
986.882	118.92822
987.053	118.92822
987.223	121.0369
987.393	106.2766
987.563	57.78613
987.734	144.23379
987.904	125.25432
988.074	127.36306
988.244	135.79826
988.414	78.86748
988.585	108.38515
988.755	116.81956
988.925	152.66967
989.095	49.35423
989.265	83.08402
989.435	108.38515
989.605	146.34273
989.775	135.79826
989.945	116.81956
990.115	68.32652
990.285	165.32411
990.455	127.36306
990.625	106.2766
990.795	125.25432
990.965	99.95108
991.134	59.89417
991.304	85.19233
991.474	66.2184
991.644	72.54284
991.814	106.2766
991.984	114.71092
992.153	91.51738
992.323	83.08402
992.493	62.00222
992.662	102.05957
992.832	40.92271
993.002	72.54284
993.171	36.70708
993.341	74.65103
993.511	30.38382
993.68	57.78613
993.85	89.40901
994.019	121.0369
994.189	72.54284
994.358	114.71092
994.528	21.95313
994.697	-13.87303
994.867	165.32411
995.036	55.67812
995.206	70.43467
995.375	80.97574
995.544	32.49155
995.714	64.1103
995.883	34.5993
996.052	74.65103
996.222	85.19233
996.391	123.1456
996.56	70.43467
996.73	55.67812
996.899	89.40901
997.068	76.75925
997.237	89.40901
997.406	57.78613
997.576	89.40901
997.745	30.38382
997.914	72.54284
998.083	30.38382
998.252	106.2766
998.421	68.32652
998.59	106.2766
998.759	55.67812
998.928	24.06077
999.097	123.1456
999.266	89.40901
999.435	97.84262
999.604	19.84552
999.773	99.95108
999.942	64.1103
1000.111	49.35423
1000.28	-15.98024
1000.448	-28.62294
1000.617	-3.33665
1000.786	85.19233
1000.955	13.52282
1001.124	80.97574
1001.292	-7.55127
1001.461	72.54284
1001.63	68.32652
1001.798	80.97574
1001.967	106.2766
1002.136	106.2766
1002.304	38.81488
1002.473	118.92822
1002.642	26.16843
1002.81	89.40901
1002.979	21.95313
1003.147	5.09289
1003.316	83.08402
1003.484	-39.15785
1003.653	-20.19457
1003.821	24.06077
1003.99	72.54284
1004.158	64.1103
1004.327	85.19233
1004.495	-24.40881
1004.663	57.78613
1004.832	13.52282
1005	21.95313
1005.168	15.63036
1005.337	45.13842
1005.505	72.54284
1005.673	26.16843
1005.842	-68.65227
1006.01	43.03055
1006.178	24.06077
1006.346	32.49155
1006.514	-37.05092
1006.683	7.20034
1006.851	72.54284
1007.019	28.27611
1007.187	21.95313
1007.355	-3.33665
1007.523	43.03055
1007.691	-39.15785
1007.859	38.81488
1008.027	83.08402
1008.195	59.89417
1008.363	-70.75882
1008.531	47.24632
1008.699	26.16843
1008.867	24.06077
1009.035	36.70708
1009.203	-49.69214
1009.37	32.49155
1009.538	7.20034
1009.706	43.03055
1009.874	68.32652
1010.042	-11.7658
1010.209	49.35423
1010.377	89.40901
1010.545	80.97574
1010.713	38.81488
1010.88	-1.2293
1011.048	19.84552
1011.216	59.89417
1011.383	32.49155
1011.551	40.92271
1011.718	13.52282
1011.886	43.03055
1012.054	-3.33665
1012.221	5.09289
1012.389	74.65103
1012.556	-9.65855
1012.724	38.81488
1012.891	34.5993
1013.058	17.73793
1013.226	30.38382
1013.393	51.46218
1013.561	40.92271
1013.728	64.1103
1013.895	15.63036
1014.063	34.5993
1014.23	-3.33665
1014.397	-1.2293
1014.565	-3.33665
1014.732	-11.7658
1014.899	21.95313
1015.066	57.78613
1015.233	32.49155
1015.401	-15.98024
1015.568	-37.05092
1015.735	15.63036
1015.902	74.65103
1016.069	-11.7658
1016.236	-53.90568
1016.403	93.62577
1016.57	45.13842
1016.737	-11.7658
1016.904	64.1103
1017.071	55.67812
1017.238	17.73793
1017.405	47.24632
1017.572	-47.58533
1017.739	7.20034
1017.906	-11.7658
1018.073	-9.65855
1018.24	21.95313
1018.407	-20.19457
1018.573	-18.08741
1018.74	11.4153
1018.907	-7.55127
1019.074	17.73793
1019.241	30.38382
1019.407	-68.65227
1019.574	9.30781
1019.741	34.5993
1019.907	7.20034
1020.074	7.20034
1020.241	-3.33665
1020.407	-45.4785
1020.574	-15.98024
1020.74	49.35423
1020.907	-11.7658
1021.073	-37.05092
1021.24	24.06077
1021.406	97.84262
1021.573	45.13842
1021.739	-37.05092
1021.906	53.57014
1022.072	-15.98024
1022.239	-11.7658
1022.405	-28.62294
1022.571	-15.98024
1022.738	9.30781
1022.904	9.30781
1023.07	5.09289
1023.237	78.86748
1023.403	64.1103
1023.569	-3.33665
1023.735	13.52282
1023.902	-22.3017
1024.068	24.06077
1024.234	-20.19457
1024.4	93.62577
1024.566	-70.75882
1024.732	7.20034
1024.898	-11.7658
1025.065	21.95313
1025.231	-45.4785
1025.397	-18.08741
1025.563	85.19233
1025.729	-53.90568
1025.895	21.95313
1026.061	62.00222
1026.227	47.24632
1026.392	-3.33665
1026.558	5.09289
1026.724	17.73793
1026.89	-5.44397
1027.056	11.4153
1027.222	36.70708
1027.388	36.70708
1027.553	30.38382
1027.719	66.2184
1027.885	17.73793
1028.051	-1.2293
1028.216	-28.62294
1028.382	-15.98024
1028.548	-13.87303
1028.713	21.95313
1028.879	-41.26476
1029.045	-18.08741
1029.21	-56.01241
1029.376	55.67812
1029.541	-32.83698
1029.707	0.87808
1029.873	40.92271
1030.038	76.75925
1030.204	13.52282
1030.369	57.78613
1030.534	17.73793
1030.7	15.63036
1030.865	7.20034
1031.031	9.30781
1031.196	-3.33665
1031.361	-53.90568
1031.527	5.09289
1031.692	-49.69214
1031.857	38.81488
1032.023	-74.97185
1032.188	-28.62294
1032.353	62.00222
1032.518	21.95313
1032.684	40.92271
1032.849	-32.83698
1033.014	38.81488
1033.179	9.30781
1033.344	34.5993
1033.509	7.20034
1033.674	21.95313
1033.839	-7.55127
1034.004	-37.05092
1034.17	32.49155
1034.335	-62.33245
1034.5	17.73793
1034.664	72.54284
1034.829	-20.19457
1034.994	57.78613
1035.159	17.73793
1035.324	21.95313
1035.489	55.67812
1035.654	13.52282
1035.819	-9.65855
1035.984	0.87808
1036.148	9.30781
1036.313	-28.62294
1036.478	26.16843
1036.643	-28.62294
1036.807	-28.62294
1036.972	-34.94396
1037.137	-45.4785
1037.301	30.38382
1037.466	30.38382
1037.631	26.16843
1037.795	-37.05092
1037.96	24.06077
1038.124	5.09289
1038.289	5.09289
1038.454	-24.40881
1038.618	-37.05092
1038.783	13.52282
1038.947	-1.2293
1039.111	15.63036
1039.276	-24.40881
1039.44	-5.44397
1039.605	21.95313
1039.769	-15.98024
1039.933	13.52282
1040.098	28.27611
1040.262	51.46218
1040.426	64.1103
1040.591	-9.65855
1040.755	-30.72997
1040.919	59.89417
1041.083	-32.83698
1041.248	26.16843
1041.412	7.20034
1041.576	55.67812
1041.74	55.67812
1041.904	5.09289
1042.068	24.06077
1042.232	-15.98024
1042.397	28.27611
1042.561	-64.43909
1042.725	32.49155
1042.889	11.4153
1043.053	32.49155
1043.217	-9.65855
1043.381	-28.62294
1043.544	-32.83698
1043.708	9.30781
1043.872	-45.4785
1044.036	-58.11912
1044.2	-37.05092
1044.364	24.06077
1044.528	-5.44397
1044.691	5.09289
1044.855	-11.7658
1045.019	78.86748
1045.183	26.16843
1045.346	21.95313
1045.51	-45.4785
1045.674	13.52282
1045.837	28.27611
1046.001	43.03055
1046.165	7.20034
1046.328	17.73793
1046.492	2.98547
1046.655	24.06077
1046.819	-39.15785
1046.983	0.87808
1047.146	72.54284
1047.31	-9.65855
1047.473	34.5993
1047.636	21.95313
1047.8	76.75925
1047.963	24.06077
1048.127	21.95313
1048.29	-34.94396
