Data from mixed_try1_USB4F045381__12__00237.txt Node

Date: Thu Apr 03 20:24:14 EDT 2025
User: mmckonesweet
Spectrometer: USB4F04538
Trigger mode: 4
Integration Time (sec): 2.700000E-3
Scans to average: 1
Electric dark correction enabled: true
Nonlinearity correction enabled: true
Boxcar width: 0
XAxis mode: Wavelengths
Number of Pixels in Spectrum: 3648
>>>>>Begin Spectral Data<<<<<
345.52	89.23331
345.736	89.23331
345.952	89.23331
346.168	93.45007
346.384	19.66988
346.6	38.63923
346.816	-54.08124
347.032	21.7775
347.248	-79.36032
347.464	-60.40135
347.68	23.88513
347.896	15.45473
348.112	74.47535
348.328	-3.51226
348.544	-16.15583
348.76	0.70246
348.975	38.63923
349.191	49.17857
349.407	30.20817
349.623	-5.61958
349.839	-28.79853
350.055	55.50246
350.27	21.7775
350.486	21.7775
350.702	-37.2265
350.918	-1.40491
351.133	93.45007
351.349	59.7185
351.565	-16.15583
351.781	0.70246
351.996	59.7185
352.212	13.34719
352.428	51.28651
352.644	87.12496
352.859	-11.94141
353.075	30.20817
353.291	42.8549
353.506	13.34719
353.722	-20.37016
353.938	-18.26301
354.153	-20.37016
354.369	2.80986
354.584	49.17857
354.8	34.42366
355.016	-35.11954
355.231	42.8549
355.447	44.96277
355.662	68.15085
355.878	42.8549
356.093	2.80986
356.309	32.3159
356.524	68.15085
356.74	32.3159
356.955	32.3159
357.171	23.88513
357.386	38.63923
357.602	-49.86771
357.817	7.02472
358.033	74.47535
358.248	-9.83416
358.464	169.36666
358.679	-7.72688
358.895	38.63923
359.11	74.47535
359.325	-18.26301
359.541	-1.40491
359.756	13.34719
359.972	30.20817
360.187	-9.83416
360.402	36.53143
360.618	-11.94141
360.833	76.58356
361.048	-14.04863
361.264	47.07066
361.479	44.96277
361.694	-3.51226
361.909	38.63923
362.125	110.318
362.34	-7.72688
362.555	13.34719
362.77	17.5623
362.986	38.63923
363.201	-9.83416
363.416	97.66692
363.631	-26.69148
363.847	-20.37016
364.062	-16.15583
364.277	17.5623
364.492	85.01664
364.707	-54.08124
364.922	-11.94141
365.138	15.45473
365.353	13.34719
365.568	17.5623
365.783	-11.94141
365.998	9.13219
366.213	21.7775
366.428	4.91728
366.643	-28.79853
366.858	116.64384
367.073	42.8549
367.288	49.17857
367.503	-9.83416
367.718	49.17857
367.933	-20.37016
368.148	-45.65407
368.363	32.3159
368.578	-7.72688
368.793	51.28651
369.008	25.99279
369.223	59.7185
369.438	13.34719
369.653	72.36716
369.868	101.88386
370.083	-35.11954
370.298	34.42366
370.513	32.3159
370.728	21.7775
370.943	4.91728
371.157	40.74705
371.372	57.61047
371.587	25.99279
371.802	38.63923
372.017	-3.51226
372.232	49.17857
372.446	47.07066
372.661	38.63923
372.876	47.07066
373.091	59.7185
373.306	55.50246
373.52	0.70246
373.735	34.42366
373.95	85.01664
374.165	72.36716
374.379	85.01664
374.594	7.02472
374.809	19.66988
375.023	13.34719
375.238	66.04272
375.453	61.82655
375.667	-39.33343
375.882	28.10047
376.097	47.07066
376.311	-11.94141
376.526	9.13219
376.741	-9.83416
376.955	23.88513
377.17	42.8549
377.384	89.23331
377.599	82.90833
377.813	19.66988
378.028	-49.86771
378.242	21.7775
378.457	-3.51226
378.672	55.50246
378.886	89.23331
379.101	32.3159
379.315	63.93463
379.53	30.20817
379.744	7.02472
379.958	2.80986
380.173	25.99279
380.387	36.53143
380.602	55.50246
380.816	4.91728
381.031	47.07066
381.245	-1.40491
381.459	-28.79853
381.674	-20.37016
381.888	17.5623
382.103	-49.86771
382.317	-7.72688
382.531	47.07066
382.746	63.93463
382.96	42.8549
383.174	36.53143
383.388	49.17857
383.603	74.47535
383.817	23.88513
384.031	59.7185
384.246	38.63923
384.46	-1.40491
384.674	68.15085
384.888	-33.01256
385.103	4.91728
385.317	40.74705
385.531	30.20817
385.745	4.91728
385.959	-22.47729
386.174	47.07066
386.388	59.7185
386.602	-11.94141
386.816	101.88386
387.03	17.5623
387.244	-14.04863
387.458	95.55848
387.672	40.74705
387.887	42.8549
388.101	25.99279
388.315	-9.83416
388.529	17.5623
388.743	59.7185
388.957	30.20817
389.171	-1.40491
389.385	106.10089
389.599	49.17857
389.813	55.50246
390.027	42.8549
390.241	47.07066
390.455	-39.33343
390.669	49.17857
390.883	63.93463
391.097	32.3159
391.311	89.23331
391.525	38.63923
391.738	49.17857
391.952	59.7185
392.166	9.13219
392.38	9.13219
392.594	-28.79853
392.808	-3.51226
393.022	-18.26301
393.236	89.23331
393.449	63.93463
393.663	23.88513
393.877	0.70246
394.091	80.80005
394.305	47.07066
394.518	-3.51226
394.732	97.66692
394.946	-43.54722
395.16	47.07066
395.373	4.91728
395.587	25.99279
395.801	80.80005
396.015	74.47535
396.228	-43.54722
396.442	38.63923
396.656	0.70246
396.869	66.04272
397.083	47.07066
397.297	23.88513
397.51	-26.69148
397.724	9.13219
397.938	30.20817
398.151	-11.94141
398.365	2.80986
398.578	72.36716
398.792	34.42366
399.005	-24.5844
399.219	47.07066
399.433	-9.83416
399.646	-18.26301
399.86	-62.50801
400.073	34.42366
400.287	76.58356
400.5	15.45473
400.714	80.80005
400.927	47.07066
401.141	38.63923
401.354	34.42366
401.567	9.13219
401.781	13.34719
401.994	19.66988
402.208	44.96277
402.421	2.80986
402.635	38.63923
402.848	66.04272
403.061	61.82655
403.275	32.3159
403.488	116.64384
403.701	11.23968
403.915	59.7185
404.128	25.99279
404.341	44.96277
404.555	17.5623
404.768	13.34719
404.981	4.91728
405.195	87.12496
405.408	66.04272
405.621	40.74705
405.834	122.96987
406.048	89.23331
406.261	9.13219
406.474	-20.37016
406.687	7.02472
406.9	38.63923
407.114	4.91728
407.327	59.7185
407.54	34.42366
407.753	89.23331
407.966	21.7775
408.179	40.74705
408.392	152.49392
408.605	55.50246
408.819	38.63923
409.032	34.42366
409.245	-3.51226
409.458	97.66692
409.671	30.20817
409.884	53.39447
410.097	63.93463
410.31	4.91728
410.523	9.13219
410.736	21.7775
410.949	4.91728
411.162	21.7775
411.375	72.36716
411.588	4.91728
411.801	11.23968
412.014	15.45473
412.227	-28.79853
412.44	51.28651
412.653	17.5623
412.865	55.50246
413.078	28.10047
413.291	15.45473
413.504	2.80986
413.717	70.25899
413.93	15.45473
414.143	38.63923
414.356	2.80986
414.568	80.80005
414.781	15.45473
414.994	47.07066
415.207	106.10089
415.42	-5.61958
415.632	42.8549
415.845	7.02472
416.058	9.13219
416.271	61.82655
416.483	-7.72688
416.696	55.50246
416.909	40.74705
417.121	23.88513
417.334	13.34719
417.547	55.50246
417.759	55.50246
417.972	76.58356
418.185	51.28651
418.397	68.15085
418.61	-37.2265
418.823	-41.44034
419.035	-1.40491
419.248	63.93463
419.46	38.63923
419.673	82.90833
419.885	4.91728
420.098	63.93463
420.311	68.15085
420.523	112.42659
420.736	28.10047
420.948	82.90833
421.161	68.15085
421.373	47.07066
421.586	0.70246
421.798	57.61047
422.01	-18.26301
422.223	13.34719
422.435	13.34719
422.648	49.17857
422.86	30.20817
423.073	21.7775
423.285	-3.51226
423.497	55.50246
423.71	114.5352
423.922	42.8549
424.134	125.07859
424.347	57.61047
424.559	25.99279
424.771	17.5623
424.984	0.70246
425.196	23.88513
425.408	72.36716
425.621	38.63923
425.833	55.50246
426.045	-20.37016
426.257	34.42366
426.47	72.36716
426.682	-1.40491
426.894	7.02472
427.106	2.80986
427.318	55.50246
427.531	-22.47729
427.743	66.04272
427.955	34.42366
428.167	17.5623
428.379	7.02472
428.591	76.58356
428.804	47.07066
429.016	97.66692
429.228	21.7775
429.44	-7.72688
429.652	63.93463
429.864	-3.51226
430.076	85.01664
430.288	72.36716
430.5	72.36716
430.712	38.63923
430.924	59.7185
431.136	-56.18797
431.348	63.93463
431.56	0.70246
431.772	106.10089
431.984	9.13219
432.196	4.91728
432.408	57.61047
432.62	9.13219
432.832	9.13219
433.044	72.36716
433.256	-35.11954
433.468	-33.01256
433.679	38.63923
433.891	15.45473
434.103	13.34719
434.315	30.20817
434.527	-18.26301
434.739	-18.26301
434.95	49.17857
435.162	78.6918
435.374	80.80005
435.586	95.55848
435.798	57.61047
436.009	25.99279
436.221	-18.26301
436.433	51.28651
436.645	122.96987
436.856	-9.83416
437.068	4.91728
437.28	9.13219
437.491	-22.47729
437.703	72.36716
437.915	85.01664
438.126	4.91728
438.338	93.45007
438.55	76.58356
438.761	17.5623
438.973	11.23968
439.184	97.66692
439.396	80.80005
439.608	-7.72688
439.819	13.34719
440.031	34.42366
440.242	61.82655
440.454	42.8549
440.665	34.42366
440.877	25.99279
441.088	32.3159
441.3	13.34719
441.511	93.45007
441.723	74.47535
441.934	-49.86771
442.146	-24.5844
442.357	116.64384
442.569	101.88386
442.78	47.07066
442.991	19.66988
443.203	-35.11954
443.414	66.04272
443.626	2.80986
443.837	82.90833
444.048	47.07066
444.26	55.50246
444.471	49.17857
444.682	30.20817
444.894	38.63923
445.105	114.5352
445.316	0.70246
445.528	9.13219
445.739	-20.37016
445.95	53.39447
446.161	63.93463
446.373	30.20817
446.584	11.23968
446.795	-35.11954
447.006	30.20817
447.217	38.63923
447.429	40.74705
447.64	106.10089
447.851	13.34719
448.062	51.28651
448.273	51.28651
448.484	19.66988
448.695	97.66692
448.907	0.70246
449.118	19.66988
449.329	57.61047
449.54	51.28651
449.751	97.66692
449.962	-30.90556
450.173	80.80005
450.384	34.42366
450.595	93.45007
450.806	-28.79853
451.017	57.61047
451.228	4.91728
451.439	47.07066
451.65	72.36716
451.861	55.50246
452.072	38.63923
452.283	13.34719
452.494	23.88513
452.705	49.17857
452.915	116.64384
453.126	51.28651
453.337	89.23331
453.548	74.47535
453.759	25.99279
453.97	38.63923
454.181	-7.72688
454.391	49.17857
454.602	72.36716
454.813	7.02472
455.024	4.91728
455.235	38.63923
455.445	49.17857
455.656	40.74705
455.867	72.36716
456.078	-54.08124
456.288	25.99279
456.499	101.88386
456.71	85.01664
456.921	34.42366
457.131	7.02472
457.342	30.20817
457.553	72.36716
457.763	70.25899
457.974	30.20817
458.184	59.7185
458.395	80.80005
458.606	66.04272
458.816	34.42366
459.027	38.63923
459.237	53.39447
459.448	13.34719
459.659	-51.97449
459.869	101.88386
460.08	-47.7609
460.29	49.17857
460.501	23.88513
460.711	91.34168
460.922	2.80986
461.132	38.63923
461.343	-16.15583
461.553	106.10089
461.764	116.64384
461.974	87.12496
462.184	150.38492
462.395	89.23331
462.605	51.28651
462.816	63.93463
463.026	91.34168
463.236	55.50246
463.447	28.10047
463.657	55.50246
463.867	21.7775
464.078	4.91728
464.288	38.63923
464.498	32.3159
464.709	55.50246
464.919	13.34719
465.129	21.7775
465.339	61.82655
465.55	25.99279
465.76	89.23331
465.97	76.58356
466.18	125.07859
466.391	89.23331
466.601	40.74705
466.811	9.13219
467.021	32.3159
467.231	32.3159
467.441	32.3159
467.651	49.17857
467.862	68.15085
468.072	-28.79853
468.282	97.66692
468.492	55.50246
468.702	51.28651
468.912	85.01664
469.122	85.01664
469.332	72.36716
469.542	40.74705
469.752	-7.72688
469.962	21.7775
470.172	17.5623
470.382	-1.40491
470.592	99.77538
470.802	49.17857
471.012	61.82655
471.222	55.50246
471.432	63.93463
471.642	32.3159
471.852	82.90833
472.062	89.23331
472.272	103.99236
472.482	13.34719
472.691	51.28651
472.901	47.07066
473.111	63.93463
473.321	70.25899
473.531	89.23331
473.741	47.07066
473.95	78.6918
474.16	51.28651
474.37	63.93463
474.58	72.36716
474.79	120.86117
474.999	89.23331
475.209	72.36716
475.419	118.75249
475.628	59.7185
475.838	93.45007
476.048	34.42366
476.258	55.50246
476.467	68.15085
476.677	55.50246
476.886	74.47535
477.096	59.7185
477.306	95.55848
477.515	68.15085
477.725	148.27594
477.935	118.75249
478.144	15.45473
478.354	55.50246
478.563	108.20943
478.773	106.10089
478.982	47.07066
479.192	55.50246
479.401	82.90833
479.611	118.75249
479.82	163.03922
480.03	89.23331
480.239	110.318
480.449	91.34168
480.658	82.90833
480.868	133.51369
481.077	139.84024
481.287	148.27594
481.496	146.16698
481.705	87.12496
481.915	106.10089
482.124	25.99279
482.333	160.93012
482.543	127.18734
482.752	80.80005
482.961	103.99236
483.171	122.96987
483.38	137.73137
483.589	137.73137
483.799	30.20817
484.008	186.24073
484.217	209.44471
484.426	184.1314
484.636	186.24073
484.845	167.25749
485.054	148.27594
485.263	148.27594
485.472	68.15085
485.682	219.99277
485.891	215.77348
486.1	175.69428
486.309	186.24073
486.518	207.33515
486.727	131.40488
486.936	211.55428
487.146	215.77348
487.355	232.6511
487.564	232.6511
487.773	279.07091
487.982	217.88312
488.191	279.07091
488.4	179.9128
488.609	156.71198
488.818	190.45945
489.027	196.78769
489.236	196.78769
489.445	287.51185
489.654	274.85054
489.863	207.33515
490.072	268.52014
490.281	211.55428
490.49	304.39463
490.698	249.52996
490.907	224.21213
491.116	317.05747
491.325	249.52996
491.534	276.96072
491.743	338.16365
491.952	230.54133
492.16	331.83161
492.369	367.71522
492.578	266.41005
492.787	393.0478
492.996	257.96985
493.204	314.94696
493.413	287.51185
493.622	346.60661
493.831	236.87069
494.039	367.71522
494.248	291.73244
494.457	507.07284
494.665	342.38509
494.874	342.38509
495.083	350.82819
495.291	367.71522
495.5	420.4941
495.709	342.38509
495.917	395.15895
496.126	515.52089
496.335	456.38949
496.543	538.7542
496.752	365.60428
496.96	414.16009
497.169	473.28298
497.377	401.49252
497.586	426.82825
497.794	502.8489
498.003	460.61277
498.211	574.66351
498.42	445.83155
498.628	549.31535
498.837	473.28298
499.045	578.88839
499.254	466.9478
499.462	583.11332
499.671	591.56335
499.879	604.23877
500.087	498.62502
500.296	604.23877
500.504	589.45082
500.713	600.01358
500.921	511.29683
501.129	629.59099
501.338	547.20309
501.546	625.3655
501.754	581.00085
501.962	650.7192
502.171	646.49347
502.379	724.67713
502.587	597.901
502.795	735.24366
503.004	631.70376
503.212	661.28376
503.42	583.11332
503.628	739.47034
503.837	707.77125
504.045	819.78501
504.253	703.54489
504.461	775.39883
504.669	722.56386
504.877	817.67129
505.085	762.71785
505.294	773.28531
505.502	836.69512
505.71	815.55758
505.918	769.0583
506.126	893.77083
506.334	900.11294
506.542	906.45513
506.75	724.67713
506.958	946.62393
507.166	942.39551
507.374	995.25276
507.582	840.92273
507.79	980.4523
507.998	889.54279
508.206	1120.01095
508.414	849.37807
508.622	1029.08355
508.83	1026.96908
509.037	1005.82471
509.245	849.37807
509.453	980.4523
509.661	971.99504
509.869	967.76645
510.077	1043.885
510.285	1029.08355
510.492	1026.96908
510.7	1128.46978
510.908	931.82458
511.116	1071.37415
511.324	1194.028
511.531	1060.80129
511.739	1048.11404
511.947	1213.0617
512.155	1045.99952
512.362	1155.96146
512.57	1079.83253
512.778	1229.98077
512.985	1259.5896
513.193	1217.29145
513.401	1179.2242
513.608	1335.72873
513.816	1185.56866
514.024	1249.01495
514.231	1160.19102
514.439	1280.73908
514.646	1335.72873
514.854	1213.0617
515.061	1153.84669
515.269	1299.7738
515.477	1204.60224
515.684	1356.8789
515.892	1346.30379
516.099	1390.71942
516.307	1308.23374
516.514	1538.77267
516.722	1549.3478
516.929	1433.02036
517.136	1443.59562
517.344	1369.56906
517.551	1352.64885
517.759	1532.42757
517.966	1352.64885
518.173	1612.79784
518.381	1301.88878
518.588	1657.21182
518.796	1441.48057
519.003	1652.98196
519.21	1509.16216
519.418	1543.00272
519.625	1568.38296
519.832	1633.94748
520.039	1521.8524
520.247	1682.59074
520.454	1733.3473
520.661	1722.77317
520.868	1633.94748
521.076	1750.26573
521.283	1619.14275
521.49	1830.62481
521.697	1710.08411
521.904	1872.91648
522.112	1678.36095
522.319	1908.86281
522.526	1661.44167
522.733	1775.64292
522.94	1743.92134
523.147	1970.1793
523.354	1724.888
523.561	1900.40499
523.768	2097.02396
523.975	2080.11279
524.183	1847.54171
524.39	2058.97318
524.597	1951.15057
524.804	2020.92009
525.011	1860.22919
525.218	2223.84171
525.425	2097.02396
525.632	1974.40784
525.838	1968.06502
526.045	2285.12595
526.252	2042.06097
526.459	2325.27346
526.666	2016.69184
526.873	2164.66374
527.08	2215.38813
527.287	2369.64294
527.494	2196.36705
527.701	2318.93461
527.907	2097.02396
528.114	2304.14362
528.321	2143.52718
528.528	2473.15405
528.735	2225.95509
528.941	2405.55782
529.148	2280.89969
529.355	2414.00795
529.562	2194.25356
529.768	2473.15405
529.975	2236.52183
530.182	2445.69441
530.388	2367.5302
530.595	2555.52158
530.802	2559.74508
531.008	2644.20504
531.215	2490.05136
531.422	2549.18624
531.628	2509.05998
531.835	2557.63334
532.042	2509.05998
532.248	2642.09378
532.455	2532.29148
532.661	2549.18624
532.868	2625.20325
533.074	2829.94503
533.281	2424.57037
533.487	2686.42759
533.694	2601.97749
533.9	2905.89906
534.107	2734.97716
534.313	2781.40933
534.52	2756.0835
534.726	2958.63389
534.933	2785.63012
535.139	3036.66431
535.345	2962.85228
535.552	3045.09878
535.758	2918.55626
535.965	3083.05082
536.171	2851.04522
536.377	2939.65041
536.584	2945.97837
536.79	3085.15911
536.996	2986.05235
537.203	3051.42447
537.409	3021.9034
537.615	3019.79463
537.821	3049.31592
538.028	3249.55674
538.234	3064.07543
538.44	3146.29284
538.646	2979.72524
538.853	3188.44614
539.059	2992.37932
539.265	3133.64559
539.471	3213.73498
539.677	3291.69377
539.883	3190.55363
540.09	3428.59156
540.296	3209.52034
540.502	3369.62925
540.708	3241.12852
540.914	3401.21793
541.12	3327.5049
541.326	3525.42778
541.532	3224.27129
541.738	3388.58293
541.944	3462.27806
542.15	3567.51844
542.356	3319.0792
542.562	3775.75634
542.768	3413.85229
542.974	3487.53991
543.18	3521.21831
543.386	3889.26051
543.592	3561.20532
543.798	3708.46762
544.004	3514.90397
544.21	3800.98446
544.415	3636.95177
544.621	3983.80276
544.827	3718.98279
545.033	3887.15911
545.239	3641.1592
545.445	3941.78904
545.651	3773.65386
545.856	3956.49476
546.062	3681.12593
546.268	3849.33044
546.474	3639.05549
546.679	3956.49476
546.885	3885.05768
547.091	4017.40786
547.297	3872.44873
547.502	4265.08101
547.708	4132.88508
547.914	4233.61343
548.119	3933.38532
548.325	4118.19147
548.531	3857.73737
548.736	4242.00525
548.942	3855.63567
549.147	4051.0077
549.353	4042.60823
549.559	4111.8939
549.764	3931.28434
549.97	3985.90323
550.175	4095.09945
550.381	4290.2516
550.586	4212.63237
550.792	4309.12752
550.997	4208.43591
551.203	4493.59947
551.408	4053.10751
551.614	4403.48086
551.819	4237.80938
552.025	4283.95924
552.23	4233.61343
552.435	4420.25018
552.641	4246.20103
552.846	4445.40154
553.052	4235.71141
553.257	4686.27389
553.462	4522.93163
553.668	4531.31145
553.873	4462.16735
554.078	4682.08732
554.283	4529.21653
554.489	4855.75361
554.694	4694.64674
554.899	4705.1123
555.105	4537.59608
555.31	4826.47147
555.515	4711.39137
555.72	4885.03127
555.925	4531.31145
556.131	4928.93935
556.336	4703.01923
556.541	4820.19614
556.746	4728.13455
556.951	4811.82873
557.156	4711.39137
557.361	5112.82467
557.567	4627.65384
557.772	4905.94114
557.977	4753.24661
558.182	4993.73753
558.387	4937.30165
558.592	4954.02514
558.797	5073.13731
559.002	5263.14267
559.207	4853.66218
559.412	5100.29273
559.617	4899.66842
559.822	5035.53105
560.027	4928.93935
560.232	5041.79928
560.437	5056.42434
560.642	5240.18525
560.847	5043.88864
561.051	5068.95921
561.256	5018.81475
561.461	5081.49324
561.666	5119.09033
561.871	5240.18525
562.076	5014.63544
562.281	5144.15088
562.485	5131.62102
562.69	5415.42472
562.895	5054.33512
563.1	5386.22963
563.305	5279.83721
563.509	5400.82775
563.714	5210.96262
563.919	5336.1702
564.123	5415.42472
564.328	5532.15901
564.533	5404.99843
564.737	5404.99843
564.942	5331.99797
565.147	5596.74802
565.351	5465.46273
565.556	5379.97294
565.761	5459.20872
565.965	5367.45893
566.17	5440.44542
566.374	5450.86971
566.579	5475.88562
566.784	5627.99263
566.988	5459.20872
567.193	5709.20379
567.397	5498.81388
567.602	5730.02139
567.806	5436.27554
568.011	5667.56153
568.215	5609.2465
568.42	5692.54802
568.624	5846.55629
568.828	5840.31523
569.033	5856.9576
569.237	6029.53309
569.442	5761.24335
569.646	5732.10302
569.85	5638.40633
570.055	5817.42951
570.259	6000.43536
570.463	6091.86984
570.668	5938.06752
570.872	5913.11444
571.076	5871.51843
571.281	6204.02266
571.485	5900.63663
571.689	6168.72268
571.893	5929.7502
572.098	6050.31436
572.302	5923.51197
572.506	6125.10745
572.71	6002.51392
572.914	5998.35677
573.119	5979.64843
573.323	5925.5914
573.527	5840.31523
573.731	6052.39236
573.935	5919.35303
574.139	6351.37882
574.343	5979.64843
574.547	6166.646
574.751	5987.96349
574.955	6206.09892
575.159	6112.64405
575.364	6231.01219
575.568	6220.63207
575.772	6430.19712
575.976	6314.03208
576.18	6523.49114
576.383	6343.0802
576.587	6571.15662
576.791	6465.44705
576.995	6560.7956
577.199	6316.1071
577.403	6257.99776
577.607	6544.21677
577.811	6357.60254
578.015	6187.41175
578.219	6461.30035
578.422	6295.35587
578.626	6726.50274
578.83	6382.49533
579.034	6668.522
579.238	6593.94883
579.442	6664.37983
579.645	6421.90204
579.849	6743.06537
580.053	6645.73892
580.257	6858.96279
580.46	6622.95306
580.664	6598.09257
580.868	6527.63645
581.071	6788.60503
581.275	6527.63645
581.479	6805.16217
581.682	6689.23147
581.886	6867.23844
582.09	6769.97651
582.293	6792.74445
582.497	6718.22088
582.7	6999.59961
582.904	6916.88474
583.107	6958.24669
583.311	6892.06322
583.515	6974.78894
583.718	6850.68677
583.922	6964.4502
584.125	6916.88474
584.329	7133.93458
584.532	7024.40704
584.735	7053.34495
584.939	6842.41039
585.142	7214.49034
585.346	6952.04297
585.549	7189.70754
585.753	6962.38239
585.956	6983.05952
586.159	7164.92156
586.363	7350.73893
586.566	7136.00054
586.769	7305.33337
586.973	7071.94558
587.176	7387.88107
587.379	7330.10135
587.582	7482.76785
587.786	7164.92156
587.989	7505.45139
588.192	7080.21194
588.395	7647.67985
588.599	7288.81962
588.802	7503.38936
589.005	7373.43774
589.208	7402.32332
589.411	7375.50114
589.615	7538.44098
589.818	7354.86618
590.021	7707.42679
590.224	7439.45566
590.427	7493.07888
590.63	7478.64329
590.833	7503.38936
591.036	7455.95667
591.239	7758.91854
591.442	7503.38936
591.645	7655.92186
591.848	7548.7491
592.051	7857.74604
592.254	7744.50217
592.457	7966.81264
592.66	7645.61929
592.863	7705.36684
593.066	7587.91506
593.269	7940.0658
593.472	7641.49811
593.675	7816.57375
593.878	7935.9506
594.081	7779.51156
594.284	7800.1025
594.486	8110.77495
594.689	7999.72708
594.892	8047.03246
595.095	7997.67008
595.298	8067.59667
595.5	7789.80729
595.703	8170.38755
595.906	7905.08393
596.109	8055.25839
596.311	7927.71994
596.514	8030.57964
596.717	8131.33292
596.92	8394.29993
597.122	8211.48991
597.325	8240.25685
597.528	7925.66222
597.73	8453.834
597.933	8137.49992
598.136	8084.04659
598.338	8379.92721
598.541	8338.85707
598.743	8221.76426
598.946	8174.49814
599.148	8242.31148
599.351	8340.91076
599.554	8367.60698
599.756	8342.96443
599.959	8490.77806
600.161	8691.8106
600.363	8556.44119
600.566	8470.25435
600.768	8486.67347
600.971	8687.70969
601.173	8310.10333
601.376	8919.2968
601.578	8400.45938
601.78	8786.1113
601.983	8260.80229
602.185	8874.22713
602.388	8687.70969
602.59	8788.16089
602.792	8615.93171
602.995	8634.39108
603.197	8636.44203
603.399	8909.05445
603.601	8544.13083
603.804	8773.8134
604.006	8714.3643
604.208	8904.95739
604.41	8743.06579
604.613	8800.45802
604.815	8654.89972
605.017	8738.9658
605.219	8570.80241
605.421	8847.59098
605.623	8695.91144
605.826	8904.95739
606.028	8613.88057
606.23	8896.76305
606.432	8589.26549
606.634	8898.81166
606.836	8433.30684
607.038	8892.66577
607.24	8634.39108
607.442	8941.8284
607.644	8806.60634
607.846	8962.30981
608.048	8769.71396
608.25	8925.44199
608.452	8790.21045
608.654	8978.69367
608.856	8894.71442
609.058	8952.06933
609.26	8917.24837
609.462	8909.05445
609.664	8968.45389
609.866	9072.87907
610.067	8968.45389
610.269	9232.50128
610.471	8898.81166
610.673	9205.90477
610.875	9138.37769
611.077	8958.21367
611.278	9060.59611
611.48	9083.11439
611.682	9220.22632
611.884	9436.99575
612.085	9171.12041
612.287	9103.58374
612.489	9281.59506
612.69	9375.6647
612.892	9072.87907
613.094	9410.42076
613.295	9252.9582
613.497	9193.6285
613.699	8999.17191
613.9	9316.36401
614.102	9175.21294
614.304	9185.44397
614.505	9255.0038
614.707	9334.76916
614.908	9062.64331
615.11	9154.74959
615.311	9033.98088
615.513	9132.23794
615.714	9392.02109
615.916	9457.43619
616.117	9089.25538
616.319	9451.30423
616.52	9162.93514
616.722	9293.86701
616.923	9246.8213
617.124	9394.06556
617.326	9484.00635
617.527	9671.96466
617.729	9312.27379
617.93	9539.18188
618.131	9457.43619
618.333	9263.18603
618.534	9392.02109
618.735	9729.1432
618.937	9473.78738
619.138	9604.56013
619.339	9473.78738
619.54	9484.00635
619.742	9324.54424
619.943	9420.64224
620.144	9236.5928
620.345	9788.35121
620.546	9418.59798
620.748	9898.56699
620.949	9682.176
621.15	9555.52795
621.351	9342.94879
621.552	9588.21708
621.753	9641.32834
621.954	9620.90218
622.155	9426.77493
622.356	9494.22492
622.558	9498.31223
622.759	9543.26849
622.96	9428.81913
623.161	9676.04924
623.362	9518.74785
623.563	9733.22692
623.764	9422.68649
623.965	9869.99669
624.166	9682.176
624.366	9674.00696
624.567	9575.95913
624.768	9575.95913
624.969	9381.79847
625.17	9814.88861
625.371	9667.88002
625.572	9584.13116
625.773	9665.83768
625.973	9859.79231
626.174	9802.6409
626.375	9925.09397
626.576	9841.42349
626.777	10076.0471
626.977	9620.90218
627.178	9778.14384
627.379	9794.47545
627.58	9898.56699
627.78	9465.61191
627.981	10124.98812
628.182	9947.53795
628.382	10192.26892
628.583	9680.13376
628.784	9802.6409
628.984	9718.93362
629.185	9914.89158
629.386	9890.40434
629.586	9988.34068
629.787	9786.30977
629.987	10055.65261
630.188	9816.92985
630.388	10184.11447
630.589	9843.46453
630.79	9972.02028
630.99	9816.92985
631.191	10025.05821
631.391	9833.25918
631.591	9674.00696
631.792	9814.88861
631.992	10006.70003
632.193	9818.97107
632.393	9990.38067
632.594	10080.12583
632.794	10045.45483
632.994	10102.55783
633.195	10200.42314
633.395	9992.42064
633.595	10000.58037
633.796	9931.21523
633.996	10235.07616
634.196	10171.88239
634.397	10410.32005
634.597	10131.10519
634.797	10351.23716
634.997	10045.45483
635.198	10210.61562
635.398	10067.88947
635.598	10312.52166
635.798	10241.19099
635.998	10369.57441
636.199	10324.74813
636.399	10408.28289
636.599	10214.69251
636.799	10432.72793
636.999	10033.21703
637.199	10241.19099
637.399	10037.29635
637.599	10245.26747
637.799	9976.10047
637.999	10353.27469
638.199	10432.72793
638.399	10355.3122
638.599	10591.57566
638.799	10644.50793
638.999	10552.88907
639.199	10729.99643
639.399	10432.72793
639.599	10381.79866
639.799	10479.5757
639.999	10605.82747
640.199	10389.94789
640.399	10536.59863
640.599	9896.52635
640.799	10937.52432
640.998	10369.57441
641.198	10398.09691
641.398	10347.16207
641.598	10495.86898
641.798	10493.83236
641.997	10652.65061
642.197	10670.97094
642.397	10542.70764
642.597	10463.28159
642.796	10837.84467
642.996	10398.09691
643.196	10675.04199
643.395	10917.18377
643.595	10896.84207
643.795	10707.60865
643.994	11128.67116
644.194	10819.53315
644.394	10817.49848
644.593	10892.7736
644.793	11230.30617
644.992	10961.9315
645.192	10772.73273
645.392	10770.69778
645.591	10854.12079
645.791	10870.39616
645.99	10554.92532
646.19	10210.61562
646.389	10628.22196
646.589	10668.9354
646.788	10827.67172
646.987	10683.18395
647.187	10868.36178
647.386	10673.00647
647.586	10892.7736
647.785	10870.39616
647.984	10994.47188
648.184	10913.11552
648.383	11138.83585
648.582	10809.35967
648.782	11187.62267
648.981	10825.63709
649.18	11390.83701
649.38	10998.53923
649.579	11167.29557
649.778	11096.14235
649.977	11157.13162
650.177	10900.9105
650.376	11071.74393
650.575	10866.32739
650.774	11053.44409
650.973	10880.5679
651.173	11049.37733
651.372	10961.9315
651.571	11132.73707
651.77	11024.9759
651.969	11447.7191
652.168	11063.61077
652.367	11396.93189
652.566	11197.78583
652.765	11390.83701
652.964	10947.69417
653.163	11112.4071
653.362	11222.17634
653.561	11106.3079
653.76	11258.7593
653.959	11372.55185
654.158	11022.94238
654.357	11114.44014
654.556	10943.62627
654.755	11490.37569
654.954	11490.37569
655.153	11338.01102
655.352	11240.46824
655.551	11616.28987
655.749	11514.74898
655.948	11644.71719
656.147	11266.88839
656.346	11455.84449
656.545	11258.7593
656.743	11445.68773
656.942	11514.74898
657.141	11348.17039
657.34	11268.92064
657.538	11419.27901
657.737	11569.58395
657.936	11701.56653
658.135	11376.61529
658.333	11187.62267
658.532	11344.10667
658.731	11461.93843
658.929	11303.4673
659.128	11405.05825
659.326	11342.0748
659.525	11742.16894
659.724	11185.59001
659.922	11526.93512
660.121	11360.3613
660.319	11561.46068
660.518	11443.65635
660.716	11549.2755
660.915	11224.20881
661.113	11587.86076
661.312	11352.23407
661.51	11340.04292
661.709	11388.80537
661.907	11819.30393
662.105	11555.36813
662.304	11701.56653
662.502	11293.30682
662.701	11386.77371
662.899	11268.92064
663.097	11652.83896
663.296	11354.26589
663.494	11742.16894
663.692	11600.04488
663.891	11991.79879
664.089	11677.20339
664.287	11835.5413
664.485	11677.20339
664.684	11792.91704
664.882	11750.289
665.08	11778.70812
665.278	11423.342
665.476	11437.56215
665.675	11500.53139
665.873	11549.2755
666.071	11650.80853
666.269	11579.73782
666.467	11642.68673
666.665	11547.2446
666.863	11466.00101
667.061	11776.67824
667.259	11604.10619
667.457	11650.80853
667.655	11307.53142
667.853	11665.02133
668.051	11398.9635
668.249	11270.95288
668.447	11358.32951
668.645	11766.52871
668.843	11486.31334
669.041	11742.16894
669.239	11461.93843
669.437	11770.58854
669.635	11805.09578
669.833	11600.04488
670.031	11630.50375
670.229	11805.09578
670.426	11754.34898
670.624	11766.52871
670.822	11727.9585
671.02	11825.39301
671.218	11764.49877
671.415	11648.77809
671.613	11705.62693
671.811	12079.03874
672.009	11512.71793
672.206	11924.83725
672.404	11543.18278
672.602	11567.55314
672.799	11303.4673
672.997	11790.88722
673.195	11197.78583
673.392	11756.37896
673.59	11559.42984
673.788	11772.61845
673.985	11502.56251
674.183	11758.40892
674.38	11559.42984
674.578	11803.06602
674.775	11616.28987
674.973	11778.70812
675.17	11636.59528
675.368	11740.1389
675.565	11721.86818
675.763	11809.1553
675.96	11535.05903
676.158	11541.15186
676.355	11492.40685
676.553	12135.83845
676.75	11752.319
676.947	11857.8668
677.145	11667.0517
677.342	11701.56653
677.539	11510.68686
677.737	11829.45235
677.934	12028.3196
678.131	11892.36785
678.329	11494.438
678.526	11644.71719
678.723	11713.74763
678.92	12036.43499
679.118	11539.12092
679.315	11683.2943
679.512	11291.2747
679.709	11559.42984
679.906	11136.80293
680.104	11518.81107
680.301	11329.88335
680.498	11683.2943
680.695	11272.98511
680.892	11577.70707
681.089	11449.75046
681.286	11502.56251
681.483	11411.15292
681.68	11650.80853
681.877	11557.39899
682.075	11583.79931
682.272	11230.30617
682.469	11518.81107
682.665	11360.3613
682.862	11478.18852
683.059	11055.47745
683.256	11644.71719
683.453	11642.68673
683.65	11648.77809
683.847	11445.68773
684.044	11896.42664
684.241	11431.46786
684.438	11667.0517
684.635	11496.46914
684.831	11967.45016
685.028	11721.86818
685.225	11569.58395
685.422	11569.58395
685.619	11571.61474
685.815	11470.06355
686.012	11662.99096
686.209	11075.81044
686.405	11500.53139
686.602	11348.17039
686.799	11331.91528
686.996	11234.37103
687.192	11490.37569
687.389	11384.74205
687.586	11656.89979
687.782	11516.78003
687.979	11762.46883
688.175	11449.75046
688.372	11553.33726
688.568	11510.68686
688.765	11368.48838
688.962	11262.82387
689.158	11419.27901
689.355	11622.38159
689.551	11699.53632
689.748	11429.43641
689.944	11535.05903
690.14	11457.87582
690.337	11642.68673
690.533	11317.69154
690.73	11539.12092
690.926	11443.65635
691.123	11421.31051
691.319	11537.08998
691.515	11626.44269
691.712	11496.46914
691.908	11356.2977
692.104	11228.27373
692.301	11262.82387
692.497	11006.67379
692.693	11394.90027
692.889	11342.0748
693.086	11374.58358
693.282	11350.20223
693.478	11470.06355
693.674	11390.83701
693.87	11480.21974
694.067	11291.2747
694.263	11571.61474
694.459	11474.12606
694.655	11711.71747
694.851	11675.17307
695.047	11455.84449
695.243	11315.65953
695.439	11662.99096
695.635	11455.84449
695.831	11390.83701
696.027	11163.23002
696.224	11283.14609
696.42	11041.2437
696.615	11299.40314
696.811	11323.78749
697.007	11236.40344
697.203	11140.86876
697.399	11415.21599
697.595	11195.75322
697.791	11230.30617
697.987	11303.4673
698.183	11654.86938
698.379	11077.84368
698.575	11537.08998
698.77	11193.7206
698.966	11124.60521
699.162	11041.2437
699.358	11388.80537
699.554	11120.53921
699.749	11429.43641
699.945	11102.24171
700.141	11356.2977
700.337	11069.71066
700.532	11081.91013
700.728	11254.69469
700.924	11161.19723
701.119	10970.06686
701.315	11083.94333
701.511	10927.35419
701.706	11415.21599
701.902	11183.55733
702.097	11539.12092
702.293	11405.05825
702.489	11478.18852
702.684	11266.88839
702.88	11183.55733
703.075	11242.50062
703.271	11356.2977
703.466	11173.39381
703.662	11423.342
703.857	11146.96741
704.053	11218.11136
704.248	11053.44409
704.443	11340.04292
704.639	11136.80293
704.834	11136.80293
705.03	11073.77719
705.225	11307.53142
705.42	11043.27713
705.616	11212.01381
705.811	10925.32012
706.006	11212.01381
706.202	11173.39381
706.397	11035.14336
706.592	11153.06597
706.787	11335.97912
706.983	10937.52432
707.178	11230.30617
707.373	11236.40344
707.568	11256.727
707.763	10965.9992
707.959	10941.5923
708.154	10917.18377
708.349	11218.11136
708.544	11390.83701
708.739	11191.68796
708.934	11142.90165
709.129	11130.70412
709.324	11177.45925
709.519	11484.28215
709.714	10976.16827
709.909	11636.59528
710.104	11051.41072
710.299	11285.17826
710.494	11031.07641
710.689	11209.98127
710.884	10909.04723
711.079	11254.69469
711.274	11071.74393
711.469	11075.81044
711.664	10803.25545
711.859	11189.65532
712.054	10974.13448
712.249	10921.25197
712.443	10799.1859
712.638	11043.27713
712.833	10721.85559
713.028	11035.14336
713.223	10953.79595
713.417	11092.07605
713.612	11031.07641
713.807	11368.48838
714.002	10921.25197
714.196	11260.79159
714.391	10786.97699
714.586	10827.67172
714.78	10772.73273
714.975	11104.27481
715.17	10894.80784
715.364	11096.14235
715.559	11216.07885
715.754	10923.28605
715.948	10683.18395
716.143	11035.14336
716.337	10876.49924
716.532	11122.57222
716.726	11128.67116
716.921	11061.57746
717.115	10791.04668
717.31	10837.84467
717.504	10668.9354
717.699	10900.9105
717.893	10843.9483
718.088	10829.70633
718.282	10793.0815
718.476	10795.11631
718.671	10552.88907
718.865	10650.61496
719.059	10646.54362
719.254	10770.69778
719.448	10732.03161
719.642	10913.11552
719.837	10420.50564
720.031	10681.14848
720.225	10467.35519
720.419	10815.46379
720.614	10681.14848
720.808	11071.74393
721.002	10890.73934
721.196	11096.14235
721.39	10784.94213
721.585	10734.06678
721.779	10811.39439
721.973	10793.0815
722.167	10666.89984
722.361	10929.38824
722.555	10697.4319
722.749	10630.25775
722.943	10715.74983
723.137	10713.71455
723.331	10646.54362
723.525	10583.43149
723.719	10457.17109
723.913	10542.70764
724.107	10493.83236
724.301	10609.89931
724.495	10436.80192
724.689	10642.47222
724.883	10404.20854
725.077	10550.85281
725.271	10670.97094
725.465	10616.00697
725.659	10253.42028
725.853	10424.57979
726.046	10469.39198
726.24	10290.10523
726.434	10171.88239
726.628	10546.78025
726.822	10489.75909
727.015	10689.29029
727.209	10216.73094
727.403	10650.61496
727.596	10550.85281
727.79	10609.89931
727.984	10616.00697
728.177	10534.56227
728.371	10430.69091
728.565	10396.05967
728.758	10561.03399
728.952	10675.04199
729.146	10416.43145
729.339	10689.29029
729.533	10817.49848
729.726	10446.98666
729.92	10630.25775
730.113	10457.17109
730.307	10587.5036
730.5	10756.45285
730.694	10770.69778
730.887	10648.57929
731.081	10644.50793
731.274	10648.57929
731.468	10385.8733
731.661	10732.03161
731.854	10224.8845
732.048	10652.65061
732.241	10394.02243
732.435	10569.17871
732.628	10424.57979
732.821	10687.25485
733.014	10729.99643
733.208	10656.72188
733.401	10721.85559
733.594	10420.50564
733.788	10277.8774
733.981	10618.04283
734.174	10347.16207
734.367	10479.5757
734.56	10365.49956
734.754	10691.32571
734.947	10422.54272
735.14	10522.34383
735.333	10373.64921
735.526	10491.79574
735.719	10302.33258
735.912	10394.02243
736.105	10363.46212
736.298	10522.34383
736.491	10400.13413
736.684	10534.56227
736.877	10408.28289
737.07	10204.50017
737.263	10379.76132
737.456	10485.68577
737.649	10446.98666
737.842	10379.76132
738.035	10446.98666
738.228	10139.26107
738.421	10243.22923
738.614	10567.14255
738.807	10440.87585
739	10312.52166
739.192	10139.26107
739.385	10224.8845
739.578	10243.22923
739.771	10369.57441
739.964	10306.40825
740.156	10495.86898
740.349	10499.94217
740.542	10363.46212
740.735	10296.21896
740.927	10288.06729
741.12	10080.12583
741.313	10071.96831
741.505	10194.30749
741.698	10020.97871
741.891	10061.7711
742.083	10302.33258
742.276	10169.84366
742.468	10428.65388
742.661	10420.50564
742.854	10418.46855
743.046	10455.13423
743.239	10518.27091
743.431	10371.61182
743.624	10159.64981
743.816	10389.94789
744.009	10510.12493
744.201	10063.81057
744.393	10324.74813
744.586	10233.03785
744.778	10216.73094
744.971	9974.06038
745.163	10345.12451
745.355	10086.24381
745.548	10184.11447
745.74	10143.33893
745.932	10326.78583
746.125	10267.68717
746.317	10438.83889
746.509	10159.64981
746.702	10373.64921
746.894	10167.80492
747.086	10074.00771
747.278	10071.96831
747.471	10084.2045
747.663	10159.64981
747.855	10343.08693
748.047	10224.8845
748.239	10196.34606
748.431	10076.0471
748.623	10143.33893
748.815	9933.25562
749.008	10182.07583
749.2	10192.26892
749.392	10281.95339
749.584	10043.41523
749.776	10145.37784
749.968	10110.71449
750.16	10245.26747
750.352	10086.24381
750.544	10175.95981
750.736	10159.64981
750.928	10341.04934
751.12	9935.296
751.311	9849.58755
751.503	10214.69251
751.695	9759.76962
751.887	9749.56119
752.079	9853.6695
752.271	9678.09151
752.463	9723.0175
752.654	9723.0175
752.846	9892.44502
753.038	9432.90747
753.23	10023.01847
753.421	9676.04924
753.613	10041.37562
753.805	9808.76482
753.997	9806.72353
754.188	10069.9289
754.38	9849.58755
754.572	10012.81955
754.763	10029.13765
754.955	9955.69896
755.146	10135.18316
755.338	10018.93894
755.53	9645.41338
755.721	9833.25918
755.913	9808.76482
756.104	9867.95584
756.296	9916.93209
756.487	9884.2822
756.679	10008.73988
756.87	10004.66016
757.062	9794.47545
757.253	9774.06079
757.445	9698.51334
757.636	9508.53024
757.827	9761.81126
758.019	9729.1432
758.21	9539.18188
758.401	9645.41338
758.593	9555.52795
758.784	9727.10131
758.975	9461.52408
759.167	9535.0952
759.358	9533.05183
759.549	9518.74785
759.74	9351.12817
759.932	9432.90747
760.123	9610.68851
760.314	9671.96466
760.505	9690.34479
760.696	9451.30423
760.888	9767.93609
761.079	9727.10131
761.27	9469.69968
761.461	9248.86695
761.652	9250.91258
761.843	9212.04268
762.034	9214.08862
762.225	9162.93514
762.416	9293.86701
762.607	9099.49001
762.798	9342.94879
762.989	9179.3054
763.18	9171.12041
763.371	9015.55323
763.562	9203.85877
763.753	9085.16141
763.944	9328.63426
764.135	9306.13835
764.326	9522.83478
764.517	8974.59781
764.708	9387.93209
764.899	9261.14049
765.089	9287.73111
765.28	9212.04268
765.471	9336.81409
765.662	8913.15144
765.853	9297.95752
766.043	9111.771
766.234	9216.13454
766.425	8894.71442
766.615	9289.77643
766.806	9048.31252
766.997	8927.49036
767.187	8714.3643
767.378	8773.8134
767.569	8654.89972
767.759	8837.3455
767.95	9021.69594
768.141	8997.12416
768.331	8704.1129
768.522	8652.84894
768.712	8601.57337
768.903	8843.49284
769.093	8665.15335
769.284	8853.73805
769.474	8839.39463
769.665	9074.92617
769.855	8769.71396
770.046	8982.78946
770.236	8659.00123
770.426	8972.54985
770.617	8589.26549
770.807	8679.50764
770.998	8334.74962
771.188	8566.6993
771.378	8503.09138
771.569	8691.8106
771.759	8503.09138
771.949	8429.20117
772.139	8771.76369
772.33	8638.49296
772.52	8533.87168
772.71	8876.27594
772.9	8486.67347
773.09	8581.05987
773.281	8517.45605
773.471	8605.67585
773.661	8318.31907
773.851	8745.11576
774.041	8648.74732
774.231	8468.20187
774.421	8484.62115
774.611	8345.01808
774.802	8262.85673
774.992	8260.80229
775.182	8059.37123
775.372	8371.7138
775.562	8449.72872
775.752	8102.5512
775.942	8299.83321
776.131	8137.49992
776.321	8007.95488
776.511	8180.66389
776.701	8149.83338
776.891	8215.59971
777.081	8221.76426
777.271	8384.0338
777.461	8219.70943
777.651	8232.03812
777.84	8020.29596
778.03	8246.42069
778.22	8135.44427
778.41	8359.39311
778.599	8168.33222
778.789	8351.17893
778.979	8195.04992
779.169	8038.80621
779.358	8219.70943
779.548	7940.0658
779.738	8096.38318
779.927	7948.29597
780.117	8065.54034
780.307	8016.18235
780.496	7886.56171
780.686	7927.71994
780.875	7756.85912
781.065	7921.54673
781.254	7651.8009
781.444	8051.14547
781.633	7627.07332
781.823	7750.68074
782.012	7717.72619
782.202	8016.18235
782.391	7884.50358
782.581	7713.60649
782.77	7756.85912
782.96	7746.56171
783.149	7734.20413
783.338	7907.14186
783.528	7725.96533
783.717	7824.80887
783.906	7684.76625
784.096	7861.86281
784.285	7802.16148
784.474	7820.69135
784.663	7767.156
784.853	7717.72619
785.042	7800.1025
785.231	7882.44544
785.42	7666.2239
785.61	7655.92186
785.799	7218.62049
785.988	7524.00871
786.177	7311.52566
786.366	7299.14088
786.555	7181.4459
786.744	7515.76123
786.933	7416.76451
787.122	7427.079
787.312	7447.70634
787.501	7565.24097
787.69	7098.80995
787.879	7115.33999
788.068	7284.69097
788.257	7534.31758
788.445	7536.37929
788.634	7678.58566
788.823	7495.14102
789.012	7847.45375
789.201	7447.70634
789.39	7505.45139
789.579	7431.20464
789.768	7476.58098
789.957	7301.20506
790.145	7420.89037
790.334	7288.81962
790.523	7425.01614
790.712	7371.37432
790.9	7282.62661
791.089	7189.70754
791.278	7332.16521
791.467	7247.5291
791.655	7309.46159
791.844	6995.46472
792.033	7156.65886
792.221	7150.46159
792.41	7119.47228
792.599	7086.41148
792.787	7131.86861
792.976	7086.41148
793.164	7164.92156
793.353	7119.47228
793.541	6914.8164
793.73	7061.61212
793.918	7144.26413
794.107	6960.31455
794.295	6991.32975
794.484	6867.23844
794.672	6962.38239
794.861	6912.74805
795.049	6941.70299
795.238	6856.89382
795.426	7061.61212
795.614	6765.83658
795.803	7012.00373
795.991	7061.61212
796.179	7119.47228
796.368	7036.80954
796.556	7053.34495
796.744	6825.85654
796.932	6962.38239
797.121	6705.7974
797.309	6974.78894
797.497	6751.34613
797.685	6709.93865
797.874	6705.7974
798.062	6885.85734
798.25	6602.23621
798.438	6817.57906
798.626	6612.59492
798.814	6519.34574
799.002	6585.66108
799.19	6722.36186
799.378	6726.50274
799.566	6867.23844
799.755	6801.02302
799.943	6945.83905
800.131	6743.06537
800.318	6784.46552
800.506	6738.92485
800.694	6954.1109
800.882	6635.38205
801.07	6687.16063
801.258	6602.23621
801.446	6856.89382
801.634	6579.44502
801.822	6575.30087
802.01	6463.37372
802.197	6596.02071
802.385	6544.21677
802.573	6537.99932
802.761	6479.95978
802.949	6567.01228
803.136	6338.93075
803.324	6875.51373
803.512	6560.7956
803.699	6629.16766
803.887	6496.54436
804.075	6788.60503
804.262	6591.87693
804.45	6801.02302
804.638	6569.08446
804.825	6736.85456
805.013	6494.47137
805.201	6680.94796
805.388	6434.34452
805.576	6685.08976
805.763	6581.51706
805.951	6782.39573
806.138	6672.66408
806.326	6747.20579
806.513	6569.08446
806.701	6589.805
806.888	6629.16766
807.075	6856.89382
807.263	6695.44387
807.45	6780.32592
807.638	6598.09257
807.825	6914.8164
808.012	6573.22875
808.2	6569.08446
808.387	6674.73508
808.574	6689.23147
808.761	6678.87702
808.949	6500.69028
809.136	6403.23675
809.323	6813.44019
809.51	6612.59492
809.698	6718.22088
809.885	6552.50637
810.072	6829.99514
810.259	6569.08446
810.446	6954.1109
810.633	6631.23915
810.82	6889.99462
811.008	6949.97502
811.195	6875.51373
811.382	6419.82821
811.569	6722.36186
811.756	6537.99932
811.943	6958.24669
812.13	6618.80987
812.317	6790.67475
812.504	6585.66108
812.691	6908.61126
812.878	6966.518
813.064	7299.14088
813.251	6935.49874
813.438	7009.93643
813.625	6838.27207
813.812	6871.37613
813.999	6821.71785
814.186	7063.67886
814.372	6867.23844
814.559	6869.3073
814.746	6817.57906
814.933	6962.38239
815.12	6850.68677
815.306	6912.74805
815.493	6858.96279
815.68	6772.04643
815.866	6635.38205
816.053	6945.83905
816.24	6629.16766
816.426	6821.71785
816.613	6724.43231
816.799	6757.55646
816.986	6871.37613
817.173	6871.37613
817.359	6504.8361
817.546	6571.15662
817.732	6326.48183
817.919	6562.86785
818.105	6521.41845
818.292	6718.22088
818.478	6581.51706
818.665	6879.65124
818.851	6672.66408
819.037	6801.02302
819.224	6643.66759
819.41	6647.81022
819.597	6672.66408
819.783	6832.0644
819.969	6583.58908
820.156	6552.50637
820.342	6635.38205
820.528	6415.68049
820.714	6058.62621
820.901	6494.47137
821.087	6361.75157
821.273	6363.82605
821.459	6262.14904
821.646	6685.08976
821.832	6386.6438
822.018	6453.00667
822.204	6245.54338
822.39	6598.09257
822.576	6380.42106
822.762	6266.30022
822.948	6291.20534
823.134	6552.50637
823.32	6183.25879
823.507	6361.75157
823.693	6060.70411
823.879	6324.40693
824.065	6179.10573
824.25	6305.73177
824.436	6189.4882
824.622	6361.75157
824.808	6374.1981
824.994	6423.97585
825.18	6531.78167
825.366	6370.04935
825.552	6187.41175
825.738	6434.34452
825.923	6220.63207
826.109	6662.30871
826.295	6365.90051
826.481	6363.82605
826.667	6405.31077
826.852	6415.68049
827.038	6332.70639
827.224	6428.12339
827.409	6314.03208
827.595	6378.34676
827.781	6324.40693
827.966	6419.82821
828.152	6069.01549
828.338	6179.10573
828.523	6164.56929
828.709	6361.75157
828.894	6204.02266
829.08	6399.08865
829.266	6108.48939
829.451	6305.73177
829.637	6004.59246
829.822	6353.45342
830.008	6023.29825
830.193	6245.54338
830.378	5890.2378
830.564	6162.49256
830.749	5883.99822
830.935	6023.29825
831.12	5859.03779
831.305	5921.43251
831.491	5815.34884
831.676	5946.38445
831.861	5846.55629
832.047	5933.90891
832.232	5765.40588
832.417	5981.72723
832.602	5894.3974
832.788	5946.38445
832.973	5819.51014
833.158	6183.25879
833.343	5948.46363
833.528	6110.56673
833.714	5748.7552
833.899	6002.51392
834.084	5705.03999
834.269	6044.08023
834.454	5646.73686
834.639	5771.64949
834.824	5448.7849
835.009	5705.03999
835.194	5477.97012
835.379	5804.94518
835.564	5615.49542
835.749	5865.27821
835.934	5502.98235
836.119	5813.26816
836.304	5590.49846
836.489	5861.11795
836.674	5496.72961
836.859	5871.51843
837.044	5623.82699
837.228	5630.07542
837.413	5404.99843
837.598	5750.83662
837.783	5250.62079
837.968	5754.99938
838.152	5502.98235
838.337	5627.99263
838.522	5294.4437
838.707	5469.63196
838.891	5160.85605
839.076	5409.16902
839.261	5160.85605
839.445	5244.35953
839.63	5273.57693
839.815	5473.80109
839.999	5146.2391
840.184	5538.41054
840.368	5382.05853
840.553	5600.91427
840.737	5336.1702
840.922	5534.24288
841.106	5373.71604
841.291	5538.41054
841.475	5215.13756
841.66	5498.81388
841.844	5267.31645
842.029	5652.98451
842.213	5250.62079
842.397	5284.01061
842.582	5215.13756
842.766	5154.59178
842.951	4788.81645
843.135	5156.67989
843.319	5025.08353
843.504	5098.20399
843.688	4839.02151
843.872	4933.12055
844.056	4820.19614
844.241	5048.0673
844.425	4836.92989
844.609	5087.75995
844.793	4845.29621
844.977	5098.20399
845.161	4811.82873
845.346	5292.35713
845.53	4839.02151
845.714	5016.72511
845.898	4707.20535
846.082	4786.72428
846.266	4824.37972
846.45	4765.80142
846.634	4849.47924
846.818	4912.21366
847.002	4830.65491
847.186	4943.57313
847.37	4610.90203
847.554	5045.97799
847.738	4711.39137
847.922	4730.22734
848.106	4709.29837
848.29	4836.92989
848.473	4682.08732
848.657	4682.08732
848.841	4703.01923
849.025	4755.33913
849.209	4367.84143
849.392	4675.80731
849.576	4392.99933
849.76	4652.77887
849.944	4386.71015
850.127	4552.25945
850.311	4397.19201
850.495	4663.24668
850.678	4512.45635
850.862	4564.82719
851.046	4445.40154
851.229	4780.44766
851.413	4539.69092
851.596	4615.09012
851.78	4409.76952
851.964	4671.62053
852.147	4262.98332
852.331	4332.19572
852.514	4267.17867
852.698	4328.0017
852.881	4145.47878
853.065	4401.3846
853.248	4300.73844
853.431	4585.77164
853.615	4487.31344
853.798	4516.64653
853.982	4474.74079
854.165	4403.48086
854.348	4313.32194
854.532	4602.52559
854.715	4160.17047
854.898	4659.05963
855.081	4309.12752
855.265	4376.22775
855.448	4170.66391
855.631	4309.12752
855.814	4132.88508
855.997	4214.73058
856.181	4235.71141
856.364	4124.48886
856.547	4145.47878
856.73	4271.37395
856.913	4002.70627
857.096	4300.73844
857.279	4040.50831
857.462	4048.90786
857.645	3723.18872
857.828	3973.30009
858.011	3849.33044
858.194	4097.19883
858.377	3815.69956
858.56	4082.50274
858.743	3681.12593
858.926	4065.70596
859.109	3790.47309
859.292	3893.46325
859.475	3906.07101
859.658	4061.50656
859.841	3750.52539
860.023	3826.20976
860.206	3729.49747
860.389	3712.67374
860.572	3607.4977
860.755	3752.62808
860.937	3451.75152
861.12	3758.93602
861.303	3350.67415
861.486	3775.75634
861.668	3397.00633
861.851	3758.93602
862.034	3544.36949
862.216	3864.04236
862.399	3573.83141
862.581	3817.80164
862.764	3535.95114
862.947	3605.3937
863.129	3636.95177
863.312	3708.46762
863.494	3464.38331
863.677	3754.73075
863.859	3586.45683
864.042	3493.85496
864.224	3477.01446
864.406	3586.45683
864.589	3350.67415
864.771	3664.29867
864.954	3215.84227
865.136	3531.74185
865.318	3354.88652
865.501	3563.30971
865.683	3243.2356
865.865	3453.85687
866.048	3390.68881
866.23	3413.85229
866.412	3291.69377
866.594	3169.47796
866.777	3089.37566
866.959	3139.96928
867.141	3042.99019
867.323	3300.12037
867.505	3019.79463
867.687	3236.91432
867.869	2865.81451
868.052	3102.02493
868.234	3083.05082
868.416	3426.48601
868.598	3232.70004
868.78	3302.22697
868.962	3150.50846
869.144	3209.52034
869.326	2979.72524
869.508	3388.58293
869.69	3129.42971
869.872	3207.41299
870.054	3156.83177
870.236	3268.51924
870.417	2975.50709
870.599	3156.83177
870.781	2954.41545
870.963	3333.82399
871.145	2958.63389
871.327	3241.12852
871.508	3089.37566
871.69	3156.83177
871.872	2956.52468
872.054	3116.78168
872.235	2781.40933
872.417	3163.15494
872.599	2745.53049
872.78	3272.73295
872.962	2924.88466
873.144	3055.64152
873.325	2969.17975
873.507	2954.41545
873.689	2819.39441
873.87	3205.30563
874.052	2870.03418
874.233	3011.35943
874.415	2819.39441
874.596	3064.07543
874.778	2855.26508
874.959	3034.55566
875.141	2952.3062
875.322	3087.2674
875.503	2897.46064
875.685	3190.55363
875.866	2969.17975
876.048	3158.93951
876.229	2853.15516
876.41	3068.29229
876.592	2519.61992
876.773	3000.81508
876.954	2794.07152
877.136	3161.04723
877.317	3049.31592
877.498	3089.37566
877.679	2899.57027
877.86	3051.42447
878.042	3093.59215
878.223	3116.78168
878.404	2889.02199
878.585	3161.04723
878.766	2884.80257
878.947	3205.30563
879.128	2867.92435
879.309	2950.19694
879.49	2990.27035
879.672	3142.07715
879.853	2895.351
880.034	2948.08766
880.215	2851.04522
880.396	3005.03286
880.576	2817.28425
880.757	3139.96928
880.938	2893.24134
881.119	3169.47796
881.3	2821.50456
881.481	3051.42447
881.662	2983.94333
881.843	2971.28888
882.023	2903.78948
882.204	3127.32174
882.385	3074.61747
882.566	3232.70004
882.747	3055.64152
882.927	3342.24921
883.108	3024.01215
883.289	3239.02143
883.469	3198.98344
883.65	3266.41236
883.831	3026.12088
884.011	3169.47796
884.192	3123.10576
884.373	3072.50909
884.553	3139.96928
884.734	3228.4857
884.914	3038.77295
885.095	3093.59215
885.275	2922.7752
885.456	3232.70004
885.636	3051.42447
885.817	3283.26691
885.997	3120.99775
886.178	3279.05338
886.358	2994.48828
886.538	3209.52034
886.719	3125.21376
886.899	3260.09163
887.08	3158.93951
887.26	3295.90711
887.44	3015.57706
887.621	3344.35547
887.801	3114.67362
887.981	3407.53519
888.161	3097.80857
888.342	3188.44614
888.522	3049.31592
888.702	3207.41299
888.882	3002.92398
889.062	3268.51924
889.242	3028.2296
889.423	3007.14173
889.603	2838.38527
889.783	3114.67362
889.963	2895.351
890.143	3097.80857
890.323	2808.84345
890.503	3310.65322
890.683	2878.47335
890.863	2880.5831
891.043	2779.29892
891.223	2924.88466
891.403	2895.351
891.583	2870.03418
891.763	2878.47335
891.943	3007.14173
892.122	3021.9034
892.302	3076.72583
892.482	3028.2296
892.662	2886.91229
892.842	2859.4849
893.022	2954.41545
893.201	2751.86233
893.381	2979.72524
893.561	2629.42596
893.741	3017.68586
893.92	2696.98243
894.1	2891.13167
894.28	2945.97837
894.459	2954.41545
894.639	2608.31194
894.819	2988.16135
894.998	2669.53918
895.178	2939.65041
895.357	2555.52158
895.537	2743.41985
895.716	2642.09378
895.896	2922.7752
896.075	2751.86233
896.255	2688.53858
896.434	2732.86645
896.614	2886.91229
896.793	2616.75769
896.973	2937.54106
897.152	2701.20427
897.331	2851.04522
897.511	2783.51973
897.69	2701.20427
897.87	2656.87234
898.049	2637.87122
898.228	2375.98107
898.407	2789.85085
898.587	2481.60279
898.766	2496.38767
898.945	2424.57037
899.124	2608.31194
899.304	2494.27557
899.483	2686.42759
899.662	2409.78291
899.841	2633.64862
900.02	2350.62798
900.199	2414.00795
900.378	2314.70866
900.557	2574.52697
900.737	2399.22012
900.916	2464.70513
901.095	2164.66374
901.274	2321.04757
901.453	2232.29516
901.632	2382.31912
901.811	2162.55012
901.989	2433.02012
902.168	2312.59567
902.347	2595.64294
902.526	2331.61222
902.705	2599.86599
902.884	2247.08835
903.063	2479.49062
903.242	2122.38982
903.42	2168.89096
903.599	2063.20116
903.778	2221.72833
903.957	1957.49353
904.135	2137.18605
904.314	1908.86281
904.493	2109.70703
904.672	1915.20612
904.85	1940.57885
905.029	1923.66379
905.207	1875.03101
905.386	1602.22294
905.565	1779.8724
905.743	1682.59074
905.922	1900.40499
906.1	1705.85439
906.279	1737.57693
906.457	1640.29233
906.636	1796.79014
906.814	1553.57785
906.993	1716.42865
907.171	1597.99297
907.35	1678.36095
907.528	1441.48057
907.707	1697.39492
907.885	1477.43645
908.063	1638.17738
908.242	1549.3478
908.42	1621.25772
908.598	1437.25046
908.777	1674.13114
908.955	1488.0117
909.133	1585.303
909.311	1433.02036
909.49	1644.52221
909.668	1358.99392
909.846	1483.7816
910.024	1564.15294
910.202	1688.93541
910.38	1511.2772
910.559	1511.2772
910.737	1418.21501
910.915	1570.49797
911.093	1492.24179
911.271	1517.62232
911.449	1367.45403
911.627	1471.0913
911.805	1306.11875
911.983	1619.14275
912.161	1498.58693
912.339	1526.08247
912.517	1354.76387
912.695	1481.66655
912.872	1509.16216
913.05	1597.99297
913.228	1517.62232
913.406	1659.32674
913.584	1475.3214
913.762	1595.87798
913.939	1356.8789
914.117	1636.06243
914.295	1424.56016
914.473	1593.76299
914.65	1468.97625
914.828	1523.96743
915.006	1413.98491
915.184	1562.03792
915.361	1517.62232
915.539	1636.06243
915.716	1327.2687
915.894	1536.65764
916.072	1511.2772
916.249	1483.7816
916.427	1312.46372
916.604	1428.79026
916.782	1348.41881
916.959	1441.48057
917.137	1183.45384
917.314	1553.57785
917.492	1206.7171
917.669	1424.56016
917.847	1314.57871
918.024	1342.07376
918.201	1244.78512
918.379	1401.29464
918.556	1244.78512
918.733	1346.30379
918.911	1358.99392
919.088	1409.75482
919.265	1342.07376
919.442	1424.56016
919.62	1086.17637
919.797	1375.91416
919.974	1043.885
920.151	1234.21057
920.328	1301.88878
920.506	1420.33006
920.683	1130.5845
920.86	1268.04936
921.037	1122.12565
921.214	1172.87977
921.391	1206.7171
921.568	1255.35973
921.745	1187.68349
921.922	1215.17657
922.099	1073.48874
922.276	1198.25768
922.453	1014.28238
922.63	1073.48874
922.807	912.79739
922.984	1109.43751
923.161	870.51702
923.338	980.4523
923.514	1056.57218
923.691	1056.57218
923.868	988.90967
924.045	1043.885
924.222	902.227
924.399	1071.37415
924.575	881.08681
924.752	950.85238
924.929	1090.40563
925.105	1003.71031
925.282	895.88486
925.459	1111.55219
925.635	942.39551
925.812	1026.96908
925.989	853.60579
926.165	925.48212
926.342	895.88486
926.518	845.15038
926.695	756.3775
926.871	883.20079
927.048	815.55758
927.224	874.74491
927.401	870.51702
927.577	705.65806
927.754	705.65806
927.93	900.11294
928.107	705.65806
928.283	802.8755
928.459	756.3775
928.636	773.28531
928.812	621.14005
928.988	707.77125
929.165	663.39671
929.341	794.42096
929.517	714.11087
929.693	743.69707
929.87	602.12617
930.046	707.77125
930.222	568.32629
930.398	642.26777
930.574	570.43868
930.751	629.59099
930.927	532.41767
931.103	652.83209
931.279	602.12617
931.455	568.32629
931.631	538.7542
931.807	597.901
931.983	488.06558
932.159	621.14005
932.335	496.5131
932.511	576.77594
932.687	488.06558
932.863	532.41767
933.039	460.61277
933.215	547.20309
933.391	545.09085
933.566	454.27787
933.742	523.96917
933.918	521.85708
934.094	371.93715
934.27	513.40885
934.445	333.94227
934.621	405.71498
934.797	338.16365
934.973	371.93715
935.148	340.27436
935.324	494.4012
935.5	386.71443
935.675	308.61551
935.851	291.73244
936.027	414.16009
936.202	291.73244
936.378	285.40159
936.553	333.94227
936.729	300.17382
936.904	270.63026
937.08	291.73244
937.255	171.47585
937.431	264.29997
937.606	281.18111
937.782	257.96985
937.957	270.63026
938.133	116.64384
938.308	207.33515
938.483	192.56884
938.659	182.02209
938.834	203.11611
939.009	118.75249
939.185	226.32184
939.36	184.1314
939.535	192.56884
939.71	148.27594
939.886	148.27594
940.061	141.94913
940.236	135.62252
940.411	131.40488
940.586	213.66387
940.761	57.61047
940.937	122.96987
941.112	87.12496
941.287	108.20943
941.462	89.23331
941.637	91.34168
941.812	156.71198
941.987	118.75249
942.162	125.07859
942.337	108.20943
942.512	148.27594
942.687	68.15085
942.862	110.318
943.037	93.45007
943.212	116.64384
943.386	127.18734
943.561	76.58356
943.736	106.10089
943.911	131.40488
944.086	80.80005
944.26	82.90833
944.435	167.25749
944.61	80.80005
944.785	177.80353
944.959	122.96987
945.134	59.7185
945.309	122.96987
945.483	44.96277
945.658	55.50246
945.833	139.84024
946.007	15.45473
946.182	47.07066
946.357	156.71198
946.531	122.96987
946.706	101.88386
946.88	135.62252
947.055	141.94913
947.229	112.42659
947.404	66.04272
947.578	122.96987
947.752	141.94913
947.927	21.7775
948.101	72.36716
948.276	106.10089
948.45	108.20943
948.624	42.8549
948.799	167.25749
948.973	148.27594
949.147	61.82655
949.321	42.8549
949.496	42.8549
949.67	76.58356
949.844	106.10089
950.018	114.5352
950.193	144.05805
950.367	184.1314
950.541	103.99236
950.715	78.6918
950.889	167.25749
951.063	141.94913
951.237	122.96987
951.411	141.94913
951.585	97.66692
951.759	156.71198
951.933	101.88386
952.107	74.47535
952.281	160.93012
952.455	125.07859
952.629	80.80005
952.803	59.7185
952.977	116.64384
953.151	106.10089
953.325	85.01664
953.499	131.40488
953.672	55.50246
953.846	89.23331
954.02	72.36716
954.194	49.17857
954.368	139.84024
954.541	137.73137
954.715	148.27594
954.889	207.33515
955.062	80.80005
955.236	152.49392
955.41	127.18734
955.583	49.17857
955.757	72.36716
955.93	165.14835
956.104	150.38492
956.278	152.49392
956.451	89.23331
956.625	76.58356
956.798	101.88386
956.972	61.82655
957.145	25.99279
957.319	175.69428
957.492	106.10089
957.665	135.62252
957.839	59.7185
958.012	137.73137
958.185	122.96987
958.359	133.51369
958.532	118.75249
958.705	89.23331
958.879	59.7185
959.052	163.03922
959.225	114.5352
959.398	127.18734
959.572	51.28651
959.745	127.18734
959.918	139.84024
960.091	114.5352
960.264	141.94913
960.438	110.318
960.611	127.18734
960.784	95.55848
960.957	129.2961
961.13	129.2961
961.303	137.73137
961.476	122.96987
961.649	116.64384
961.822	80.80005
961.995	76.58356
962.168	114.5352
962.341	160.93012
962.514	112.42659
962.686	160.93012
962.859	101.88386
963.032	114.5352
963.205	116.64384
963.378	89.23331
963.551	89.23331
963.723	78.6918
963.896	131.40488
964.069	103.99236
964.242	116.64384
964.414	110.318
964.587	116.64384
964.76	108.20943
964.932	110.318
965.105	59.7185
965.278	55.50246
965.45	141.94913
965.623	139.84024
965.795	186.24073
965.968	93.45007
966.14	127.18734
966.313	101.88386
966.485	127.18734
966.658	93.45007
966.83	66.04272
967.003	51.28651
967.175	129.2961
967.348	101.88386
967.52	85.01664
967.692	85.01664
967.865	148.27594
968.037	110.318
968.209	116.64384
968.382	133.51369
968.554	103.99236
968.726	97.66692
968.898	91.34168
969.071	72.36716
969.243	110.318
969.415	55.50246
969.587	148.27594
969.759	97.66692
969.932	106.10089
970.104	89.23331
970.276	106.10089
970.448	127.18734
970.62	106.10089
970.792	182.02209
970.964	78.6918
971.136	122.96987
971.308	49.17857
971.48	97.66692
971.652	122.96987
971.824	118.75249
971.996	70.25899
972.168	97.66692
972.339	139.84024
972.511	97.66692
972.683	40.74705
972.855	95.55848
973.027	125.07859
973.199	85.01664
973.37	80.80005
973.542	72.36716
973.714	72.36716
973.886	91.34168
974.057	112.42659
974.229	70.25899
974.401	74.47535
974.572	38.63923
974.744	89.23331
974.915	116.64384
975.087	63.93463
975.259	89.23331
975.43	32.3159
975.602	61.82655
975.773	74.47535
975.945	131.40488
976.116	91.34168
976.288	63.93463
976.459	97.66692
976.63	80.80005
976.802	68.15085
976.973	47.07066
977.145	106.10089
977.316	125.07859
977.487	122.96987
977.659	97.66692
977.83	38.63923
978.001	85.01664
978.172	57.61047
978.344	146.16698
978.515	114.5352
978.686	-18.26301
978.857	30.20817
979.028	103.99236
979.2	17.5623
979.371	40.74705
979.542	53.39447
979.713	74.47535
979.884	47.07066
980.055	72.36716
980.226	80.80005
980.397	76.58356
980.568	21.7775
980.739	70.25899
980.91	55.50246
981.081	68.15085
981.252	13.34719
981.423	55.50246
981.594	38.63923
981.765	47.07066
981.936	97.66692
982.106	131.40488
982.277	53.39447
982.448	76.58356
982.619	51.28651
982.79	82.90833
982.96	68.15085
983.131	70.25899
983.302	110.318
983.472	99.77538
983.643	106.10089
983.814	97.66692
983.984	30.20817
984.155	9.13219
984.326	80.80005
984.496	72.36716
984.667	74.47535
984.837	93.45007
985.008	32.3159
985.178	72.36716
985.349	61.82655
985.519	30.20817
985.69	82.90833
985.86	11.23968
986.031	47.07066
986.201	-7.72688
986.371	89.23331
986.542	76.58356
986.712	-7.72688
986.882	2.80986
987.053	30.20817
987.223	78.6918
987.393	131.40488
987.563	-5.61958
987.734	59.7185
987.904	74.47535
988.074	11.23968
988.244	49.17857
988.414	4.91728
988.585	76.58356
988.755	93.45007
988.925	99.77538
989.095	91.34168
989.265	55.50246
989.435	61.82655
989.605	97.66692
989.775	47.07066
989.945	51.28651
990.115	61.82655
990.285	49.17857
990.455	-11.94141
990.625	13.34719
990.795	99.77538
990.965	133.51369
991.134	80.80005
991.304	55.50246
991.474	53.39447
991.644	57.61047
991.814	72.36716
991.984	42.8549
992.153	89.23331
992.323	51.28651
992.493	40.74705
992.662	9.13219
992.832	30.20817
993.002	106.10089
993.171	74.47535
993.341	57.61047
993.511	53.39447
993.68	47.07066
993.85	72.36716
994.019	80.80005
994.189	63.93463
994.358	40.74705
994.528	131.40488
994.697	103.99236
994.867	13.34719
995.036	55.50246
995.206	34.42366
995.375	36.53143
995.544	89.23331
995.714	49.17857
995.883	47.07066
996.052	34.42366
996.222	131.40488
996.391	38.63923
996.56	-5.61958
996.73	89.23331
996.899	51.28651
997.068	72.36716
997.237	72.36716
997.406	30.20817
997.576	68.15085
997.745	38.63923
997.914	74.47535
998.083	40.74705
998.252	9.13219
998.421	49.17857
998.59	9.13219
998.759	-1.40491
998.928	15.45473
999.097	93.45007
999.266	89.23331
999.435	42.8549
999.604	63.93463
999.773	15.45473
999.942	38.63923
1000.111	25.99279
1000.28	15.45473
1000.448	15.45473
1000.617	15.45473
1000.786	21.7775
1000.955	-9.83416
1001.124	42.8549
1001.292	120.86117
1001.461	85.01664
1001.63	42.8549
1001.798	72.36716
1001.967	68.15085
1002.136	17.5623
1002.304	131.40488
1002.473	108.20943
1002.642	66.04272
1002.81	61.82655
1002.979	89.23331
1003.147	55.50246
1003.316	30.20817
1003.484	74.47535
1003.653	89.23331
1003.821	80.80005
1003.99	80.80005
1004.158	21.7775
1004.327	40.74705
1004.495	-22.47729
1004.663	85.01664
1004.832	74.47535
1005	15.45473
1005.168	25.99279
1005.337	13.34719
1005.505	4.91728
1005.673	93.45007
1005.842	55.50246
1006.01	13.34719
1006.178	42.8549
1006.346	63.93463
1006.514	38.63923
1006.683	78.6918
1006.851	17.5623
1007.019	131.40488
1007.187	97.66692
1007.355	97.66692
1007.523	13.34719
1007.691	21.7775
1007.859	17.5623
1008.027	47.07066
1008.195	74.47535
1008.363	93.45007
1008.531	17.5623
1008.699	30.20817
1008.867	11.23968
1009.035	72.36716
1009.203	38.63923
1009.37	122.96987
1009.538	-3.51226
1009.706	70.25899
1009.874	-3.51226
1010.042	38.63923
1010.209	-5.61958
1010.377	51.28651
1010.545	21.7775
1010.713	4.91728
1010.88	85.01664
1011.048	51.28651
1011.216	-20.37016
1011.383	15.45473
1011.551	38.63923
1011.718	74.47535
1011.886	-26.69148
1012.054	40.74705
1012.221	17.5623
1012.389	89.23331
1012.556	-3.51226
1012.724	32.3159
1012.891	97.66692
1013.058	68.15085
1013.226	91.34168
1013.393	-3.51226
1013.561	82.90833
1013.728	72.36716
1013.895	32.3159
1014.063	21.7775
1014.23	11.23968
1014.397	93.45007
1014.565	51.28651
1014.732	91.34168
1014.899	34.42366
1015.066	21.7775
1015.233	13.34719
1015.401	36.53143
1015.568	-7.72688
1015.735	30.20817
1015.902	106.10089
1016.069	-33.01256
1016.236	34.42366
1016.403	23.88513
1016.57	53.39447
1016.737	72.36716
1016.904	-26.69148
1017.071	25.99279
1017.238	-9.83416
1017.405	-28.79853
1017.572	106.10089
1017.739	13.34719
1017.906	-1.40491
1018.073	28.10047
1018.24	-9.83416
1018.407	30.20817
1018.573	57.61047
1018.74	57.61047
1018.907	-43.54722
1019.074	42.8549
1019.241	55.50246
1019.407	53.39447
1019.574	53.39447
1019.741	108.20943
1019.907	-22.47729
1020.074	-20.37016
1020.241	63.93463
1020.407	-18.26301
1020.574	-9.83416
1020.74	80.80005
1020.907	30.20817
1021.073	32.3159
1021.24	30.20817
1021.406	38.63923
1021.573	17.5623
1021.739	55.50246
1021.906	74.47535
1022.072	106.10089
1022.239	51.28651
1022.405	63.93463
1022.571	15.45473
1022.738	44.96277
1022.904	-1.40491
1023.07	15.45473
1023.237	91.34168
1023.403	-7.72688
1023.569	-16.15583
1023.735	70.25899
1023.902	15.45473
1024.068	80.80005
1024.234	-20.37016
1024.4	49.17857
1024.566	-28.79853
1024.732	15.45473
1024.898	137.73137
1025.065	-37.2265
1025.231	21.7775
1025.397	11.23968
1025.563	17.5623
1025.729	49.17857
1025.895	32.3159
1026.061	11.23968
1026.227	32.3159
1026.392	38.63923
1026.558	38.63923
1026.724	55.50246
1026.89	-3.51226
1027.056	82.90833
1027.222	-11.94141
1027.388	32.3159
1027.553	-3.51226
1027.719	11.23968
1027.885	-20.37016
1028.051	17.5623
1028.216	40.74705
1028.382	40.74705
1028.548	66.04272
1028.713	38.63923
1028.879	80.80005
1029.045	55.50246
1029.21	4.91728
1029.376	63.93463
1029.541	-1.40491
1029.707	51.28651
1029.873	-33.01256
1030.038	91.34168
1030.204	66.04272
1030.369	87.12496
1030.534	-1.40491
1030.7	25.99279
1030.865	34.42366
1031.031	-3.51226
1031.196	-20.37016
1031.361	80.80005
1031.527	68.15085
1031.692	36.53143
1031.857	28.10047
1032.023	-35.11954
1032.188	21.7775
1032.353	55.50246
1032.518	11.23968
1032.684	15.45473
1032.849	23.88513
1033.014	34.42366
1033.179	47.07066
1033.344	30.20817
1033.509	89.23331
1033.674	-28.79853
1033.839	38.63923
1034.004	61.82655
1034.17	70.25899
1034.335	49.17857
1034.5	82.90833
1034.664	66.04272
1034.829	-18.26301
1034.994	7.02472
1035.159	21.7775
1035.324	49.17857
1035.489	42.8549
1035.654	42.8549
1035.819	93.45007
1035.984	57.61047
1036.148	28.10047
1036.313	97.66692
1036.478	34.42366
1036.643	11.23968
1036.807	82.90833
1036.972	55.50246
1037.137	38.63923
1037.301	34.42366
1037.466	25.99279
1037.631	87.12496
1037.795	0.70246
1037.96	68.15085
1038.124	61.82655
1038.289	-9.83416
1038.454	38.63923
1038.618	55.50246
1038.783	34.42366
1038.947	57.61047
1039.111	97.66692
1039.276	74.47535
1039.44	17.5623
1039.605	13.34719
1039.769	55.50246
1039.933	34.42366
1040.098	89.23331
1040.262	91.34168
1040.426	-5.61958
1040.591	122.96987
1040.755	38.63923
1040.919	25.99279
1041.083	93.45007
1041.248	47.07066
1041.412	91.34168
1041.576	-9.83416
1041.74	-11.94141
1041.904	-7.72688
1042.068	-5.61958
1042.232	47.07066
1042.397	57.61047
1042.561	9.13219
1042.725	13.34719
1042.889	7.02472
1043.053	-16.15583
1043.217	72.36716
1043.381	23.88513
1043.544	-1.40491
1043.708	13.34719
1043.872	-51.97449
1044.036	-28.79853
1044.2	-1.40491
1044.364	42.8549
1044.528	4.91728
1044.691	-45.65407
1044.855	4.91728
1045.019	21.7775
1045.183	110.318
1045.346	85.01664
1045.51	21.7775
1045.674	-62.50801
1045.837	-1.40491
1046.001	61.82655
1046.165	34.42366
1046.328	21.7775
1046.492	97.66692
1046.655	51.28651
1046.819	-9.83416
1046.983	25.99279
1047.146	70.25899
1047.31	99.77538
1047.473	11.23968
1047.636	38.63923
1047.8	51.28651
1047.963	4.91728
1048.127	47.07066
1048.29	55.50246
