Data from mixed_try1_USB4F045381__16__00241.txt Node

Date: Thu Apr 03 20:24:32 EDT 2025
User: mmckonesweet
Spectrometer: USB4F04538
Trigger mode: 4
Integration Time (sec): 2.700000E-3
Scans to average: 1
Electric dark correction enabled: true
Nonlinearity correction enabled: true
Boxcar width: 0
XAxis mode: Wavelengths
Number of Pixels in Spectrum: 3648
>>>>>Begin Spectral Data<<<<<
345.52	-8.2537
345.736	-8.2537
345.952	-8.2537
346.168	80.27299
346.384	-33.53931
346.6	44.4358
346.816	4.39042
347.032	-98.84375
347.248	-12.46822
347.464	2.283
347.68	-20.89695
347.896	25.46587
348.112	29.68125
348.328	8.60532
348.544	14.92785
348.76	-14.57544
348.975	17.0354
349.191	-48.28761
349.407	-54.60793
349.623	14.92785
349.839	-52.50118
350.055	-69.35446
350.27	48.65159
350.486	21.25059
350.702	44.4358
350.918	-23.00407
351.133	-77.78048
351.349	-4.03909
351.565	38.11228
351.781	-39.86016
351.996	-23.00407
352.212	71.84011
352.428	-10.36097
352.644	10.7128
352.859	-54.60793
353.075	-56.71465
353.291	44.4358
353.506	-37.75323
353.722	25.46587
353.938	-6.14641
354.153	-48.28761
354.369	-14.57544
354.584	36.00449
354.8	33.89672
355.016	-39.86016
355.231	-48.28761
355.447	2.283
355.662	-60.92802
355.878	31.78897
356.093	-46.18078
356.309	-20.89695
356.524	-98.84375
356.74	40.22009
356.955	40.22009
357.171	-39.86016
357.386	4.39042
357.602	27.57355
357.817	-31.43231
358.033	-46.18078
358.248	-37.75323
358.464	38.11228
358.679	-94.6313
358.895	-12.46822
359.11	2.283
359.325	-23.00407
359.541	12.82031
359.756	21.25059
359.972	-73.56752
360.187	-6.14641
360.402	19.14299
360.618	27.57355
360.833	-10.36097
361.048	-20.89695
361.264	-14.57544
361.479	31.78897
361.694	-37.75323
361.909	2.283
362.125	6.49786
362.34	10.7128
362.555	-33.53931
362.77	31.78897
362.986	-81.99334
363.201	2.283
363.416	10.7128
363.631	40.22009
363.847	19.14299
364.062	-37.75323
364.277	14.92785
364.492	-4.03909
364.707	4.39042
364.922	19.14299
365.138	19.14299
365.353	73.9483
365.568	2.283
365.783	27.57355
365.998	-23.00407
366.213	-23.00407
366.428	-58.82135
366.643	23.35822
366.858	-31.43231
367.073	42.32793
367.288	-27.21824
367.503	-65.14129
367.718	42.32793
367.933	-1.93175
368.148	52.86748
368.363	-8.2537
368.578	-4.03909
368.793	-65.14129
369.008	-56.71465
369.223	65.5157
369.438	-12.46822
369.653	10.7128
369.868	17.0354
370.083	-46.18078
370.298	-69.35446
370.513	17.0354
370.728	-8.2537
370.943	12.82031
371.157	-73.56752
371.372	2.283
371.587	-65.14129
371.802	-31.43231
372.017	6.49786
372.232	25.46587
372.446	38.11228
372.661	2.283
372.876	103.46523
373.091	-29.32529
373.306	-6.14641
373.52	69.73195
373.735	12.82031
373.95	4.39042
374.165	69.73195
374.379	-10.36097
374.594	21.25059
374.809	-27.21824
375.023	-31.43231
375.238	-14.57544
375.453	6.49786
375.667	10.7128
375.882	-41.96706
376.097	-14.57544
376.311	-14.57544
376.526	-18.7898
376.741	-56.71465
376.955	-44.07393
377.17	-8.2537
377.384	54.97546
377.599	-10.36097
377.813	-27.21824
378.028	6.49786
378.242	19.14299
378.457	-103.05609
378.672	-60.92802
378.886	84.48956
379.101	-39.86016
379.315	-1.93175
379.53	-4.03909
379.744	10.7128
379.958	8.60532
380.173	63.4076
380.387	2.283
380.602	42.32793
380.816	-94.6313
381.031	-63.03467
381.245	-10.36097
381.459	2.283
381.674	-23.00407
381.888	17.0354
382.103	-46.18078
382.317	-41.96706
382.531	10.7128
382.746	69.73195
382.96	-18.7898
383.174	4.39042
383.388	-23.00407
383.603	-6.14641
383.817	52.86748
384.031	-60.92802
384.246	4.39042
384.46	4.39042
384.674	-18.7898
384.888	29.68125
385.103	-31.43231
385.317	-44.07393
385.531	-10.36097
385.745	-4.03909
385.959	-31.43231
386.174	6.49786
386.388	36.00449
386.602	-6.14641
386.816	-50.3944
387.03	27.57355
387.244	-60.92802
387.458	-18.7898
387.672	88.70622
387.887	19.14299
388.101	-37.75323
388.315	-39.86016
388.529	33.89672
388.743	52.86748
388.957	-65.14129
389.171	40.22009
389.385	-31.43231
389.599	36.00449
389.813	-39.86016
390.027	-23.00407
390.241	2.283
390.455	-44.07393
390.669	44.4358
390.883	-16.68263
391.097	29.68125
391.311	-12.46822
391.525	-73.56752
391.738	8.60532
391.952	8.60532
392.166	-10.36097
392.38	-25.11117
392.594	-35.64629
392.808	25.46587
393.022	-23.00407
393.236	-27.21824
393.449	-20.89695
393.663	54.97546
393.877	-14.57544
394.091	-14.57544
394.305	44.4358
394.518	-20.89695
394.732	-79.88693
394.946	50.75953
395.16	-48.28761
395.373	-31.43231
395.587	17.0354
395.801	27.57355
396.015	-35.64629
396.228	10.7128
396.442	-35.64629
396.656	4.39042
396.869	23.35822
397.083	38.11228
397.297	-23.00407
397.51	-23.00407
397.724	-56.71465
397.938	21.25059
398.151	27.57355
398.365	-48.28761
398.578	-60.92802
398.792	40.22009
399.005	65.5157
399.219	6.49786
399.433	-50.3944
399.646	25.46587
399.86	29.68125
400.073	-23.00407
400.287	12.82031
400.5	-52.50118
400.714	-1.93175
400.927	44.4358
401.141	-20.89695
401.354	-39.86016
401.567	-73.56752
401.781	44.4358
401.994	-27.21824
402.208	57.08346
402.421	-41.96706
402.635	8.60532
402.848	6.49786
403.061	-14.57544
403.275	-63.03467
403.488	84.48956
403.701	-37.75323
403.915	-35.64629
404.128	-23.00407
404.341	6.49786
404.555	-6.14641
404.768	-60.92802
404.981	36.00449
405.195	-31.43231
405.408	19.14299
405.621	52.86748
405.834	-20.89695
406.048	-35.64629
406.261	31.78897
406.474	107.68229
406.687	-10.36097
406.9	52.86748
407.114	-14.57544
407.327	-54.60793
407.54	-1.93175
407.753	50.75953
407.966	-31.43231
408.179	-81.99334
408.392	-20.89695
408.605	31.78897
408.819	-14.57544
409.032	-37.75323
409.245	-35.64629
409.458	-23.00407
409.671	-12.46822
409.884	-37.75323
410.097	-46.18078
410.31	-23.00407
410.523	23.35822
410.736	2.283
410.949	-10.36097
411.162	4.39042
411.375	-27.21824
411.588	-20.89695
411.801	-25.11117
412.014	-1.93175
412.227	57.08346
412.44	-1.93175
412.653	-4.03909
412.865	2.283
413.078	-4.03909
413.291	52.86748
413.504	31.78897
413.717	4.39042
413.93	-46.18078
414.143	-54.60793
414.356	10.7128
414.568	-18.7898
414.781	6.49786
414.994	-37.75323
415.207	-4.03909
415.42	-16.68263
415.632	44.4358
415.845	23.35822
416.058	40.22009
416.271	-35.64629
416.483	-29.32529
416.696	-6.14641
416.909	-12.46822
417.121	23.35822
417.334	111.89944
417.547	-46.18078
417.759	21.25059
417.972	40.22009
418.185	-44.07393
418.397	23.35822
418.61	-14.57544
418.823	12.82031
419.035	-12.46822
419.248	-23.00407
419.46	-31.43231
419.673	-90.41875
419.885	36.00449
420.098	-73.56752
420.311	-48.28761
420.523	-44.07393
420.736	54.97546
420.948	46.54368
421.161	-4.03909
421.373	10.7128
421.586	-10.36097
421.798	14.92785
422.01	-29.32529
422.223	0.17561
422.435	-23.00407
422.648	-6.14641
422.86	-4.03909
423.073	17.0354
423.285	2.283
423.497	-50.3944
423.71	-31.43231
423.922	27.57355
424.134	50.75953
424.347	-20.89695
424.559	-39.86016
424.771	52.86748
424.984	63.4076
425.196	2.283
425.408	-6.14641
425.621	-44.07393
425.833	-20.89695
426.045	14.92785
426.257	-77.78048
426.47	40.22009
426.682	-77.78048
426.894	61.29953
427.106	-39.86016
427.318	-27.21824
427.531	-1.93175
427.743	10.7128
427.955	-31.43231
428.167	-20.89695
428.379	48.65159
428.591	40.22009
428.804	-20.89695
429.016	78.16474
429.228	-20.89695
429.44	48.65159
429.652	2.283
429.864	-12.46822
430.076	73.9483
430.288	-48.28761
430.5	76.05651
430.712	31.78897
430.924	-73.56752
431.136	38.11228
431.348	-23.00407
431.56	-18.7898
431.772	6.49786
431.984	42.32793
432.196	33.89672
432.408	-35.64629
432.62	-23.00407
432.832	-39.86016
433.044	69.73195
433.256	-14.57544
433.468	-6.14641
433.679	-48.28761
433.891	31.78897
434.103	12.82031
434.315	4.39042
434.527	-23.00407
434.739	-10.36097
434.95	-48.28761
435.162	111.89944
435.374	29.68125
435.586	19.14299
435.798	61.29953
436.009	-69.35446
436.221	-37.75323
436.433	14.92785
436.645	2.283
436.856	-4.03909
437.068	-23.00407
437.28	2.283
437.491	48.65159
437.703	-39.86016
437.915	76.05651
438.126	-37.75323
438.338	36.00449
438.55	31.78897
438.761	-8.2537
438.973	-48.28761
439.184	-23.00407
439.396	19.14299
439.608	-23.00407
439.819	-41.96706
440.031	57.08346
440.242	-52.50118
440.454	-10.36097
440.665	21.25059
440.877	23.35822
441.088	8.60532
441.3	0.17561
441.511	2.283
441.723	10.7128
441.934	-6.14641
442.146	-23.00407
442.357	54.97546
442.569	-39.86016
442.78	-29.32529
442.991	59.19149
443.203	21.25059
443.414	-39.86016
443.626	23.35822
443.837	65.5157
444.048	107.68229
444.26	-56.71465
444.471	-14.57544
444.682	36.00449
444.894	-20.89695
445.105	31.78897
445.316	38.11228
445.528	-14.57544
445.739	-1.93175
445.95	29.68125
446.161	52.86748
446.373	73.9483
446.584	44.4358
446.795	29.68125
447.006	-6.14641
447.217	40.22009
447.429	10.7128
447.64	10.7128
447.851	-18.7898
448.062	46.54368
448.273	-23.00407
448.484	-31.43231
448.695	-16.68263
448.907	27.57355
449.118	71.84011
449.329	97.13981
449.54	-39.86016
449.751	38.11228
449.962	6.49786
450.173	-14.57544
450.384	23.35822
450.595	69.73195
450.806	21.25059
451.017	19.14299
451.228	86.59788
451.439	6.49786
451.65	-10.36097
451.861	97.13981
452.072	27.57355
452.283	36.00449
452.494	-48.28761
452.705	65.5157
452.915	-75.67402
453.126	10.7128
453.337	92.92297
453.548	-65.14129
453.759	36.00449
453.97	40.22009
454.181	31.78897
454.391	2.283
454.602	33.89672
454.813	69.73195
455.024	17.0354
455.235	-27.21824
455.445	44.4358
455.656	-48.28761
455.867	-14.57544
456.078	-52.50118
456.288	-18.7898
456.499	19.14299
456.71	10.7128
456.921	8.60532
457.131	-86.2061
457.342	23.35822
457.553	2.283
457.763	27.57355
457.974	-35.64629
458.184	31.78897
458.395	-12.46822
458.606	36.00449
458.816	52.86748
459.027	-18.7898
459.237	48.65159
459.448	57.08346
459.659	-33.53931
459.869	-48.28761
460.08	54.97546
460.29	10.7128
460.501	-1.93175
460.711	38.11228
460.922	-20.89695
461.132	29.68125
461.343	57.08346
461.553	19.14299
461.764	-56.71465
461.974	19.14299
462.184	-69.35446
462.395	69.73195
462.605	-73.56752
462.816	88.70622
463.026	31.78897
463.236	4.39042
463.447	6.49786
463.657	23.35822
463.867	23.35822
464.078	76.05651
464.288	19.14299
464.498	-14.57544
464.709	10.7128
464.919	-56.71465
465.129	-37.75323
465.339	14.92785
465.55	52.86748
465.76	-25.11117
465.97	19.14299
466.18	4.39042
466.391	-23.00407
466.601	42.32793
466.811	23.35822
467.021	4.39042
467.231	-6.14641
467.441	23.35822
467.651	-29.32529
467.862	-39.86016
468.072	6.49786
468.282	46.54368
468.492	-18.7898
468.702	2.283
468.912	-69.35446
469.122	10.7128
469.332	36.00449
469.542	-25.11117
469.752	36.00449
469.962	44.4358
470.172	-44.07393
470.382	10.7128
470.592	10.7128
470.802	12.82031
471.012	-18.7898
471.222	-14.57544
471.432	-18.7898
471.642	44.4358
471.852	-12.46822
472.062	46.54368
472.272	-33.53931
472.482	-6.14641
472.691	61.29953
472.901	-56.71465
473.111	12.82031
473.321	10.7128
473.531	48.65159
473.741	31.78897
473.95	-29.32529
474.16	57.08346
474.37	40.22009
474.58	65.5157
474.79	19.14299
474.999	69.73195
475.209	44.4358
475.419	-41.96706
475.628	-39.86016
475.838	67.62381
476.048	36.00449
476.258	19.14299
476.467	25.46587
476.677	27.57355
476.886	-29.32529
477.096	52.86748
477.306	95.03138
477.515	17.0354
477.725	36.00449
477.935	122.44269
478.144	-10.36097
478.354	-23.00407
478.563	-1.93175
478.773	38.11228
478.982	29.68125
479.192	21.25059
479.401	44.4358
479.611	40.22009
479.82	132.98649
480.03	73.9483
480.239	27.57355
480.449	27.57355
480.658	88.70622
480.868	23.35822
481.077	46.54368
481.287	14.92785
481.496	86.59788
481.705	154.07568
481.915	14.92785
482.124	63.4076
482.333	38.11228
482.543	73.9483
482.752	107.68229
482.961	61.29953
483.171	12.82031
483.38	31.78897
483.589	57.08346
483.799	78.16474
484.008	95.03138
484.217	52.86748
484.426	88.70622
484.636	76.05651
484.845	78.16474
485.054	69.73195
485.263	36.00449
485.472	65.5157
485.682	84.48956
485.891	116.11668
486.1	88.70622
486.309	99.24826
486.518	95.03138
486.727	141.42191
486.936	137.20416
487.146	141.42191
487.355	52.86748
487.564	101.35674
487.773	80.27299
487.982	139.31302
488.191	46.54368
488.4	42.32793
488.609	40.22009
488.818	116.11668
489.027	105.57375
489.236	137.20416
489.445	116.11668
489.654	120.334
489.863	65.5157
490.072	52.86748
490.281	149.85767
490.49	124.55141
490.698	221.57502
490.907	122.44269
491.116	105.57375
491.325	223.68471
491.534	189.93211
491.743	147.7487
491.952	120.334
492.16	141.42191
492.369	137.20416
492.578	160.40285
492.787	139.31302
492.996	215.24608
493.204	204.69824
493.413	168.83937
493.622	196.26033
493.831	223.68471
494.039	211.02688
494.248	221.57502
494.457	168.83937
494.665	189.93211
494.874	170.94855
495.083	208.91732
495.291	196.26033
495.5	274.323
495.709	286.98428
495.917	276.43317
496.126	200.47924
496.335	246.89255
496.543	316.52984
496.752	257.44235
496.96	265.88252
497.169	244.78265
497.377	297.53586
497.586	246.89255
497.794	263.77245
498.003	230.01389
498.211	289.09456
498.42	310.19835
498.628	293.31517
498.837	308.08789
499.045	316.52984
499.254	371.40941
499.462	352.41131
499.671	305.97745
499.879	388.29776
500.087	341.85741
500.296	341.85741
500.504	373.52039
500.713	310.19835
500.921	367.18749
501.129	282.76378
501.338	314.41933
501.546	390.40887
501.754	373.52039
501.962	394.63116
502.171	386.18665
502.379	390.40887
502.587	289.09456
502.795	407.29842
503.004	409.40968
503.212	339.74668
503.42	407.29842
503.628	468.53159
503.837	297.53586
504.045	324.97208
504.253	415.74358
504.461	438.9691
504.669	506.54484
504.877	483.31395
505.085	466.41988
505.294	500.20897
505.502	487.53762
505.71	510.76883
505.918	438.9691
506.126	569.91058
506.334	502.32091
506.542	542.45056
506.75	495.98513
506.958	553.01184
507.166	527.66536
507.374	546.67503
507.582	517.10492
507.79	578.36028
507.998	641.73957
508.206	605.82323
508.414	417.85491
508.622	690.3378
508.83	523.44114
509.037	639.62674
509.245	572.02299
509.453	563.57345
509.661	593.14775
509.869	654.41676
510.077	624.83732
510.285	614.27381
510.492	569.91058
510.7	629.0628
510.908	610.0485
511.116	635.40113
511.324	542.45056
511.531	679.77244
511.739	675.54638
511.947	709.35615
512.155	757.96258
512.362	724.14881
512.57	629.0628
512.778	624.83732
512.985	645.96525
513.193	667.09439
513.401	686.11162
513.608	846.73576
513.816	698.79028
514.024	806.5744
514.231	707.24295
514.439	779.09752
514.646	745.2821
514.854	857.30507
515.061	757.96258
515.269	880.55831
515.477	783.32462
515.684	806.5744
515.892	848.84961
516.099	867.8746
516.307	779.09752
516.514	958.78079
516.722	872.10247
516.929	806.5744
517.136	823.48405
517.344	897.47039
517.551	855.19119
517.759	914.38297
517.966	905.92662
518.173	939.75276
518.381	905.92662
518.588	994.72417
518.796	891.1283
519.003	1007.41052
519.21	859.41896
519.418	948.20959
519.625	910.15478
519.832	1197.72897
520.039	918.61119
520.247	1037.01286
520.454	939.75276
520.661	1166.00668
520.868	986.26673
521.076	1235.79675
521.283	1159.66232
521.49	1161.7771
521.697	1108.90884
521.904	1142.74422
522.112	1136.4
522.319	1191.38445
522.526	1161.7771
522.733	1223.10737
522.94	1189.26961
523.147	1212.53298
523.354	1087.76234
523.561	1379.61547
523.768	1320.39495
523.975	1309.81998
524.183	1146.97372
524.39	1278.09538
524.597	1176.58068
524.804	1373.27037
525.011	1328.85495
525.218	1343.66002
525.425	1269.63557
525.632	1235.79675
525.838	1309.81998
526.045	1322.50994
526.252	1282.3253
526.459	1521.32364
526.666	1362.69522
526.873	1508.63339
527.08	1339.42999
527.287	1620.72898
527.494	1390.19066
527.701	1595.34923
527.907	1358.46517
528.114	1703.21081
528.321	1553.04909
528.528	1601.69419
528.735	1483.25284
528.941	1633.41874
529.148	1436.7217
529.355	1629.18883
529.562	1610.15412
529.768	1648.22336
529.975	1489.59798
530.182	1696.86621
530.388	1434.60665
530.595	1684.17691
530.802	1603.80918
531.008	1713.7851
531.215	1656.68309
531.422	1777.22897
531.628	1694.75133
531.835	1726.47413
532.042	1692.63645
532.248	1912.56308
532.455	1643.99348
532.661	1908.3342
532.868	1760.31093
533.074	1720.12963
533.281	1730.70378
533.487	1834.32541
533.694	1777.22897
533.9	2047.87459
534.107	1605.92416
534.313	2028.848
534.52	1806.83493
534.726	1992.9074
534.933	1995.02161
535.139	2155.6808
535.345	2058.44468
535.552	2043.64651
535.758	1965.42216
535.965	2159.90808
536.171	2107.06474
536.377	2123.97514
536.584	2014.04916
536.79	2134.54389
536.996	2189.49816
537.203	2043.64651
537.409	2107.06474
537.615	2227.54011
537.821	2117.6338
538.028	2075.35644
538.234	1946.39331
538.44	2187.38464
538.646	2056.33067
538.853	2354.3254
539.059	2322.63228
539.265	2462.0648
539.471	2233.88016
539.677	2312.06742
539.883	2276.14511
540.09	2212.74635
540.296	2318.40636
540.502	2390.24154
540.708	2252.89984
540.914	2402.91712
541.12	2428.26715
541.326	2546.54648
541.532	2457.84025
541.738	2386.01627
541.944	2402.91712
542.15	2510.64399
542.356	2455.72795
542.562	2711.23095
542.768	2411.3673
542.974	2550.77008
543.18	2506.41995
543.386	2711.23095
543.592	2571.88739
543.798	2614.11842
544.004	2447.27867
544.21	2538.09914
544.415	2529.65161
544.621	2593.00351
544.827	2614.11842
545.033	2755.55585
545.239	2647.89971
545.445	2926.46674
545.651	2531.76351
545.856	2848.40777
546.062	2770.32952
546.268	2846.2978
546.474	2782.99213
546.679	2768.21903
546.885	2671.1225
547.091	2848.40777
547.297	2584.55721
547.502	2865.28705
547.708	2742.89219
547.914	3019.26744
548.119	2892.71392
548.325	3038.24579
548.531	2816.7567
548.736	2987.6341
548.942	2861.06731
549.147	3012.94105
549.353	2968.65247
549.559	3029.81112
549.764	3194.24171
549.97	3067.76519
550.175	3076.19874
550.381	3208.9935
550.586	3069.8736
550.792	3223.74448
550.997	3021.37621
551.203	3217.42273
551.408	3122.57876
551.614	3297.48709
551.819	2983.41607
552.025	3149.98151
552.23	3137.33443
552.435	3223.74448
552.641	3326.9783
552.846	3223.74448
553.052	3124.68676
553.257	3442.80361
553.462	3345.93516
553.668	3558.5748
553.873	3198.45659
554.078	3440.69818
554.283	3038.24579
554.489	3560.67921
554.694	3316.44611
554.899	3575.40962
555.105	3221.63725
555.31	3728.97175
555.515	3251.137
555.72	3606.9717
555.925	3388.05646
556.131	3623.80309
556.336	3390.16234
556.541	3545.9479
556.746	3428.06518
556.951	3468.06746
557.156	3436.48725
557.361	3787.84516
557.567	3428.06518
557.772	3665.87628
557.977	3465.96224
558.182	3777.33318
558.387	3539.6342
558.592	3693.21977
558.797	3594.34737
559.002	3823.58225
559.207	3726.86885
559.412	3819.37819
559.617	3619.59536
559.822	3813.07194
560.027	3606.9717
560.232	3878.22792
560.437	3558.5748
560.642	3848.805
560.847	3678.49675
561.051	3840.39774
561.256	3840.39774
561.461	3991.67942
561.666	3869.82177
561.871	4012.68246
562.076	3749.99972
562.281	4012.68246
562.485	3720.56002
562.69	3991.67942
562.895	3827.78624
563.1	4134.45933
563.305	3953.86882
563.509	4247.77443
563.714	4069.38037
563.919	4270.84954
564.123	3926.55706
564.328	4136.55832
564.533	4109.26985
564.737	4149.1518
564.942	4012.68246
565.147	4176.43508
565.351	4165.94193
565.556	4184.82921
565.761	4157.54703
565.965	4306.50597
566.17	4151.25064
566.374	4132.36032
566.579	4042.08325
566.784	4063.08135
566.988	4172.23788
567.193	4490.98031
567.397	4218.40238
567.602	4428.11032
567.806	4216.30421
568.011	4340.05929
568.215	4218.40238
568.42	4444.87758
568.624	4260.36118
568.828	4428.11032
569.033	4272.94715
569.237	4482.59879
569.442	4417.63007
569.646	4392.47524
569.85	4323.28332
570.055	4620.84859
570.259	4291.82466
570.463	4633.41195
570.668	4331.67148
570.872	4574.77608
571.076	4545.45159
571.281	4775.74006
571.485	4426.01431
571.689	4444.87758
571.893	4516.12276
572.098	4654.34908
572.302	4436.49413
572.506	4763.1859
572.71	4455.35641
572.914	4853.13931
573.119	4851.04785
573.323	4673.19058
573.527	4509.83745
573.731	4683.6573
573.935	4817.58137
574.139	4754.81601
574.343	4377.80014
574.547	4832.22367
574.751	4771.55543
574.955	4733.88968
575.159	4784.10905
575.364	4828.04027
575.568	4549.64107
575.772	4905.41842
575.976	4811.30575
576.18	4863.59628
576.383	4744.35313
576.587	5085.14884
576.791	4859.41356
576.995	4972.31477
577.199	4767.37071
577.403	4871.96144
577.607	4986.94521
577.811	5101.85926
578.015	4959.7735
578.219	5057.99125
578.422	4719.23991
578.626	4978.5851
578.83	5118.5682
579.034	5110.21392
579.238	4750.63092
579.442	5231.31457
579.645	5055.90204
579.849	5343.99288
580.053	4938.86954
580.257	5151.98161
580.46	4934.68847
580.664	5346.07887
580.868	5268.88159
581.071	5318.95915
581.275	5302.26813
581.479	5446.17885
581.682	5185.38906
581.886	5366.93749
582.09	5285.57561
582.293	5446.17885
582.497	5070.52601
582.7	5427.41423
582.904	5170.77404
583.107	5427.41423
583.311	5156.15787
583.515	5485.78681
583.718	5131.09893
583.922	5629.55473
584.125	5318.95915
584.329	5554.55937
584.532	5279.31553
584.735	5606.64272
584.939	5462.85692
585.142	5689.94542
585.346	5414.90342
585.549	5564.97722
585.753	5662.87618
585.956	5519.13428
586.159	5614.97469
586.363	5856.43754
586.566	5644.13361
586.769	5783.61583
586.973	5552.47573
587.176	5760.72303
587.379	5610.80875
587.582	5858.51774
587.786	5644.13361
587.989	5787.77785
588.192	5631.63749
588.395	5873.07845
588.599	5687.86331
588.802	5945.86466
589.005	5635.80296
589.208	5918.83315
589.411	5539.9734
589.615	5766.9668
589.818	5935.4684
590.021	5631.63749
590.224	5993.67986
590.427	5877.23844
590.63	5883.47825
590.833	6126.66531
591.036	5893.87746
591.239	5914.67411
591.442	5952.10213
591.645	5968.73436
591.848	5839.79513
592.051	6388.19945
592.254	6014.4652
592.457	6091.35045
592.66	5941.70622
592.863	6155.74304
593.066	6070.57383
593.269	6176.51002
593.472	6195.1983
593.675	6242.94861
593.878	6234.6451
594.081	6394.42193
594.284	6458.70862
594.486	6386.12524
594.689	6224.26518
594.892	6076.80707
595.095	6122.51098
595.298	6205.57986
595.5	6238.7969
595.703	6464.92872
595.906	6417.2359
596.109	6502.24497
596.311	6359.15844
596.514	6363.30743
596.717	6228.41722
596.92	6238.7969
597.122	6355.00935
597.325	6670.07529
597.528	6259.5545
597.73	6899.8203
597.933	6400.6442
598.136	6709.421
598.338	6328.03799
598.541	6665.93315
598.743	6458.70862
598.946	6591.35895
599.148	6645.22109
599.351	6603.79006
599.554	6568.56642
599.756	6564.42202
599.959	6502.24497
600.161	6949.45803
600.363	6748.75843
600.566	6906.02573
600.768	6783.94807
600.971	6711.4916
601.173	6645.22109
601.376	6837.75477
601.578	6682.50115
601.78	6819.13112
601.983	6891.54607
602.185	6949.45803
602.388	6775.66875
602.59	7079.6953
602.792	6864.65234
602.995	6914.29932
603.197	6781.87828
603.399	6988.74534
603.601	6692.8554
603.804	7085.89486
604.006	6916.36766
604.208	6997.01532
604.41	6779.80846
604.613	6740.47755
604.815	6848.10044
605.017	7023.89025
605.219	6790.15733
605.421	7079.6953
605.623	6955.66183
605.826	7044.5607
606.028	6947.39005
606.23	6860.5145
606.432	7021.82308
606.634	7242.88337
606.836	6860.5145
607.038	7050.76139
607.24	6831.54709
607.442	6868.79009
607.644	6972.20431
607.846	7059.02867
608.048	7046.62762
608.25	7280.04612
608.452	7131.35211
608.654	7288.30355
608.856	7154.07669
609.058	7344.03196
609.26	7261.46564
609.462	7257.3364
609.664	7352.28666
609.866	7240.81856
610.067	6885.34017
610.269	7426.56329
610.471	7096.227
610.673	7290.36785
610.875	7108.62483
611.077	7377.04867
611.278	7178.86407
611.48	7108.62483
611.682	7182.99499
611.884	7393.55494
612.085	7079.6953
612.287	7482.25229
612.489	7172.66752
612.69	7220.16928
612.892	7228.42926
613.094	7251.14238
613.295	7098.29336
613.497	7447.19068
613.699	7434.8145
613.9	7552.35681
614.102	7261.46564
614.304	7432.75173
614.505	7587.39977
614.707	7575.03237
614.908	7321.32972
615.11	7562.66421
615.311	7048.69452
615.513	7366.73155
615.714	7426.56329
615.916	7436.87726
616.117	7152.01093
616.319	7426.56329
616.52	7121.02186
616.722	7081.76184
616.923	7220.16928
617.124	7537.92556
617.326	7298.62483
617.527	7445.12804
617.729	7341.96823
617.93	7558.54131
618.131	7280.04612
618.333	7426.56329
618.534	7385.30198
618.735	7564.72562
618.937	7401.80755
619.138	7577.09366
619.339	7405.93372
619.54	7706.9118
619.742	7500.81179
619.943	7513.18382
620.144	7575.03237
620.345	7750.16586
620.546	7706.9118
620.748	7855.17302
620.949	7558.54131
621.15	7776.93755
621.351	7632.74033
621.552	7700.73189
621.753	7560.60277
621.954	7916.9167
622.155	7525.55508
622.356	7871.63982
622.558	7612.13226
622.759	7820.17665
622.96	7474.00306
623.161	7645.10415
623.362	7684.2512
623.563	7655.40675
623.764	7719.27105
623.965	7890.16339
624.166	7649.22525
624.366	7995.0988
624.567	7459.56608
624.768	7743.98728
624.969	7484.31454
625.17	7797.52875
625.371	7537.92556
625.572	7700.73189
625.773	7546.17212
625.973	8069.13891
626.174	7368.79502
626.375	7838.70489
626.576	7805.76464
626.777	7931.32089
626.977	7636.86169
627.178	7770.75978
627.379	7624.49736
627.58	7659.52764
627.78	7931.32089
627.981	7943.66654
628.182	7556.47983
628.382	7877.81453
628.583	7857.23144
628.784	8005.38373
628.984	7638.92233
629.185	8071.1952
629.386	7818.11786
629.586	8139.04164
629.787	7713.09152
629.987	7865.46492
630.188	7832.529
630.388	8126.70755
630.589	7873.69807
630.79	8003.32678
630.99	7834.58765
631.191	7908.68528
631.391	7840.76348
631.591	7828.41163
631.792	7725.45039
631.992	8178.09485
632.193	7986.8705
632.393	7869.58154
632.594	7871.63982
632.794	8114.37274
632.994	8058.85713
633.195	8052.68782
633.395	7980.69906
633.595	7982.75623
633.796	8071.1952
633.996	8060.91353
634.196	8040.34866
634.397	8410.21148
634.597	7978.64187
634.797	8272.61503
634.997	7997.15583
635.198	8190.42594
635.398	7966.29831
635.598	8225.36017
635.798	8122.59603
635.998	8250.01618
636.199	8202.75633
636.399	8196.59122
636.599	8266.45194
636.799	8250.01618
636.999	8264.39754
637.199	8299.31969
637.399	8136.98601
637.599	8313.69776
637.799	8013.6113
637.999	8229.4697
638.199	8463.58373
638.399	8258.23422
638.599	8488.2127
638.799	8637.98022
638.999	8406.10539
639.199	8414.3175
639.399	8385.57375
639.599	8582.59845
639.799	8163.70766
639.999	8642.08204
640.199	8313.69776
640.399	8200.70131
640.599	7781.05596
640.799	8307.53585
640.998	8539.51427
641.198	8323.96722
641.398	8184.26049
641.598	8482.05572
641.798	8484.10806
641.997	8754.85286
642.197	8426.63509
642.397	8625.67434
642.597	8514.891
642.796	8775.35068
642.996	8549.77316
643.196	8496.42175
643.395	8506.68263
643.595	8832.73488
643.795	8656.43779
643.994	8672.84326
644.194	8742.5533
644.394	8859.37273
644.593	8512.83893
644.793	8804.04456
644.992	8623.62329
645.192	8664.64067
645.392	8652.33624
645.591	8769.20152
645.791	8549.77316
645.99	8426.63509
646.19	8328.07486
646.389	8785.5989
646.589	8547.72142
646.788	8974.08582
646.987	8664.64067
647.187	8873.71493
647.386	8488.2127
647.586	8924.9299
647.785	8635.92929
647.984	8715.90197
648.184	8808.14339
648.383	8900.34811
648.582	8678.995
648.782	9154.23799
648.981	8777.40036
649.18	9080.5556
649.38	8996.61222
649.579	9002.75542
649.778	8740.5033
649.977	9144.00565
650.177	8898.29951
650.376	8845.02965
650.575	8670.79264
650.774	8935.17156
650.973	8863.47059
651.173	8931.07495
651.372	9066.22588
651.571	9231.98984
651.77	8965.89388
651.969	9146.05215
652.168	9004.80311
652.367	9303.58187
652.566	8959.74973
652.765	9066.22588
652.964	9152.19155
653.163	8974.08582
653.362	8918.78469
653.561	9023.23159
653.76	8791.74762
653.959	9262.67464
654.158	9086.69665
654.357	9193.11697
654.556	9049.84801
654.755	9279.03833
654.954	8978.18169
655.153	9336.30286
655.352	9309.71738
655.551	9334.25792
655.749	9201.30124
655.948	9166.51623
656.147	9062.13151
656.346	9201.30124
656.545	9174.70138
656.743	9217.66896
656.942	9242.21853
657.141	9307.67222
657.34	9221.76073
657.538	9297.44621
657.737	9182.88626
657.936	9508.01935
658.135	8963.84585
658.333	9191.07086
658.532	8967.94189
658.731	9373.10893
658.929	9107.1657
659.128	9184.93243
659.326	8945.41278
659.525	9383.33189
659.724	9467.14483
659.922	9614.26334
660.121	9058.03708
660.319	9348.57214
660.518	9234.03561
660.716	9442.61703
660.915	9332.21297
661.113	9467.14483
661.312	9407.86533
661.51	9172.65511
661.709	9156.2844
661.907	9293.35569
662.105	9291.3104
662.304	9180.84006
662.502	9236.08136
662.701	9209.48524
662.899	9291.3104
663.097	9536.62771
663.296	9221.76073
663.494	9557.06035
663.692	9481.45164
663.891	9612.22059
664.089	9463.05703
664.287	9340.39269
664.485	9103.07203
664.684	9471.23257
664.882	9211.53119
665.08	9366.97495
665.278	9326.078
665.476	9125.58637
665.675	8984.32536
665.873	9178.79385
666.071	9385.37643
666.269	9397.64335
666.467	9029.3741
666.665	9561.14668
666.863	9150.14511
667.061	9387.42096
667.259	9270.85662
667.457	9620.3915
667.655	9366.97495
667.853	9393.55444
668.051	9008.89845
668.249	9358.79609
668.447	9127.63303
668.645	9242.21853
668.843	9413.99833
669.041	9399.68778
669.239	9092.83755
669.437	9418.08691
669.635	9432.39643
669.833	9544.80095
670.031	9422.17543
670.229	9409.90968
670.426	9268.81115
670.624	9405.82097
670.822	9317.89782
671.02	9769.46728
671.218	9563.18983
671.415	9665.32709
671.613	9595.87801
671.811	9371.06428
672.009	9344.48245
672.206	9585.66338
672.404	9295.40096
672.602	9342.43757
672.799	9356.75133
672.997	9397.64335
673.195	9348.57214
673.392	9585.66338
673.59	9334.25792
673.788	9495.75767
673.985	9379.24275
674.183	9448.7492
674.38	9397.64335
674.578	9561.14668
674.775	9227.89824
674.973	9391.50996
675.17	9111.2593
675.368	9471.23257
675.565	9135.81948
675.763	9330.168
675.96	9283.12909
676.158	9313.80763
676.355	9293.35569
676.553	9744.96728
676.75	9274.94751
676.947	9518.23698
677.145	9293.35569
677.342	9530.49761
677.539	9544.80095
677.737	9516.19348
677.934	9618.3488
678.131	9712.2972
678.329	8937.21984
678.526	9211.53119
678.723	9385.37643
678.92	9663.28472
679.118	9381.28733
679.315	9334.25792
679.512	9137.86605
679.709	9538.67104
679.906	9017.08892
680.104	9364.93026
680.301	9301.53666
680.498	9326.078
680.695	9043.70602
680.892	9407.86533
681.089	8879.86131
681.286	9184.93243
681.483	9012.99372
681.68	9571.36225
681.877	9080.5556
682.075	9156.2844
682.272	9090.7906
682.469	9413.99833
682.665	9311.76251
682.862	9203.34727
683.059	9033.46902
683.256	9283.12909
683.453	9383.33189
683.65	9487.58289
683.847	9381.28733
684.044	9602.00659
684.241	9274.94751
684.438	9405.82097
684.635	9002.75542
684.831	9559.10352
685.028	9358.79609
685.225	9387.42096
685.422	9051.8953
685.619	9342.43757
685.815	9283.12909
686.012	9458.96916
686.209	8861.42167
686.405	9221.76073
686.602	9021.18405
686.799	9434.44059
686.996	9203.34727
687.192	9221.76073
687.389	9463.05703
687.586	9458.96916
687.782	9170.60884
687.979	9442.61703
688.175	9364.93026
688.372	9344.48245
688.568	9074.41439
688.765	8957.70165
688.962	9039.61127
689.158	9381.28733
689.355	9344.48245
689.551	9260.62911
689.748	9324.03298
689.944	9213.57713
690.14	9105.11887
690.337	9227.89824
690.533	9094.88448
690.73	9078.50855
690.926	8943.36457
691.123	8986.37321
691.319	9260.62911
691.515	9209.48524
691.712	9015.04133
691.908	9195.16307
692.104	9023.23159
692.301	8920.83311
692.497	8902.39669
692.693	8988.42105
692.889	8886.00754
693.086	9242.21853
693.282	9094.88448
693.478	9152.19155
693.674	9103.07203
693.87	8951.55729
694.067	9156.2844
694.263	9413.99833
694.459	9148.09864
694.655	9454.88122
694.851	9133.77289
695.047	9209.48524
695.243	9098.97829
695.439	9160.37718
695.635	8996.61222
695.831	9197.20914
696.027	9004.80311
696.224	9123.5397
696.42	8842.98057
696.615	9098.97829
696.811	8873.71493
697.007	9094.88448
697.203	8924.9299
697.399	8951.55729
697.595	8996.61222
697.791	9058.03708
697.987	8865.51949
698.183	9103.07203
698.379	9152.19155
698.575	9238.1271
698.77	8935.17156
698.966	9068.27303
699.162	8959.74973
699.358	9133.77289
699.554	8689.24754
699.749	9176.74762
699.945	8898.29951
700.141	9103.07203
700.337	8963.84585
700.532	9012.99372
700.728	8900.34811
700.924	8857.32377
701.119	8873.71493
701.315	8832.73488
701.511	8937.21984
701.706	9037.56387
701.902	8812.24216
702.097	9017.08892
702.293	8957.70165
702.489	8963.84585
702.684	8951.55729
702.88	9037.56387
703.075	8820.43946
703.271	8949.50914
703.466	8808.14339
703.662	9090.7906
703.857	8965.89388
704.053	8781.49967
704.248	8949.50914
704.443	8857.32377
704.639	8808.14339
704.834	8976.13377
705.03	8791.74762
705.225	9025.27911
705.42	8713.85174
705.616	8969.98989
705.811	8761.0024
706.006	9150.14511
706.202	8881.91007
706.397	9164.4699
706.592	8836.83321
706.787	8916.73625
706.983	8787.64849
707.178	9266.76567
707.373	8931.07495
707.568	9021.18405
707.763	8767.15177
707.959	9117.39958
708.154	8955.65355
708.349	8904.44525
708.544	8980.2296
708.739	8939.2681
708.934	8830.68569
709.129	8998.65997
709.324	8908.54232
709.519	9094.88448
709.714	8869.61725
709.909	9201.30124
710.104	8988.42105
710.299	9037.56387
710.494	8826.58725
710.689	8978.18169
710.884	8865.51949
711.079	8894.20226
711.274	8498.47397
711.469	8820.43946
711.664	8920.83311
711.859	8808.14339
712.054	8697.44923
712.249	9041.65865
712.443	8512.83893
712.638	8720.00238
712.833	8851.17679
713.028	8922.88152
713.223	8664.64067
713.417	8840.93147
713.612	9078.50855
713.807	9270.85662
714.002	8916.73625
714.196	8832.73488
714.391	8726.15285
714.586	8664.64067
714.78	8371.20046
714.975	8596.958
715.17	8775.35068
715.364	8955.65355
715.559	8947.46096
715.754	8724.10271
715.948	8603.11181
716.143	8672.84326
716.337	8627.72537
716.532	9029.3741
716.726	8717.95218
716.921	8824.53801
717.115	8560.03158
717.31	8674.89386
717.504	8512.83893
717.699	8890.10493
717.893	8441.00475
718.088	8441.00475
718.282	8422.52931
718.476	8348.61193
718.671	8282.88645
718.865	8527.20297
719.059	8317.8056
719.254	8697.44923
719.448	8252.07072
719.642	8697.44923
719.837	8373.25384
720.031	8414.3175
720.225	8381.46719
720.419	8720.00238
720.614	8594.90669
720.808	8836.83321
721.002	8553.87658
721.196	8777.40036
721.39	8410.21148
721.585	8471.79369
721.779	8291.10323
721.973	8599.00928
722.167	8463.58373
722.361	8742.5533
722.555	8508.73475
722.749	8658.48854
722.943	8381.46719
723.137	8467.68875
723.331	8512.83893
723.525	8615.41892
723.719	8247.96162
723.913	8484.10806
724.107	8305.48184
724.301	8369.14705
724.495	8184.26049
724.689	8438.952
724.883	8328.07486
725.077	8676.94444
725.271	8393.78664
725.465	8432.79363
725.659	8469.74123
725.853	8521.04707
726.046	8095.86917
726.24	8578.49555
726.434	8301.37376
726.628	8551.82488
726.822	8118.48443
727.015	8410.21148
727.209	8319.85949
727.403	8504.63049
727.596	8286.99488
727.79	8611.31663
727.984	8408.15844
728.177	8506.68263
728.371	8414.3175
728.565	8574.39258
728.758	8590.80402
728.952	8541.56608
729.146	8202.75633
729.339	8424.58221
729.533	8321.91336
729.726	8389.68023
729.92	8315.75169
730.113	8315.75169
730.307	8184.26049
730.5	8605.16304
730.694	8350.66553
730.887	8336.28992
731.081	8504.63049
731.274	8541.56608
731.468	8087.64484
731.661	8475.89856
731.854	8295.2115
732.048	8393.78664
732.241	8202.75633
732.435	8490.26499
732.628	8307.53585
732.821	8369.14705
733.014	8541.56608
733.208	8488.2127
733.401	8537.46243
733.594	8445.11019
733.788	8584.64987
733.981	8490.26499
734.174	8685.14658
734.367	8465.63625
734.56	8434.84644
734.754	8660.53927
734.947	8303.42781
735.14	8319.85949
735.333	8453.32084
735.526	8397.89296
735.719	8202.75633
735.912	8284.94067
736.105	8128.76329
736.298	8250.01618
736.491	8358.87973
736.684	8328.07486
736.877	8011.55443
737.07	8011.55443
737.263	8097.9252
737.456	8332.18243
737.649	8036.23544
737.842	8276.72365
738.035	8178.09485
738.228	8155.48598
738.421	8184.26049
738.614	8541.56608
738.807	8210.97618
739	8266.45194
739.192	8252.07072
739.385	8134.93036
739.578	8323.96722
739.771	8502.57834
739.964	8293.15737
740.156	8122.59603
740.349	8102.03721
740.542	8229.4697
740.735	8087.64484
740.927	8067.08259
741.12	7834.58765
741.313	7964.24098
741.505	8044.46179
741.698	8167.81839
741.891	8069.13891
742.083	8126.70755
742.276	8040.34866
742.468	8311.64381
742.661	8219.19572
742.854	8202.75633
743.046	8085.5887
743.239	8289.04906
743.431	8225.36017
743.624	7939.55141
743.816	8176.0396
744.009	8136.98601
744.201	8060.91353
744.393	8291.10323
744.586	8165.76304
744.778	8221.25056
744.971	7830.47033
745.163	7970.41291
745.355	8243.85244
745.548	7807.82356
745.74	8163.70766
745.932	8375.30721
746.125	8250.01618
746.317	8338.34364
746.509	8104.09318
746.702	8169.87372
746.894	8126.70755
747.086	8245.90704
747.278	7890.16339
747.471	8106.14913
747.663	8052.68782
747.855	7906.62738
748.047	7881.9309
748.239	8065.02626
748.431	7886.04718
748.623	8032.12214
748.815	7778.99676
749.008	8165.76304
749.2	8136.98601
749.392	7999.21283
749.584	7916.9167
749.776	8071.1952
749.968	7945.72408
750.16	7962.18363
750.352	8077.36397
750.544	7968.35562
750.736	7846.93912
750.928	7953.95402
751.12	7908.68528
751.311	7933.37855
751.503	7824.29419
751.695	7892.22146
751.887	7719.27105
752.079	8087.64484
752.271	7686.31136
752.463	7953.95402
752.654	7525.55508
752.846	7896.33754
753.038	7682.19102
753.23	7731.62954
753.421	7863.40658
753.613	7748.10636
753.805	7731.62954
753.997	7848.99762
754.188	7731.62954
754.38	7797.52875
754.572	7949.83909
754.763	7953.95402
754.955	7772.81906
755.146	7785.17428
755.338	7908.68528
755.53	7918.9745
755.721	7851.05611
755.913	7855.17302
756.104	7647.16471
756.296	7921.03229
756.487	8013.6113
756.679	7836.64628
756.87	7801.64674
757.062	7657.4672
757.253	7772.81906
757.445	7667.76916
757.636	7805.76464
757.827	7690.43162
758.019	7566.78701
758.21	7273.85283
758.401	7506.9979
758.593	7737.80851
758.784	7581.21617
758.975	7395.61812
759.167	7418.31172
759.358	7443.06538
759.549	7449.2533
759.74	7715.15139
759.932	7655.40675
760.123	7377.04867
760.314	7364.66806
760.505	7393.55494
760.696	7341.96823
760.888	7484.31454
761.079	7354.35028
761.27	7422.43755
761.461	7323.39367
761.652	7242.88337
761.843	7259.40103
762.034	7294.49638
762.225	7162.3395
762.416	7498.74971
762.607	7141.6818
762.798	7352.28666
762.989	7430.68894
763.18	7298.62483
763.371	7071.42892
763.562	7263.53023
763.753	7017.68868
763.944	7484.31454
764.135	7061.09544
764.326	7570.90974
764.517	7344.03196
764.708	7325.4576
764.899	7187.12582
765.089	7443.06538
765.28	7125.15403
765.471	7453.37848
765.662	7046.62762
765.853	7300.68902
766.043	7116.88961
766.234	7201.58303
766.425	6963.93325
766.615	6959.79759
766.806	6759.10901
766.997	7216.03915
767.187	6928.77723
767.378	7108.62483
767.569	6941.18598
767.759	7207.77864
767.95	6790.15733
768.141	6947.39005
768.331	6752.89873
768.522	6620.36358
768.712	6719.77376
768.903	6963.93325
769.093	6790.15733
769.284	6947.39005
769.474	6843.96224
769.665	6889.47746
769.855	6881.20279
770.046	6781.87828
770.236	6614.14868
770.426	6994.94786
770.617	6711.4916
770.807	6897.75178
770.998	6709.421
771.188	6607.93357
771.378	6651.43495
771.569	6696.99694
771.759	6692.8554
771.949	6348.78554
772.139	6881.20279
772.33	6406.86626
772.52	6665.93315
772.71	6603.79006
772.9	6437.97342
773.09	6661.79092
773.281	6636.93562
773.471	6783.94807
773.661	6707.35038
773.851	6699.06767
774.041	6562.34979
774.231	6825.33921
774.421	6344.63622
774.611	6508.46361
774.802	6284.46054
774.992	6191.04551
775.182	6284.46054
775.372	6122.51098
775.562	6363.30743
775.752	6533.3361
775.942	6402.71824
776.131	6226.34121
776.321	6018.62198
776.511	6419.30975
776.701	6510.53645
776.891	6301.06269
777.081	6307.28811
777.271	6408.94023
777.461	6514.68205
777.651	6661.79092
777.84	6319.73832
778.03	6342.56152
778.22	6369.53075
778.41	6518.82756
778.599	6234.6451
778.789	6336.33729
778.979	6178.58659
779.169	6213.88468
779.358	6282.38516
779.548	6265.78133
779.738	6269.93243
779.927	6450.41482
780.117	6249.17599
780.307	6226.34121
780.496	6020.70034
780.686	6236.72101
780.875	5821.07061
781.065	5925.07155
781.254	5910.51496
781.444	6201.42731
781.633	5979.12873
781.823	5958.33939
782.012	6024.85698
782.202	6253.32747
782.391	5943.78545
782.581	6076.80707
782.77	5979.12873
782.96	6170.28017
783.149	5927.15096
783.338	6305.21299
783.528	6012.38677
783.717	6080.96244
783.906	5968.73436
784.096	6143.28172
784.285	6031.09177
784.474	5956.26033
784.663	5889.71784
784.853	5779.45371
785.042	5885.55814
785.231	6014.4652
785.42	5873.07845
785.61	6029.01353
785.799	5612.89173
785.988	5968.73436
786.177	5462.85692
786.366	5810.66727
786.555	5837.71472
786.744	5694.10956
786.933	5414.90342
787.122	5727.41932
787.312	5481.61795
787.501	5677.45242
787.69	5623.30628
787.879	5650.38134
788.068	5573.31108
788.257	5702.43757
788.445	5508.71385
788.634	5754.47904
788.823	5614.97469
789.012	5794.0207
789.201	5752.39767
789.39	5646.21621
789.579	5510.79798
789.768	5727.41932
789.957	5485.78681
790.145	5868.91836
790.334	5648.29879
790.523	5519.13428
790.712	5439.92419
790.9	5644.13361
791.089	5727.41932
791.278	5775.2915
791.467	5629.55473
791.655	5562.8937
791.844	5446.17885
792.033	5623.30628
792.221	5442.0091
792.41	5677.45242
792.599	5444.09399
792.787	5639.96833
792.976	5285.57561
793.164	5398.22103
793.353	5287.66225
793.541	5573.31108
793.73	5387.79377
793.918	5452.43331
794.107	5164.5101
794.295	5446.17885
794.484	5166.5981
794.672	5264.70785
794.861	5220.87795
795.049	5341.90686
795.238	5087.23773
795.426	5362.76596
795.614	5076.79308
795.803	5394.0502
795.991	5220.87795
796.179	5323.13167
796.368	5410.73296
796.556	5331.47644
796.744	5177.03776
796.932	5256.36009
797.121	5035.00869
797.309	5306.44103
797.497	5001.57452
797.685	5227.13999
797.874	4769.46308
798.062	5110.21392
798.25	4735.98242
798.438	5168.68608
798.626	5009.93361
798.814	4959.7735
799.002	5039.18754
799.19	5110.21392
799.378	4926.32606
799.566	5237.57627
799.755	4742.26048
799.943	5103.94796
800.131	5083.05994
800.318	5133.1873
800.506	5001.57452
800.694	5126.92211
800.882	4905.41842
801.07	5237.57627
801.258	5118.5682
801.446	5143.62882
801.634	4792.47767
801.822	5035.00869
802.01	4817.58137
802.197	5085.14884
802.385	4809.21383
802.573	4775.74006
802.761	4689.93705
802.949	4926.32606
803.136	4884.50849
803.324	4945.14097
803.512	4892.87274
803.699	5005.75411
803.887	5047.54498
804.075	5053.81281
804.262	4796.66185
804.45	4901.23662
804.638	4817.58137
804.825	5133.1873
805.013	5005.75411
805.201	5085.14884
805.388	4926.32606
805.576	4984.85521
805.763	5009.93361
805.951	5243.83775
806.138	5045.45565
806.326	5156.15787
806.513	4792.47767
806.701	5026.6507
806.888	4876.14388
807.075	4991.12513
807.263	4888.69066
807.45	5170.77404
807.638	5035.00869
807.825	5302.26813
808.012	5129.01053
808.2	5083.05994
808.387	4938.86954
808.574	5112.30252
808.761	4894.96374
808.949	4928.4167
809.136	4800.84593
809.323	5103.94796
809.51	5030.82974
809.698	4936.77902
809.885	4986.94521
810.072	5147.80526
810.259	5135.27565
810.446	5179.12562
810.633	5093.50424
810.82	5360.68015
811.008	5129.01053
811.195	5162.42208
811.382	5118.5682
811.569	5185.38906
811.756	4922.14471
811.943	5225.05267
812.13	5007.84387
812.317	5060.08043
812.504	4972.31477
812.691	5531.63803
812.878	5296.00861
813.064	5444.09399
813.251	5243.83775
813.438	5352.3367
813.625	5135.27565
813.812	5195.82767
813.999	4951.41219
814.186	5083.05994
814.372	5135.27565
814.559	5331.47644
814.746	4938.86954
814.933	4938.86954
815.12	4993.21505
815.306	5047.54498
815.493	4890.78171
815.68	5051.72355
815.866	5001.57452
816.053	5151.98161
816.24	5047.54498
816.426	5076.79308
816.613	4989.03518
816.799	5135.27565
816.986	5222.96532
817.173	5112.30252
817.359	4800.84593
817.546	5248.01196
817.732	4738.07513
817.919	4966.04424
818.105	4909.60013
818.292	5095.59303
818.478	4848.95637
818.665	5016.20269
818.851	4671.09717
819.037	5133.1873
819.224	4857.32217
819.41	5202.09056
819.597	5078.88205
819.783	4782.01684
819.969	4788.29341
820.156	5154.06975
820.342	4966.04424
820.528	5085.14884
820.714	4671.09717
820.901	4823.85678
821.087	4576.87052
821.273	4876.14388
821.459	4583.1537
821.646	4800.84593
821.832	4700.40287
822.018	5007.84387
822.204	4595.71947
822.39	4809.21383
822.576	4828.04027
822.762	4951.41219
822.948	4562.20898
823.134	4899.14568
823.32	4524.50287
823.507	4869.87018
823.693	4700.40287
823.879	4752.72347
824.065	4526.59784
824.25	4792.47767
824.436	4641.78707
824.622	4888.69066
824.808	4652.25547
824.994	4842.68178
825.18	4654.34908
825.366	5043.36631
825.552	4490.98031
825.738	4775.74006
825.923	4658.53624
826.109	4792.47767
826.295	4541.26203
826.481	5129.01053
826.667	4453.26069
826.852	4721.33281
827.038	4767.37071
827.224	4853.13931
827.409	4771.55543
827.595	5012.02333
827.781	4788.29341
827.966	4692.03026
828.152	4838.4986
828.338	4650.16183
828.523	4574.77608
828.709	4792.47767
828.894	4524.50287
829.08	4585.24805
829.266	4465.83469
829.451	4570.58713
829.637	4482.59879
829.822	4792.47767
830.008	4354.73712
830.193	4419.72616
830.378	4396.66793
830.564	4493.07564
830.749	4264.55659
830.935	4570.58713
831.12	4275.04474
831.305	4459.54779
831.491	4314.89482
831.676	4306.50597
831.861	4210.00959
832.047	4453.26069
832.232	4365.22064
832.417	4610.37852
832.602	4191.12459
832.788	4247.77443
832.973	4163.84324
833.158	4543.35682
833.343	4390.37886
833.528	4549.64107
833.714	4191.12459
833.899	4499.36148
834.084	4214.20603
834.269	4428.11032
834.454	4178.53364
834.639	4478.4079
834.824	4254.0679
835.009	4411.34166
835.194	4222.59864
835.379	4495.17094
835.564	4176.43508
835.749	4233.08893
835.934	3991.67942
836.119	4081.97786
836.304	3995.88019
836.489	4033.68344
836.674	3983.27764
836.859	4113.46831
837.044	4182.73071
837.228	4264.55659
837.413	3897.14059
837.598	4161.74452
837.783	4050.48274
837.968	4029.48341
838.152	3815.17404
838.337	4239.38284
838.522	3947.56641
838.707	4079.87833
838.891	3764.71814
839.076	3895.03926
839.261	3743.69153
839.445	3970.67434
839.63	3903.44445
839.815	3983.27764
839.999	3825.68426
840.184	4138.65728
840.368	3941.26382
840.553	4058.88189
840.737	3888.73516
840.922	4081.97786
841.106	3886.63375
841.291	4088.27633
841.475	3836.19398
841.66	3979.07662
841.844	3785.74281
842.029	4006.38176
842.213	3710.04492
842.397	3861.4153
842.582	3592.24325
842.766	3829.88821
842.951	3524.9016
843.135	3802.56113
843.319	3600.65962
843.504	3527.00631
843.688	3644.84063
843.872	3686.91002
844.056	3491.22371
844.241	3762.61557
844.425	3663.7728
844.609	3752.10241
844.793	3657.46225
844.977	3657.46225
845.161	3585.93078
845.346	3808.86767
845.53	3369.10274
845.714	3588.03496
845.898	3516.48257
846.082	3543.84335
846.266	3350.1476
846.45	3592.24325
846.634	3341.72264
846.818	3636.42584
847.002	3508.06324
847.186	3663.7728
847.37	3527.00631
847.554	3558.5748
847.738	3240.60175
847.922	3484.90859
848.106	3310.12659
848.29	3333.29741
848.473	3278.52668
848.657	3310.12659
848.841	2894.82358
849.025	3137.33443
849.209	3147.87371
849.392	3158.41258
849.576	3080.41542
849.76	3314.33962
849.944	3147.87371
850.127	3234.2804
850.311	3023.48496
850.495	3364.89061
850.678	3097.28152
850.862	3617.49146
851.046	3208.9935
851.229	3217.42273
851.413	3044.57163
851.596	3105.71419
851.78	3154.19708
851.964	3318.55258
852.147	3217.42273
852.331	3154.19708
852.514	3000.28785
852.698	3152.0893
852.881	2867.39689
853.065	3086.74033
853.248	2947.56034
853.431	3257.45795
853.615	3076.19874
853.798	3095.17331
853.982	2884.27514
854.165	3276.41988
854.348	2888.49456
854.532	3147.87371
854.715	2825.1973
854.898	2985.52509
855.081	2749.22408
855.265	2962.32499
855.448	2920.13837
855.631	2888.49456
855.814	2842.07781
855.997	3086.74033
856.181	2816.7567
856.364	3027.70242
856.547	2977.0889
856.73	2937.01372
856.913	2740.78153
857.096	2905.37167
857.279	2778.77132
857.462	2812.53633
857.645	2643.67723
857.828	2650.01094
858.011	2700.67654
858.194	2871.61654
858.377	2685.89984
858.56	2850.51773
858.743	2782.99213
858.926	2818.86687
859.109	2533.87539
859.292	2554.99364
859.475	2580.33398
859.658	2597.22659
859.841	2643.67723
860.023	2711.23095
860.206	2546.54648
860.389	2639.45469
860.572	2523.31584
860.755	2607.78407
860.937	2599.33811
861.12	2580.33398
861.303	2497.97173
861.486	2664.78916
861.668	2413.47982
861.851	2626.78678
862.034	2580.33398
862.216	2647.89971
862.399	2305.72839
862.581	2447.27867
862.764	2267.69242
862.947	2567.66403
863.129	2533.87539
863.312	2362.77652
863.494	2284.59767
863.677	2428.26715
863.859	2436.71683
864.042	2491.63544
864.224	2288.82389
864.406	2445.16632
864.589	2250.78658
864.771	2259.23957
864.954	2157.79445
865.136	2159.90808
865.318	2056.33067
865.501	2119.74759
865.683	2240.22014
865.865	2335.30979
866.048	2128.20267
866.23	2299.38927
866.412	2276.14511
866.594	2301.50232
866.777	1931.59277
866.959	2212.74635
867.141	1997.13581
867.323	2210.63292
867.505	2102.83707
867.687	2092.26775
867.869	1997.13581
868.052	2345.87412
868.234	1897.7619
868.416	2195.83868
868.598	2081.69824
868.78	2284.59767
868.962	2140.88505
869.144	2206.40604
869.326	2001.36418
869.508	2183.15757
869.69	2043.64651
869.872	2216.97318
870.054	2077.47038
870.236	2064.78664
870.417	1988.67897
870.599	2081.69824
870.781	2132.43016
870.963	2183.15757
871.145	1959.07927
871.327	2136.65762
871.508	1891.41846
871.69	2238.10682
871.872	1868.15877
872.054	2263.46601
872.235	1929.47838
872.417	1844.89847
872.599	1893.53295
872.78	2022.50568
872.962	1893.53295
873.144	2014.04916
873.325	1876.61691
873.507	2016.1633
873.689	1904.1053
873.87	2066.90062
874.052	1847.01306
874.233	2014.04916
874.415	1751.85182
874.596	2056.33067
874.778	1811.06428
874.959	2098.60936
875.141	1705.32568
875.322	1992.9074
875.503	1684.17691
875.685	1895.64743
875.866	1946.39331
876.048	2060.55867
876.229	1918.90636
876.41	1937.93589
876.592	1711.67025
876.773	1927.36399
876.954	1783.57317
877.136	2126.08891
877.317	1827.98152
877.498	2005.59254
877.679	1997.13581
877.86	2081.69824
878.042	1825.86688
878.223	2071.12854
878.404	2028.848
878.585	2088.03996
878.766	1878.73143
878.947	2043.64651
879.128	1897.7619
879.309	2204.29258
879.49	1931.59277
879.672	1967.53645
879.853	2005.59254
880.034	2123.97514
880.215	1954.85064
880.396	2286.71078
880.576	1933.70715
880.757	2056.33067
880.938	1887.18947
881.119	2252.89984
881.3	1847.01306
881.481	2159.90808
881.662	1775.11423
881.843	2090.15386
882.023	1739.16304
882.204	1929.47838
882.385	1956.96496
882.566	2030.96209
882.747	2016.1633
882.927	2005.59254
883.108	1918.90636
883.289	2208.51948
883.469	1937.93589
883.65	2043.64651
883.831	1878.73143
884.011	2047.87459
884.192	1954.85064
884.373	1995.02161
884.553	1802.60556
884.734	2128.20267
884.914	1766.65523
885.095	2054.21666
885.275	2005.59254
885.456	2085.92606
885.636	1946.39331
885.817	2159.90808
885.997	1956.96496
886.178	2142.99875
886.358	2075.35644
886.538	2111.29239
886.719	1940.05026
886.899	2090.15386
887.08	2157.79445
887.26	2016.1633
887.44	1912.56308
887.621	2111.29239
887.801	1925.24959
887.981	2096.4955
888.161	2071.12854
888.342	2039.4184
888.522	1967.53645
888.702	1861.81511
888.882	1878.73143
889.062	2064.78664
889.242	1971.765
889.423	2092.26775
889.603	1777.22897
889.783	1969.65073
889.963	1876.61691
890.143	2052.10265
890.323	2009.82086
890.503	2214.85977
890.683	1842.78387
890.863	2005.59254
891.043	1688.40669
891.223	1893.53295
891.403	1802.60556
891.583	1880.84595
891.763	1762.4257
891.943	2134.54389
892.122	1844.89847
892.302	2028.848
892.482	1718.01479
892.662	1956.96496
892.842	1711.67025
893.022	1959.07927
893.201	1787.80262
893.381	1878.73143
893.561	1701.09595
893.741	1978.10779
893.92	1794.14676
894.1	1946.39331
894.28	1709.55539
894.459	1861.81511
894.639	1851.24224
894.819	1952.73632
894.998	1787.80262
895.178	1836.44003
895.357	1599.57921
895.537	2024.6198
895.716	1654.56816
895.896	1815.29362
896.075	1519.2086
896.255	1804.72024
896.434	1589.00425
896.614	1718.01479
896.793	1650.33829
896.973	1878.73143
897.152	1707.44054
897.331	1650.33829
897.511	1601.69419
897.69	1745.50744
897.87	1726.47413
898.049	1715.89994
898.228	1601.69419
898.407	1701.09595
898.587	1438.83675
898.766	1641.87854
898.945	1548.81904
899.124	1506.51835
899.304	1489.59798
899.483	1798.37617
899.662	1447.29696
899.841	1608.03914
900.02	1413.45615
900.199	1529.78378
900.378	1396.53579
900.557	1561.50917
900.737	1489.59798
900.916	1462.10233
901.095	1320.39495
901.274	1491.71303
901.453	1358.46517
901.632	1502.28826
901.811	1493.82808
901.989	1421.91635
902.168	1320.39495
902.347	1559.39415
902.526	1468.44748
902.705	1557.27913
902.884	1328.85495
903.063	1434.60665
903.242	1311.93497
903.42	1345.77504
903.599	1271.75052
903.778	1417.68625
903.957	1176.58068
904.135	1373.27037
904.314	1058.1581
904.493	1237.91165
904.672	1142.74422
904.85	1311.93497
905.029	1151.20324
905.207	1193.49929
905.386	956.66654
905.565	1015.86821
905.743	1045.47089
905.922	1134.28527
906.1	958.78079
906.279	1064.50177
906.457	846.73576
906.636	1094.10624
906.814	931.29604
906.993	943.98116
907.171	903.81255
907.35	967.23788
907.528	753.73571
907.707	918.61119
907.885	715.6958
908.063	931.29604
908.242	791.77895
908.42	965.1236
908.598	732.602
908.777	943.98116
908.955	705.12977
909.133	935.52439
909.311	863.64677
909.49	939.75276
909.668	808.68807
909.846	941.86696
910.024	804.46074
910.202	937.63857
910.38	848.84961
910.559	867.8746
910.737	825.5978
910.915	791.77895
911.093	798.1198
911.271	874.21642
911.449	802.34708
911.627	939.75276
911.805	779.09752
911.983	895.35635
912.161	804.46074
912.339	998.95292
912.517	719.92228
912.695	1034.89837
912.872	785.43819
913.05	975.69508
913.228	939.75276
913.406	1024.326
913.584	905.92662
913.762	975.69508
913.939	838.28047
914.117	895.35635
914.295	738.94201
914.473	975.69508
914.65	846.73576
914.828	812.91545
915.006	694.56402
915.184	939.75276
915.361	764.30296
915.539	876.33038
915.716	734.71533
915.894	935.52439
916.072	664.98142
916.249	741.05536
916.427	711.46935
916.604	762.18949
916.782	690.3378
916.959	817.14286
917.137	800.23344
917.314	855.19119
917.492	745.2821
917.669	757.96258
917.847	643.8524
918.024	614.27381
918.201	654.41676
918.379	732.602
918.556	643.8524
918.733	711.46935
918.911	612.16115
919.088	681.88549
919.265	612.16115
919.442	770.64342
919.62	622.72459
919.797	703.0166
919.974	544.56279
920.151	764.30296
920.328	567.79819
920.506	846.73576
920.683	686.11162
920.86	671.32036
921.037	660.75553
921.214	614.27381
921.391	493.87323
921.568	586.81018
921.745	610.0485
921.922	688.2247
922.099	593.14775
922.276	694.56402
922.453	567.79819
922.63	601.59802
922.807	502.32091
922.984	591.03522
923.161	500.20897
923.338	622.72459
923.514	538.22615
923.691	555.12413
923.868	534.00179
924.045	635.40113
924.222	443.19213
924.399	540.33835
924.575	462.19651
924.752	479.09034
924.929	502.32091
925.105	597.37286
925.282	485.42577
925.459	580.47273
925.635	519.21698
925.812	426.3004
925.989	377.74241
926.165	426.3004
926.342	436.85761
926.518	550.89955
926.695	390.40887
926.871	434.74613
927.048	369.29844
927.224	350.30049
927.401	422.07762
927.577	466.41988
927.754	398.85351
927.93	432.63468
928.107	424.189
928.283	341.85741
928.459	219.46535
928.636	343.96815
928.812	280.65356
928.988	365.07655
929.165	354.52214
929.341	373.52039
929.517	432.63468
929.693	320.75093
929.87	305.97745
930.046	426.3004
930.222	384.07557
930.398	343.96815
930.574	305.97745
930.751	333.4146
930.927	251.11241
931.103	356.63299
931.279	297.53586
931.455	348.18969
931.631	318.64038
931.807	297.53586
931.983	314.41933
932.159	265.88252
932.335	308.08789
932.511	354.52214
932.687	213.13647
932.863	234.23344
933.039	221.57502
933.215	236.34324
933.391	196.26033
933.566	293.31517
933.742	158.29377
933.918	335.52528
934.094	240.56291
934.27	158.29377
934.445	200.47924
934.621	181.49477
934.797	213.13647
934.973	187.82274
935.148	208.91732
935.324	156.18471
935.5	120.334
935.675	162.51195
935.851	204.69824
936.027	257.44235
936.202	105.57375
936.378	122.44269
936.553	154.07568
936.729	97.13981
936.904	95.03138
937.08	185.7134
937.255	116.11668
937.431	154.07568
937.606	145.63975
937.782	130.87769
937.957	52.86748
938.133	95.03138
938.308	111.89944
938.483	154.07568
938.659	52.86748
938.834	103.46523
939.009	61.29953
939.185	78.16474
939.36	86.59788
939.535	59.19149
939.71	128.76891
939.886	139.31302
940.061	124.55141
940.236	78.16474
940.411	82.38126
940.586	10.7128
940.761	124.55141
940.937	46.54368
941.112	8.60532
941.287	50.75953
941.462	99.24826
941.637	71.84011
941.812	44.4358
941.987	-6.14641
942.162	92.92297
942.337	103.46523
942.512	88.70622
942.687	19.14299
942.862	57.08346
943.037	65.5157
943.212	114.00805
943.386	27.57355
943.561	95.03138
943.736	44.4358
943.911	61.29953
944.086	44.4358
944.26	19.14299
944.435	29.68125
944.61	44.4358
944.785	36.00449
944.959	86.59788
945.134	-12.46822
945.309	73.9483
945.483	36.00449
945.658	86.59788
945.833	38.11228
946.007	69.73195
946.182	69.73195
946.357	-4.03909
946.531	29.68125
946.706	86.59788
946.88	-1.93175
947.055	69.73195
947.229	31.78897
947.404	130.87769
947.578	23.35822
947.752	73.9483
947.927	122.44269
948.101	25.46587
948.276	29.68125
948.45	137.20416
948.624	86.59788
948.799	86.59788
948.973	-1.93175
949.147	29.68125
949.321	-77.78048
949.496	73.9483
949.67	-25.11117
949.844	88.70622
950.018	61.29953
950.193	17.0354
950.367	80.27299
950.541	-14.57544
950.715	-4.03909
950.889	52.86748
951.063	17.0354
951.237	36.00449
951.411	122.44269
951.585	73.9483
951.759	69.73195
951.933	105.57375
952.107	17.0354
952.281	10.7128
952.455	-6.14641
952.629	80.27299
952.803	50.75953
952.977	57.08346
953.151	61.29953
953.325	63.4076
953.499	36.00449
953.672	-4.03909
953.846	78.16474
954.02	92.92297
954.194	50.75953
954.368	71.84011
954.541	61.29953
954.715	-10.36097
954.889	78.16474
955.062	71.84011
955.236	50.75953
955.41	10.7128
955.583	78.16474
955.757	57.08346
955.93	69.73195
956.104	27.57355
956.278	27.57355
956.451	111.89944
956.625	-63.03467
956.798	54.97546
956.972	-35.64629
957.145	69.73195
957.319	154.07568
957.492	31.78897
957.665	90.81458
957.839	78.16474
958.012	14.92785
958.185	44.4358
958.359	103.46523
958.532	69.73195
958.705	80.27299
958.879	-27.21824
959.052	36.00449
959.225	69.73195
959.398	40.22009
959.572	95.03138
959.745	23.35822
959.918	61.29953
960.091	4.39042
960.264	27.57355
960.438	-1.93175
960.611	63.4076
960.784	116.11668
960.957	36.00449
961.13	19.14299
961.303	57.08346
961.476	23.35822
961.649	4.39042
961.822	88.70622
961.995	69.73195
962.168	27.57355
962.341	73.9483
962.514	40.22009
962.686	61.29953
962.859	4.39042
963.032	78.16474
963.205	-25.11117
963.378	-12.46822
963.551	57.08346
963.723	44.4358
963.896	103.46523
964.069	2.283
964.242	46.54368
964.414	46.54368
964.587	38.11228
964.76	-12.46822
964.932	48.65159
965.105	76.05651
965.278	-10.36097
965.45	46.54368
965.623	50.75953
965.795	12.82031
965.968	12.82031
966.14	86.59788
966.313	25.46587
966.485	2.283
966.658	46.54368
966.83	44.4358
967.003	42.32793
967.175	63.4076
967.348	92.92297
967.52	82.38126
967.692	78.16474
967.865	76.05651
968.037	31.78897
968.209	17.0354
968.382	-4.03909
968.554	86.59788
968.726	-6.14641
968.898	61.29953
969.071	4.39042
969.243	69.73195
969.415	82.38126
969.587	42.32793
969.759	23.35822
969.932	14.92785
970.104	57.08346
970.276	-4.03909
970.448	67.62381
970.62	2.283
970.792	-31.43231
970.964	19.14299
971.136	84.48956
971.308	36.00449
971.48	27.57355
971.652	23.35822
971.824	59.19149
971.996	8.60532
972.168	61.29953
972.339	4.39042
972.511	120.334
972.683	27.57355
972.855	57.08346
973.027	69.73195
973.199	63.4076
973.37	4.39042
973.542	27.57355
973.714	-4.03909
973.886	25.46587
974.057	82.38126
974.229	29.68125
974.401	10.7128
974.572	42.32793
974.744	29.68125
974.915	-46.18078
975.087	19.14299
975.259	-6.14641
975.43	54.97546
975.602	27.57355
975.773	14.92785
975.945	46.54368
976.116	10.7128
976.288	63.4076
976.459	36.00449
976.63	69.73195
976.802	44.4358
976.973	76.05651
977.145	21.25059
977.316	27.57355
977.487	61.29953
977.659	19.14299
977.83	-37.75323
978.001	57.08346
978.172	65.5157
978.344	54.97546
978.515	48.65159
978.686	31.78897
978.857	14.92785
979.028	-14.57544
979.2	-4.03909
979.371	-27.21824
979.542	-10.36097
979.713	52.86748
979.884	69.73195
980.055	78.16474
980.226	36.00449
980.397	27.57355
980.568	78.16474
980.739	48.65159
980.91	-23.00407
981.081	44.4358
981.252	21.25059
981.423	57.08346
981.594	86.59788
981.765	21.25059
981.936	86.59788
982.106	61.29953
982.277	21.25059
982.448	12.82031
982.619	-27.21824
982.79	78.16474
982.96	25.46587
983.131	19.14299
983.302	-27.21824
983.472	19.14299
983.643	27.57355
983.814	-14.57544
983.984	2.283
984.155	10.7128
984.326	52.86748
984.496	12.82031
984.667	99.24826
984.837	50.75953
985.008	46.54368
985.178	-12.46822
985.349	33.89672
985.519	-6.14641
985.69	2.283
985.86	-18.7898
986.031	19.14299
986.201	19.14299
986.371	52.86748
986.542	42.32793
986.712	0.17561
986.882	10.7128
987.053	48.65159
987.223	-10.36097
987.393	63.4076
987.563	90.81458
987.734	4.39042
987.904	-39.86016
988.074	95.03138
988.244	-37.75323
988.414	6.49786
988.585	2.283
988.755	29.68125
988.925	-23.00407
989.095	-16.68263
989.265	71.84011
989.435	-52.50118
989.605	12.82031
989.775	2.283
989.945	27.57355
990.115	0.17561
990.285	71.84011
990.455	44.4358
990.625	-27.21824
990.795	10.7128
990.965	-6.14641
991.134	46.54368
991.304	-6.14641
991.474	-31.43231
991.644	54.97546
991.814	23.35822
991.984	-4.03909
992.153	2.283
992.323	4.39042
992.493	33.89672
992.662	36.00449
992.832	78.16474
993.002	69.73195
993.171	97.13981
993.341	25.46587
993.511	33.89672
993.68	48.65159
993.85	29.68125
994.019	-1.93175
994.189	67.62381
994.358	71.84011
994.528	-6.14641
994.697	-86.2061
994.867	29.68125
995.036	12.82031
995.206	54.97546
995.375	40.22009
995.544	40.22009
995.714	21.25059
995.883	-14.57544
996.052	2.283
996.222	36.00449
996.391	52.86748
996.56	10.7128
996.73	36.00449
996.899	-16.68263
997.068	69.73195
997.237	10.7128
997.406	-1.93175
997.576	52.86748
997.745	2.283
997.914	44.4358
998.083	8.60532
998.252	-63.03467
998.421	36.00449
998.59	6.49786
998.759	12.82031
998.928	52.86748
999.097	-31.43231
999.266	46.54368
999.435	61.29953
999.604	-48.28761
999.773	6.49786
999.942	-52.50118
1000.111	105.57375
1000.28	61.29953
1000.448	-29.32529
1000.617	31.78897
1000.786	10.7128
1000.955	27.57355
1001.124	-1.93175
1001.292	10.7128
1001.461	29.68125
1001.63	14.92785
1001.798	40.22009
1001.967	-18.7898
1002.136	69.73195
1002.304	10.7128
1002.473	-39.86016
1002.642	-23.00407
1002.81	21.25059
1002.979	-46.18078
1003.147	65.5157
1003.316	6.49786
1003.484	-6.14641
1003.653	48.65159
1003.821	69.73195
1003.99	23.35822
1004.158	38.11228
1004.327	86.59788
1004.495	54.97546
1004.663	27.57355
1004.832	-18.7898
1005	19.14299
1005.168	38.11228
1005.337	12.82031
1005.505	86.59788
1005.673	27.57355
1005.842	-44.07393
1006.01	-1.93175
1006.178	-35.64629
1006.346	21.25059
1006.514	31.78897
1006.683	-4.03909
1006.851	-31.43231
1007.019	-27.21824
1007.187	12.82031
1007.355	-6.14641
1007.523	14.92785
1007.691	14.92785
1007.859	21.25059
1008.027	14.92785
1008.195	-1.93175
1008.363	-4.03909
1008.531	-27.21824
1008.699	65.5157
1008.867	19.14299
1009.035	-4.03909
1009.203	-31.43231
1009.37	52.86748
1009.538	23.35822
1009.706	-10.36097
1009.874	40.22009
1010.042	2.283
1010.209	-23.00407
1010.377	-4.03909
1010.545	46.54368
1010.713	0.17561
1010.88	-60.92802
1011.048	23.35822
1011.216	-1.93175
1011.383	4.39042
1011.551	-23.00407
1011.718	29.68125
1011.886	0.17561
1012.054	-14.57544
1012.221	86.59788
1012.389	19.14299
1012.556	12.82031
1012.724	-52.50118
1012.891	27.57355
1013.058	40.22009
1013.226	12.82031
1013.393	-23.00407
1013.561	52.86748
1013.728	-18.7898
1013.895	-20.89695
1014.063	19.14299
1014.23	0.17561
1014.397	-23.00407
1014.565	65.5157
1014.732	54.97546
1014.899	36.00449
1015.066	-39.86016
1015.233	-1.93175
1015.401	6.49786
1015.568	23.35822
1015.735	12.82031
1015.902	36.00449
1016.069	-103.05609
1016.236	78.16474
1016.403	31.78897
1016.57	-27.21824
1016.737	-10.36097
1016.904	-27.21824
1017.071	12.82031
1017.238	27.57355
1017.405	-44.07393
1017.572	-105.16222
1017.739	-39.86016
1017.906	42.32793
1018.073	23.35822
1018.24	-140.96237
1018.407	40.22009
1018.573	50.75953
1018.74	-41.96706
1018.907	-60.92802
1019.074	19.14299
1019.241	48.65159
1019.407	-44.07393
1019.574	4.39042
1019.741	36.00449
1019.907	27.57355
1020.074	-23.00407
1020.241	-1.93175
1020.407	6.49786
1020.574	38.11228
1020.74	122.44269
1020.907	-12.46822
1021.073	-31.43231
1021.24	19.14299
1021.406	21.25059
1021.573	4.39042
1021.739	2.283
1021.906	-48.28761
1022.072	-1.93175
1022.239	14.92785
1022.405	48.65159
1022.571	-54.60793
1022.738	-41.96706
1022.904	-46.18078
1023.07	27.57355
1023.237	-6.14641
1023.403	-12.46822
1023.569	2.283
1023.735	-14.57544
1023.902	63.4076
1024.068	-14.57544
1024.234	-41.96706
1024.4	-46.18078
1024.566	2.283
1024.732	-6.14641
1024.898	-10.36097
1025.065	-1.93175
1025.231	-18.7898
1025.397	-103.05609
1025.563	-6.14641
1025.729	78.16474
1025.895	-4.03909
1026.061	10.7128
1026.227	-37.75323
1026.392	2.283
1026.558	-44.07393
1026.724	31.78897
1026.89	8.60532
1027.056	-23.00407
1027.222	2.283
1027.388	57.08346
1027.553	-4.03909
1027.719	-27.21824
1027.885	124.55141
1028.051	-44.07393
1028.216	-16.68263
1028.382	63.4076
1028.548	31.78897
1028.713	25.46587
1028.879	-4.03909
1029.045	-71.461
1029.21	61.29953
1029.376	-48.28761
1029.541	-31.43231
1029.707	-12.46822
1029.873	12.82031
1030.038	-23.00407
1030.204	29.68125
1030.369	4.39042
1030.534	-29.32529
1030.7	-54.60793
1030.865	-4.03909
1031.031	54.97546
1031.196	-56.71465
1031.361	-6.14641
1031.527	-126.22207
1031.692	14.92785
1031.857	-8.2537
1032.023	-35.64629
1032.188	-35.64629
1032.353	-1.93175
1032.518	19.14299
1032.684	-46.18078
1032.849	0.17561
1033.014	69.73195
1033.179	-20.89695
1033.344	-46.18078
1033.509	12.82031
1033.674	-23.00407
1033.839	-14.57544
1034.004	-10.36097
1034.17	19.14299
1034.335	-46.18078
1034.5	57.08346
1034.664	6.49786
1034.829	86.59788
1034.994	-6.14641
1035.159	-44.07393
1035.324	-35.64629
1035.489	-1.93175
1035.654	8.60532
1035.819	14.92785
1035.984	19.14299
1036.148	-31.43231
1036.313	-46.18078
1036.478	42.32793
1036.643	12.82031
1036.807	31.78897
1036.972	19.14299
1037.137	-48.28761
1037.301	23.35822
1037.466	-14.57544
1037.631	48.65159
1037.795	-46.18078
1037.96	-23.00407
1038.124	44.4358
1038.289	38.11228
1038.454	-46.18078
1038.618	-29.32529
1038.783	4.39042
1038.947	-4.03909
1039.111	-12.46822
1039.276	-23.00407
1039.44	2.283
1039.605	-18.7898
1039.769	-6.14641
1039.933	23.35822
1040.098	-23.00407
1040.262	44.4358
1040.426	12.82031
1040.591	-48.28761
1040.755	12.82031
1040.919	-63.03467
1041.083	-48.28761
1041.248	14.92785
1041.412	40.22009
1041.576	52.86748
1041.74	-25.11117
1041.904	-46.18078
1042.068	69.73195
1042.232	6.49786
1042.397	-8.2537
1042.561	-1.93175
1042.725	29.68125
1042.889	31.78897
1043.053	36.00449
1043.217	-44.07393
1043.381	54.97546
1043.544	-6.14641
1043.708	-71.461
1043.872	-10.36097
1044.036	-14.57544
1044.2	27.57355
1044.364	-20.89695
1044.528	23.35822
1044.691	42.32793
1044.855	12.82031
1045.019	-20.89695
1045.183	0.17561
1045.346	-14.57544
1045.51	-23.00407
1045.674	-56.71465
1045.837	21.25059
1046.001	6.49786
1046.165	-4.03909
1046.328	-31.43231
1046.492	-6.14641
1046.655	27.57355
1046.819	10.7128
1046.983	4.39042
1047.146	-39.86016
1047.31	-44.07393
1047.473	6.49786
1047.636	2.283
1047.8	38.11228
1047.963	-18.7898
1048.127	69.73195
1048.29	-48.28761
