Data from mixed_try1_USB4F045381__0__00225.txt Node

Date: Thu Apr 03 20:22:45 EDT 2025
User: mmckonesweet
Spectrometer: USB4F04538
Trigger mode: 4
Integration Time (sec): 2.700000E-3
Scans to average: 1
Electric dark correction enabled: true
Nonlinearity correction enabled: true
Boxcar width: 0
XAxis mode: Wavelengths
Number of Pixels in Spectrum: 3648
>>>>>Begin Spectral Data<<<<<
345.52	-51.09666
345.736	-51.09666
345.952	-51.09666
346.168	-8.95613
346.384	-25.81353
346.6	3.68794
346.816	-32.13465
347.032	-32.13465
347.248	7.90283
347.464	10.01031
347.68	7.90283
347.896	-4.74153
348.112	7.90283
348.328	-46.88306
348.544	-38.45555
348.76	24.76332
348.975	92.22017
349.191	-6.84884
349.407	20.54805
349.623	12.11781
349.839	18.44046
350.055	41.62532
350.27	1.58054
350.486	-8.95613
350.702	-13.17063
350.918	12.11781
351.133	26.87099
351.349	28.97868
351.565	18.44046
351.781	-25.81353
351.996	43.73317
352.212	-8.95613
352.428	-6.84884
352.644	50.05688
352.859	-17.38502
353.075	7.90283
353.291	10.01031
353.506	24.76332
353.722	28.97868
353.938	-21.59933
354.153	1.58054
354.369	94.32857
354.584	-4.74153
354.8	12.11781
355.016	-44.77622
355.231	-30.02763
355.447	47.94895
355.662	37.40968
355.878	43.73317
356.093	12.11781
356.309	-42.66935
356.524	-23.70644
356.74	-55.31017
356.955	-21.59933
357.171	50.05688
357.386	7.90283
357.602	16.33288
357.817	-30.02763
358.033	-40.56246
358.248	-34.24164
358.464	26.87099
358.679	7.90283
358.895	-17.38502
359.11	24.76332
359.325	16.33288
359.541	33.19413
359.756	37.40968
359.972	-17.38502
360.187	-59.52357
360.402	-25.81353
360.618	10.01031
360.833	-17.38502
361.048	-17.38502
361.264	-25.81353
361.479	-6.84884
361.694	-40.56246
361.909	-51.09666
362.125	75.35377
362.34	7.90283
362.555	-13.17063
362.77	24.76332
362.986	-15.27784
363.201	14.22533
363.416	-76.37618
363.631	3.68794
363.847	50.05688
364.062	-17.38502
364.277	24.76332
364.492	-32.13465
364.707	64.813
364.922	-42.66935
365.138	37.40968
365.353	-23.70644
365.568	-34.24164
365.783	-21.59933
365.998	-13.17063
366.213	33.19413
366.428	-48.98987
366.643	37.40968
366.858	-8.95613
367.073	-17.38502
367.288	-0.52684
367.503	-34.24164
367.718	41.62532
367.933	26.87099
368.148	43.73317
368.363	10.01031
368.578	-55.31017
368.793	37.40968
369.008	18.44046
369.223	33.19413
369.438	-21.59933
369.653	3.68794
369.868	60.59685
370.083	-0.52684
370.298	33.19413
370.513	33.19413
370.728	-67.95008
370.943	37.40968
371.157	1.58054
371.372	26.87099
371.587	-0.52684
371.802	56.38079
372.017	-42.66935
372.232	16.33288
372.446	-76.37618
372.661	50.05688
372.876	-11.06339
373.091	41.62532
373.306	-15.27784
373.52	7.90283
373.735	-2.6342
373.95	26.87099
374.165	26.87099
374.379	28.97868
374.594	-21.59933
374.809	16.33288
375.023	33.19413
375.238	-21.59933
375.453	14.22533
375.667	-34.24164
375.882	26.87099
376.097	-0.52684
376.311	-30.02763
376.526	-25.81353
376.741	20.54805
376.955	18.44046
377.17	-23.70644
377.384	33.19413
377.599	22.65567
377.813	50.05688
378.028	-51.09666
378.242	-23.70644
378.457	41.62532
378.672	-38.45555
378.886	-27.92059
379.101	85.8951
379.315	7.90283
379.53	5.79537
379.744	-8.95613
379.958	83.78679
380.173	-27.92059
380.387	-15.27784
380.602	-0.52684
380.816	-8.95613
381.031	-27.92059
381.245	-67.95008
381.459	24.76332
381.674	41.62532
381.888	16.33288
382.103	7.90283
382.317	52.16483
382.531	16.33288
382.746	1.58054
382.96	-65.84349
383.174	-0.52684
383.388	-8.95613
383.603	-21.59933
383.817	-13.17063
384.031	35.30189
384.246	3.68794
384.46	33.19413
384.674	-6.84884
384.888	26.87099
385.103	35.30189
385.317	-15.27784
385.531	12.11781
385.745	-40.56246
385.959	-19.49219
386.174	18.44046
386.388	-6.84884
386.602	-17.38502
386.816	26.87099
387.03	1.58054
387.244	41.62532
387.458	20.54805
387.672	88.00344
387.887	-0.52684
388.101	-46.88306
388.315	28.97868
388.529	33.19413
388.743	7.90283
388.957	-21.59933
389.171	-34.24164
389.385	-0.52684
389.599	16.33288
389.813	-15.27784
390.027	-51.09666
390.241	117.52244
390.455	54.2728
390.669	-46.88306
390.883	18.44046
391.097	50.05688
391.311	60.59685
391.525	12.11781
391.738	12.11781
391.952	-17.38502
392.166	35.30189
392.38	56.38079
392.594	35.30189
392.808	33.19413
393.022	41.62532
393.236	5.79537
393.449	18.44046
393.663	83.78679
393.877	24.76332
394.091	-21.59933
394.305	33.19413
394.518	12.11781
394.732	50.05688
394.946	-23.70644
395.16	41.62532
395.373	52.16483
395.587	-19.49219
395.801	45.84105
396.015	1.58054
396.228	-38.45555
396.442	50.05688
396.656	-8.95613
396.869	33.19413
397.083	5.79537
397.297	16.33288
397.51	92.22017
397.724	-46.88306
397.938	-55.31017
398.151	-25.81353
398.365	-11.06339
398.578	7.90283
398.792	138.61006
399.005	-19.49219
399.219	37.40968
399.433	83.78679
399.646	26.87099
399.86	12.11781
400.073	-4.74153
400.287	18.44046
400.5	-19.49219
400.714	26.87099
400.927	16.33288
401.141	35.30189
401.354	41.62532
401.567	-15.27784
401.781	10.01031
401.994	33.19413
402.208	7.90283
402.421	-2.6342
402.635	-48.98987
402.848	79.57023
403.061	71.13739
403.275	104.87091
403.488	100.65391
403.701	1.58054
403.915	41.62532
404.128	28.97868
404.341	33.19413
404.555	100.65391
404.768	22.65567
404.981	7.90283
405.195	60.59685
405.408	7.90283
405.621	24.76332
405.834	16.33288
406.048	56.38079
406.261	-19.49219
406.474	56.38079
406.687	16.33288
406.9	41.62532
407.114	-38.45555
407.327	58.48881
407.54	-21.59933
407.753	20.54805
407.966	85.8951
408.179	104.87091
408.392	-4.74153
408.605	-17.38502
408.819	12.11781
409.032	60.59685
409.245	7.90283
409.458	43.73317
409.671	35.30189
409.884	-8.95613
410.097	81.6785
410.31	5.79537
410.523	54.2728
410.736	96.437
410.949	3.68794
411.162	10.01031
411.375	18.44046
411.588	24.76332
411.801	28.97868
412.014	20.54805
412.227	-4.74153
412.44	92.22017
412.653	-4.74153
412.865	28.97868
413.078	64.813
413.291	3.68794
413.504	35.30189
413.717	104.87091
413.93	50.05688
414.143	-27.92059
414.356	-4.74153
414.568	26.87099
414.781	92.22017
414.994	75.35377
415.207	7.90283
415.42	-32.13465
415.632	79.57023
415.845	60.59685
416.058	35.30189
416.271	41.62532
416.483	83.78679
416.696	66.92111
416.909	117.52244
417.121	-38.45555
417.334	-4.74153
417.547	24.76332
417.759	83.78679
417.972	62.70491
418.185	-0.52684
418.397	85.8951
418.61	26.87099
418.823	50.05688
419.035	75.35377
419.248	104.87091
419.46	77.46199
419.673	77.46199
419.885	37.40968
420.098	83.78679
420.311	83.78679
420.523	60.59685
420.736	94.32857
420.948	119.63111
421.161	125.95723
421.373	123.8485
421.586	92.22017
421.798	37.40968
422.01	52.16483
422.223	98.54544
422.435	153.37267
422.648	12.11781
422.86	96.437
423.073	92.22017
423.285	121.73979
423.497	41.62532
423.71	43.73317
423.922	96.437
424.134	71.13739
424.347	33.19413
424.559	96.437
424.771	85.8951
424.984	100.65391
425.196	50.05688
425.408	119.63111
425.621	128.06598
425.833	125.95723
426.045	121.73979
426.257	142.82785
426.47	109.088
426.682	201.88557
426.894	172.35468
427.106	153.37267
427.318	96.437
427.531	136.50121
427.743	130.17476
427.955	121.73979
428.167	159.69982
428.379	130.17476
428.591	142.82785
428.804	144.93677
429.016	161.80891
429.228	41.62532
429.44	136.50121
429.652	144.93677
429.864	62.70491
430.076	155.4817
430.288	151.26366
430.5	151.26366
430.712	159.69982
430.924	123.8485
431.136	147.04571
431.348	96.437
431.56	96.437
431.772	140.71894
431.984	109.088
432.196	174.4639
432.408	155.4817
432.62	134.39237
432.832	216.6525
433.044	237.74979
433.256	138.61006
433.468	136.50121
433.679	163.91802
433.891	170.24549
434.103	235.63997
434.315	142.82785
434.527	193.44776
434.739	290.50142
434.95	248.29916
435.162	201.88557
435.374	214.54287
435.586	136.50121
435.798	269.39935
436.009	246.18925
436.221	279.95016
436.433	296.83241
436.645	311.60534
436.856	216.6525
437.068	235.63997
437.28	277.83996
437.491	244.07936
437.703	303.16355
437.915	248.29916
438.126	328.48976
438.338	298.94277
438.55	324.26855
438.761	311.60534
438.973	379.14977
439.184	273.61962
439.396	374.92772
439.608	320.04741
439.819	309.49486
440.031	244.07936
440.242	231.42039
440.454	258.84902
440.665	347.4861
440.877	398.14978
441.088	362.262
441.3	391.8163
441.511	370.70575
441.723	379.14977
441.934	358.04023
442.146	347.4861
442.357	406.59467
442.569	370.70575
442.78	396.03861
442.991	370.70575
443.203	402.37219
443.414	455.15771
443.626	417.15113
443.837	355.92937
444.048	450.9345
444.26	379.14977
444.471	400.26098
444.682	387.59405
444.894	455.15771
445.105	355.92937
445.316	590.33104
445.528	482.61001
445.739	493.16926
445.95	379.14977
446.161	507.95283
446.373	535.4099
446.584	491.05738
446.795	564.98169
447.006	507.95283
447.217	472.05113
447.429	457.26933
447.64	467.82768
447.851	573.43126
448.062	609.34428
448.273	581.88105
448.484	491.05738
448.695	573.43126
448.907	493.16926
449.118	689.63343
449.329	548.0832
449.54	564.98169
449.751	507.95283
449.962	577.65613
450.173	524.84921
450.384	524.84921
450.595	744.57764
450.806	805.86985
451.017	666.39007
451.228	668.50304
451.439	617.79494
451.65	676.95506
451.861	702.31221
452.072	702.31221
452.283	676.95506
452.494	810.0972
452.705	700.19905
452.915	837.57587
453.126	767.82543
453.337	862.94213
453.548	875.62572
453.759	932.70549
453.97	846.03115
454.181	869.28389
454.391	886.19561
454.602	1004.59131
454.813	1029.96458
455.024	1048.99509
455.235	818.55201
455.445	947.50485
455.656	1110.31863
455.867	903.10786
456.078	981.33327
456.288	981.33327
456.499	1059.5678
456.71	1038.42252
456.921	1040.53703
457.131	1292.19514
457.342	1063.79692
457.553	1080.71362
457.763	974.99031
457.974	1332.37996
458.184	1182.22019
458.395	1296.42509
458.606	1156.84262
458.816	1387.37061
459.027	1374.68039
459.237	1370.45033
459.448	1556.57412
459.659	1431.78658
459.869	1467.74247
460.08	1605.21917
460.29	1581.95425
460.501	1605.21917
460.711	1429.67153
460.922	1469.85752
461.132	1598.87421
461.343	1581.95425
461.553	1706.73558
461.764	1782.86827
461.974	1681.35705
462.184	1689.81661
462.395	1751.14689
462.605	1973.17452
462.816	1708.85044
463.026	1861.11025
463.236	1968.94597
463.447	1958.3745
463.657	1924.54479
463.867	2184.56659
464.078	2064.08198
464.288	2167.65802
464.498	2269.10121
464.709	2231.06237
464.919	2176.11237
465.129	2442.34984
465.339	2501.49184
465.55	2461.36071
465.76	2281.78017
465.97	2714.74901
466.18	2571.1835
466.391	2689.41816
466.601	2664.08545
466.811	2638.75093
467.021	2714.74901
467.231	3092.36234
467.441	2585.96494
467.651	2978.49495
467.862	3071.2792
468.072	3105.01148
468.282	3149.27891
468.492	3142.95543
468.702	3273.61079
468.912	3446.31264
469.122	3172.46378
469.332	3656.76106
469.542	3501.04691
469.752	3463.15525
469.962	3808.16695
470.172	3604.16635
470.382	3547.35092
470.592	3942.66441
470.802	3608.37436
471.012	3913.2501
471.222	4049.7828
471.432	4003.58139
471.642	3902.74403
471.852	4121.16526
472.062	4249.173
472.272	4278.54067
472.482	4410.64293
472.691	4613.8686
472.901	4555.22691
473.111	4559.41618
473.321	4898.4487
473.531	5002.96772
473.741	4875.44682
473.95	5132.49118
474.16	4898.4487
474.37	5184.69314
474.58	5309.91837
474.79	5512.18739
474.999	5410.03788
475.209	5193.0441
475.419	5407.95261
475.628	5782.92215
475.838	5691.33348
476.048	5774.59779
476.258	5805.81217
476.467	6223.57317
476.677	6248.48407
476.886	6381.28534
477.096	6281.69337
477.306	6292.07004
477.515	6236.02904
477.725	6468.38425
477.935	6418.61847
478.144	6609.31473
478.354	6634.17372
478.563	7103.80355
478.773	6692.16513
478.982	7118.26704
479.192	7060.40652
479.401	7178.17557
479.611	7357.7896
479.82	7401.11984
480.03	7662.96165
480.239	7405.24603
480.449	7456.81606
480.658	8035.5499
480.868	7938.86554
481.077	8103.40786
481.287	8037.60652
481.496	8384.88933
481.705	8271.93025
481.915	8723.41933
482.124	8561.39933
482.333	8530.62285
482.543	8567.55412
482.752	8881.22716
482.961	8877.12961
483.171	9186.29654
483.38	8825.90417
483.589	9092.15523
483.799	9272.22026
484.008	9333.57627
484.217	9347.89053
484.426	9936.14615
484.636	9603.36848
484.845	9725.91021
485.054	9787.16037
485.263	9905.53906
485.472	9764.70356
485.682	9852.47894
485.891	10072.81807
486.1	9844.31495
486.309	10150.30514
486.518	10594.46
486.727	10270.57443
486.936	10567.99095
487.146	10439.68763
487.355	10684.03206
487.564	10869.20944
487.773	11202.69793
487.982	11090.89004
488.191	11123.4193
488.4	11099.02261
488.609	11172.20805
488.818	11450.59686
489.027	11566.3685
489.236	11399.81
489.445	11791.73298
489.654	11513.5642
489.863	12027.1361
490.072	11917.56564
490.281	11911.4777
490.49	12000.76016
490.698	12055.53948
490.907	11935.82901
491.116	12453.03441
491.325	12207.67489
491.534	12353.68616
491.743	12763.14564
491.952	12742.88123
492.16	12649.65743
492.369	12728.6958
492.578	12785.43584
492.787	13012.35315
492.996	13046.79028
493.204	13443.73468
493.413	13287.81207
493.622	13597.60996
493.831	13413.36201
494.039	13656.32015
494.248	13435.63539
494.457	13630.00214
494.665	13757.53816
494.874	13668.46673
495.083	13970.07189
495.291	13848.62783
495.5	13970.07189
495.709	13929.59161
495.917	13935.66372
496.126	14271.62067
496.335	14352.56577
496.543	14652.04182
496.752	14421.36702
496.96	14641.92482
497.169	14575.15199
497.377	14425.41409
497.586	14443.62586
497.794	14817.95728
498.003	14716.79
498.211	14866.51695
498.42	14933.28597
498.628	14844.26048
498.837	14973.7518
499.045	15006.12435
499.254	15123.47434
499.462	15341.98798
499.671	15394.5935
499.879	15534.20202
500.087	15513.96873
500.296	15528.13203
500.504	15675.83706
500.713	15629.2994
500.921	15544.31869
501.129	15734.51565
501.338	15762.84354
501.546	15807.35922
501.754	16086.60747
501.962	16019.82835
502.171	16173.6252
502.379	16543.99346
502.587	16123.03314
502.795	16426.60194
503.004	16116.96216
503.212	16535.89727
503.42	16556.13781
503.628	16709.97327
503.837	16535.89727
504.045	16475.17689
504.253	16969.09587
504.461	16944.80135
504.669	16936.70326
504.877	17070.32718
505.085	17124.99494
505.294	16936.70326
505.502	16799.04205
505.71	17248.5112
505.918	16975.16956
506.126	17372.0384
506.334	16967.07131
506.542	17710.27878
506.75	16958.97311
506.958	17469.2481
507.166	17621.15282
507.374	17850.05756
507.582	17690.02232
507.79	17783.20482
507.998	17963.51325
508.206	17874.36857
508.414	17848.03166
508.622	18056.71726
508.83	17872.34264
509.037	18364.75042
509.245	17805.48865
509.453	18350.5628
509.661	18283.68078
509.869	18522.85365
510.077	18466.09597
510.285	18123.58568
510.492	18399.20684
510.7	18573.53269
510.908	18281.65411
511.116	18532.98926
511.324	18626.24147
511.531	18650.56949
511.739	18506.63686
511.947	18735.722
512.155	18788.43894
512.362	18966.8855
512.57	18650.56949
512.778	18768.16288
512.985	19019.6143
513.193	18853.32502
513.401	19056.12045
513.608	19376.62019
513.816	19106.82563
514.024	19303.58591
514.231	19064.23311
514.439	19449.65984
514.646	19532.85043
514.854	19540.96696
515.061	19542.99611
515.269	19616.04803
515.477	19664.75233
515.684	19843.35538
515.892	19680.98763
516.099	19782.46433
516.307	19737.81329
516.514	20005.75
516.722	20265.63739
516.929	20237.20885
517.136	19857.56383
517.344	20017.93068
517.551	19747.96107
517.759	19950.93881
517.966	20153.95858
518.173	20515.43777
518.381	20426.071
518.588	20405.7615
518.796	20359.05124
519.003	20633.25179
519.21	20700.29017
519.418	20541.84314
519.625	20537.78073
519.832	20927.84805
520.039	20964.42468
520.247	20919.72009
520.454	20860.79435
520.661	21102.61507
520.868	21171.71734
521.076	21169.68485
521.283	20982.7135
521.49	21427.84302
521.697	21374.98646
521.904	21440.04107
522.112	21108.71214
522.319	21712.50135
522.526	21527.46462
522.733	22070.46569
522.94	21541.69706
523.147	21712.50135
523.354	21464.4376
523.561	22052.15783
523.768	21738.93781
523.975	21883.33315
524.183	21893.50256
524.39	22060.29462
524.597	22145.73454
524.804	22001.30426
525.011	21982.99756
525.218	22119.28814
525.425	22033.85027
525.632	21982.99756
525.838	22170.14716
526.045	22235.25009
526.252	22054.19202
526.459	22304.42611
526.666	22343.08515
526.873	22902.76831
527.08	22544.54026
527.287	23018.80814
527.494	22609.66458
527.701	23242.77512
527.907	22847.80591
528.114	23063.59835
528.321	22847.80591
528.528	22719.57005
528.735	23489.18379
528.941	23067.67027
529.148	22906.8397
529.355	23226.48528
529.562	23037.13121
529.768	23499.36696
529.975	22800.98806
530.182	23246.84762
530.388	23246.84762
530.595	23676.56626
530.802	23383.2835
531.008	23800.82302
531.215	23914.9044
531.422	24171.62009
531.628	24075.85588
531.835	24179.77052
532.042	24104.38075
532.248	24359.0908
532.455	23935.27702
532.661	24438.56884
532.868	24110.49329
533.074	24446.72066
533.281	24375.39366
533.487	24416.15156
533.694	24499.70848
533.9	25209.08853
534.107	24438.56884
534.313	24815.63253
534.52	24701.48541
534.726	24797.28695
534.933	24793.21018
535.139	25105.11009
535.345	25182.58368
535.552	25096.95516
535.758	25308.99471
535.965	24927.74859
536.171	24844.17049
536.377	25349.77422
536.584	25592.42945
536.79	25686.23658
536.996	25643.41107
537.203	25453.76577
537.409	25048.02635
537.615	25439.4921
537.821	25604.66493
538.028	26081.90201
538.234	25547.56665
538.44	25671.96131
538.646	25610.78269
538.853	25790.24493
539.059	25627.09682
539.265	26147.17294
539.471	26010.51398
539.677	25620.979
539.883	25894.2582
540.09	26141.05372
540.296	26479.67362
540.502	26867.30413
540.708	26173.68977
540.914	26644.91993
541.12	26867.30413
541.326	26928.51383
541.532	26861.18323
541.738	26455.19356
541.944	26861.18323
542.15	26812.2165
542.356	26855.06234
542.562	27052.97748
542.768	27077.46274
542.974	26963.1999
543.18	27336.61027
543.386	27246.82446
543.592	27728.43149
543.798	27601.90093
544.004	27057.05834
544.21	27387.62605
544.415	27605.98249
544.621	28050.90073
544.827	27752.92181
545.033	28087.63954
545.239	27765.16703
545.445	28061.10592
545.651	27701.90051
545.856	28001.91622
546.062	27740.67663
546.268	27732.5132
546.474	27659.04319
546.679	27077.46274
546.885	27250.90558
547.091	27467.21226
547.297	27552.92261
547.502	27981.5062
547.708	27879.4578
547.914	28210.10483
548.119	28475.45976
548.325	28581.6068
548.531	28018.24432
548.736	28455.0472
548.942	28375.43923
549.147	28428.51103
549.353	28924.56277
549.559	28634.68139
549.764	28718.37737
549.97	28528.53292
550.175	28522.40906
550.381	28904.1479
550.586	28655.09488
550.792	29083.80231
550.997	29036.8464
551.203	28859.23555
551.408	28579.56548
551.614	29147.09157
551.819	29089.92703
552.025	29602.39554
552.23	28889.85755
552.435	29171.5909
552.641	29655.48374
552.846	29377.7996
553.052	29735.11741
553.257	29765.74618
553.462	30198.65973
553.668	30029.16391
553.873	29675.90247
554.078	29971.98639
554.283	29780.03969
554.489	30341.61432
554.694	29653.44188
554.899	29951.56606
555.105	30147.60593
555.31	30247.67208
555.515	30059.7951
555.72	30643.88101
555.925	29986.28069
556.131	30402.88238
556.336	30123.10037
556.541	30411.05154
556.746	30180.28028
556.951	30290.55844
557.156	30231.33455
557.361	30190.49108
557.567	30670.4328
557.772	30386.54412
557.977	30276.26292
558.182	30590.77809
558.387	30723.53705
558.592	30911.45172
558.797	31099.37826
559.002	31219.90292
559.207	30807.2802
559.412	30251.75647
559.617	30496.82891
559.822	31097.33552
560.027	30502.95594
560.232	30907.36649
560.437	30766.4296
560.642	30991.11474
560.847	30770.51464
561.051	31221.94576
561.256	31301.61758
561.461	31411.93637
561.666	31510.00149
561.871	31697.9705
562.076	31113.67753
562.281	31673.45197
562.485	31289.36023
562.69	31273.01717
562.895	31195.38901
563.1	31093.25003
563.305	30811.36529
563.509	31113.67753
563.714	31436.4523
563.919	31675.49517
564.123	31258.71708
564.328	31646.89052
564.533	31922.73584
564.737	31450.75336
564.942	32049.4318
565.147	32180.22271
565.351	31836.91372
565.556	31653.02006
565.761	31957.47431
565.965	32202.70324
566.17	31734.74877
566.374	31728.61902
566.579	31871.65084
566.784	32053.51889
566.988	32112.78261
567.193	32605.35336
567.397	32247.66505
567.602	32427.52264
567.806	32106.6518
568.011	32505.1937
568.215	32229.27146
568.42	32161.82973
568.624	32593.08861
568.828	32458.18188
569.033	32370.2934
569.237	32568.55936
569.442	32480.66564
569.646	32006.51781
569.85	32607.39749
570.055	32691.20899
570.259	33067.39024
570.463	32879.28877
570.668	32717.78421
570.872	33053.07738
571.076	33218.70585
571.281	33523.42973
571.485	32832.26684
571.689	32642.14811
571.893	32668.72258
572.098	33028.54136
572.302	33026.49671
572.506	33051.0327
572.71	32948.80194
572.914	33466.16111
573.119	33271.87444
573.323	33091.92688
573.527	32991.73805
573.731	33523.42973
573.935	33494.79512
574.139	32758.66997
574.343	32977.42588
574.547	33527.52044
574.751	33699.3416
574.955	33601.15534
575.159	33509.11235
575.364	33441.61815
575.568	33474.34219
575.772	33815.94757
575.976	33490.70451
576.18	33572.51906
576.383	33672.74876
576.587	33950.97872
576.791	33746.39184
576.995	33918.24252
577.199	34057.3776
577.403	34135.13677
577.607	34376.63384
577.811	34186.29702
578.015	33877.32351
578.219	33989.85412
578.422	34192.4364
578.626	34382.77429
578.83	34648.89534
579.034	34131.04406
579.238	33877.32351
579.442	34900.75219
579.645	34958.09478
579.849	34657.08479
580.053	34837.26985
580.257	34863.89096
580.46	34861.84316
580.664	35044.11535
580.868	35205.93824
581.071	34700.08047
581.275	34687.7958
581.479	35160.87067
581.682	34921.23128
581.886	35093.27362
582.09	35070.74241
582.293	34910.99168
582.497	34861.84316
582.7	35074.83896
582.904	34921.23128
583.107	34667.32169
583.311	34906.89587
583.515	35181.35564
583.718	35226.42428
583.922	35642.39864
584.125	35242.81345
584.329	35027.72985
584.532	34976.52708
584.735	35855.59235
584.939	35623.95192
585.142	34896.65643
585.346	35179.30712
585.549	35539.92231
585.753	35990.91945
585.956	35900.69865
586.159	35972.4643
586.363	36066.79553
586.566	35992.97005
586.769	35164.96763
586.973	35671.09438
587.176	35937.60583
587.379	36196.00835
587.582	36421.67534
587.786	36175.49681
587.989	35980.66653
588.192	35908.90009
588.395	36243.18717
588.599	36304.72957
588.802	36518.1196
589.005	36390.89819
589.208	36764.42476
589.411	36356.0191
589.615	36259.59794
589.818	35970.41376
590.021	36327.29649
590.224	36520.17175
590.427	36530.43264
590.63	36669.99665
590.833	36647.41808
591.036	36899.93335
591.239	37183.36681
591.442	36895.82659
591.645	37199.80188
591.848	36969.75241
592.051	37281.9842
592.254	36877.34653
592.457	37158.71507
592.66	36982.07424
592.863	37150.49806
593.066	36879.39984
593.269	36809.59102
593.472	36982.07424
593.675	37701.30003
593.878	37499.82452
594.081	37318.97006
594.284	37563.54855
594.486	37446.38419
594.689	37824.6895
594.892	37148.44382
595.095	37553.26998
595.298	37450.49481
595.5	37370.34328
595.703	37775.33028
595.906	38026.28794
596.109	37617.00021
596.311	37553.26998
596.514	37249.10987
596.717	37592.32957
596.92	37976.90964
597.122	37837.03002
597.325	37697.18754
597.528	37483.3808
597.73	38075.671
597.933	37668.40098
598.136	38217.67416
598.338	38355.60006
598.541	38413.25223
598.743	38755.19011
598.946	37407.33488
599.148	38081.84422
599.351	38192.97507
599.554	38711.91918
599.756	37878.16719
599.959	38876.78256
600.161	38456.49586
600.363	38409.13399
600.566	38685.13443
600.768	38730.46337
600.971	38627.44941
601.173	38759.31137
601.376	38598.60956
601.578	38341.18808
601.78	38652.17069
601.983	38540.93512
602.185	38911.82367
602.388	38569.77146
602.59	38335.01165
602.792	38565.65188
602.995	38582.13043
603.197	38442.08089
603.399	39268.5746
603.601	39025.21059
603.804	38843.80515
604.006	38893.27216
604.208	38753.1295
604.41	38749.00831
604.613	39619.42459
604.815	39567.81079
605.017	39520.33169
605.219	39311.89932
605.421	38619.20927
605.623	39421.26204
605.826	39576.06857
606.028	38464.73318
606.23	38983.97568
606.432	38961.29809
606.634	39596.71373
606.836	38911.82367
607.038	39043.76753
607.24	39004.59266
607.442	39105.62961
607.644	38817.01276
607.846	39142.751
608.048	39031.39615
608.25	38687.19474
608.452	39208.75231
608.654	39021.08692
608.856	38606.84934
609.058	39287.14181
609.26	39689.62961
609.462	39404.75267
609.664	40363.3888
609.866	39468.73003
610.067	39842.47
610.269	39749.51975
610.471	39371.73585
610.673	39613.2306
610.875	39834.2069
611.077	39512.075
611.278	39881.72201
611.48	39227.31697
611.682	39260.32276
611.884	39774.30443
612.085	39386.1804
612.287	40042.90174
612.489	39278.88962
612.69	39660.72023
612.892	39730.93223
613.094	39629.74812
613.295	39340.78489
613.497	39394.43464
613.699	39332.53167
613.9	39161.31287
614.102	39553.36006
614.304	39363.48204
614.505	39223.19142
614.707	39582.26201
614.908	39400.62543
615.11	39724.73657
615.311	39602.90748
615.513	38920.06903
615.714	39210.81501
615.916	39662.78512
616.117	39452.21882
616.319	39784.63181
616.52	39291.26796
616.722	39892.05211
616.923	39377.92631
617.124	39179.87552
617.326	39033.45802
617.527	39743.32382
617.729	39530.65278
617.93	39732.99747
618.131	39454.28269
618.333	39105.62961
618.534	39906.5147
618.735	39982.96841
618.937	40113.17985
619.138	40024.30078
619.339	40013.96729
619.54	39722.67137
619.742	39815.61554
619.943	39419.19833
620.144	39836.27266
620.345	40543.3907
620.546	40319.95263
620.748	40278.58936
620.949	40262.04528
621.15	39960.23741
621.351	39241.7567
621.552	39947.83923
621.753	39753.65043
621.954	39724.73657
622.155	39027.27243
622.356	39547.16704
622.558	40183.47041
622.759	40189.67312
622.96	40030.50101
623.161	40162.79542
623.362	39549.23137
623.563	40032.56777
623.764	40340.63592
623.965	40237.23046
624.166	40233.09481
624.366	40241.36615
624.567	39838.33843
624.768	40148.32357
624.969	39250.00818
625.17	40245.50189
625.371	40140.05418
625.572	39660.72023
625.773	39474.9219
625.973	40195.87592
626.174	39590.52008
626.375	39770.17354
626.576	39392.37107
626.777	39433.64448
626.977	39200.50161
627.178	39716.47584
627.379	39338.72157
627.58	39681.36958
627.78	39563.68196
627.981	39910.64696
628.182	40109.0455
628.382	40276.52131
628.583	40497.86501
628.784	40390.28029
628.984	39850.73327
629.185	39817.6812
629.386	39415.07095
629.586	40005.70069
629.787	39551.29571
629.987	40175.20028
630.188	40011.90062
630.388	40444.06889
630.589	39741.25853
630.79	39788.76284
630.99	40065.63742
631.191	40276.52131
631.391	40038.76812
631.591	40011.90062
631.792	39995.36767
631.992	40644.80838
632.193	40272.38525
632.393	40365.45731
632.594	39974.70244
632.794	40018.10065
632.994	40144.18885
633.195	40332.36247
633.395	40688.28141
633.595	40001.56745
633.796	40158.66055
633.996	40324.0892
634.196	40355.11487
634.397	41048.68125
634.597	40479.24242
634.797	40787.6672
634.997	40522.69653
635.198	40239.2983
635.398	39871.39216
635.598	40580.64303
635.798	40580.64303
635.998	40129.71769
636.199	41003.09407
636.399	40588.92182
636.599	40642.73836
636.799	40609.61959
636.999	40109.0455
637.199	40299.27045
637.399	40475.10419
637.599	40924.36587
637.799	40034.63454
637.999	40870.50888
638.199	40878.79406
638.399	40961.65608
638.599	40537.18233
638.799	40661.36894
638.999	40961.65608
639.199	41148.16393
639.399	40729.68896
639.599	40551.66868
639.799	40208.28183
639.999	40812.51777
640.199	40545.46018
640.399	40897.4364
640.599	39877.59004
640.799	41465.44781
640.998	41260.11452
641.198	41036.24782
641.398	40686.21115
641.598	41129.50886
641.798	41386.61907
641.997	41442.62717
642.197	40899.50783
642.397	41069.40457
642.597	40727.61848
642.796	40849.79673
642.996	40655.15865
643.196	40588.92182
643.395	40766.95966
643.595	41274.62917
643.795	41079.76668
643.994	41258.04105
644.194	41608.629
644.394	41870.24106
644.593	41096.34665
644.793	41504.86874
644.992	40947.15388
645.192	40858.08145
645.392	41075.6218
645.591	41177.18484
645.791	41166.81996
645.99	40996.87807
646.19	40847.72558
646.389	40439.93104
646.589	40746.25326
646.788	40746.25326
646.987	40959.5843
647.187	41048.68125
647.386	40655.15865
647.586	41664.67225
647.785	41945.02354
647.984	42015.66634
648.184	41969.95464
648.383	40920.22275
648.582	40785.5964
648.782	40814.58873
648.981	40669.6495
649.18	41253.89413
649.38	41009.31017
649.579	41293.29173
649.778	41760.17399
649.977	42144.52302
650.177	41297.4391
650.376	41183.4039
650.575	40864.29511
650.774	40994.8061
650.973	41504.86874
651.173	41079.76668
651.372	41237.30696
651.571	41540.14381
651.77	41399.06456
651.969	41380.39649
652.168	41419.80799
652.367	42188.17905
652.566	42215.20702
652.765	41861.93289
652.964	41185.47695
653.163	41343.06329
653.362	41803.7813
653.561	41567.12123
653.76	41699.96333
653.959	41789.24492
654.158	41801.70464
654.357	41013.45429
654.556	41226.94036
654.755	42100.87257
654.954	41878.54942
655.153	41434.32912
655.352	42188.17905
655.551	42196.49512
655.749	42198.57416
655.948	41994.88754
656.147	42504.3335
656.346	42573.01159
656.545	41874.39522
656.743	42088.40204
656.942	42111.26503
657.141	41951.25614
657.34	41517.31836
657.538	41766.40327
657.737	41814.1648
657.936	41982.42086
658.135	41032.10344
658.333	41199.9886
658.532	41824.54861
658.731	41571.27179
658.929	41260.11452
659.128	41197.91547
659.326	41282.92352
659.525	41498.64409
659.724	41239.38031
659.922	41519.39334
660.121	40934.72389
660.319	41575.4224
660.518	41284.99714
660.716	41226.94036
660.915	41444.70172
661.113	42200.65323
661.312	41486.19512
661.51	41737.33424
661.709	41565.04597
661.907	41592.02531
662.105	41668.82395
662.304	42235.99922
662.502	41708.26763
662.701	42009.43256
662.899	41724.87683
663.097	41399.06456
663.296	41372.09989
663.494	41386.61907
663.692	41438.47812
663.891	41947.10106
664.089	41650.14166
664.287	41799.62799
664.485	41716.57213
664.684	42238.07852
664.882	41776.78565
665.08	41249.74727
665.278	41173.03885
665.476	41193.76925
665.675	41324.39814
665.873	41654.29319
666.071	41845.31716
666.269	41556.74506
666.467	41307.80772
666.665	41235.23362
666.863	41003.09407
667.061	41598.2516
667.259	41780.93869
667.457	42140.36559
667.655	41490.34473
667.853	41758.09759
668.051	41158.52827
668.249	41434.32912
668.447	41303.66024
668.645	40833.22785
668.843	41040.39225
669.041	41098.4192
669.239	41009.31017
669.437	41233.16029
669.635	41517.31836
669.833	41423.95683
670.031	41162.67409
670.229	41517.31836
670.426	41498.64409
670.624	41851.54796
670.822	41013.45429
671.02	40967.87148
671.218	40922.29431
671.415	40845.65444
671.613	40833.22785
671.811	41206.20806
672.009	41679.20344
672.206	41423.95683
672.404	41517.31836
672.602	41044.53673
672.799	40624.10869
672.997	40675.86003
673.195	40690.35168
673.392	40893.29358
673.59	40928.50904
673.788	40744.18268
673.985	40311.67963
674.183	40851.8679
674.38	40375.80003
674.578	41042.46448
674.775	40398.55497
674.973	40657.22874
675.17	40431.65547
675.368	39951.97192
675.565	40158.66055
675.763	40439.93104
675.96	40506.142
676.158	40495.79579
676.355	40468.89693
676.553	41876.47231
676.75	40897.4364
676.947	41394.91601
677.145	41104.63692
677.342	41088.05657
677.539	41193.76925
677.737	41262.18801
677.934	40777.31329
678.131	40725.548
678.329	40309.6114
678.526	40001.56745
678.723	40723.47754
678.92	41011.38222
679.118	41372.09989
679.315	41065.25982
679.512	41156.45538
679.709	40986.51831
679.906	40516.4885
680.104	40262.04528
680.301	40735.90049
680.498	40450.27575
680.695	40158.66055
680.892	40603.41014
681.089	40319.95263
681.286	40272.38525
681.483	40177.2678
681.68	40423.38008
681.877	40241.36615
682.075	40001.56745
682.272	39291.26796
682.469	39532.71703
682.665	39351.10163
682.862	39130.37686
683.059	39646.26629
683.256	39194.31368
683.453	39621.48928
683.65	39920.97781
683.847	39856.93082
684.044	39712.34554
684.241	39540.97412
684.438	40241.36615
684.635	39516.20333
684.831	40359.25181
685.028	40057.36975
685.225	40053.23598
685.422	39528.58854
685.619	39629.74812
685.815	39510.01085
686.012	39609.10132
686.209	38955.11349
686.405	39320.15214
686.602	39087.07009
686.799	39029.33429
686.996	39264.44866
687.192	39462.53825
687.389	39435.70826
687.586	39155.12549
687.782	39163.37535
687.979	39214.94045
688.175	38994.28405
688.372	38905.63975
688.568	39113.87854
688.765	38713.97961
688.962	38835.56117
689.158	38895.3334
689.355	39766.0427
689.551	39260.32276
689.748	39047.89141
689.944	38961.29809
690.14	39285.07875
690.337	38998.40746
690.533	38777.85745
690.73	38446.19941
690.926	38759.31137
691.123	38026.28794
691.319	38153.87068
691.515	38600.66949
691.712	38287.66158
691.908	38662.47161
692.104	38238.25767
692.301	38779.91818
692.497	37892.56597
692.693	37954.2795
692.889	37943.9934
693.086	38450.31796
693.282	38514.16008
693.478	38705.73795
693.674	38444.14014
693.87	38674.83301
694.067	38586.25016
694.263	38190.91687
694.459	38944.80602
694.655	39076.75957
694.851	38658.35122
695.047	38018.05789
695.243	37839.0868
695.439	37062.17233
695.635	37682.79407
695.831	38059.20945
696.027	37804.1226
696.224	37645.78404
696.42	37579.99466
696.615	38013.94292
696.811	37296.36731
697.007	37175.14945
697.203	37520.37986
697.399	37487.49168
697.595	37195.69307
697.791	37134.06437
697.987	37678.68172
698.183	38120.94302
698.379	37654.00827
698.575	38053.0365
698.77	37902.85105
698.966	37923.42182
699.162	37740.37027
699.358	36988.23526
699.554	36721.31454
699.749	37121.7394
699.945	37495.71354
700.141	37390.89387
700.337	37323.07975
700.532	37670.45711
700.728	36787.00749
700.924	37107.36059
701.119	37171.04081
701.315	37076.55004
701.511	36573.53009
701.706	37676.62555
701.902	37027.25647
702.097	37388.83877
702.293	37545.04727
702.489	37670.45711
702.684	37598.49712
702.88	37670.45711
703.075	37134.06437
703.271	36973.85966
703.466	36743.89572
703.662	36758.26598
703.857	36612.52548
704.053	37271.71077
704.248	36980.02059
704.443	37697.18754
704.639	37621.11209
704.834	36731.57861
705.03	37016.98749
705.225	36501.70256
705.42	36598.15849
705.616	36748.00147
705.811	36329.34806
706.006	36196.00835
706.202	36633.05031
706.397	36649.47064
706.592	36040.13546
706.787	36419.62349
706.983	36464.76573
707.178	37197.74747
707.373	36526.32826
707.568	36581.73946
707.763	36370.38086
707.959	37095.03618
708.154	37298.42206
708.349	36789.0605
708.544	37058.06448
708.739	36821.90966
708.934	36216.52049
709.129	36924.57446
709.324	36341.65764
709.519	36858.86702
709.714	36132.42451
709.909	36600.2109
710.104	36152.9348
710.299	35927.35365
710.494	35898.6483
710.689	35913.00084
710.884	35968.36322
711.079	36208.31556
711.274	35874.0446
711.469	36399.10529
711.664	35904.79936
711.859	36222.67425
712.054	36148.8327
712.249	35666.99492
712.443	35433.36073
712.638	36023.72976
712.833	35771.53778
713.028	35884.29604
713.223	35302.22682
713.417	35300.17801
713.612	35144.48303
713.807	35917.10162
714.002	35564.51543
714.196	35447.70475
714.391	35070.74241
714.586	35470.24586
714.78	35203.88967
714.975	35369.84018
715.17	35574.76279
715.364	35203.88967
715.559	35640.34898
715.754	35326.81287
715.948	35445.65559
716.143	35175.2101
716.337	34577.24057
716.532	35681.34311
716.726	35560.41653
716.921	35205.93824
717.115	34800.41109
717.31	35017.48907
717.504	35029.77802
717.699	34906.89587
717.893	34624.32742
718.088	35138.33775
718.282	34960.14279
718.476	34581.33499
718.671	34896.65643
718.865	34693.93812
719.059	35074.83896
719.254	35015.44093
719.448	34743.07804
719.642	34204.71527
719.837	34028.7308
720.031	34083.97883
720.225	33932.5645
720.419	34712.3653
720.614	34319.32464
720.808	34435.99304
721.002	33785.26074
721.196	33838.45173
721.39	34008.26923
721.585	34227.22689
721.779	34474.88537
721.973	34329.5582
722.167	34131.04406
722.361	34374.58703
722.555	34659.13216
722.749	34413.47709
722.943	34051.23894
723.137	34059.42383
723.331	34053.28516
723.525	34045.10032
723.719	33560.24656
723.913	33787.30651
724.107	33619.5647
724.301	33961.20896
724.495	34124.905
724.689	34255.87869
724.883	34145.36864
725.077	34067.60877
725.271	34116.71965
725.465	33727.98067
725.659	33547.97417
725.853	33402.75935
726.046	33410.94006
726.24	33208.48134
726.434	33136.91174
726.628	33398.66901
726.822	33261.64956
727.015	33492.74981
727.209	32521.54591
727.403	33341.40555
727.596	33126.68779
727.79	33744.34614
727.984	34053.28516
728.177	34579.28778
728.371	34294.76448
728.565	33654.33864
728.758	34112.627
728.952	33400.71418
729.146	33711.61541
729.339	33924.38049
729.533	33637.97432
729.726	33541.83802
729.92	33312.77469
730.113	33599.10987
730.307	33394.57869
730.5	33216.66094
730.694	33394.57869
730.887	33181.89794
731.081	33474.34219
731.274	33390.48838
731.468	33271.87444
731.661	33462.07059
731.854	33093.97162
732.048	33257.55963
732.241	33259.60459
732.435	33451.84433
732.628	32801.60108
732.821	32864.9776
733.014	33020.36277
733.208	32815.9117
733.401	33136.91174
733.594	33108.28486
733.788	33390.48838
733.981	33685.02231
734.174	33682.97671
734.367	33785.26074
734.56	33998.03858
734.754	33623.6557
734.947	33188.03253
735.14	32897.68902
735.333	32840.44447
735.526	32916.08948
735.719	32758.66997
735.912	32762.7586
736.105	32813.86732
736.298	32445.91812
736.491	32537.89828
736.684	32012.64833
736.877	32014.69184
737.07	32390.73221
737.263	32640.10394
737.456	33075.56908
737.649	33046.94334
737.842	33183.9428
738.035	32979.47047
738.228	32155.69878
738.421	32051.47534
738.614	32462.26981
738.807	33175.76338
739	32840.44447
739.192	32394.82
739.385	33051.0327
739.578	33067.39024
739.771	32979.47047
739.964	32629.88311
740.156	32725.96128
740.349	32071.9109
740.542	32480.66564
740.735	31708.18663
740.927	32490.88562
741.12	32108.6954
741.313	32368.24953
741.505	32556.29487
741.698	32468.40174
741.891	32613.5299
742.083	32817.95608
742.276	32881.33323
742.468	32789.33494
742.661	32443.87417
742.854	32016.73535
743.046	32327.3726
743.239	31953.38741
743.431	32961.06928
743.624	32390.73221
743.816	32394.82
744.009	32752.53704
744.201	32593.08861
744.393	32517.45785
744.586	32507.23772
744.778	32176.13537
744.971	31759.26795
745.163	32141.39329
745.355	31661.1928
745.548	31503.87231
745.74	31597.85476
745.932	31655.06324
746.125	31855.30389
746.317	31796.04719
746.509	32080.08518
746.702	32127.0879
746.894	31896.1715
747.086	31136.14794
747.278	31413.97936
747.471	31162.70413
747.663	31554.94928
747.855	31467.09753
748.047	31248.50277
748.239	31736.79203
748.431	31315.91791
748.623	32120.95705
748.815	31389.46365
749.008	31579.4666
749.2	31221.94576
749.392	30933.92056
749.584	30431.47452
749.776	30721.49456
749.968	30888.98305
750.16	31025.84033
750.352	30766.4296
750.544	30944.13372
750.736	30543.80316
750.928	30762.34457
751.12	31215.81726
751.311	30987.02941
751.503	31583.55285
751.695	30746.0045
751.887	30701.06976
752.079	31620.32936
752.271	30897.15345
752.463	31170.87531
752.654	30413.09383
752.846	30517.25241
753.038	30535.63368
753.23	31215.81726
753.421	30776.6422
753.613	30427.38992
753.805	30809.32275
753.997	30264.00967
754.188	30598.94772
754.38	30615.28703
754.572	30351.82559
754.763	30439.64375
754.955	30525.42185
755.146	30609.15978
755.338	30666.3479
755.53	30329.36084
755.721	30090.42654
755.913	30278.30514
756.104	29688.15377
756.296	29810.66883
756.487	29777.99776
756.679	30243.58769
756.87	29455.38584
757.062	29661.60935
757.253	29671.81872
757.445	29065.42819
757.636	28975.60039
757.827	29189.9655
758.019	29771.87197
758.21	29312.465
758.401	29263.46475
758.593	29547.26626
758.784	29285.92312
758.975	29040.9295
759.167	29065.42819
759.358	29275.71476
759.549	29347.17388
759.74	29343.09046
759.932	28973.55888
760.123	28726.54293
760.314	29061.34507
760.505	28904.1479
760.696	28991.93257
760.888	29132.80036
761.079	28355.02719
761.27	28283.5859
761.461	28344.82121
761.652	28712.25322
761.843	28685.71532
762.034	29147.09157
762.225	28181.52924
762.416	28446.8822
762.607	28126.41978
762.798	28714.2946
762.989	29294.08984
763.18	29179.75738
763.371	28373.39802
763.562	28397.89259
763.753	27897.8263
763.944	28516.28521
764.135	27836.59833
764.326	28303.99756
764.517	28312.16226
764.708	28181.52924
764.899	28126.41978
765.089	27844.762
765.28	28044.77763
765.471	27824.35287
765.662	27852.92569
765.853	27669.24727
766.043	27493.74142
766.234	27914.15394
766.425	27308.04178
766.615	27491.70071
766.806	27340.6915
766.997	27338.65089
767.187	27044.81577
767.378	27350.89461
767.569	26855.06234
767.759	26977.48251
767.95	27006.04795
768.141	27169.28421
768.331	27189.68935
768.522	26797.9347
768.712	27010.12875
768.903	26893.82817
769.093	26734.68758
769.284	27077.46274
769.474	26838.74004
769.665	26720.40617
769.855	26887.70722
770.046	26869.34443
770.236	26296.07884
770.426	26118.61669
770.617	26342.99625
770.807	26306.2782
770.998	26230.80391
771.188	26577.59613
771.378	26226.72428
771.569	26373.59503
771.759	26265.481
771.949	25902.4163
772.139	26573.51595
772.33	25794.32379
772.52	26124.73586
772.71	25990.11781
772.9	26277.72009
773.09	26410.31404
773.281	26261.40132
773.471	26181.84885
773.661	26287.91938
773.851	26053.34654
774.041	26100.25928
774.231	25519.0181
774.421	25402.78884
774.611	25784.12665
774.802	25722.94484
774.992	25447.64847
775.182	25492.50909
775.372	25457.84398
775.562	25559.80186
775.752	25882.02109
775.942	25427.25761
776.131	25647.48965
776.321	25376.28136
776.511	25578.15482
776.701	25070.4519
776.891	24697.40886
777.081	25072.4906
777.271	24833.9783
777.461	24946.09552
777.651	24587.34595
777.84	24811.55572
778.03	25170.35079
778.22	24750.40467
778.41	25137.73016
778.599	24901.24779
778.789	24842.13204
778.979	24854.36272
779.169	24619.95643
779.358	24634.22372
779.548	24791.1718
779.738	24522.12692
779.927	24505.82257
780.117	24206.2597
780.307	24371.31793
780.496	24179.77052
780.686	24342.7881
780.875	23904.71819
781.065	24059.55619
781.254	23804.89719
781.444	23753.97081
781.633	23921.01615
781.823	23727.48983
782.012	23927.12794
782.202	24004.54609
782.391	24385.58304
782.581	24674.98806
782.77	24456.91049
782.96	24595.49851
783.149	23764.15594
783.338	23635.82875
783.528	23489.18379
783.717	23595.09246
783.906	23533.99029
784.096	23265.17399
784.285	23483.07393
784.474	23265.17399
784.663	23228.5215
784.853	23291.64588
785.042	23240.73888
785.231	23291.64588
785.42	23259.06517
785.61	23564.54103
785.799	23090.06605
785.988	23346.62768
786.177	22827.4501
786.366	23409.75778
786.555	22725.67621
786.744	22658.51019
786.933	22526.22471
787.122	22483.48953
787.312	22570.99658
787.501	22839.66355
787.69	22800.98806
787.879	23104.31812
788.068	22835.59239
788.257	22644.26335
788.445	22326.8075
788.634	22941.44704
788.823	22656.47492
789.012	22522.15462
789.201	22709.39319
789.39	22320.70344
789.579	22117.25383
789.768	22699.21641
789.957	22945.51855
790.145	22701.25176
790.334	22568.96146
790.523	22121.32246
790.712	22145.73454
790.9	21745.03863
791.089	21507.13291
791.278	21747.07224
791.467	21387.18389
791.655	21808.08244
791.844	22074.53415
792.033	22103.01375
792.221	21816.2174
792.41	22137.59712
792.599	21623.02898
792.787	22039.95276
792.976	21844.69023
793.164	21974.86135
793.353	21641.32953
793.541	22202.69815
793.73	21649.46321
793.918	21887.4009
794.107	21633.19591
794.295	21582.36223
794.484	21017.25994
794.672	21466.47067
794.861	21899.60426
795.049	21677.93158
795.238	21149.36021
795.426	21236.75906
795.614	21250.98749
795.803	21391.24973
795.991	21039.61416
796.179	21232.69384
796.368	21200.17258
796.556	21458.33841
796.744	20850.63509
796.932	20984.74561
797.121	20862.82622
797.309	20834.3805
797.497	21122.93878
797.685	21080.25946
797.874	20805.93558
798.062	20854.69879
798.25	20472.78444
798.438	20893.30467
798.626	20602.7813
798.814	20560.12419
799.002	20836.41231
799.19	20742.95331
799.378	20517.46893
799.566	20395.60691
799.755	20034.17183
799.943	20036.20199
800.131	20095.07852
800.318	20109.29062
800.506	20413.88525
800.694	20549.96801
800.882	20460.59811
801.07	20629.18901
801.258	20074.77587
801.446	20200.65908
801.634	20251.42302
801.822	20527.62478
802.01	20336.71234
802.197	20588.56206
802.385	20413.88525
802.573	20042.2925
802.761	20312.3432
802.949	20194.56759
803.136	20574.34303
803.324	20212.84219
803.512	20513.40662
803.699	20399.66873
803.887	20304.22029
804.075	20710.4479
804.262	20091.01795
804.45	20340.77392
804.638	19997.62963
804.825	19881.92166
805.013	19642.42923
805.201	20034.17183
805.388	20206.75061
805.576	20389.5142
805.763	20868.92183
805.951	20442.3189
806.138	20558.09295
806.326	20720.60572
806.513	20320.46618
806.701	20604.81264
806.888	20352.95876
807.075	20655.59741
807.263	20243.30061
807.45	20531.68714
807.638	20172.23243
807.825	20614.96939
808.012	20415.91619
808.2	20606.84398
808.387	20612.93803
808.574	20267.66803
808.761	20160.04983
808.949	20580.43687
809.136	20679.97503
809.323	20635.28319
809.51	20409.82336
809.698	20523.56242
809.885	20198.62858
810.072	20395.60691
810.259	20401.69965
810.446	20521.53125
810.633	20489.03311
810.82	20919.72009
811.008	20673.88057
811.195	20647.47168
811.382	20653.56597
811.569	20747.01657
811.756	20292.03605
811.943	20438.2569
812.13	20080.86662
812.317	19924.54933
812.504	19845.38514
812.691	20249.39241
812.878	20631.2204
813.064	20645.44025
813.251	20566.21795
813.438	20722.6373
813.625	20495.12643
813.812	20633.25179
813.999	20704.35325
814.186	20698.25864
814.372	19717.51803
814.559	20095.07852
814.746	20135.68508
814.933	20074.77587
815.12	20017.93068
815.306	19790.58291
815.493	19555.17105
815.68	20363.11291
815.866	19703.3116
816.053	20131.62435
816.24	19885.98136
816.426	20003.7199
816.613	19506.47217
816.799	20019.96081
816.986	19916.42963
817.173	20367.1746
817.359	20275.79064
817.546	20095.07852
817.732	19904.25021
817.919	20091.01795
818.105	19496.32687
818.292	19409.08159
818.478	19687.07593
818.665	19833.20661
818.851	19863.65323
819.037	19918.45955
819.224	19849.44469
819.41	20019.96081
819.597	20103.1997
819.783	19754.04979
819.969	19912.36981
820.156	19715.48853
820.342	20093.04823
820.528	19944.84886
820.714	19808.84998
820.901	19699.25266
821.087	19650.54666
821.273	19788.55326
821.459	19551.11272
821.646	19892.07094
821.832	19528.79219
822.018	19579.52139
822.204	19216.35752
822.39	19553.14188
822.576	19226.49996
822.762	19169.70359
822.948	18991.22153
823.134	19009.47393
823.32	18634.35075
823.507	19019.6143
823.693	19275.18513
823.879	19295.47132
824.065	18841.15857
824.25	18660.70633
824.436	19011.502
824.622	18796.54948
824.808	18630.29611
824.994	18504.60978
825.18	18405.2875
825.366	18715.44696
825.552	18334.3486
825.738	18453.934
825.923	18198.56407
826.109	18658.67896
826.295	18429.61048
826.481	18828.99226
826.667	18796.54948
826.852	18607.99583
827.038	18470.14999
827.224	18735.722
827.409	18614.07768
827.595	18918.21518
827.781	18557.31514
827.966	18883.74177
828.152	18591.77774
828.338	18612.05039
828.523	18180.32562
828.709	18403.26061
828.894	18091.16414
829.08	18020.24523
829.266	18196.53756
829.451	18504.60978
829.637	17961.48716
829.822	18188.43156
830.008	17979.7221
830.193	17811.56613
830.378	17521.90637
830.564	17981.74823
830.749	17864.23892
830.935	18172.21974
831.12	17758.89565
831.305	17854.10936
831.491	17702.17615
831.676	17807.51448
831.861	17617.1018
832.047	17641.40816
832.232	17384.18923
832.417	17631.28045
832.602	17493.55165
832.788	17367.98815
832.973	17716.35578
833.158	17815.6178
833.343	17493.55165
833.528	17874.36857
833.714	17937.17435
833.899	17973.64376
834.084	17860.18709
834.269	17726.48419
834.454	17572.54135
834.639	17856.13527
834.824	17560.38877
835.009	17487.47572
835.194	17242.43638
835.379	17643.43371
835.564	17329.51138
835.749	17428.74319
835.934	17578.61768
836.119	17291.0357
836.304	17048.05571
836.489	17017.68605
836.674	16851.67584
836.859	17033.88313
837.044	17382.16408
837.228	17248.5112
837.413	17303.1858
837.598	17740.6641
837.783	17102.72264
837.968	16936.70326
838.152	16635.07806
838.337	16948.85041
838.522	16495.41681
838.707	16871.92005
838.891	16497.44081
839.076	16323.38395
839.261	16325.40778
839.445	16220.17081
839.63	15987.45117
839.815	16262.66977
839.999	15649.53311
840.184	16365.88486
840.368	16145.29352
840.553	16386.12369
840.737	16446.84136
840.922	16562.21002
841.106	16084.58383
841.291	16135.17514
841.475	16315.28863
841.66	16400.29099
841.844	16359.81325
842.029	16519.70498
842.213	16165.5304
842.397	16094.70202
842.582	15868.06328
842.766	16191.83859
842.951	15698.09436
843.135	15783.07788
843.319	15641.43962
843.504	15552.41203
843.688	15764.86697
843.872	15690.00078
844.056	15821.5234
844.241	15902.46272
844.425	15738.56248
844.609	15855.92238
844.793	15898.41571
844.977	15880.20422
845.161	15657.62662
845.346	15886.2747
845.53	15528.13203
845.714	15868.06328
845.898	15657.62662
846.082	15414.82647
846.266	15058.7296
846.45	14856.40038
846.634	14973.7518
846.818	15212.49825
847.002	14803.79398
847.186	15040.52011
847.37	14625.73758
847.554	15046.58994
847.738	14577.17543
847.922	14751.1871
848.106	14983.86823
848.29	14909.00639
848.473	14941.37915
848.657	14824.02726
848.841	14864.49364
849.025	14900.91318
849.209	14593.36288
849.392	14785.58396
849.576	14382.91949
849.76	14492.19001
849.944	14441.60234
850.127	14737.02362
850.311	14544.80029
850.495	14953.5189
850.678	14803.79398
850.862	15305.5689
851.046	14882.70343
851.229	14957.56548
851.413	14732.9769
851.596	14710.7199
851.78	14732.9769
851.964	14668.22895
852.147	14690.48617
852.331	14275.66799
852.514	14101.62602
852.698	14154.24496
852.881	13816.24107
853.065	14172.45887
853.248	14136.03088
853.431	14318.16444
853.615	13840.53121
853.798	13814.21688
853.982	13342.48898
854.165	13439.68504
854.348	13423.48633
854.532	13573.31525
854.715	13563.1923
854.898	13856.72441
855.081	14022.69476
855.265	14148.17362
855.448	13743.36811
855.631	13858.74855
855.814	13421.46147
855.997	13316.16344
856.181	13259.45987
856.364	13559.1431
856.547	13429.56088
856.73	13615.83067
856.913	13172.37273
857.096	13387.03831
857.279	13067.04676
857.462	13018.43039
857.645	12793.5412
857.828	13306.03805
858.011	13273.63607
858.194	13332.36385
858.377	13038.68756
858.56	13281.73667
858.743	13054.89293
858.926	13014.3789
859.109	12706.40383
859.292	12562.50195
859.475	12929.29289
859.658	13210.85411
859.841	13056.91858
860.023	12973.86288
860.206	12631.41652
860.389	12609.12141
860.572	12469.25301
860.755	12550.3398
860.937	12382.07302
861.12	12552.36684
861.303	12493.58013
861.486	12446.95232
861.668	12292.85259
861.851	12378.01784
862.034	12426.67828
862.216	12641.55042
862.399	12298.93623
862.581	12142.76896
862.764	11982.4991
862.947	12238.09696
863.129	11816.09022
863.312	11759.25474
863.494	11351.04883
863.677	11747.07483
863.859	11708.50303
864.042	11710.5332
864.224	11584.64545
864.406	11818.11993
864.589	11507.47099
864.771	11688.2008
864.954	11791.73298
865.136	11856.68289
865.318	11893.21344
865.501	11665.86732
865.683	11647.59367
865.865	11889.15462
866.048	11694.29156
866.23	11793.7628
866.412	11576.52245
866.594	11509.50207
866.777	11210.82816
866.959	11314.47419
867.141	11125.45228
867.323	11241.31506
867.505	11017.68906
867.687	11044.12438
867.869	11048.19119
868.052	11294.15354
868.234	10830.55409
868.416	11619.16653
868.598	11444.50276
868.78	11696.3218
868.962	11464.8161
869.144	11680.07966
869.326	11214.89322
869.508	11231.15302
869.69	11027.85671
869.872	11111.22115
870.054	11322.60217
870.236	11442.47137
870.417	11416.06246
870.599	11556.21432
870.781	11180.33891
870.963	11107.15501
871.145	10940.40581
871.327	10934.30381
871.508	10854.96848
871.69	10944.47375
871.872	10944.47375
872.054	11168.14255
872.235	10791.89452
872.417	11003.45388
872.599	11007.52113
872.78	11206.76306
872.962	11162.04423
873.144	11019.72261
873.325	10783.75513
873.507	11074.62438
873.689	10624.9986
873.87	11200.66534
874.052	10850.89953
874.233	10875.31254
874.415	10879.38121
874.596	10903.79228
874.778	10563.9186
874.959	10517.08297
875.141	10417.28024
875.322	10677.92562
875.503	10830.55409
875.685	10883.44984
875.866	10698.27998
876.048	10867.17505
876.229	10268.53636
876.41	10555.77375
876.592	10364.31105
876.773	10690.13838
876.954	10486.53439
877.136	10773.58061
877.317	10936.33782
877.498	10956.67731
877.679	10897.68967
877.86	10977.01568
878.042	10867.17505
878.223	11042.09096
878.404	10382.64754
878.585	10641.28472
878.766	10667.74799
878.947	10889.55269
879.128	10647.39182
879.309	10795.96415
879.49	10708.4567
879.672	10960.74507
879.853	10500.79075
880.034	10899.72388
880.215	10586.3159
880.396	10993.28556
880.576	10749.16058
880.757	11174.24078
880.938	10606.67578
881.119	11129.51823
881.3	10814.27689
881.481	11035.99063
881.662	10641.28472
881.843	10946.50771
882.023	10523.19235
882.204	10773.58061
882.385	10572.06325
882.566	10594.46
882.747	10574.09938
882.927	10895.65544
883.108	10767.47577
883.289	11107.15501
883.469	10578.1716
883.65	10920.06541
883.831	10708.4567
884.011	10749.16058
884.192	10769.51073
884.373	10846.83053
884.553	10793.92934
884.734	10987.18444
884.914	10840.72695
885.095	10854.96848
885.275	10891.58695
885.456	10970.91428
885.636	10797.99895
885.817	10804.10326
885.997	10480.42432
886.178	10936.33782
886.358	10732.8796
886.538	10720.66837
886.719	10702.3507
886.899	10804.10326
887.08	10905.82646
887.26	11074.62438
887.44	10889.55269
887.621	11003.45388
887.801	10582.24378
887.981	11021.75615
888.161	10859.03738
888.342	10557.80998
888.522	10545.59241
888.702	10765.44079
888.882	10757.30078
889.062	11021.75615
889.242	11101.05573
889.423	11060.39135
889.603	10692.1738
889.783	10985.15071
889.963	10828.51948
890.143	11401.84159
890.323	10924.13358
890.503	11168.14255
890.683	11139.6829
890.863	10893.6212
891.043	11033.95717
891.223	11050.22458
891.403	10913.96307
891.583	11220.99072
891.763	10618.89111
891.943	10940.40581
892.122	10614.81938
892.302	11147.81444
892.482	10769.51073
892.662	10787.82485
892.842	10431.53967
893.022	10822.41558
893.201	10651.46315
893.381	10610.7476
893.561	10525.22878
893.741	10859.03738
893.92	10993.28556
894.1	11208.79562
894.28	10942.43979
894.459	10938.37182
894.639	10736.94992
894.819	10846.83053
894.998	10492.64433
895.178	10563.9186
895.357	10447.83538
895.537	10529.30161
895.716	10651.46315
895.896	10753.2307
896.075	10443.76153
896.255	10602.6039
896.434	10272.61249
896.614	10423.3915
896.793	10038.14621
896.973	10170.69313
897.152	10174.77057
897.331	10215.54186
897.511	10221.65708
897.69	10189.04114
897.87	10142.14956
898.049	10093.21137
898.228	9993.27062
898.407	10219.61868
898.587	9805.53277
898.766	10366.34849
898.945	9966.74996
899.124	10280.76457
899.304	10180.88661
899.483	10460.05662
899.662	10182.92526
899.841	10396.90852
900.02	10197.19545
900.199	10260.38396
900.378	10189.04114
900.557	10217.58028
900.737	9966.74996
900.916	9970.83022
901.095	9748.37019
901.274	9842.27392
901.453	9991.23066
901.632	9940.22685
901.811	9558.42247
901.989	9905.53906
902.168	9668.73099
902.347	9976.9505
902.526	9870.84704
902.705	9709.57452
902.884	9821.86277
903.063	9823.90395
903.242	9795.32603
903.42	9870.84704
903.599	9680.9847
903.778	9650.34939
903.957	9059.4019
904.135	9566.59504
904.314	9517.55582
904.493	9574.76735
904.672	9399.0063
904.85	9476.68279
905.029	9454.19989
905.207	9652.39186
905.386	9384.69492
905.565	9680.9847
905.743	9448.06786
905.922	9421.49401
906.1	9227.2163
906.279	9533.90324
906.457	9000.02513
906.636	9625.83864
906.814	8997.97739
906.993	8993.88186
907.171	8961.11511
907.35	9141.27696
907.528	8633.19468
907.707	8987.73844
907.885	8801.31196
908.063	8854.5918
908.242	8838.1993
908.42	8821.80565
908.598	8924.24711
908.777	8879.17839
908.955	9071.68492
909.133	9266.08384
909.311	8883.2759
909.49	9364.24869
909.668	8838.1993
909.846	9051.21287
910.024	8551.14098
910.202	8725.46947
910.38	8337.65907
910.559	8200.0163
910.737	8039.66313
910.915	8378.72944
911.093	8179.46501
911.271	8594.22291
911.449	8117.79915
911.627	8255.49491
911.805	8017.03936
911.983	8181.52022
912.161	7984.12766
912.339	8345.87377
912.517	7957.38306
912.695	8058.17166
912.872	8043.77628
913.05	8436.21497
913.228	8165.07791
913.406	8265.76714
913.584	7905.9414
913.762	8101.35188
913.939	7627.93197
914.117	7722.70404
914.295	7580.52909
914.473	7794.78337
914.65	7483.62713
914.828	7526.92961
915.006	7625.87121
915.184	7928.57731
915.361	7500.12443
915.539	7821.54917
915.716	7217.41587
915.894	7634.11412
916.072	7555.79267
916.249	7403.18295
916.427	7248.38941
916.604	7450.62837
916.782	7376.36088
916.959	7401.11984
917.137	7425.87567
917.314	7460.94108
917.492	6990.1237
917.669	7116.20089
917.847	6973.58278
918.024	7231.87081
918.201	6745.99818
918.379	7359.85316
918.556	6766.69908
918.733	6892.92514
918.911	6596.88399
919.088	6946.70072
919.265	6758.41899
919.442	6870.16932
919.62	6540.93536
919.797	6646.60197
919.974	6561.65904
920.151	6679.73992
920.328	6416.5446
920.506	6619.67304
920.683	6489.11604
920.86	6543.00783
921.037	6217.34491
921.214	6555.44218
921.391	6277.54253
921.568	6348.09399
921.745	6130.12719
921.922	6333.5709
922.099	6182.04749
922.276	6397.87877
922.453	6148.82019
922.63	6265.08947
922.807	6032.47725
922.984	6032.47725
923.161	5990.90831
923.338	6206.96402
923.514	5791.24612
923.691	6061.5699
923.868	5816.21579
924.045	5945.17159
924.222	5772.51665
924.399	5710.07124
924.575	5583.03343
924.752	5591.36647
924.929	5401.69665
925.105	5762.11055
925.282	5291.13995
925.459	5859.90452
925.635	5760.02926
925.812	5755.86661
925.989	5457.99264
926.165	5495.51378
926.342	5224.35689
926.518	5220.18215
926.695	5159.63801
926.871	5199.30708
927.048	5247.31627
927.224	5184.69314
927.401	4875.44682
927.577	5261.9253
927.754	4988.33852
927.93	5115.78348
928.107	4775.04263
928.283	4754.1185
928.459	4710.17045
928.636	4841.98459
928.812	4917.26636
928.988	4559.41618
929.165	4404.3543
929.341	4839.893
929.517	4569.88897
929.693	4752.02596
929.87	4517.51947
930.046	4580.3612
930.222	4257.56419
930.398	4387.58366
930.574	4077.07893
930.751	4532.18433
930.927	3969.97414
931.103	4465.13615
931.279	4257.56419
931.455	4339.36031
931.631	3969.97414
931.807	4284.8332
931.983	3942.66441
932.159	4328.87546
932.335	4035.08343
932.511	4230.29157
932.687	3837.59524
932.863	4074.97935
933.039	3864.91804
933.215	4161.04495
933.391	4026.68334
933.566	4041.38328
933.742	3755.60685
933.918	3766.11985
934.094	3526.30474
934.27	3682.00231
934.445	3094.47057
934.621	3336.80796
934.797	2976.38587
934.973	3168.2485
935.148	2786.50944
935.324	3145.06327
935.5	2885.68162
935.675	2873.02308
935.851	2716.85983
936.027	2771.7365
936.202	2687.30717
936.378	2683.08515
936.553	2467.69747
936.729	2419.11315
936.904	2239.5157
937.08	2205.70155
937.255	2121.15678
937.431	2061.968
937.606	1719.42468
937.782	1954.14587
937.957	1761.72078
938.133	1795.55657
938.308	1696.16125
938.483	1776.52406
938.659	1484.66287
938.834	1613.67908
939.009	1203.36858
939.185	1260.47082
939.36	1142.0393
939.535	1243.55141
939.71	1275.27544
939.886	1319.68995
940.061	1165.30175
940.236	1237.20668
940.411	1051.10962
940.586	1258.35589
940.761	1116.66268
940.937	1266.81564
941.112	974.99031
941.287	1068.02606
941.462	900.9938
941.637	996.13375
941.812	890.42363
941.987	947.50485
942.162	687.52034
942.337	780.50655
942.512	691.74653
942.687	761.485
942.862	626.24581
943.037	700.19905
943.212	645.26097
943.386	708.65175
943.561	590.33104
943.736	693.85964
943.911	666.39007
944.086	704.42538
944.26	628.35855
944.435	657.93829
944.61	554.42003
944.785	641.03529
944.959	529.07344
945.134	676.95506
945.309	497.39307
945.483	670.61603
945.658	598.78124
945.833	662.16415
946.007	514.28887
946.182	657.93829
946.357	594.55612
946.531	643.14812
946.706	556.53234
946.88	668.50304
947.055	505.84085
947.229	636.80966
947.404	600.89382
947.578	636.80966
947.752	581.88105
947.927	772.05243
948.101	649.48669
948.276	776.27947
948.45	592.44357
948.624	818.55201
948.799	634.69687
948.973	744.57764
949.147	668.50304
949.321	649.48669
949.496	605.11903
949.67	837.57587
949.844	712.87816
950.018	634.69687
950.193	653.71246
950.367	674.84204
950.541	592.44357
950.715	734.01088
950.889	712.87816
951.063	877.73969
951.237	666.39007
951.411	704.42538
951.585	700.19905
951.759	734.01088
951.933	702.31221
952.107	803.75619
952.281	795.30164
952.455	755.14466
952.629	750.91783
952.803	970.7617
952.977	812.21088
953.151	873.51177
953.325	624.13307
953.499	915.79237
953.672	795.30164
953.846	894.65167
954.02	742.46427
954.194	793.18802
954.368	763.59846
954.541	860.82823
954.715	793.18802
954.889	892.53765
955.062	583.99353
955.236	810.0972
955.41	714.99138
955.583	820.66573
955.757	742.46427
955.93	1002.47691
956.104	755.14466
956.278	782.6201
956.451	822.77947
956.625	617.79494
956.798	693.85964
956.972	905.22192
957.145	725.55767
957.319	881.96763
957.492	776.27947
957.665	827.00696
957.839	719.21786
958.012	953.84754
958.185	788.96083
958.359	784.73367
958.532	736.12421
958.705	843.91731
958.879	742.46427
959.052	746.69103
959.225	708.65175
959.398	810.0972
959.572	653.71246
959.745	660.05121
959.918	666.39007
960.091	782.6201
960.264	636.80966
960.438	729.78425
960.611	641.03529
960.784	719.21786
960.957	666.39007
961.13	700.19905
961.303	594.55612
961.476	666.39007
961.649	603.00642
961.822	708.65175
961.995	636.80966
962.168	700.19905
962.341	575.54369
962.514	619.90764
962.686	624.13307
962.859	611.45693
963.032	598.78124
963.205	607.23165
963.378	590.33104
963.551	649.48669
963.723	624.13307
963.896	643.14812
964.069	679.06809
964.242	676.95506
964.414	700.19905
964.587	586.10602
964.76	634.69687
964.932	630.47131
965.105	526.96132
965.278	586.10602
965.45	453.0461
965.623	598.78124
965.795	567.09406
965.968	634.69687
966.14	531.18558
966.313	598.78124
966.485	499.50499
966.658	579.76858
966.83	556.53234
967.003	497.39307
967.175	501.61693
967.348	622.02035
967.52	529.07344
967.692	708.65175
967.865	469.9394
968.037	556.53234
968.209	541.74649
968.382	717.10462
968.554	446.71136
968.726	505.84085
968.898	564.98169
969.071	531.18558
969.243	526.96132
969.415	571.31885
969.587	486.83367
969.759	524.84921
969.932	429.81942
970.104	512.17684
970.276	463.6043
970.448	505.84085
970.62	404.48342
970.792	440.37677
970.964	412.9285
971.136	450.9345
971.308	391.8163
971.48	482.61001
971.652	469.9394
971.824	564.98169
971.996	453.0461
972.168	324.26855
972.339	400.26098
972.511	459.38097
972.683	396.03861
972.855	423.48521
973.027	345.37533
973.199	364.37291
973.37	459.38097
973.542	396.03861
973.714	343.26457
973.886	347.4861
974.057	393.92744
974.229	355.92937
974.401	260.95905
974.572	396.03861
974.744	303.16355
974.915	417.15113
975.087	421.37383
975.259	385.48296
975.43	364.37291
975.602	351.7077
975.773	355.92937
975.945	404.48342
976.116	442.48828
976.288	351.7077
976.459	248.29916
976.63	315.82634
976.802	320.04741
976.973	339.04311
977.145	290.50142
977.316	271.50948
977.487	269.39935
977.659	250.4091
977.83	256.73901
978.001	288.39113
978.172	301.05315
978.344	347.4861
978.515	290.50142
978.686	398.14978
978.857	258.84902
979.028	201.88557
979.2	294.72206
979.371	237.74979
979.542	231.42039
979.713	193.44776
979.884	193.44776
980.055	195.55718
980.226	231.42039
980.397	244.07936
980.568	265.17916
980.739	222.98148
980.91	206.10459
981.081	256.73901
981.252	185.01029
981.423	330.6004
981.594	170.24549
981.765	250.4091
981.936	235.63997
982.106	239.85962
982.277	189.22898
982.448	277.83996
982.619	138.61006
982.79	265.17916
982.96	203.99507
983.131	307.38441
983.302	163.91802
983.472	227.2009
983.643	239.85962
983.814	214.54287
983.984	191.33836
984.155	227.2009
984.326	163.91802
984.496	199.77609
984.667	185.01029
984.837	134.39237
985.008	161.80891
985.178	185.01029
985.349	109.088
985.519	206.10459
985.69	151.26366
985.86	182.90097
986.031	117.52244
986.201	197.66663
986.371	195.55718
986.542	170.24549
986.712	136.50121
986.882	140.71894
987.053	159.69982
987.223	176.57313
987.393	88.00344
987.563	201.88557
987.734	206.10459
987.904	168.13631
988.074	121.73979
988.244	140.71894
988.414	142.82785
988.585	155.4817
988.755	119.63111
988.925	26.87099
989.095	73.24557
989.265	117.52244
989.435	130.17476
989.605	163.91802
989.775	142.82785
989.945	100.65391
990.115	88.00344
990.285	88.00344
990.455	75.35377
990.625	147.04571
990.795	102.7624
990.965	157.59075
991.134	155.4817
991.304	138.61006
991.474	113.30518
991.644	147.04571
991.814	83.78679
991.984	130.17476
992.153	60.59685
992.323	96.437
992.493	45.84105
992.662	104.87091
992.832	125.95723
993.002	62.70491
993.171	77.46199
993.341	130.17476
993.511	113.30518
993.68	58.48881
993.85	117.52244
994.019	83.78679
994.189	33.19413
994.358	83.78679
994.528	142.82785
994.697	119.63111
994.867	125.95723
995.036	64.813
995.206	166.02716
995.375	-17.38502
995.544	52.16483
995.714	33.19413
995.883	113.30518
996.052	-23.70644
996.222	98.54544
996.391	125.95723
996.56	50.05688
996.73	37.40968
996.899	130.17476
997.068	85.8951
997.237	35.30189
997.406	7.90283
997.576	24.76332
997.745	77.46199
997.914	102.7624
998.083	28.97868
998.252	10.01031
998.421	94.32857
998.59	77.46199
998.759	115.4138
998.928	92.22017
999.097	18.44046
999.266	75.35377
999.435	125.95723
999.604	106.97945
999.773	117.52244
999.942	62.70491
1000.111	62.70491
1000.28	66.92111
1000.448	117.52244
1000.617	33.19413
1000.786	125.95723
1000.955	7.90283
1001.124	35.30189
1001.292	128.06598
1001.461	71.13739
1001.63	73.24557
1001.798	58.48881
1001.967	56.38079
1002.136	66.92111
1002.304	151.26366
1002.473	16.33288
1002.642	66.92111
1002.81	24.76332
1002.979	66.92111
1003.147	33.19413
1003.316	104.87091
1003.484	149.15468
1003.653	50.05688
1003.821	26.87099
1003.99	7.90283
1004.158	41.62532
1004.327	16.33288
1004.495	-38.45555
1004.663	125.95723
1004.832	20.54805
1005	45.84105
1005.168	18.44046
1005.337	-13.17063
1005.505	83.78679
1005.673	100.65391
1005.842	45.84105
1006.01	-8.95613
1006.178	58.48881
1006.346	115.4138
1006.514	-25.81353
1006.683	109.088
1006.851	79.57023
1007.019	94.32857
1007.187	50.05688
1007.355	33.19413
1007.523	-55.31017
1007.691	111.19658
1007.859	83.78679
1008.027	79.57023
1008.195	50.05688
1008.363	-21.59933
1008.531	18.44046
1008.699	16.33288
1008.867	109.088
1009.035	-13.17063
1009.203	41.62532
1009.37	92.22017
1009.538	-17.38502
1009.706	12.11781
1009.874	3.68794
1010.042	-21.59933
1010.209	-51.09666
1010.377	-15.27784
1010.545	75.35377
1010.713	20.54805
1010.88	18.44046
1011.048	-6.84884
1011.216	-25.81353
1011.383	83.78679
1011.551	28.97868
1011.718	66.92111
1011.886	69.02924
1012.054	3.68794
1012.221	33.19413
1012.389	12.11781
1012.556	66.92111
1012.724	18.44046
1012.891	-15.27784
1013.058	41.62532
1013.226	24.76332
1013.393	-34.24164
1013.561	60.59685
1013.728	60.59685
1013.895	28.97868
1014.063	-2.6342
1014.23	-65.84349
1014.397	60.59685
1014.565	26.87099
1014.732	104.87091
1014.899	60.59685
1015.066	50.05688
1015.233	45.84105
1015.401	-0.52684
1015.568	24.76332
1015.735	109.088
1015.902	-0.52684
1016.069	-40.56246
1016.236	37.40968
1016.403	22.65567
1016.57	62.70491
1016.737	-0.52684
1016.904	-13.17063
1017.071	-0.52684
1017.238	33.19413
1017.405	50.05688
1017.572	-15.27784
1017.739	-4.74153
1017.906	26.87099
1018.073	26.87099
1018.24	-32.13465
1018.407	125.95723
1018.573	-17.38502
1018.74	50.05688
1018.907	54.2728
1019.074	16.33288
1019.241	85.8951
1019.407	37.40968
1019.574	-40.56246
1019.741	52.16483
1019.907	-42.66935
1020.074	28.97868
1020.241	12.11781
1020.407	96.437
1020.574	-17.38502
1020.74	24.76332
1020.907	24.76332
1021.073	88.00344
1021.24	-67.95008
1021.406	52.16483
1021.573	56.38079
1021.739	-23.70644
1021.906	-38.45555
1022.072	-19.49219
1022.239	58.48881
1022.405	-6.84884
1022.571	12.11781
1022.738	7.90283
1022.904	26.87099
1023.07	7.90283
1023.237	3.68794
1023.403	54.2728
1023.569	3.68794
1023.735	26.87099
1023.902	41.62532
1024.068	-17.38502
1024.234	-13.17063
1024.4	66.92111
1024.566	33.19413
1024.732	7.90283
1024.898	26.87099
1025.065	71.13739
1025.231	33.19413
1025.397	-2.6342
1025.563	22.65567
1025.729	16.33288
1025.895	26.87099
1026.061	-84.80186
1026.227	41.62532
1026.392	-32.13465
1026.558	62.70491
1026.724	-23.70644
1026.89	52.16483
1027.056	-59.52357
1027.222	-32.13465
1027.388	-36.3486
1027.553	-38.45555
1027.719	-15.27784
1027.885	-25.81353
1028.051	43.73317
1028.216	-25.81353
1028.382	-4.74153
1028.548	16.33288
1028.713	45.84105
1028.879	-21.59933
1029.045	58.48881
1029.21	52.16483
1029.376	-84.80186
1029.541	1.58054
1029.707	1.58054
1029.873	-17.38502
1030.038	-6.84884
1030.204	-19.49219
1030.369	-36.3486
1030.534	41.62532
1030.7	47.94895
1030.865	-59.52357
1031.031	-4.74153
1031.196	56.38079
1031.361	-6.84884
1031.527	-30.02763
1031.692	66.92111
1031.857	71.13739
1032.023	-46.88306
1032.188	50.05688
1032.353	26.87099
1032.518	31.08639
1032.684	50.05688
1032.849	35.30189
1033.014	7.90283
1033.179	-15.27784
1033.344	52.16483
1033.509	-27.92059
1033.674	-25.81353
1033.839	1.58054
1034.004	-61.63024
1034.17	-34.24164
1034.335	-42.66935
1034.5	-13.17063
1034.664	60.59685
1034.829	41.62532
1034.994	66.92111
1035.159	41.62532
1035.324	18.44046
1035.489	-8.95613
1035.654	1.58054
1035.819	-36.3486
1035.984	24.76332
1036.148	-0.52684
1036.313	-0.52684
1036.478	52.16483
1036.643	16.33288
1036.807	-17.38502
1036.972	50.05688
1037.137	69.02924
1037.301	18.44046
1037.466	-6.84884
1037.631	35.30189
1037.795	-0.52684
1037.96	24.76332
1038.124	-82.69548
1038.289	-0.52684
1038.454	-8.95613
1038.618	69.02924
1038.783	16.33288
1038.947	22.65567
1039.111	-67.95008
1039.276	-8.95613
1039.44	35.30189
1039.605	83.78679
1039.769	-38.45555
1039.933	-51.09666
1040.098	-17.38502
1040.262	-67.95008
1040.426	104.87091
1040.591	12.11781
1040.755	33.19413
1040.919	-25.81353
1041.083	-8.95613
1041.248	33.19413
1041.412	12.11781
1041.576	-0.52684
1041.74	-21.59933
1041.904	-21.59933
1042.068	52.16483
1042.232	-0.52684
1042.397	-2.6342
1042.561	-2.6342
1042.725	33.19413
1042.889	-63.73688
1043.053	-6.84884
1043.217	-8.95613
1043.381	66.92111
1043.544	-51.09666
1043.708	-4.74153
1043.872	58.48881
1044.036	-32.13465
1044.2	-8.95613
1044.364	1.58054
1044.528	12.11781
1044.691	98.54544
1044.855	3.68794
1045.019	-21.59933
1045.183	-93.22713
1045.346	-11.06339
1045.51	-6.84884
1045.674	41.62532
1045.837	-4.74153
1046.001	85.8951
1046.165	-32.13465
1046.328	-17.38502
1046.492	-48.98987
1046.655	10.01031
1046.819	1.58054
1046.983	-30.02763
1047.146	26.87099
1047.31	-0.52684
1047.473	12.11781
1047.636	18.44046
1047.8	47.94895
1047.963	58.48881
1048.127	-34.24164
1048.29	31.08639
