Data from mixed_try1_USB4F045381__5__00230.txt Node

Date: Thu Apr 03 20:22:56 EDT 2025
User: mmckonesweet
Spectrometer: USB4F04538
Trigger mode: 4
Integration Time (sec): 2.700000E-3
Scans to average: 1
Electric dark correction enabled: true
Nonlinearity correction enabled: true
Boxcar width: 0
XAxis mode: Wavelengths
Number of Pixels in Spectrum: 3648
>>>>>Begin Spectral Data<<<<<
345.52	-9.30734
345.736	-9.30734
345.952	-9.30734
346.168	32.84284
346.384	51.8135
346.6	49.70556
346.816	-0.87807
347.032	7.55158
347.248	-59.87469
347.464	26.51971
347.68	-17.73622
347.896	18.08919
348.112	-0.87807
348.328	1.22931
348.544	15.98162
348.76	-64.08798
348.975	24.41204
349.191	7.55158
349.407	9.65906
349.623	66.56975
349.839	72.8942
350.055	-0.87807
350.27	7.55158
350.486	-0.87807
350.702	-0.87807
350.918	41.27401
351.133	-0.87807
351.349	1.22931
351.565	24.41204
351.781	-38.8067
351.996	26.51971
352.212	-85.15292
352.428	49.70556
352.644	51.8135
352.859	24.41204
353.075	66.56975
353.291	-47.2342
353.506	-36.69976
353.722	-9.30734
353.938	-7.20006
354.153	7.55158
354.369	41.27401
354.584	15.98162
354.8	75.0024
355.016	53.92147
355.231	-38.8067
355.447	-19.84338
355.662	26.51971
355.878	-0.87807
356.093	3.33671
356.309	-0.87807
356.524	45.48974
356.74	-55.66129
356.955	-34.5928
357.171	-0.87807
357.386	-5.09275
357.602	18.08919
357.817	56.02946
358.033	-45.12736
358.248	-43.0205
358.464	1.22931
358.679	1.22931
358.895	-26.16471
359.11	24.41204
359.325	49.70556
359.541	64.46165
359.756	-32.48582
359.972	-9.30734
360.187	32.84284
360.402	-2.98542
360.618	-38.8067
360.833	-21.95051
361.048	20.19678
361.264	-24.05762
361.479	34.9506
361.694	26.51971
361.909	28.62739
362.125	-34.5928
362.34	28.62739
362.555	-15.62904
362.77	-0.87807
362.986	-59.87469
363.201	-34.5928
363.416	-51.44779
363.631	-43.0205
363.847	-32.48582
364.062	7.55158
364.277	1.22931
364.492	-38.8067
364.707	-32.48582
364.922	-15.62904
365.138	-5.09275
365.353	-5.09275
365.568	45.48974
365.783	-99.89684
365.998	60.24551
366.213	60.24551
366.428	-76.72725
366.643	-57.768
366.858	7.55158
367.073	41.27401
367.288	37.05838
367.503	-0.87807
367.718	-9.30734
367.933	-11.4146
368.148	-55.66129
368.363	-5.09275
368.578	-72.51427
368.793	70.78603
369.008	-38.8067
369.223	-17.73622
369.438	-32.48582
369.653	-0.87807
369.868	-32.48582
370.083	58.13747
370.298	-32.48582
370.513	-57.768
370.728	-17.73622
370.943	-13.52183
371.157	-72.51427
371.372	24.41204
371.587	24.41204
371.802	-26.16471
372.017	1.22931
372.232	60.24551
372.446	7.55158
372.661	20.19678
372.876	70.78603
373.091	24.41204
373.306	32.84284
373.52	26.51971
373.735	-59.87469
373.95	32.84284
374.165	30.7351
374.379	-36.69976
374.594	-24.05762
374.809	66.56975
375.023	-34.5928
375.238	53.92147
375.453	-26.16471
375.667	20.19678
375.882	41.27401
376.097	68.67788
376.311	-91.4719
376.526	-24.05762
376.741	9.65906
376.955	-0.87807
377.17	-17.73622
377.384	7.55158
377.599	-15.62904
377.813	15.98162
378.028	-68.30117
378.242	-11.4146
378.457	-5.09275
378.672	-2.98542
378.886	-28.27177
379.101	-43.0205
379.315	-21.95051
379.53	-0.87807
379.744	-9.30734
379.958	93.97717
380.173	79.21886
380.387	-13.52183
380.602	-13.52183
380.816	37.05838
381.031	43.38186
381.245	-32.48582
381.459	34.9506
381.674	37.05838
381.888	22.3044
382.103	112.95374
382.317	15.98162
382.531	45.48974
382.746	11.76656
382.96	20.19678
383.174	43.38186
383.388	-17.73622
383.603	-9.30734
383.817	5.44413
384.031	15.98162
384.246	11.76656
384.46	-47.2342
384.674	30.7351
384.888	49.70556
385.103	60.24551
385.317	11.76656
385.531	3.33671
385.745	7.55158
385.959	20.19678
386.174	1.22931
386.388	32.84284
386.602	34.9506
386.816	3.33671
387.03	-13.52183
387.244	1.22931
387.458	-9.30734
387.672	49.70556
387.887	7.55158
388.101	15.98162
388.315	3.33671
388.529	-59.87469
388.743	24.41204
388.957	-30.3788
389.171	45.48974
389.385	60.24551
389.599	102.41098
389.813	3.33671
390.027	9.65906
390.241	-66.19459
390.455	11.76656
390.669	32.84284
390.883	77.11062
391.097	41.27401
391.311	-26.16471
391.525	-38.8067
391.738	32.84284
391.952	1.22931
392.166	-5.09275
392.38	32.84284
392.594	41.27401
392.808	-26.16471
393.022	66.56975
393.236	-5.09275
393.449	3.33671
393.663	-26.16471
393.877	41.27401
394.091	7.55158
394.305	11.76656
394.518	77.11062
394.732	41.27401
394.946	32.84284
395.16	51.8135
395.373	-17.73622
395.587	11.76656
395.801	3.33671
396.015	-15.62904
396.228	24.41204
396.442	43.38186
396.656	-0.87807
396.869	-21.95051
397.083	7.55158
397.297	58.13747
397.51	53.92147
397.724	-9.30734
397.938	18.08919
398.151	24.41204
398.365	-24.05762
398.578	83.43541
398.792	13.87408
399.005	66.56975
399.219	41.27401
399.433	15.98162
399.646	75.0024
399.86	58.13747
400.073	64.46165
400.287	-17.73622
400.5	26.51971
400.714	20.19678
400.927	18.08919
401.141	-38.8067
401.354	60.24551
401.567	18.08919
401.781	-17.73622
401.994	-43.0205
402.208	-0.87807
402.421	15.98162
402.635	15.98162
402.848	1.22931
403.061	43.38186
403.275	68.67788
403.488	-30.3788
403.701	24.41204
403.915	11.76656
404.128	62.35357
404.341	98.19403
404.555	28.62739
404.768	45.48974
404.981	45.48974
405.195	62.35357
405.408	-51.44779
405.621	-9.30734
405.834	51.8135
406.048	70.78603
406.261	-49.34101
406.474	7.55158
406.687	58.13747
406.9	20.19678
407.114	-40.91361
407.327	41.27401
407.54	70.78603
407.753	15.98162
407.966	85.54372
408.179	77.11062
408.392	64.46165
408.605	37.05838
408.819	34.9506
409.032	24.41204
409.245	60.24551
409.458	15.98162
409.671	15.98162
409.884	-32.48582
410.097	-15.62904
410.31	7.55158
410.523	117.171
410.736	18.08919
410.949	85.54372
411.162	34.9506
411.375	85.54372
411.588	15.98162
411.801	64.46165
412.014	11.76656
412.227	45.48974
412.44	49.70556
412.653	77.11062
412.865	58.13747
413.078	62.35357
413.291	24.41204
413.504	68.67788
413.717	60.24551
413.93	-9.30734
414.143	77.11062
414.356	96.08559
414.568	24.41204
414.781	41.27401
414.994	153.02117
415.207	49.70556
415.42	49.70556
415.632	53.92147
415.845	34.9506
416.058	138.25859
416.271	32.84284
416.483	24.41204
416.696	75.0024
416.909	83.43541
417.121	75.0024
417.334	66.56975
417.547	146.69422
417.759	32.84284
417.972	96.08559
418.185	-17.73622
418.397	81.32712
418.61	98.19403
418.823	96.08559
419.035	37.05838
419.248	85.54372
419.46	3.33671
419.673	11.76656
419.885	79.21886
420.098	68.67788
420.311	83.43541
420.523	58.13747
420.736	102.41098
420.948	117.171
421.161	49.70556
421.373	68.67788
421.586	32.84284
421.798	169.89395
422.01	83.43541
422.223	100.3025
422.435	91.86877
422.648	70.78603
422.86	81.32712
423.073	72.8942
423.285	100.3025
423.497	104.51949
423.71	18.08919
423.922	26.51971
424.134	83.43541
424.347	134.0409
424.559	203.64348
424.771	117.171
424.984	159.34831
425.196	153.02117
425.408	83.43541
425.621	66.56975
425.833	108.73657
426.045	70.78603
426.257	150.91217
426.47	161.45739
426.682	134.0409
426.894	150.91217
427.106	176.22159
427.318	117.171
427.531	104.51949
427.743	136.14973
427.955	91.86877
428.167	66.56975
428.379	100.3025
428.591	142.47636
428.804	186.76807
429.016	100.3025
429.228	102.41098
429.44	127.71452
429.652	157.23924
429.864	207.86254
430.076	146.69422
430.288	77.11062
430.5	163.5665
430.712	117.171
430.924	218.41053
431.136	159.34831
431.348	121.38835
431.56	153.02117
431.772	174.11236
431.984	167.78478
432.196	218.41053
432.408	188.87742
432.62	188.87742
432.832	161.45739
433.044	184.65873
433.256	201.53399
433.468	193.0962
433.679	108.73657
433.891	214.19127
434.103	180.44012
434.315	226.84928
434.527	172.00315
434.739	197.31505
434.95	245.8376
435.162	243.72771
435.374	212.08167
435.586	176.22159
435.798	201.53399
436.009	294.37034
436.221	277.48826
436.433	273.26793
436.645	288.03942
436.856	205.753
437.068	184.65873
437.28	239.50798
437.491	222.62986
437.703	239.50798
437.915	323.91679
438.126	294.37034
438.338	281.70867
438.55	288.03942
438.761	296.48068
438.973	288.03942
439.184	334.46994
439.396	315.47458
439.608	235.28834
439.819	321.80621
440.031	277.48826
440.242	323.91679
440.454	338.69132
440.665	315.47458
440.877	418.91058
441.088	336.58062
441.3	340.80204
441.511	437.91335
441.723	290.14971
441.934	383.02003
442.146	338.69132
442.357	319.69565
442.569	315.47458
442.78	387.2422
442.991	387.2422
443.203	414.68792
443.414	389.35331
443.626	450.58257
443.837	370.35392
444.048	395.68674
444.26	357.68842
444.471	372.4649
444.682	412.57661
444.894	421.02194
445.105	336.58062
445.316	482.25804
445.528	486.48169
445.739	408.35405
445.95	437.91335
446.161	446.35944
446.373	492.81728
446.584	503.37689
446.795	589.97895
447.006	573.07919
447.217	448.471
447.429	444.24789
447.64	507.60084
447.851	471.69917
448.062	497.04108
448.273	516.0489
448.484	651.24742
448.695	492.81728
448.907	575.19162
449.118	600.54173
449.329	573.07919
449.54	625.89368
449.751	520.27302
449.962	600.54173
450.173	585.75393
450.384	465.36403
450.595	649.13455
450.806	697.73371
451.017	606.87955
451.228	573.07919
451.439	708.29955
451.65	750.56559
451.861	710.41275
452.072	786.49498
452.283	733.65866
452.494	733.65866
452.705	657.58613
452.915	775.92721
453.126	792.83576
453.337	744.22541
453.548	792.83576
453.759	847.79268
453.97	860.47591
454.181	860.47591
454.391	868.93157
454.602	868.93157
454.813	894.29933
455.024	942.92406
455.235	881.6153
455.445	813.9723
455.656	961.95219
455.867	995.78135
456.078	983.09522
456.288	1004.23891
456.499	917.55413
456.71	1082.47579
456.921	864.70372
457.131	1054.98627
457.342	1169.17887
457.553	1198.7864
457.763	928.12481
457.974	1181.86772
458.184	1071.90279
458.395	1296.07259
458.606	1241.08402
458.816	1302.41753
459.027	1274.92295
459.237	1308.76248
459.448	1461.0448
459.659	1293.95762
459.869	1543.53148
460.08	1427.20397
460.29	1477.96521
460.501	1482.19531
460.711	1524.49619
460.922	1513.921
461.132	1676.77477
461.343	1590.06175
461.553	1725.41671
461.764	1725.41671
461.974	1518.15108
462.184	1655.62562
462.395	1755.02399
462.605	1871.33058
462.816	1655.62562
463.026	1911.50586
463.236	1708.49796
463.447	1896.70467
463.657	1786.74526
463.867	2167.30575
464.078	2055.27367
464.288	2061.61567
464.498	2467.34543
464.709	2192.66843
464.919	2036.2473
465.129	2317.34988
465.339	2135.60076
465.55	2300.4458
465.76	2315.2369
465.97	2534.93133
466.18	2501.13983
466.391	2670.06695
466.601	2530.70756
466.811	2617.28555
467.021	2581.38979
467.231	2826.25235
467.441	2454.6718
467.651	2933.84967
467.862	2750.27939
468.072	3129.95669
468.282	3060.38563
468.492	2978.14344
468.702	3024.53933
468.912	3445.96174
469.122	3239.5482
469.332	3313.28637
469.542	3231.11967
469.752	3515.43017
469.962	3450.1725
470.172	3641.68512
470.382	3608.0237
470.592	3437.53999
470.802	3521.7445
471.012	3837.24493
471.222	3862.46613
471.432	4030.53342
471.642	3936.01152
471.852	4062.03149
472.062	3982.22739
472.272	4261.41004
472.482	4305.45734
472.691	4506.69472
472.901	4318.04055
473.111	4540.21462
473.321	4613.5196
473.531	4799.79992
473.741	4791.43162
473.95	4923.19006
474.16	4783.06295
474.37	5186.43295
474.58	5173.90592
474.79	5324.17479
474.999	5334.60563
475.209	5157.20192
475.419	5140.49642
475.628	5418.0312
475.838	5430.5418
476.048	5765.92619
476.258	5695.15058
476.467	5892.83756
476.677	5967.69489
476.886	6133.93517
477.096	6115.24066
477.306	6119.39516
477.515	6231.53118
477.725	6256.44101
477.935	6277.19663
478.144	6463.89205
478.354	6501.20851
478.563	6853.27307
478.773	6791.19218
478.982	6979.44119
479.192	7132.3851
479.401	7157.17529
479.611	7068.32893
479.82	7266.62706
480.03	7357.44567
480.239	7526.58598
480.449	7309.97761
480.658	7790.32207
480.868	7810.91191
481.077	7930.29205
481.287	7600.79692
481.496	7926.17665
481.705	7977.61327
481.915	8435.87284
482.124	8238.71586
482.333	8191.4535
482.543	8329.10176
482.752	8706.67579
482.961	8378.38722
483.171	8692.32321
483.38	8727.17791
483.589	9042.68234
483.799	8675.91915
484.008	9044.72969
484.217	9059.0607
484.426	9412.97617
484.636	9214.6001
484.845	9390.48772
485.054	9394.57668
485.263	9586.68486
485.472	9382.30961
485.682	9686.77097
485.891	9750.07162
486.1	9715.36018
486.309	9952.12855
486.518	10092.87149
486.727	10149.96533
486.936	10241.70055
487.146	10227.43245
487.355	10306.91771
487.564	10178.50816
487.773	10598.19265
487.982	10396.56898
488.191	10824.11112
488.4	10818.00715
488.609	11261.29966
488.818	10740.681
489.027	11123.08047
489.236	11218.61948
489.445	11543.69051
489.654	11334.45518
489.863	11720.34558
490.072	11377.12322
490.281	11647.25526
490.49	11712.22501
490.698	11911.13948
490.907	11913.1688
491.116	12028.82682
491.325	11929.40309
491.534	12256.01141
491.743	12089.68914
491.952	12195.16757
492.16	12187.05456
492.369	12383.76268
492.578	12618.91784
492.787	12466.88782
492.996	12560.1371
493.204	12616.891
493.413	12681.74674
493.622	12933.00715
493.831	12552.029
494.039	13281.39915
494.248	12762.80791
494.457	13153.80657
494.665	13143.67941
494.874	13483.89278
495.083	13372.52625
495.291	13552.73183
495.5	13530.46083
495.709	13332.02635
495.917	13500.09058
496.126	13649.9094
496.335	13813.87951
496.543	13890.79701
496.752	13832.09718
496.96	13927.23022
497.169	14354.2521
497.377	14042.59656
497.586	13971.75855
497.794	14528.27536
498.003	14077.00254
498.211	14338.06331
498.42	14348.18132
498.628	14540.41613
498.837	14605.16619
499.045	14568.74443
499.254	14562.6741
499.462	14671.9385
499.671	15007.81042
499.879	15005.78714
500.087	14843.92326
500.296	15236.44031
500.504	14900.57596
500.713	15212.16104
500.921	15098.85786
501.129	15339.62748
501.338	15234.41703
501.546	15622.89208
501.754	15424.60576
501.962	15438.76888
502.171	15855.58513
502.379	15750.36576
502.587	15546.0048
502.795	15730.13159
503.004	15519.70149
503.212	15932.47822
503.42	15962.83126
503.628	15968.9019
503.837	15847.49123
504.045	16138.88521
504.253	16165.19312
504.461	16355.42821
504.669	16418.16891
504.877	16620.57169
505.085	16294.71316
505.294	16561.87268
505.502	16569.96898
505.71	16541.63207
505.918	16399.95367
506.126	16731.90265
506.334	16612.47516
506.542	17215.77497
506.75	16578.06532
506.958	16956.61114
507.166	17003.17632
507.374	17319.04859
507.582	17126.68225
507.79	17061.89098
507.998	17185.40183
508.206	17632.9684
508.414	17428.40566
508.622	17404.10331
508.83	17104.40993
509.037	17487.13817
509.245	17092.26153
509.453	17786.91876
509.661	17651.19836
509.869	17543.84794
510.077	17369.67575
510.285	17863.90127
510.492	17699.8129
510.7	18001.67195
510.908	17618.78972
511.116	17920.62841
511.324	18107.03707
511.531	17906.44637
511.739	17724.12089
511.947	17880.10875
512.155	18204.30586
512.362	18220.51815
512.57	18265.10316
512.778	18078.66858
512.985	18421.16494
513.193	18437.38043
513.401	18204.30586
513.608	18593.46712
513.816	18220.51815
514.024	18390.76154
514.231	18808.37746
514.439	18471.83917
514.646	18644.14954
514.854	18925.98876
515.061	18435.35348
515.269	18719.16403
515.477	19021.30437
515.684	18844.87608
515.892	18962.49156
516.099	18903.68213
516.307	18982.77145
516.514	19230.21889
516.722	19343.82172
516.929	19234.27591
517.136	19043.61357
517.344	19074.03599
517.551	19396.5703
517.759	19500.0468
517.966	19443.23484
518.173	19530.48312
518.381	19709.0618
518.588	19899.85212
518.796	19741.53413
519.003	19794.30396
519.21	19702.97336
519.418	19920.15115
519.625	19757.7707
519.832	19995.2612
520.039	20066.31655
520.247	20419.63961
520.454	20261.23768
520.661	20677.60496
520.868	20192.19868
521.076	20708.07775
521.283	20472.44592
521.49	20667.44757
521.697	20777.15287
521.904	20624.78767
522.112	20555.72317
522.319	20659.32173
522.526	20261.23768
522.733	20899.06182
522.94	21094.14697
523.147	20673.54199
523.354	20693.857
523.561	20909.22157
523.768	20923.44539
523.975	21106.34105
524.183	20955.95775
524.39	21433.60319
524.597	21667.4253
524.804	21401.07558
525.011	21592.18988
525.218	21545.42463
525.425	21266.91002
525.632	21352.28608
525.838	21773.17062
526.045	21600.32318
526.252	21504.7609
526.459	21771.13696
526.666	21789.44007
526.873	21760.9687
527.08	21647.09088
527.287	22147.42984
527.494	21752.83417
527.701	22521.81545
527.907	22061.98979
528.114	22359.02391
528.321	22143.36112
528.528	22562.51693
528.735	22452.62622
528.941	22546.23616
529.148	22088.43481
529.355	22407.85894
529.562	22238.98007
529.768	22523.85049
529.975	22316.29497
530.182	22534.02574
530.388	22627.64224
530.595	23093.79872
530.802	22696.84185
531.008	23046.97149
531.215	23022.5406
531.422	23220.03728
531.628	23211.89248
531.835	23289.27017
532.042	23242.43575
532.248	23399.23588
532.455	23374.79826
532.661	23547.90776
532.868	23106.0148
533.074	23633.45244
533.281	23346.28828
533.487	23425.71048
533.694	23588.64265
533.9	24057.17917
534.107	23767.89051
534.313	23904.37865
534.52	23841.2258
534.726	23965.49695
534.933	23802.52059
535.139	23826.96586
535.345	24159.05494
535.552	24430.07741
535.758	23867.70891
535.965	24458.6088
536.171	24334.29718
536.377	24633.88402
536.584	24570.70126
536.79	24635.92221
536.996	24656.30428
537.203	24474.91268
537.409	24674.64835
537.615	24491.21672
537.821	24678.72484
538.028	25255.64281
538.234	24864.21528
538.44	24982.4502
538.646	24788.79369
538.853	24917.21617
539.059	24943.71721
539.265	24656.30428
539.471	24546.24407
539.677	24823.44645
539.883	25123.11902
540.09	25029.33861
540.296	25408.56616
540.502	25355.55139
540.708	25388.1757
540.914	25685.89669
541.12	25547.22678
541.326	25694.05402
541.532	25351.47339
541.738	25883.72068
541.944	25600.24655
542.15	25863.32564
542.356	25751.15624
542.562	26305.93822
542.768	26199.86692
542.974	25849.04922
543.18	25983.65905
543.386	26560.93545
543.592	26114.1973
543.798	26144.79324
544.004	26291.65913
544.21	26589.49668
544.415	26412.01401
544.621	26379.37484
544.827	26405.89414
545.033	26936.33516
545.239	26671.10186
545.445	26820.03752
545.651	26736.38775
545.856	27111.81045
546.062	26781.27269
546.268	26917.97207
546.474	26718.02594
546.679	26326.33707
546.885	26483.41365
547.091	26261.06134
547.297	26391.61448
547.502	26783.31293
547.708	26783.31293
547.914	26922.05275
548.119	26822.07779
548.325	26964.90021
548.531	26456.89355
548.736	27466.87214
548.942	27283.21462
549.147	26915.93173
549.353	27583.19385
549.559	27883.19953
549.764	27066.92045
549.97	27342.39202
550.175	28030.15027
550.381	27846.46277
550.586	27691.3562
550.792	28248.54614
550.997	27946.46926
551.203	28258.75186
551.408	27917.89569
551.614	27864.8311
551.819	27913.81378
552.025	28362.85179
552.23	28477.16081
552.435	28293.45153
552.641	28573.10132
552.846	28552.68825
553.052	28262.83416
553.257	28368.9754
553.462	28905.84914
553.668	28824.19066
553.873	28515.94499
554.078	28742.53386
554.283	28738.45106
554.489	28622.09312
554.694	28528.19271
554.899	28797.65202
555.105	29175.33387
555.31	29018.13225
555.515	28885.43436
555.72	29508.13175
555.925	28918.09805
556.131	29299.8746
556.336	28783.36205
556.541	29373.37587
556.746	29265.16614
556.951	29346.83359
557.156	29146.7513
557.361	28928.30551
557.567	29440.75323
557.772	29436.66973
557.977	29173.29225
558.182	29001.79996
558.387	29348.8753
558.592	29305.99966
558.797	29375.41759
559.002	29071.21263
559.207	29910.3854
559.412	29326.41657
559.617	29459.12908
559.822	29606.13892
560.027	29397.8766
560.232	29661.26904
560.437	29873.6295
560.642	29873.6295
560.847	30155.43414
561.051	29828.7061
561.256	29857.29365
561.461	30316.76703
561.666	30226.90982
561.871	30169.72916
562.076	30055.37058
562.281	30263.66931
562.485	30145.22344
562.69	30602.69214
562.895	30541.42039
563.1	30819.19506
563.305	30290.21807
563.509	30373.9501
563.714	30298.38696
563.919	30320.8515
564.123	30255.5005
564.328	30749.74909
564.533	30649.66792
564.737	30604.73455
564.942	30715.02669
565.147	30921.32437
565.351	30794.68454
565.556	30514.86966
565.761	30674.1773
565.965	30745.66409
566.17	31070.4395
566.374	30616.98904
566.579	31056.14045
566.784	31011.20106
566.988	30868.2167
567.193	30778.3443
567.397	30933.58012
567.602	30772.21674
567.806	30745.66409
568.011	31190.96291
568.215	31058.18317
568.42	31256.33374
568.624	31162.36366
568.828	31101.08055
569.033	31284.93397
569.237	31568.9105
569.442	31538.26402
569.646	31213.43395
569.85	31505.57485
570.055	31595.4711
570.259	31793.66333
570.463	31687.41388
570.668	31611.81623
570.872	31415.68185
571.076	32042.96059
571.281	31763.01395
571.485	31658.80908
571.689	31468.80006
571.893	31908.09135
572.098	32143.09632
572.302	31636.33412
572.506	31491.27348
572.71	31648.59316
572.914	31601.60051
573.119	32394.47935
573.323	31871.31028
573.527	31707.84609
573.731	32081.78816
573.935	32275.93701
574.139	32537.5576
574.343	32051.13475
574.547	32588.65969
574.751	32590.70381
574.955	32451.70933
575.159	31959.17719
575.364	32245.28068
575.568	32529.3814
575.772	32807.39346
575.976	32214.62483
576.18	31769.1438
576.383	32543.68978
576.587	32455.79725
576.791	32423.09412
576.995	32654.0725
577.199	32494.63297
577.403	32652.02832
577.607	33469.91077
577.811	33001.62033
578.015	32870.7702
578.219	32932.10487
578.422	32889.17036
578.626	32919.83775
578.83	32756.28494
579.034	32607.0568
579.238	32699.04523
579.442	33302.20868
579.645	33451.50346
579.849	33561.95107
580.053	33179.51228
580.257	33242.90413
580.46	33586.49621
580.664	33465.82023
580.868	33099.76505
581.071	33568.08731
581.275	33555.81485
581.479	33682.63578
581.682	33521.04349
581.886	33707.18319
582.09	33921.9935
582.293	34026.3436
582.497	33334.92947
582.7	33373.78639
582.904	33670.36224
583.107	33825.83571
583.311	33827.88154
583.515	33973.14436
583.718	33807.42338
583.922	33780.82827
584.125	33893.34996
584.329	33492.40893
584.532	34159.35233
584.735	34235.07195
584.939	33631.49683
585.142	34294.42337
585.346	33647.86107
585.549	34339.45073
585.753	34462.26226
585.956	34646.50677
586.159	34427.46421
586.363	34654.69619
586.566	34298.51669
586.769	34456.12134
586.973	34415.18283
587.176	34245.30473
587.379	34597.37164
587.582	34941.36949
587.786	34599.41888
587.989	35099.07721
588.192	34951.60943
588.395	34939.32152
588.599	34902.45877
588.802	35389.98865
589.005	35514.98839
589.208	35221.98559
589.411	35238.37468
589.615	35451.46156
589.818	35154.38386
590.021	34593.27715
590.224	35383.84161
590.427	35076.54585
590.63	34935.22559
590.833	35027.38849
591.036	35144.14163
591.239	35383.84161
591.442	35150.28695
591.645	35250.66671
591.848	35754.79631
592.051	35471.95354
592.254	35685.10101
592.457	35627.70955
592.66	35664.60358
592.863	35976.22364
593.066	35912.65911
593.269	36052.09819
593.472	36179.25721
593.675	35992.62828
593.878	35717.89802
594.081	36259.25605
594.284	36089.013
594.486	36072.60619
594.689	36296.18169
594.892	36283.87292
595.095	36341.31571
595.298	36347.47058
595.5	36074.65702
595.703	36881.11094
595.906	36511.62114
596.109	36712.76127
596.311	36236.69135
596.514	36127.98069
596.717	35775.29612
596.92	36603.97366
597.122	36708.65574
597.325	36679.91778
597.528	36548.56059
597.73	36961.19572
597.933	36733.2893
598.136	36961.19572
598.338	36801.03656
598.541	36833.88634
598.743	37178.91573
598.946	36540.35164
599.148	36805.14268
599.351	36983.78563
599.554	37653.66559
599.756	36766.13555
599.959	36745.60645
600.161	36837.99268
600.363	36731.23647
600.566	37020.75276
600.768	37061.83001
600.971	36815.40812
601.173	36577.29271
601.376	37088.53174
601.578	36571.13572
601.78	37057.72216
601.983	36827.72687
602.185	37035.12948
602.388	36911.91154
602.59	36402.86692
602.792	37176.86139
602.995	37324.79212
603.197	37236.44006
603.399	37306.29871
603.601	37209.73163
603.804	37725.63292
604.006	37583.76363
604.208	37370.00078
604.41	37485.09366
604.613	36952.98141
604.815	37692.73238
605.017	37834.63045
605.219	37084.4237
605.421	37170.69843
605.623	37485.09366
605.826	37908.67935
606.028	37696.84483
606.23	37951.87939
606.432	37146.04722
606.634	37682.45137
606.836	37232.33099
607.038	37536.48207
607.24	37111.12644
607.442	37524.14842
607.644	37431.65475
607.846	37984.79613
608.048	37417.26822
608.25	37733.85837
608.452	37789.38348
608.654	37663.94605
608.856	37386.44118
609.058	38112.36847
609.26	37855.19854
609.462	37569.37316
609.664	37888.10916
609.866	37703.01358
610.067	37777.04406
610.269	37970.3948
610.471	37953.93663
610.673	38400.55444
610.875	37721.52024
611.077	38653.8875
611.278	38198.80669
611.48	38202.92317
611.682	37949.82217
611.884	38571.48797
612.085	38100.02136
612.287	38810.48664
612.489	38231.73947
612.69	38149.4116
612.892	38013.60001
613.094	38169.9923
613.295	37224.11294
613.497	37822.28998
613.699	37906.62229
613.9	38190.57384
614.102	38219.38942
614.304	37585.81944
614.505	37404.9372
614.707	38326.4334
614.908	38081.50126
615.11	37857.25539
615.311	38235.85622
615.513	37955.99387
615.714	38151.46963
615.916	37964.22293
616.117	38013.60001
616.319	38069.15491
616.52	38258.49896
616.722	38145.29556
616.923	38252.32356
617.124	38130.88969
617.326	38258.49896
617.527	38670.36914
617.729	38062.98184
617.93	37577.59624
618.131	38754.84668
618.333	38159.70184
618.534	37906.62229
618.735	38548.83061
618.937	38120.60004
619.138	37735.91475
619.339	38414.96817
619.54	38161.75992
619.742	38060.92417
619.943	37867.53978
620.144	37707.12612
620.345	38769.27121
620.546	37832.57369
620.748	38921.78683
620.949	38754.84668
621.15	38688.91168
621.351	38118.54213
621.552	38147.35358
621.753	38044.46309
621.954	38598.26624
622.155	37452.20757
622.356	38242.03141
622.558	38194.69025
622.759	38631.22619
622.96	38542.65152
623.161	38472.62742
623.362	38577.66743
623.563	39008.37254
623.764	38536.47251
623.965	38804.30409
624.166	38925.90959
624.366	38577.66743
624.567	38017.71498
624.768	38824.91292
624.969	38223.50607
625.17	38075.32805
625.371	38069.15491
625.572	38237.91461
625.773	38135.00561
625.973	39000.12556
626.174	39018.68147
626.375	38522.05513
626.576	38130.88969
626.777	38476.7462
626.977	37587.87526
627.178	38030.06009
627.379	38143.23755
627.58	37645.44137
627.78	37622.82539
627.981	38482.92444
628.182	38044.46309
628.382	38303.78754
628.583	38145.29556
628.784	38202.92317
628.984	37966.28021
629.185	38557.06953
629.386	38042.4055
629.586	38715.69664
629.787	38493.22168
629.987	38678.61017
630.188	38697.15304
630.388	38293.49432
630.589	38686.85136
630.79	38940.33952
630.99	38839.33964
631.191	39142.40727
631.391	39226.97318
631.591	38660.06804
631.792	38550.89033
631.992	38841.40064
632.193	38979.50879
632.393	38538.53217
632.594	38787.8177
632.794	38730.11996
632.994	38775.45329
633.195	39198.09518
633.395	39121.78391
633.595	39070.2297
633.796	38756.9073
633.996	38697.15304
634.196	38505.57866
634.397	39559.2091
634.597	39084.66428
634.797	39350.75773
634.997	39002.18729
635.198	38853.76683
635.398	38686.85136
635.598	39245.53861
635.798	38400.55444
635.998	38598.26624
636.199	38886.74495
636.399	39090.85067
636.599	38833.1567
636.799	38382.02312
636.999	38239.973
637.199	38449.97475
637.399	38573.54778
637.599	38433.50075
637.799	38983.63207
637.999	38787.8177
638.199	39224.9104
638.399	39113.53483
638.599	38643.58677
638.799	39125.90851
638.999	38965.07761
639.199	39621.14516
639.399	39076.41589
639.599	39375.5189
639.799	39026.92879
639.999	39868.9819
640.199	39010.43431
640.399	39181.59432
640.599	37797.60991
640.799	39695.48056
640.998	39286.79796
641.198	39445.68332
641.398	38979.50879
641.598	39569.53115
641.798	40135.575
641.997	39654.18148
642.197	39328.06125
642.397	39241.41289
642.597	39022.80511
642.796	39259.97894
642.996	38765.14987
643.196	39165.09409
643.395	38482.92444
643.595	38911.48012
643.795	39247.60148
643.994	39807.00871
644.194	39873.11379
644.394	40174.8557
644.593	39643.85735
644.793	40358.90707
644.992	39720.26199
645.192	39997.08982
645.392	39935.09705
645.591	40197.59894
645.791	39641.79255
645.99	39410.59967
646.19	39328.06125
646.389	39400.2815
646.589	39637.66299
646.788	39753.3062
646.987	39546.82299
647.187	39460.13036
647.386	39193.96991
647.586	39274.41975
647.785	39491.08998
647.984	39804.9431
648.184	40274.1086
648.383	39579.85344
648.582	39742.9796
648.782	39720.26199
648.981	39575.72449
649.18	39544.75867
649.38	39633.53347
649.579	39398.21789
649.778	39732.65326
649.977	39656.24633
650.177	39598.43421
650.376	39491.08998
650.575	39369.32847
650.774	39678.96044
650.973	39817.33693
651.173	39813.20561
651.372	39361.07471
651.571	39598.43421
651.77	39633.53347
651.969	39833.86261
652.168	39689.28544
652.367	40108.70098
652.566	39889.64173
652.765	39868.9819
652.964	39899.97204
653.163	40321.6762
653.362	40218.27576
653.561	40431.31066
653.76	39544.75867
653.959	39449.81099
654.158	39819.4026
654.357	39222.84763
654.556	39047.54775
654.755	40046.69093
654.954	39821.46828
655.153	39695.48056
655.352	39641.79255
655.551	39961.95941
655.749	39966.09224
655.948	40085.96284
656.147	40507.8664
656.346	40106.63382
656.545	40098.3653
656.743	39753.3062
656.942	39782.22207
657.141	39730.58802
657.34	40038.42365
657.538	40005.35625
657.737	40156.24857
657.936	40369.24961
658.135	39645.92215
658.333	39573.66003
658.532	39906.17035
658.731	39466.32211
658.929	39815.27126
659.128	39084.66428
659.326	39573.66003
659.525	39792.54965
659.724	39668.63569
659.922	39687.22042
660.121	39621.14516
660.319	39447.74715
660.518	39637.66299
660.716	39557.14473
660.915	39866.91598
661.113	40437.51732
661.312	40069.42683
661.51	40057.02527
661.709	40023.95633
661.907	40402.3476
662.105	39802.8775
662.304	39840.05991
662.502	39891.70777
662.701	39796.68076
662.899	39693.41551
663.097	39926.83207
663.296	39786.35307
663.494	41127.09068
663.692	40290.65319
663.891	40286.51698
664.089	39802.8775
664.287	40379.59242
664.485	40255.49677
664.684	40808.03074
664.882	40059.09217
665.08	40596.85583
665.278	40520.28228
665.476	40313.40315
665.675	39790.48412
665.873	39883.44367
666.071	39639.72777
666.269	39780.15658
666.467	39057.85759
666.665	39422.9818
666.863	38882.62256
667.061	39588.11146
667.259	39988.82357
667.457	39924.76585
667.655	39802.8775
667.853	39910.30261
668.051	39165.09409
668.249	39747.11021
668.447	40028.0898
668.645	39559.2091
668.843	39877.24571
669.041	39856.58651
669.239	38991.87874
669.437	39697.54563
669.635	40247.22513
669.833	40286.51698
670.031	39982.62399
670.229	39819.4026
670.426	39902.03813
670.624	39804.9431
670.822	39125.90851
671.02	39796.68076
671.218	39530.30874
671.415	39233.16157
671.613	39191.90729
671.811	39165.09409
672.009	38965.07761
672.206	39020.74329
672.404	39200.15783
672.602	39220.78487
672.799	39495.2181
672.997	39305.36595
673.195	39026.92879
673.392	39396.1543
673.59	39142.40727
673.788	39200.15783
673.985	38734.24098
674.183	38991.87874
674.38	38936.21663
674.578	39439.49187
674.775	39315.68185
674.973	39313.61865
675.17	39301.23966
675.368	39513.79513
675.565	39082.60217
675.763	39066.10563
675.96	38843.46165
676.158	39425.04553
676.355	39187.78207
676.553	39542.69437
676.75	39140.34489
676.947	40052.8915
677.145	39200.15783
677.342	39381.70941
677.539	38886.74495
677.737	39617.01581
677.934	38936.21663
678.131	38894.98986
678.329	38903.23491
678.526	38695.09268
678.723	38969.20075
678.92	38796.06082
679.118	38499.40013
679.315	38602.3861
679.512	38316.1397
679.709	38548.83061
679.906	38594.1464
680.104	38829.03479
680.301	38664.18845
680.498	38765.14987
680.695	39049.6097
680.892	38847.58369
681.089	38604.44605
681.286	38279.08416
681.483	37308.3535
681.68	37939.53616
681.877	38073.27032
682.075	37902.50821
682.272	38143.23755
682.469	38400.55444
682.665	38176.16667
682.862	37809.9498
683.059	37591.98693
683.256	37766.76144
683.453	37871.65359
683.65	37585.81944
683.847	38309.96358
684.044	38219.38942
684.241	37828.46018
684.438	38153.52767
684.635	37672.17056
684.831	38093.84792
685.028	37651.60953
685.225	38176.16667
685.422	37729.74563
685.619	38155.58572
685.815	37746.19678
686.012	37912.79349
686.209	37199.45948
686.405	37820.23327
686.602	37201.5139
686.799	36813.35502
686.996	37641.3293
687.192	37267.25901
687.389	37571.42892
687.586	37454.26289
687.782	37661.88994
687.979	37700.95732
688.175	37421.37862
688.372	37735.91475
688.568	37320.68243
688.765	37252.87663
688.962	37703.01358
689.158	37300.13437
689.355	37213.84054
689.551	36743.55357
689.748	36965.30291
689.944	37102.91008
690.14	37431.65475
690.337	37604.3221
690.533	36837.99268
690.73	37043.3449
690.926	36616.28832
691.123	36634.76074
691.319	36731.23647
691.515	37522.09284
691.712	37185.07878
691.908	37102.91008
692.104	36733.2893
692.301	36874.95101
692.497	36353.6255
692.693	36542.40387
692.889	36164.89941
693.086	36031.59078
693.282	36386.45271
693.478	36519.82973
693.674	36829.78002
693.87	36593.71163
694.067	36712.76127
694.263	37135.77619
694.459	36936.55313
694.655	37131.66782
694.851	37293.9701
695.047	36948.8743
695.243	36404.91872
695.439	36117.72583
695.635	36056.19974
695.831	36386.45271
696.027	36396.71154
696.224	36378.24576
696.42	36117.72583
696.615	36086.96213
696.811	35961.86988
697.007	36468.52772
697.203	36253.10197
697.399	36066.45373
697.595	36281.82148
697.791	36355.67716
697.987	36308.49067
698.183	35824.49791
698.379	35814.24727
698.575	36160.79724
698.77	35978.2742
698.966	36263.3588
699.162	36314.64525
699.358	35578.52018
699.554	35621.56072
699.749	36091.06388
699.945	35922.91109
700.141	35918.81028
700.337	35514.98839
700.532	35592.86677
700.728	35484.24898
700.924	35721.99774
701.119	35787.59627
701.315	35426.87185
701.511	35381.7926
701.706	36335.16089
701.902	35787.59627
702.097	35514.98839
702.293	35865.50183
702.489	35168.72319
702.684	35047.8704
702.88	35465.80589
703.075	35283.44629
703.271	35193.30543
703.466	34976.18574
703.662	35240.42334
703.857	35527.28447
704.053	35283.44629
704.248	35252.71539
704.443	35781.44617
704.639	35283.44629
704.834	35418.67544
705.03	35123.65752
705.225	35226.08284
705.42	34912.69827
705.616	35074.49758
705.811	35201.49967
706.006	35117.51238
706.202	34619.89161
706.397	34544.1446
706.592	34564.61621
706.787	34746.83189
706.983	35107.27057
707.178	35769.14612
707.373	35580.56968
707.568	35205.59681
707.763	35023.29217
707.959	35158.48079
708.154	35072.4493
708.349	34742.73678
708.544	35129.8027
708.739	34933.17763
708.934	34775.4981
709.129	35086.78731
709.324	35017.14771
709.519	35314.17828
709.714	34691.54944
709.909	35367.44972
710.104	34599.41888
710.299	34570.75777
710.494	34888.12365
710.689	34834.88082
710.884	34863.54966
711.079	34666.98045
711.274	34239.16505
711.469	34464.30924
711.664	33954.7298
711.859	34388.57364
712.054	34220.74622
712.249	34478.63821
712.443	34376.2927
712.638	34605.56066
712.833	34253.49101
713.028	34963.8975
713.223	34452.02742
713.417	34478.63821
713.612	34042.71308
713.807	34490.92034
714.002	33909.71761
714.196	33586.49621
714.391	33449.45821
714.586	33789.01132
714.78	34030.43595
714.975	33846.29418
715.17	33715.36576
715.364	34386.52681
715.559	33975.19044
715.754	33506.72614
715.948	33557.86025
716.143	34140.93482
716.337	33928.13148
716.532	33741.9595
716.726	33997.69756
716.921	33627.4058
717.115	33353.33525
717.31	33232.67946
717.504	33314.47889
717.699	33557.86025
717.893	33279.71357
718.088	33711.27447
718.282	34110.23962
718.476	33561.95107
718.671	33535.361
718.865	33653.99772
719.059	33013.88808
719.254	33071.13887
719.448	32930.06035
719.642	33345.15487
719.837	32788.99421
720.031	33216.32012
720.225	33069.09416
720.419	32723.5763
720.614	32999.57572
720.808	33424.91555
721.002	32925.9713
721.196	33048.64724
721.39	32510.98509
721.585	32874.85911
721.779	32780.81684
721.973	32437.40167
722.167	32202.36262
722.361	32627.49826
722.555	32306.59382
722.749	32431.26985
722.943	32829.8817
723.137	33048.64724
723.331	32919.83775
723.525	32772.6395
723.719	32508.94107
723.913	33091.58609
724.107	32183.96945
724.301	32216.66854
724.495	31724.19199
724.689	32038.87352
724.883	31824.31313
725.077	32592.74792
725.271	32510.98509
725.465	31951.00338
725.659	32171.70742
725.853	32429.22592
726.046	32022.52531
726.24	31701.71641
726.434	31389.12315
726.628	31638.37729
726.822	31656.76589
727.015	32067.48318
727.209	31313.53451
727.403	32075.65744
727.596	31924.43869
727.79	32429.22592
727.984	31934.65584
728.177	32521.20524
728.371	31669.02504
728.565	31991.87276
728.758	31801.83657
728.952	32204.40632
729.146	31885.61396
729.339	32106.3112
729.533	31683.32746
729.726	31854.96333
729.92	31613.85937
730.113	31769.1438
730.307	31732.36498
730.5	31575.03985
730.694	31499.44568
730.887	31697.62996
731.081	31934.65584
731.274	31750.75432
731.468	31507.61791
731.661	31468.80006
731.854	31354.39297
732.048	31481.05826
732.241	31284.93397
732.435	31231.81949
732.628	31244.07659
732.821	31575.03985
733.014	31703.75963
733.208	31836.57316
733.401	31579.12608
733.594	31538.26402
733.788	31724.19199
733.981	31893.78753
734.174	32445.57746
734.367	32259.58691
734.56	32085.87531
734.754	31748.71105
734.947	31695.58674
735.14	31458.58493
735.333	31348.26416
735.526	31186.87728
735.719	30823.28017
735.912	31660.85227
736.105	31675.15464
736.298	31479.01522
736.491	31313.53451
736.684	30845.74835
736.877	30757.91913
737.07	30796.72708
737.263	31229.77665
737.456	31066.35405
737.649	31195.04854
737.842	31583.21233
738.035	30954.00648
738.228	30858.00379
738.421	30525.08146
738.614	30786.51441
738.807	31450.41286
739	31064.31133
739.192	30682.34714
739.385	30843.70578
739.578	30907.02606
739.771	30749.74909
739.964	30700.72935
740.156	31099.0378
740.349	30921.32437
740.542	31423.85381
740.735	30492.40383
740.927	30800.81215
741.12	30853.91864
741.313	30576.14091
741.505	30735.45159
741.698	30772.21674
741.891	30228.952
742.083	30480.1498
742.276	30520.99674
742.468	30735.45159
742.661	30533.25092
742.854	30110.5073
743.046	30230.99419
743.239	30288.17585
743.431	31000.98766
743.624	30557.75941
743.816	30441.34568
744.009	30245.28951
744.201	30108.46518
744.393	30159.51842
744.586	30433.17644
744.778	30682.34714
744.971	30608.81937
745.163	30911.11128
745.355	30659.88014
745.548	30386.20374
745.74	30553.67465
745.932	30933.58012
746.125	30706.85677
746.317	30474.0228
746.509	30130.92852
746.702	30331.06271
746.894	30088.04409
747.086	30041.07601
747.278	29606.13892
747.471	29120.21052
747.663	29702.10667
747.855	29542.84234
748.047	29446.87851
748.239	29318.24979
748.431	29555.09321
748.623	29810.3285
748.815	29702.10667
749.008	29610.22261
749.2	29191.66686
749.392	29465.25438
749.584	29246.79119
749.776	29522.42431
749.968	29489.75567
750.16	29385.62622
750.352	29408.08528
750.544	29655.14343
750.736	29477.50501
750.928	29871.58751
751.12	29824.62218
751.311	29487.71389
751.503	29685.77157
751.695	29379.50104
751.887	29330.49997
752.079	29626.55739
752.271	28879.30995
752.463	29234.54128
752.654	29344.79188
752.846	29316.2081
753.038	29250.87451
753.23	29134.50169
753.421	29073.25419
753.613	28485.32587
753.805	28840.52223
753.997	28744.57526
754.188	29107.96099
754.38	28611.88644
754.572	28405.71728
754.763	28268.95761
754.955	28036.27334
755.146	28491.44968
755.338	28709.8716
755.53	29081.42047
755.721	29114.08575
755.913	28785.40347
756.104	28371.01661
756.296	28491.44968
756.487	28242.42272
756.679	28173.02464
756.87	27868.91297
757.062	27899.52709
757.253	28164.86024
757.445	28005.65807
757.636	28191.3946
757.827	28595.55582
758.019	28742.53386
758.21	28019.94516
758.401	28281.20455
758.593	28250.58728
758.784	27903.609
758.975	27591.35693
759.167	28044.43746
759.358	27709.72373
759.549	27772.99039
759.74	27752.58166
759.932	27619.92785
760.123	27458.70937
760.314	27709.72373
760.505	27734.21391
760.696	27730.1322
760.888	27683.19289
761.079	27293.41754
761.27	27144.45814
761.461	26948.57729
761.652	27183.22771
761.843	26720.06613
762.034	27501.56416
762.225	26899.60909
762.416	27201.59241
762.607	26609.89775
762.798	27470.95354
762.989	27617.88707
763.18	27026.11194
763.371	26844.52085
763.562	26822.07779
763.753	26856.76259
763.944	26954.69837
764.135	26817.99725
764.326	27189.34927
764.517	26828.19861
764.708	26430.37373
764.899	26210.06588
765.089	26205.98629
765.28	26479.33361
765.471	26293.69899
765.662	25769.51084
765.853	25802.14162
766.043	25869.44413
766.234	26452.81356
766.425	25804.18106
766.615	26124.3959
766.806	26428.33376
766.997	26179.46911
767.187	26030.5704
767.378	26732.30734
767.569	26087.68113
767.759	25867.40463
767.95	26318.17751
768.141	26157.03173
768.331	25759.31382
768.522	25573.7365
768.712	25543.1484
768.903	25314.77176
769.093	25094.57665
769.284	24982.4502
769.474	25339.23944
769.665	25296.4212
769.855	25492.16923
770.046	25626.75694
770.236	25308.65489
770.426	25306.61593
770.617	25455.46502
770.807	25098.6541
770.998	24831.60014
771.188	25441.19134
771.378	24907.02357
771.569	25163.89458
771.759	24943.71721
771.949	24866.25375
772.139	25117.00276
772.33	24919.2547
772.52	24666.4954
772.71	24966.14147
772.9	24546.24407
773.09	24644.07501
773.281	24943.71721
773.471	24576.81562
773.661	24754.14162
773.851	24894.79252
774.041	24707.26053
774.231	24352.63763
774.421	24511.59701
774.611	24130.52903
774.802	24497.33078
774.992	24383.20551
775.182	24538.09175
775.372	24409.69815
775.562	24328.18375
775.752	24185.54376
775.942	23676.22678
776.131	24403.58443
776.321	23517.3574
776.511	24275.20165
776.701	23708.81764
776.891	23794.37226
777.081	23983.83293
777.271	23696.59597
777.461	23892.1553
777.651	23782.14985
777.84	23621.23144
778.03	23877.89486
778.22	23776.03869
778.41	23916.6021
778.599	23668.07918
778.789	23586.60588
778.979	23321.85164
779.169	23411.45486
779.358	23551.9812
779.548	23499.02752
779.738	23419.60091
779.927	23637.52613
780.117	23678.26368
780.307	23415.52788
780.496	23551.9812
780.686	23680.30059
780.875	23295.37914
781.065	23521.43074
781.254	23252.617
781.444	23354.43392
781.633	22963.50124
781.823	23030.68417
782.012	22939.07199
782.202	22841.35987
782.391	22641.88889
782.581	22202.35907
782.77	22542.16601
782.96	22472.97556
783.149	22306.12166
783.338	22586.93849
783.528	22544.20108
783.717	22566.58715
783.906	22377.3368
784.096	22068.09243
784.285	22023.34052
784.474	22049.78461
784.663	21697.92768
784.853	21661.32493
785.042	21598.28985
785.231	21356.35178
785.42	21590.15657
785.61	21685.72662
785.799	21394.97676
785.988	21701.99473
786.177	21340.08906
786.366	21470.19798
786.555	21634.89041
786.744	21336.02342
786.933	21275.04077
787.122	21622.69008
787.312	21976.55639
787.501	21626.75684
787.69	21484.42963
787.879	21744.69969
788.068	21181.54108
788.257	21138.8593
788.445	20807.62871
788.634	21567.79036
788.823	21364.48324
789.012	21612.52325
789.201	21630.82362
789.39	21657.25804
789.579	21224.22466
789.768	21594.2232
789.957	21419.37223
790.145	21500.69461
790.334	21216.09432
790.523	21545.42463
790.712	21508.8272
790.9	21728.43093
791.089	21063.66243
791.278	21531.19215
791.467	20931.57338
791.655	20927.50938
791.844	21016.92125
792.033	20677.60496
792.221	20929.54138
792.41	20689.79396
792.599	20464.32169
792.787	20734.48826
792.976	20882.80643
793.164	20766.99446
793.353	20496.81902
793.541	21155.11882
793.73	20811.69223
793.918	20870.61507
794.107	20344.49705
794.295	20409.48487
794.484	20720.26713
794.672	20756.83616
794.861	20679.63645
795.049	20527.28625
795.238	20458.22856
795.426	20574.00448
795.614	20001.35146
795.803	20354.65111
795.991	20374.95956
796.179	20513.06809
796.368	20622.7563
796.556	20515.09924
796.744	20171.89402
796.932	19916.09131
797.121	19751.68195
797.309	20141.43781
797.497	19853.16596
797.685	20253.11519
797.874	20115.0432
798.062	19642.091
798.25	19463.52445
798.438	19782.12605
798.626	19453.37959
798.814	19262.67552
799.002	19755.74111
799.19	19784.15569
799.378	19404.68571
799.566	19771.97791
799.755	19295.13321
799.943	19347.87921
800.131	19274.84703
800.318	19329.62066
800.506	19293.10457
800.694	19201.82019
800.882	19370.19566
801.07	19652.2378
801.258	19262.67552
801.446	19418.88785
801.634	19031.44485
801.822	19228.19038
802.01	19684.70826
802.197	19538.59964
802.385	19134.88359
802.573	19185.59273
802.761	19094.31812
802.949	19345.85046
803.136	19108.51585
803.324	19443.23484
803.512	19205.8771
803.699	19335.70681
803.887	19532.51225
804.075	19268.76126
804.262	19220.0764
804.45	19323.53455
804.638	19327.59196
804.825	19709.0618
805.013	19110.54411
805.201	19183.56431
805.388	19195.73486
805.576	19155.16694
805.763	19228.19038
805.951	19404.68571
806.138	19335.70681
806.326	19009.13592
806.513	18769.85254
806.701	19114.60065
806.888	18840.82061
807.075	19380.33967
807.263	18887.45944
807.45	19376.28205
807.638	18936.12829
807.825	19351.93671
808.012	19145.02521
808.2	19268.76126
808.387	19254.56126
808.574	19534.54137
808.761	19153.13859
808.949	19161.25202
809.136	18934.10038
809.323	18484.00134
809.51	18982.77145
809.698	18936.12829
809.885	18950.32381
810.072	18779.99054
810.259	19084.17701
810.446	19191.678
810.633	18982.77145
810.82	19355.99422
811.008	19364.10931
811.195	19498.01775
811.382	19252.53271
811.569	19181.5359
811.756	18887.45944
811.943	19232.24739
812.13	18749.57684
812.317	18942.21206
812.504	18994.93958
812.691	19258.61838
812.878	19303.2478
813.064	19463.52445
813.251	19390.48378
813.438	19970.90055
813.625	19542.65792
813.812	19173.4223
813.999	18938.15621
814.186	18611.71251
814.372	18830.68202
814.559	18812.4328
814.746	18719.16403
814.933	18917.8772
815.12	18804.32214
815.306	18814.46047
815.493	18816.48815
815.68	19173.4223
815.866	18940.18413
816.053	18739.43913
816.24	18597.52162
816.426	18486.02838
816.613	18591.43987
816.799	19149.08189
816.986	19063.89508
817.173	19035.50108
817.359	18690.77954
817.546	19222.10489
817.732	18668.47798
817.919	19199.79174
818.105	18832.70973
818.292	18717.13654
818.478	18954.37971
818.665	19011.16399
818.851	18903.68213
819.037	19234.27591
819.224	18964.51953
819.41	19049.69798
819.597	18429.27265
819.783	18658.34106
819.969	18881.37599
820.156	19374.25325
820.342	19424.97454
820.528	19374.25325
820.714	19100.40284
820.901	19088.23344
821.087	18822.57121
821.273	18917.8772
821.459	18857.04257
821.646	19169.36553
821.832	18362.3858
822.018	18319.82358
822.204	18179.98787
822.39	18319.82358
822.576	18163.77618
822.762	18147.56471
822.948	18354.27859
823.134	18094.87906
823.32	17681.58222
823.507	18331.98405
823.693	17874.03092
823.879	17716.01817
824.065	18230.65095
824.25	17916.57638
824.436	17754.50655
824.622	17867.95312
824.808	18155.67041
824.994	18336.03757
825.18	17843.64224
825.366	18131.35348
825.552	17687.65908
825.738	17859.84944
825.923	17865.92719
826.109	17872.00498
826.295	17965.20166
826.481	17732.22366
826.667	17916.57638
826.852	17649.1728
827.038	17410.17886
827.224	17580.30555
827.409	17428.40566
827.595	17296.77324
827.781	17215.77497
827.966	17430.43087
828.152	17440.557
828.338	17312.97346
828.523	16997.10252
828.709	16980.90584
828.894	16956.61114
829.08	17209.70029
829.266	17175.27759
829.451	17242.09889
829.637	17256.27351
829.822	17402.07814
830.008	16869.55821
830.193	16901.94944
830.378	16855.38726
830.564	17150.97971
830.749	17258.29847
830.935	17140.85572
831.12	16559.84861
831.305	17088.21209
831.491	16847.28962
831.676	16711.66013
831.861	16547.70423
832.047	16972.80756
832.232	16596.28222
832.417	16600.33044
832.602	16531.51184
832.788	16254.23738
832.973	16414.12106
833.158	16181.38274
833.343	16505.19951
833.528	16432.33642
833.714	16256.26115
833.899	16723.80561
834.084	16345.30892
834.269	16555.80047
834.454	16272.45139
834.639	16171.26421
834.824	15934.50174
835.009	16252.21361
835.194	16187.45387
835.379	16553.77641
835.564	16513.29557
835.749	16780.48567
835.934	16501.15149
836.119	16452.5759
836.304	16252.21361
836.489	16126.74319
836.674	15993.1846
836.859	16197.57247
837.044	16153.05097
837.228	16155.07466
837.413	15974.97256
837.598	16124.71952
837.783	15863.67906
837.968	16294.71316
838.152	15916.29005
838.337	16015.44392
838.522	15679.5466
838.707	15863.67906
838.891	15357.83705
839.076	15661.33614
839.261	15703.82732
839.445	15633.00891
839.63	15432.69896
839.815	15382.11653
839.999	15183.83524
840.184	15191.92833
840.368	15135.27675
840.553	15448.8854
840.737	15317.37137
840.922	15622.89208
841.106	15380.09324
841.291	15590.51836
841.475	15141.34656
841.66	15202.04468
841.844	14888.43614
842.029	15078.62513
842.213	15195.97487
842.397	15242.51012
842.582	14819.64339
842.766	15100.88113
842.951	14825.71337
843.135	14936.99534
843.319	14388.65293
843.504	14722.52287
843.688	14726.56959
843.872	15044.22945
844.056	14714.4294
844.241	15197.99814
844.425	14629.44716
844.609	14752.87322
844.793	14852.01653
844.977	14607.18961
845.161	14512.08759
845.346	14285.44899
845.53	14797.38676
845.714	14801.43342
845.898	14481.73529
846.082	14497.92322
846.266	14888.43614
846.45	14617.3067
846.634	14427.10037
846.818	14419.00622
847.002	14437.21803
847.186	14560.65066
847.37	14105.33638
847.554	14283.42534
847.738	13651.93385
847.922	14119.50313
848.106	13880.67652
848.29	14115.4555
848.473	14010.21384
848.657	13959.61458
848.841	13824.00047
849.025	13911.03779
849.209	13605.37067
849.392	13971.75855
849.576	13696.47091
849.76	13609.41971
849.944	13639.78711
850.127	13917.10997
850.311	13985.92639
850.495	14246.99929
850.678	14141.76496
850.862	14475.6648
851.046	14091.16951
851.229	14091.16951
851.413	13834.12135
851.596	13769.34642
851.78	13534.51014
851.964	13605.37067
852.147	13141.65397
852.331	13200.39004
852.514	13297.60014
852.698	13170.00979
852.881	12955.29236
853.065	13244.94591
853.248	13137.60306
853.431	13394.8005
853.615	12993.78351
853.798	13323.92617
853.982	12809.41393
854.165	13107.22067
854.348	12930.9812
854.532	13155.83199
854.715	12827.65027
854.898	13176.08592
855.081	12732.41106
855.265	13007.964
855.448	12947.18872
855.631	12924.90329
855.814	12653.37311
855.997	12697.95972
856.181	12458.77854
856.364	12961.37003
856.547	12754.70221
856.73	12770.91352
856.913	12320.9044
857.096	12689.85328
857.279	12614.86416
857.462	12497.29669
857.645	12357.40356
857.828	12738.49053
858.011	12582.43386
858.194	12669.58676
858.377	12326.98775
858.56	12466.88782
858.743	12511.487
858.926	12470.94242
859.109	12341.18199
859.292	12229.64655
859.475	11882.72809
859.658	12296.57038
859.841	11655.37698
860.023	11903.0221
860.206	11563.99922
860.389	11793.4245
860.572	11490.88348
860.755	11379.15492
860.937	11710.19484
861.12	11848.22637
861.303	11823.87074
861.486	11929.40309
861.668	11618.8281
861.851	11677.71097
862.034	11691.92294
862.216	11610.70572
862.399	11013.28299
862.581	11391.34492
862.764	11033.61826
862.947	11543.69051
863.129	11689.89269
863.312	11795.45431
863.494	11476.6651
863.677	11474.63387
863.859	11480.72754
864.042	11421.81839
864.224	11245.04108
864.406	11133.2453
864.589	10732.54041
864.771	10950.23659
864.954	10960.40609
865.136	11295.84696
865.318	11003.11494
865.501	10984.81175
865.683	10986.84548
865.865	11230.81428
866.048	10628.73091
866.23	10966.50766
866.412	10992.94661
866.594	10826.14575
866.777	10706.08216
866.959	10799.6946
867.141	10408.79218
867.323	10653.15952
867.505	10634.83823
867.687	10341.55874
867.869	10276.34888
868.052	10361.93402
868.234	10260.04427
868.416	10618.5518
868.598	10530.9986
868.78	10756.96161
868.962	10754.92658
869.144	10897.35063
869.326	10748.8214
869.508	10818.00715
869.69	11098.68376
869.872	10931.93078
870.054	10838.35331
870.236	10463.79079
870.417	10270.23475
870.599	10394.53174
870.781	10154.04305
870.963	10355.82158
871.145	10313.03111
871.327	10565.61542
871.508	10308.95552
871.69	10476.01143
871.872	10107.14598
872.054	10486.19494
872.235	10251.89164
872.417	10471.93794
872.599	10480.08487
872.78	10482.12158
872.962	10272.27281
873.144	10105.10681
873.325	10274.31085
873.507	10522.85294
873.689	10076.55694
873.87	10300.80418
874.052	9909.28011
874.233	10088.79294
874.415	10080.63566
874.596	10276.34888
874.778	10007.20999
874.959	10082.675
875.141	10158.1207
875.322	10306.91771
875.503	10048.00431
875.685	10251.89164
875.866	9888.87382
876.048	10141.80974
876.229	9962.32961
876.41	9862.34344
876.592	9750.07162
876.773	10001.09035
876.954	9909.28011
877.136	10245.77703
877.317	10009.24984
877.498	10361.93402
877.679	10135.6929
877.86	10184.62413
878.042	10072.47817
878.223	10372.12117
878.404	9958.24923
878.585	10198.89424
878.766	10068.39933
878.947	10288.57677
879.128	9933.76572
879.309	10060.24149
879.49	9741.90462
879.672	10202.97129
879.853	9829.68722
880.034	10178.50816
880.215	9833.76946
880.396	10003.13025
880.576	9984.77067
880.757	10145.88756
880.938	9950.08829
881.119	10247.81525
881.3	9948.04802
881.481	10156.08188
881.662	9762.32167
881.843	10064.32044
882.023	9994.97058
882.204	10068.39933
882.385	9929.68493
882.566	10007.20999
882.747	9819.48137
882.927	9899.07715
883.108	9892.95519
883.289	10107.14598
883.469	10172.39207
883.65	10284.50086
883.831	10048.00431
884.011	10147.92646
884.192	10043.92513
884.373	10060.24149
884.553	9817.44015
884.734	9921.52318
884.914	9737.82103
885.095	9921.52318
885.275	10278.3869
885.456	10585.97656
885.636	10567.65159
885.817	10374.15856
885.997	10386.38262
886.178	10488.23161
886.358	10372.12117
886.538	10455.64345
886.719	10327.29525
886.899	10245.77703
887.08	10154.04305
887.26	10133.65392
887.44	9868.46605
887.621	10178.50816
887.801	10054.12296
887.981	10404.71784
888.161	10166.27585
888.342	10166.27585
888.522	10347.67146
888.702	10392.49448
888.882	10533.03499
889.062	10162.19831
889.242	10196.8557
889.423	10317.10665
889.603	10176.46948
889.783	10266.1586
889.963	9860.30253
890.143	10278.3869
890.323	10019.44889
890.503	10286.53883
890.683	10172.39207
890.863	10341.55874
891.043	10284.50086
891.223	10353.78407
891.403	10141.80974
891.583	10296.72843
891.763	9984.77067
891.943	10260.04427
892.122	10080.63566
892.302	10300.80418
892.482	10135.6929
892.662	9992.93063
892.842	9678.60207
893.022	9935.80609
893.201	9841.93375
893.381	10048.00431
893.561	9970.4902
893.741	10054.12296
893.92	9815.39892
894.1	9948.04802
894.28	9978.65056
894.459	9911.32066
894.639	9639.79643
894.819	10068.39933
894.998	9843.97478
895.178	10007.20999
895.357	9564.2114
895.537	9856.22069
895.716	9850.0978
895.896	9794.9858
896.075	9359.81846
896.255	9335.28039
896.434	9091.81408
896.614	9623.45553
896.793	9367.99729
896.973	9721.48605
897.152	9312.78508
897.331	9598.94232
897.511	9316.87528
897.69	9705.1501
897.87	9355.72895
898.049	9443.63907
898.228	9443.63907
898.407	9421.1533
898.587	9239.14996
898.766	9504.95398
898.945	9071.34373
899.124	9519.25872
899.304	9149.12187
899.483	9343.46001
899.662	9249.37836
899.841	9496.7795
900.02	8960.77377
900.199	9202.32426
900.378	9104.09545
900.557	9421.1533
900.737	9521.30219
900.916	9402.75439
901.095	9124.56304
901.274	9112.28269
901.453	8942.34046
901.632	8868.59281
901.811	8710.77636
901.989	9034.49274
902.168	8618.4956
902.347	9069.2966
902.526	8577.46981
902.705	8739.4783
902.884	9046.77703
903.063	9028.35036
903.242	8846.05419
903.42	9065.20229
903.599	8743.57829
903.778	8563.10901
903.957	8513.86497
904.135	8743.57829
904.314	8283.91356
904.493	8663.61533
904.672	8277.7508
904.85	8374.28053
905.029	8115.40067
905.207	8400.97266
905.386	8511.8129
905.565	8677.96972
905.743	8283.91356
905.922	8435.87284
906.1	8312.67078
906.279	8411.23799
906.457	8074.27961
906.636	8552.85074
906.814	8306.50885
906.993	8396.86639
907.171	8355.79944
907.35	8522.07307
907.528	8018.75336
907.707	8138.01383
907.885	8059.88533
908.063	7996.12732
908.242	7866.49408
908.42	7948.81034
908.598	7763.55215
908.777	7897.36654
908.955	7843.85132
909.133	7987.89906
909.311	7788.26297
909.49	7790.32207
909.668	7307.91351
909.846	7687.34144
910.024	7464.72227
910.202	7926.17665
910.38	7604.91894
910.559	7662.61825
910.737	7456.4723
910.915	7442.03404
911.093	7394.58653
911.271	7332.68117
911.449	7301.72111
911.627	7404.90218
911.805	7210.87638
911.983	7119.98881
912.161	7233.59156
912.339	7324.42563
912.517	7258.36872
912.695	7138.58295
912.872	6838.78936
913.05	7175.76582
913.228	6888.44315
913.406	7084.86161
913.584	6944.28804
913.762	6836.72017
913.939	6983.57642
914.117	7033.19223
914.295	6880.16842
914.473	6969.1027
914.65	6867.75566
914.828	6975.30586
915.006	6584.10708
915.184	6803.61
915.361	6608.96944
915.539	6832.58172
915.716	6557.16911
915.894	6600.68236
916.072	6613.11284
916.249	6857.41106
916.427	6666.9687
916.604	6559.2414
916.782	6368.49355
916.959	6383.01389
917.137	6366.41912
917.314	6621.39937
917.492	6214.92276
917.669	6463.89205
917.847	6190.0073
918.024	6140.16626
918.201	5967.69489
918.379	6173.39512
918.556	5882.43829
918.733	5840.83532
918.911	5580.60289
919.088	5994.71919
919.265	5649.34007
919.442	6032.13088
919.62	5570.18592
919.797	5761.76367
919.974	5566.01897
920.151	5668.08211
920.328	5582.68621
920.506	5593.10247
920.683	5566.01897
920.86	5951.06257
921.037	5436.79678
921.214	5790.8993
921.391	5649.34007
921.568	5526.42824
921.745	5513.92414
921.922	5380.49434
922.099	5317.91601
922.276	5707.64238
922.453	5263.6644
922.63	5465.98389
922.807	5282.44559
922.984	5236.53267
923.161	4875.09828
923.338	5307.48424
923.514	4967.08934
923.691	5257.40358
923.868	4948.2766
924.045	5102.90362
924.222	4864.64194
924.399	5084.10439
924.575	4839.54441
924.752	4829.08613
924.929	4605.14327
925.105	4835.36116
925.282	4481.55108
925.459	5038.14284
925.635	4412.38974
925.812	4847.91062
925.989	4663.77006
926.165	4663.77006
926.342	4515.07522
926.518	4485.7419
926.695	4192.17381
926.871	4387.23426
927.048	4364.17231
927.224	4404.00493
927.401	4297.06811
927.577	4366.26896
927.754	4202.66563
927.93	4190.07538
928.107	3896.08993
928.283	4135.50883
928.459	3978.02635
928.636	4286.58108
928.812	4080.9281
928.988	4030.53342
929.165	4101.92236
929.341	4215.25512
929.517	3996.93037
929.693	4083.02762
929.87	3765.76942
930.046	3818.32716
930.222	3740.53737
930.398	4068.33055
930.574	3994.83001
930.751	4001.13104
930.927	3616.43951
931.103	3683.75508
931.279	3355.41306
931.455	3698.47776
931.631	3351.2007
931.807	3513.32535
931.983	3304.86021
932.159	3441.7509
932.335	3129.95669
932.511	3387.00351
932.687	3229.01249
932.863	3603.81568
933.039	3210.04717
933.215	3416.48436
933.391	3049.84306
933.566	3483.85605
933.742	3003.4512
933.918	3092.01097
934.094	2733.39413
934.27	2969.70704
934.445	2684.84433
934.621	2824.14223
934.797	2467.34543
934.973	2800.93
935.148	2471.56989
935.324	2610.95126
935.5	2560.27302
935.675	2532.81945
935.851	2300.4458
936.027	2406.08596
936.202	2184.21434
936.378	2408.19851
936.553	2165.19214
936.729	2163.07853
936.904	1884.01772
937.08	1881.90321
937.255	1511.80596
937.431	1748.67963
937.606	1397.59331
937.782	1530.8413
937.957	1408.16853
938.133	1503.34579
938.308	1126.88374
938.483	1230.50949
938.659	1150.14586
938.834	1344.71753
939.009	1131.11318
939.185	1219.93505
939.36	966.18074
939.535	1131.11318
939.71	953.49517
939.886	953.49517
940.061	862.58981
940.236	947.15248
940.411	843.56501
940.586	951.38093
940.761	750.56559
940.937	883.72929
941.112	780.15429
941.287	716.75241
941.462	653.36032
941.637	894.29933
941.812	725.20545
941.987	750.56559
942.162	659.69906
942.337	649.13455
942.512	589.97895
942.687	668.15088
942.862	537.17005
943.037	581.52897
943.212	535.05787
943.386	604.76693
943.561	376.6869
943.736	556.18028
943.911	467.47573
944.086	497.04108
944.26	617.44283
944.435	530.83356
944.61	471.69917
944.785	497.04108
944.959	429.46752
945.134	509.71283
945.309	421.02194
945.483	513.93686
945.658	484.36986
945.833	556.18028
946.007	467.47573
946.182	530.83356
946.357	412.57661
946.531	475.92268
946.706	549.84342
946.88	484.36986
947.055	454.80577
947.229	524.49719
947.404	416.79924
947.578	564.62963
947.752	497.04108
947.927	522.3851
948.101	516.0489
948.276	528.72142
948.45	560.40493
948.624	640.68315
948.799	522.3851
948.973	562.51727
949.147	416.79924
949.321	668.15088
949.496	530.83356
949.67	564.62963
949.844	471.69917
950.018	551.95569
950.193	494.92917
950.367	619.55552
950.541	608.99218
950.715	537.17005
950.889	592.09148
951.063	598.42915
951.237	543.50667
951.411	611.10482
951.585	539.28225
951.759	666.03791
951.933	617.44283
952.107	621.66823
952.281	480.14624
952.455	589.97895
952.629	509.71283
952.803	558.2926
952.977	543.50667
953.151	585.75393
953.325	649.13455
953.499	682.94202
953.672	623.78095
953.846	670.26386
954.02	499.153
954.194	573.07919
954.368	598.42915
954.541	685.05508
954.715	558.2926
954.889	792.83576
955.062	636.45753
955.236	742.11204
955.41	592.09148
955.583	682.94202
955.757	666.03791
955.93	587.86644
956.104	638.57033
956.278	746.3388
956.451	636.45753
956.625	575.19162
956.798	541.39445
956.972	718.86566
957.145	589.97895
957.319	632.23195
957.492	640.68315
957.665	632.23195
957.839	589.97895
958.012	691.39435
958.185	680.82896
958.359	682.94202
958.532	634.34474
958.705	651.24742
958.879	562.51727
959.052	674.48987
959.225	547.73116
959.398	589.97895
959.572	423.13331
959.745	642.79598
959.918	522.3851
960.091	750.56559
960.264	602.65432
960.438	634.34474
960.611	558.2926
960.784	632.23195
960.957	499.153
961.13	600.54173
961.303	497.04108
961.476	727.31874
961.649	657.58613
961.822	587.86644
961.995	480.14624
962.168	560.40493
962.341	640.68315
962.514	522.3851
962.686	551.95569
962.859	509.71283
963.032	469.58744
963.205	539.28225
963.378	389.35331
963.551	505.48886
963.723	465.36403
963.896	543.50667
964.069	440.02485
964.242	503.37689
964.414	463.25235
964.587	399.90911
964.76	469.58744
964.932	456.91739
965.105	444.24789
965.278	497.04108
965.45	406.24279
965.623	465.36403
965.795	416.79924
965.968	475.92268
966.14	425.2447
966.313	509.71283
966.485	459.02903
966.658	416.79924
966.83	336.58062
967.003	433.6904
967.175	366.13202
967.348	446.35944
967.52	361.91018
967.692	387.2422
967.865	463.25235
968.037	522.3851
968.209	338.69132
968.382	387.2422
968.554	353.46672
968.726	594.20402
968.898	374.57589
969.071	456.91739
969.243	404.13155
969.415	349.24509
969.587	361.91018
969.759	463.25235
969.932	317.58511
970.104	507.60084
970.276	285.92915
970.448	450.58257
970.62	378.79793
970.792	387.2422
970.964	330.24862
971.136	467.47573
971.308	294.37034
971.48	277.48826
971.652	226.84928
971.824	473.81092
971.996	298.59104
972.168	271.15779
972.339	237.39815
972.511	277.48826
972.683	212.08167
972.855	372.4649
973.027	260.60738
973.199	298.59104
973.37	269.04767
973.542	313.36408
973.714	275.37808
973.886	292.26001
974.057	252.16739
974.229	290.14971
974.401	266.93757
974.572	332.35927
974.744	319.69565
974.915	220.52019
975.087	393.57558
975.259	304.92223
975.43	188.87742
975.602	243.72771
975.773	207.86254
975.945	214.19127
976.116	218.41053
976.288	290.14971
976.459	296.48068
976.63	260.60738
976.802	197.31505
976.973	294.37034
977.145	188.87742
977.316	281.70867
977.487	243.72771
977.659	269.04767
977.83	167.78478
978.001	279.59846
978.172	218.41053
978.344	218.41053
978.515	193.0962
978.686	214.19127
978.857	178.33085
979.028	209.9721
979.2	193.0962
979.371	218.41053
979.542	209.9721
979.713	125.60578
979.884	169.89395
980.055	142.47636
980.226	184.65873
980.397	188.87742
980.568	212.08167
980.739	195.20561
980.91	157.23924
981.081	148.80318
981.252	102.41098
981.423	184.65873
981.594	184.65873
981.765	269.04767
981.936	119.27966
982.106	142.47636
982.277	207.86254
982.448	288.03942
982.619	140.36746
982.79	178.33085
982.96	134.0409
983.131	218.41053
983.302	127.71452
983.472	161.45739
983.643	142.47636
983.814	125.60578
983.984	91.86877
984.155	144.58528
984.326	146.69422
984.496	138.25859
984.667	121.38835
984.837	134.0409
985.008	100.3025
985.178	163.5665
985.349	138.25859
985.519	172.00315
985.69	127.71452
985.86	119.27966
986.031	93.97717
986.201	140.36746
986.371	125.60578
986.542	91.86877
986.712	150.91217
986.882	91.86877
987.053	127.71452
987.223	186.76807
987.393	142.47636
987.563	89.7604
987.734	123.49705
987.904	117.171
988.074	112.95374
988.244	89.7604
988.414	62.35357
988.585	127.71452
988.755	85.54372
988.925	127.71452
989.095	66.56975
989.265	119.27966
989.435	45.48974
989.605	136.14973
989.775	51.8135
989.945	108.73657
990.115	136.14973
990.285	91.86877
990.455	125.60578
990.625	85.54372
990.795	91.86877
990.965	66.56975
991.134	26.51971
991.304	169.89395
991.474	15.98162
991.644	24.41204
991.814	172.00315
991.984	39.16618
992.153	70.78603
992.323	104.51949
992.493	140.36746
992.662	58.13747
992.832	51.8135
993.002	121.38835
993.171	79.21886
993.341	72.8942
993.511	83.43541
993.68	37.05838
993.85	81.32712
994.019	110.84515
994.189	30.7351
994.358	104.51949
994.528	58.13747
994.697	85.54372
994.867	43.38186
995.036	9.65906
995.206	66.56975
995.375	39.16618
995.544	58.13747
995.714	121.38835
995.883	-17.73622
996.052	13.87408
996.222	49.70556
996.391	123.49705
996.56	7.55158
996.73	127.71452
996.899	41.27401
997.068	79.21886
997.237	53.92147
997.406	75.0024
997.576	136.14973
997.745	70.78603
997.914	49.70556
998.083	49.70556
998.252	77.11062
998.421	79.21886
998.59	58.13747
998.759	167.78478
998.928	43.38186
999.097	75.0024
999.266	-19.84338
999.435	72.8942
999.604	79.21886
999.773	93.97717
999.942	96.08559
1000.111	58.13747
1000.28	72.8942
1000.448	60.24551
1000.617	49.70556
1000.786	24.41204
1000.955	28.62739
1001.124	41.27401
1001.292	43.38186
1001.461	93.97717
1001.63	100.3025
1001.798	68.67788
1001.967	66.56975
1002.136	104.51949
1002.304	85.54372
1002.473	11.76656
1002.642	58.13747
1002.81	43.38186
1002.979	43.38186
1003.147	30.7351
1003.316	34.9506
1003.484	62.35357
1003.653	102.41098
1003.821	106.62802
1003.99	32.84284
1004.158	91.86877
1004.327	34.9506
1004.495	51.8135
1004.663	53.92147
1004.832	77.11062
1005	3.33671
1005.168	66.56975
1005.337	83.43541
1005.505	77.11062
1005.673	32.84284
1005.842	51.8135
1006.01	20.19678
1006.178	41.27401
1006.346	24.41204
1006.514	60.24551
1006.683	15.98162
1006.851	45.48974
1007.019	18.08919
1007.187	41.27401
1007.355	91.86877
1007.523	41.27401
1007.691	26.51971
1007.859	9.65906
1008.027	-17.73622
1008.195	22.3044
1008.363	37.05838
1008.531	13.87408
1008.699	22.3044
1008.867	58.13747
1009.035	1.22931
1009.203	-2.98542
1009.37	51.8135
1009.538	18.08919
1009.706	-0.87807
1009.874	58.13747
1010.042	62.35357
1010.209	3.33671
1010.377	18.08919
1010.545	-0.87807
1010.713	-15.62904
1010.88	7.55158
1011.048	81.32712
1011.216	1.22931
1011.383	39.16618
1011.551	58.13747
1011.718	3.33671
1011.886	24.41204
1012.054	49.70556
1012.221	24.41204
1012.389	26.51971
1012.556	100.3025
1012.724	9.65906
1012.891	-11.4146
1013.058	53.92147
1013.226	-7.20006
1013.393	41.27401
1013.561	41.27401
1013.728	26.51971
1013.895	-34.5928
1014.063	30.7351
1014.23	-57.768
1014.397	-13.52183
1014.565	-24.05762
1014.732	5.44413
1014.899	9.65906
1015.066	-2.98542
1015.233	49.70556
1015.401	7.55158
1015.568	-47.2342
1015.735	49.70556
1015.902	24.41204
1016.069	-5.09275
1016.236	91.86877
1016.403	83.43541
1016.57	66.56975
1016.737	-0.87807
1016.904	60.24551
1017.071	5.44413
1017.238	-26.16471
1017.405	115.06236
1017.572	110.84515
1017.739	26.51971
1017.906	-0.87807
1018.073	49.70556
1018.24	20.19678
1018.407	85.54372
1018.573	32.84284
1018.74	68.67788
1018.907	45.48974
1019.074	3.33671
1019.241	-32.48582
1019.407	18.08919
1019.574	66.56975
1019.741	-30.3788
1019.907	53.92147
1020.074	77.11062
1020.241	-0.87807
1020.407	26.51971
1020.574	41.27401
1020.74	49.70556
1020.907	-26.16471
1021.073	32.84284
1021.24	-43.0205
1021.406	-0.87807
1021.573	-7.20006
1021.739	-5.09275
1021.906	-40.91361
1022.072	34.9506
1022.239	-15.62904
1022.405	20.19678
1022.571	-34.5928
1022.738	28.62739
1022.904	18.08919
1023.07	26.51971
1023.237	7.55158
1023.403	43.38186
1023.569	26.51971
1023.735	24.41204
1023.902	-9.30734
1024.068	68.67788
1024.234	30.7351
1024.4	-0.87807
1024.566	7.55158
1024.732	-43.0205
1024.898	-7.20006
1025.065	-11.4146
1025.231	11.76656
1025.397	-49.34101
1025.563	11.76656
1025.729	58.13747
1025.895	-47.2342
1026.061	49.70556
1026.227	5.44413
1026.392	83.43541
1026.558	-68.30117
1026.724	-2.98542
1026.89	-9.30734
1027.056	43.38186
1027.222	41.27401
1027.388	1.22931
1027.553	-9.30734
1027.719	-7.20006
1027.885	-76.72725
1028.051	-51.44779
1028.216	43.38186
1028.382	11.76656
1028.548	37.05838
1028.713	7.55158
1028.879	-17.73622
1029.045	7.55158
1029.21	-5.09275
1029.376	15.98162
1029.541	24.41204
1029.707	11.76656
1029.873	-21.95051
1030.038	-21.95051
1030.204	34.9506
1030.369	18.08919
1030.534	49.70556
1030.7	72.8942
1030.865	-30.3788
1031.031	3.33671
1031.196	15.98162
1031.361	18.08919
1031.527	70.78603
1031.692	37.05838
1031.857	58.13747
1032.023	-0.87807
1032.188	-9.30734
1032.353	-53.55456
1032.518	3.33671
1032.684	22.3044
1032.849	41.27401
1033.014	-32.48582
1033.179	30.7351
1033.344	-49.34101
1033.509	11.76656
1033.674	-7.20006
1033.839	-34.5928
1034.004	-34.5928
1034.17	75.0024
1034.335	64.46165
1034.5	-59.87469
1034.664	45.48974
1034.829	49.70556
1034.994	53.92147
1035.159	-5.09275
1035.324	66.56975
1035.489	-13.52183
1035.654	-57.768
1035.819	-5.09275
1035.984	-17.73622
1036.148	7.55158
1036.313	108.73657
1036.478	-32.48582
1036.643	11.76656
1036.807	-43.0205
1036.972	-0.87807
1037.137	-17.73622
1037.301	-24.05762
1037.466	66.56975
1037.631	-21.95051
1037.795	-72.51427
1037.96	-9.30734
1038.124	56.02946
1038.289	-9.30734
1038.454	34.9506
1038.618	-13.52183
1038.783	-45.12736
1038.947	75.0024
1039.111	28.62739
1039.276	60.24551
1039.44	34.9506
1039.605	-106.21527
1039.769	1.22931
1039.933	15.98162
1040.098	-15.62904
1040.262	7.55158
1040.426	32.84284
1040.591	-2.98542
1040.755	-26.16471
1040.919	7.55158
1041.083	5.44413
1041.248	62.35357
1041.412	1.22931
1041.576	-0.87807
1041.74	-9.30734
1041.904	3.33671
1042.068	7.55158
1042.232	7.55158
1042.397	24.41204
1042.561	15.98162
1042.725	41.27401
1042.889	60.24551
1043.053	-7.20006
1043.217	28.62739
1043.381	-5.09275
1043.544	9.65906
1043.708	1.22931
1043.872	41.27401
1044.036	37.05838
1044.2	-7.20006
1044.364	1.22931
1044.528	28.62739
1044.691	-36.69976
1044.855	43.38186
1045.019	51.8135
1045.183	-21.95051
1045.346	24.41204
1045.51	1.22931
1045.674	62.35357
1045.837	-34.5928
1046.001	15.98162
1046.165	72.8942
1046.328	-34.5928
1046.492	-15.62904
1046.655	41.27401
1046.819	-47.2342
1046.983	-9.30734
1047.146	-9.30734
1047.31	75.0024
1047.473	125.60578
1047.636	108.73657
1047.8	34.9506
1047.963	-17.73622
1048.127	13.87408
1048.29	7.55158
