Data from mixed_try1_USB4F045381__2__00227.txt Node

Date: Thu Apr 03 20:22:45 EDT 2025
User: mmckonesweet
Spectrometer: USB4F04538
Trigger mode: 4
Integration Time (sec): 2.700000E-3
Scans to average: 1
Electric dark correction enabled: true
Nonlinearity correction enabled: true
Boxcar width: 0
XAxis mode: Wavelengths
Number of Pixels in Spectrum: 3648
>>>>>Begin Spectral Data<<<<<
345.52	119.80683
345.736	119.80683
345.952	119.80683
346.168	-15.10224
346.384	-53.02787
346.6	46.01671
346.816	10.18593
347.032	14.40096
347.248	-50.9211
347.464	29.15432
347.68	-40.38689
347.896	-2.45859
348.112	54.44846
348.328	-12.99502
348.544	-6.67324
348.76	1.75615
348.975	-42.49378
349.191	3.86356
349.407	52.34049
349.623	-53.02787
349.839	10.18593
350.055	1.75615
350.27	-10.88778
350.486	-25.63794
350.702	33.36978
350.918	-36.17303
351.133	14.40096
351.349	-12.99502
351.565	16.50851
351.781	29.15432
351.996	39.69314
352.212	-0.35123
352.428	71.31307
352.644	5.97099
352.859	22.83131
353.075	43.90883
353.291	24.93896
353.506	24.93896
353.722	41.80097
353.938	-36.17303
354.153	8.07845
354.369	-2.45859
354.584	-27.74501
354.8	-2.45859
355.016	37.58533
355.231	24.93896
355.447	43.90883
355.662	-27.74501
355.878	37.58533
356.093	-27.74501
356.309	41.80097
356.524	5.97099
356.74	1.75615
356.955	-8.78052
357.171	5.97099
357.386	39.69314
357.602	-19.31659
357.817	-17.20943
358.033	-12.99502
358.248	-50.9211
358.464	-31.95906
358.679	58.66448
358.895	-34.06606
359.11	18.61609
359.325	56.55646
359.541	31.26204
359.756	5.97099
359.972	16.50851
360.187	41.80097
360.402	43.90883
360.618	10.18593
360.833	94.50427
361.048	-23.53085
361.264	18.61609
361.479	20.72369
361.694	60.77252
361.909	18.61609
362.125	-31.95906
362.34	22.83131
362.555	8.07845
362.77	71.31307
362.986	56.55646
363.201	-6.67324
363.416	5.97099
363.631	-36.17303
363.847	-19.31659
364.062	39.69314
364.277	3.86356
364.492	-61.45468
364.707	-6.67324
364.922	-0.35123
365.138	5.97099
365.353	73.42125
365.568	-10.88778
365.783	14.40096
365.998	-10.88778
366.213	-0.35123
366.428	64.98867
366.643	-2.45859
366.858	-17.20943
367.073	83.96248
367.288	39.69314
367.503	27.04663
367.718	-10.88778
367.933	22.83131
368.148	14.40096
368.363	14.40096
368.578	67.09678
368.793	-21.42373
369.008	3.86356
369.223	-10.88778
369.438	56.55646
369.653	5.97099
369.868	-17.20943
370.083	39.69314
370.298	-2.45859
370.513	79.74592
370.728	31.26204
370.943	41.80097
371.157	-44.60065
371.372	-59.34802
371.587	-25.63794
371.802	-25.63794
372.017	5.97099
372.232	16.50851
372.446	5.97099
372.661	-17.20943
372.876	22.83131
373.091	-34.06606
373.306	18.61609
373.52	10.18593
373.735	-0.35123
373.95	22.83131
374.165	-2.45859
374.379	33.36978
374.594	-59.34802
374.809	-59.34802
375.023	22.83131
375.238	69.20492
375.453	27.04663
375.667	5.97099
375.882	41.80097
376.097	31.26204
376.311	107.15516
376.526	64.98867
376.741	105.04662
376.955	5.97099
377.17	31.26204
377.384	-4.56592
377.599	14.40096
377.813	-0.35123
378.028	-29.85205
378.242	58.66448
378.457	37.58533
378.672	10.18593
378.886	46.01671
379.101	-10.88778
379.315	39.69314
379.53	73.42125
379.744	27.04663
379.958	-15.10224
380.173	5.97099
380.387	12.29343
380.602	33.36978
380.816	69.20492
381.031	-10.88778
381.245	-19.31659
381.459	-23.53085
381.674	27.04663
381.888	39.69314
382.103	56.55646
382.317	27.04663
382.531	-44.60065
382.746	1.75615
382.96	39.69314
383.174	-46.70749
383.388	-2.45859
383.603	-46.70749
383.817	100.82962
384.031	56.55646
384.246	-2.45859
384.46	-0.35123
384.674	-23.53085
384.888	-10.88778
385.103	43.90883
385.317	-15.10224
385.531	48.12461
385.745	10.18593
385.959	75.52945
386.174	24.93896
386.388	18.61609
386.602	-0.35123
386.816	31.26204
387.03	-57.24133
387.244	14.40096
387.458	-34.06606
387.672	58.66448
387.887	64.98867
388.101	39.69314
388.315	-19.31659
388.529	22.83131
388.743	-53.02787
388.957	39.69314
389.171	50.23254
389.385	-10.88778
389.599	14.40096
389.813	14.40096
390.027	-48.81431
390.241	52.34049
390.455	-55.13461
390.669	-27.74501
390.883	46.01671
391.097	86.0708
391.311	-53.02787
391.525	-53.02787
391.738	43.90883
391.952	-0.35123
392.166	24.93896
392.38	8.07845
392.594	86.0708
392.808	22.83131
393.022	52.34049
393.236	-48.81431
393.449	48.12461
393.663	16.50851
393.877	48.12461
394.091	67.09678
394.305	-27.74501
394.518	64.98867
394.732	39.69314
394.946	-90.94533
395.16	83.96248
395.373	-19.31659
395.587	16.50851
395.801	-2.45859
396.015	16.50851
396.228	31.26204
396.442	-34.06606
396.656	3.86356
396.869	-17.20943
397.083	5.97099
397.297	43.90883
397.51	-53.02787
397.724	60.77252
397.938	56.55646
398.151	16.50851
398.365	14.40096
398.578	14.40096
398.792	1.75615
399.005	-10.88778
399.219	22.83131
399.433	-31.95906
399.646	-0.35123
399.86	-21.42373
400.073	33.36978
400.287	-2.45859
400.5	54.44846
400.714	1.75615
400.927	10.18593
401.141	-8.78052
401.354	-2.45859
401.567	33.36978
401.781	16.50851
401.994	-0.35123
402.208	39.69314
402.421	-48.81431
402.635	64.98867
402.848	-15.10224
403.061	3.86356
403.275	-12.99502
403.488	113.4809
403.701	-23.53085
403.915	43.90883
404.128	-38.27997
404.341	-25.63794
404.555	-12.99502
404.768	94.50427
404.981	67.09678
405.195	41.80097
405.408	-25.63794
405.621	35.47754
405.834	-31.95906
406.048	143.00359
406.261	52.34049
406.474	41.80097
406.687	39.69314
406.9	56.55646
407.114	-17.20943
407.327	60.77252
407.54	88.17913
407.753	126.13296
407.966	90.28749
408.179	43.90883
408.392	29.15432
408.605	-59.34802
408.819	14.40096
409.032	75.52945
409.245	-34.06606
409.458	86.0708
409.671	-25.63794
409.884	94.50427
410.097	107.15516
410.31	43.90883
410.523	56.55646
410.736	37.58533
410.949	10.18593
411.162	8.07845
411.375	-2.45859
411.588	52.34049
411.801	73.42125
412.014	60.77252
412.227	-44.60065
412.44	14.40096
412.653	73.42125
412.865	56.55646
413.078	50.23254
413.291	92.39587
413.504	41.80097
413.717	83.96248
413.93	10.18593
414.143	-4.56592
414.356	128.24171
414.568	18.61609
414.781	39.69314
414.994	50.23254
415.207	-40.38689
415.42	121.91552
415.632	-19.31659
415.845	43.90883
416.058	58.66448
416.271	121.91552
416.483	73.42125
416.696	88.17913
416.909	5.97099
417.121	90.28749
417.334	62.88058
417.547	67.09678
417.759	58.66448
417.972	102.93811
418.185	14.40096
418.397	27.04663
418.61	105.04662
418.823	-36.17303
419.035	115.58952
419.248	58.66448
419.46	39.69314
419.673	50.23254
419.885	27.04663
420.098	54.44846
420.311	58.66448
420.523	50.23254
420.736	69.20492
420.948	50.23254
421.161	94.50427
421.373	77.63768
421.586	98.72115
421.798	126.13296
422.01	58.66448
422.223	64.98867
422.435	64.98867
422.648	117.69816
422.86	41.80097
423.073	64.98867
423.285	43.90883
423.497	153.54842
423.71	98.72115
423.922	48.12461
424.134	90.28749
424.347	5.97099
424.559	170.42125
424.771	86.0708
424.984	107.15516
425.196	105.04662
425.408	77.63768
425.621	69.20492
425.833	90.28749
426.045	29.15432
426.257	155.65745
426.47	77.63768
426.682	24.93896
426.894	180.96744
427.106	119.80683
427.318	145.11251
427.531	75.52945
427.743	157.7665
427.955	98.72115
428.167	102.93811
428.379	58.66448
428.591	151.43941
428.804	183.07674
429.016	145.11251
429.228	166.20292
429.44	149.33043
429.652	191.51415
429.864	210.49949
430.076	166.20292
430.288	109.26371
430.5	170.42125
430.712	143.00359
430.924	208.38993
431.136	75.52945
431.348	124.02423
431.56	67.09678
431.772	145.11251
431.984	90.28749
432.196	71.31307
432.408	124.02423
432.62	149.33043
432.832	301.22902
433.044	119.80683
433.256	250.58493
433.468	231.59621
433.679	261.13489
433.891	174.63967
434.103	216.8283
434.315	242.1453
434.527	269.5752
434.739	284.34646
434.95	174.63967
435.162	242.1453
435.374	250.58493
435.586	263.24494
435.798	202.06136
436.009	252.69488
436.221	263.24494
436.433	246.36508
436.645	297.00827
436.856	273.79547
437.068	225.26699
437.28	235.81579
437.491	370.88166
437.703	242.1453
437.915	210.49949
438.126	309.67074
438.338	254.80485
438.55	267.46509
438.761	242.1453
438.973	334.99761
439.184	246.36508
439.396	360.32701
439.608	294.89792
439.819	322.33385
440.031	267.46509
440.242	318.11274
440.454	269.5752
440.665	297.00827
440.877	360.32701
441.088	334.99761
441.3	284.34646
441.511	294.89792
441.723	240.03545
441.934	372.99264
442.146	432.10681
442.357	364.54882
442.569	398.32572
442.78	419.43842
442.991	381.43673
443.203	360.32701
443.414	423.66115
443.626	404.65936
443.837	419.43842
444.048	415.21575
444.26	402.54813
444.471	391.99222
444.682	438.44123
444.894	480.67419
445.105	459.55694
445.316	512.35284
445.528	436.32974
445.739	423.66115
445.95	539.8103
446.161	525.02522
446.373	423.66115
446.584	421.54978
446.795	463.78027
447.006	541.92251
447.217	499.68099
447.429	487.00965
447.64	478.56239
447.851	573.6073
448.062	465.89196
448.273	491.23337
448.484	516.57691
448.695	579.94462
448.907	567.2701
449.118	639.09854
449.329	470.11538
449.54	668.67912
449.751	558.82068
449.962	571.49488
450.173	546.14697
450.384	590.50708
450.595	656.00144
450.806	759.54766
451.017	658.11436
451.228	624.30913
451.439	740.52702
451.65	641.21136
451.861	588.39456
452.072	681.35723
452.283	729.96036
452.494	820.84188
452.705	753.20736
452.915	829.29687
453.126	854.66273
453.337	810.27334
453.548	803.93232
453.759	877.91585
453.97	924.42505
454.181	861.00439
454.391	867.34612
454.602	844.09347
454.813	1040.71324
455.024	1021.68293
455.235	973.05219
455.445	970.93789
455.656	934.99584
455.867	913.85444
456.078	985.73814
456.288	943.45261
456.499	1180.28161
456.71	1114.72421
456.921	1038.59873
457.131	1133.75658
457.342	1087.23368
457.553	1091.46294
457.763	1049.1713
457.974	1199.31511
458.184	1002.65311
458.395	1209.8894
458.606	1205.65967
458.816	1376.97168
459.027	1330.44121
459.237	1247.95749
459.448	1461.57356
459.659	1410.81234
459.869	1442.53809
460.08	1476.37892
460.29	1683.64819
460.501	1541.94521
460.711	1546.17526
460.922	1541.94521
461.132	1704.79696
461.343	1603.28043
461.553	1670.95878
461.764	1711.14153
461.974	1723.83059
462.184	1694.22261
462.395	1768.24129
462.605	1880.31732
462.816	1871.85921
463.026	1937.4073
463.236	1918.37775
463.447	1890.88984
463.657	2045.23204
463.867	2119.21914
464.078	2095.96703
464.288	2144.58402
464.498	2419.28919
464.709	2286.1825
464.919	2290.40871
465.129	2400.27641
465.339	2408.72664
465.55	2495.33162
465.76	2360.13556
465.97	2546.01853
466.18	2501.66784
466.391	2858.42995
466.601	2554.4657
466.811	2689.59407
467.021	2782.46453
467.231	2974.45254
467.441	2666.37251
467.651	3067.23808
467.862	2968.12518
468.072	3252.71725
468.282	2862.64972
468.492	3058.80427
468.702	3122.05176
468.912	3301.17367
469.122	3288.53373
469.332	3499.11739
469.542	3271.67953
469.752	3494.90746
469.962	3724.24019
470.172	3858.78822
470.382	3625.38097
470.592	3755.78207
470.802	3709.51915
471.012	4043.65818
471.222	3926.0318
471.432	3980.65201
471.642	4066.7558
471.852	4308.07891
472.062	4249.34782
472.272	4521.88413
472.482	4289.20289
472.691	4637.07611
472.901	4377.27601
473.111	4607.76091
473.321	4737.55195
473.531	5107.60313
473.741	4875.62108
473.95	5138.9302
474.16	5024.03875
474.37	5234.96726
474.58	4955.07031
474.79	5545.70374
474.999	5264.18613
475.209	5431.06306
475.419	5622.78557
475.628	5745.63303
475.838	5568.62333
476.048	5731.06221
476.258	5839.27503
476.467	6236.20203
476.677	6180.144
476.886	6306.76933
477.096	6333.7438
477.306	6420.86513
477.515	6325.44439
477.725	6543.18054
477.935	6346.19222
478.144	6623.98884
478.354	6655.05961
478.563	6905.50862
478.773	6874.47934
478.982	7232.04289
479.192	7413.67006
479.401	7263.01408
479.611	7291.91606
479.82	7623.98216
480.03	7663.13335
480.239	7755.8294
480.449	7475.54982
480.658	7959.61191
480.868	8039.83451
481.077	7963.72664
481.287	7990.47042
481.496	8405.59212
481.705	8335.77649
481.915	8428.17474
482.124	8592.34253
482.333	8598.49646
482.543	8674.38121
482.752	8676.4318
482.961	8799.43328
483.171	9098.46657
483.38	8934.65949
483.589	9037.05202
483.799	9237.61567
484.008	9427.79703
484.217	9536.11687
484.426	9576.98064
484.636	9397.13224
484.845	9915.91183
485.054	9585.15264
485.263	9801.62023
485.472	9607.62434
485.682	10168.82429
485.891	9875.09874
486.1	9905.70911
486.309	10401.15274
486.518	10547.79839
486.727	10488.74077
486.936	10712.69691
487.146	10452.07892
487.355	10649.59713
487.564	10625.16826
487.773	11054.46077
487.982	10964.98228
488.191	11068.69402
488.4	11154.08239
488.609	11231.32239
488.818	11249.61387
489.027	11408.1056
489.236	11623.39687
489.445	11688.36999
489.654	11836.55611
489.863	11775.66329
490.072	11909.61748
490.281	11875.11762
490.49	12090.19629
490.698	12080.05307
490.907	12155.10844
491.116	12481.58562
491.325	12337.63346
491.534	12382.24199
491.743	12469.42195
491.952	12718.73205
492.16	12807.89422
492.369	12789.65739
492.578	12781.55199
492.787	12969.97999
492.996	13040.88205
493.204	13215.07346
493.413	13150.26208
493.622	13435.80412
493.831	13223.17456
494.039	13391.2569
494.248	13460.10182
494.457	13640.29322
494.665	13775.92526
494.874	13690.90387
495.083	13816.40976
495.291	13915.59193
495.5	13954.04857
495.709	14008.69589
495.917	14010.71983
496.126	14055.2459
496.335	14332.49839
496.543	14377.01741
496.752	14455.9356
496.96	14235.36307
497.169	14542.94546
497.377	14670.42096
497.586	14520.68735
497.794	14911.1983
498.003	14631.97642
498.211	15158.03855
498.42	14559.13307
498.628	14949.64093
498.837	15103.41023
499.045	15087.22404
499.254	14967.85054
499.462	15465.57771
499.671	15718.49699
499.879	15257.17886
500.087	15564.72068
500.296	15657.79523
500.504	15542.46396
500.713	15540.44063
500.921	15860.13797
501.129	15499.97408
501.338	15611.25775
501.546	16086.7761
501.754	16032.13852
501.962	16177.84125
502.171	16147.48584
502.379	16250.69578
502.587	15916.79593
502.795	16303.31436
503.004	16250.69578
503.212	16408.55529
503.42	16542.13808
503.628	16720.26317
503.837	16444.98607
504.045	16807.30814
504.253	17032.0272
504.461	17003.68247
504.669	16793.13773
504.877	17117.06461
505.085	17050.24909
505.294	17098.8419
505.502	17204.13186
505.71	17117.06461
505.918	16896.38215
506.126	17445.11378
506.334	17222.35591
506.542	17663.85821
506.75	17030.00256
506.958	17582.83737
507.166	17540.30351
507.374	17590.93922
507.582	17663.85821
507.79	17844.14871
507.998	17645.62807
508.206	18067.01744
508.414	18004.20466
508.622	18071.07
508.83	17811.73495
509.037	18452.07593
509.245	18243.31708
509.453	18324.38374
509.661	18346.67812
509.869	18407.4833
510.077	18387.21453
510.285	18458.15689
510.492	18448.02198
510.7	18620.3285
510.908	18640.6017
511.116	18456.1299
511.324	18399.37575
511.531	18731.83592
511.739	18502.75162
511.947	18794.69081
512.155	18865.66059
512.362	19068.45848
512.57	18685.2041
512.778	18654.79316
512.985	18950.8308
513.193	18636.54702
513.401	19080.62764
513.608	19425.48176
513.816	19297.66901
514.024	19309.84095
514.231	19131.33405
514.439	19251.0113
514.646	19200.29886
514.854	19595.92439
515.061	19222.61201
515.269	19871.94165
515.477	19533.01953
515.684	19520.84485
515.892	19664.92144
516.099	19837.43525
516.307	19914.56887
516.514	20284.08253
516.722	20026.2204
516.929	20038.40134
517.136	20221.13355
517.344	19746.10064
517.551	19614.18785
517.759	20133.82391
517.966	20578.57486
518.173	20229.25577
518.381	20397.80706
518.588	20477.01583
518.796	20403.89981
519.003	20487.17127
519.21	20355.15882
519.418	20789.85102
519.625	20604.98192
519.832	20925.98538
520.039	20669.98691
520.247	21182.04921
520.454	20669.98691
520.661	21249.12424
520.868	20722.8066
521.076	21371.09009
521.283	21324.3348
521.49	21222.70022
521.697	21509.33549
521.904	21283.67976
522.112	21202.37451
522.319	21566.26541
522.526	21265.38551
522.733	21852.99495
522.94	21547.96617
523.147	21405.64971
523.354	21810.28565
523.561	21885.53651
523.768	21914.01118
523.975	21869.26561
524.183	21608.96488
524.39	22272.04171
524.597	21909.94332
524.804	22371.74116
525.011	22369.70639
525.218	21857.06259
525.425	22329.01175
525.632	21794.01589
525.838	22512.14906
526.045	22324.94237
526.252	22227.28156
526.459	22337.15056
526.666	22705.49208
526.873	22658.6798
527.08	22526.39429
527.287	22620.01018
527.494	22740.09365
527.701	23198.14824
527.907	22907.00934
528.114	23220.54633
528.321	23051.55234
528.528	22957.90283
528.735	23185.93127
528.941	23560.63729
529.148	23016.94192
529.355	23240.90857
529.562	23322.36073
529.768	23613.59338
529.975	22915.15216
530.182	23310.14258
530.388	23167.60603
530.595	23414.0005
530.802	23226.65497
531.008	23876.36696
531.215	23980.26758
531.422	24186.05317
531.628	23900.8135
531.835	24004.71587
532.042	24328.6932
532.248	24261.44698
532.455	24037.31421
532.661	24597.7065
532.868	24181.97793
533.074	24232.91916
533.281	24133.07596
533.487	24277.74882
533.694	24369.44989
533.9	24895.30215
534.107	24593.63021
534.313	25093.04761
534.52	24487.6502
534.726	25294.892
534.933	24950.34253
535.139	25439.66202
535.345	24960.53538
535.552	25364.21717
535.758	25131.78375
535.965	25360.13915
536.171	25019.65503
536.377	25044.1189
536.584	25547.73658
536.79	25653.77748
536.996	25749.6267
537.203	25508.99222
537.409	25368.2952
537.615	25451.89659
537.821	25714.95734
538.028	26049.43718
538.234	25427.42753
538.44	25894.42816
538.646	25818.96706
538.853	26222.81465
539.059	26031.08031
539.265	26116.74695
539.471	25973.97096
539.677	25890.34911
539.883	26061.67518
540.09	26226.89427
540.296	26410.48404
540.502	26714.4556
540.708	26543.08483
540.914	26665.49143
541.12	26689.97341
541.326	26657.33082
541.532	26771.58156
541.738	26692.01358
541.944	26891.95788
542.15	27091.91594
542.356	27047.02623
542.562	27171.49476
542.768	26832.78923
542.974	27067.43056
543.18	26902.1595
543.386	27546.97043
543.592	27524.52231
543.798	27357.18654
544.004	27238.83228
544.21	27632.68281
544.415	27265.35958
544.621	27734.72413
544.827	27998.00429
545.033	28065.35809
545.239	27920.4469
545.445	27979.63528
545.651	27679.62144
545.856	27810.23661
546.062	27995.96328
546.268	27810.23661
546.474	27536.76672
546.679	26965.4103
546.885	27189.8594
547.091	27571.45946
547.297	27657.17245
547.502	28208.2338
547.708	28075.56331
547.914	27998.00429
548.119	28536.8682
548.325	28318.45589
548.531	27830.64567
548.736	28240.89187
548.942	28330.70298
549.147	28187.82265
549.353	28845.11549
549.559	28885.94473
549.764	28675.67859
549.97	28436.84609
550.175	28496.04254
550.381	29090.09716
550.586	28783.87241
550.792	29051.3074
550.997	28755.29262
551.203	29275.8849
551.408	28589.94218
551.614	29083.97244
551.819	29145.2201
552.025	29314.67683
552.23	29163.59458
552.435	28983.9366
552.641	29320.80191
552.846	29669.947
553.052	29431.05491
553.257	29620.9423
553.462	29798.58731
553.668	29618.90045
553.873	29692.40769
554.078	30172.28185
554.283	29894.5599
554.489	30368.33387
554.694	30243.75787
554.899	29682.19827
555.105	29890.47591
555.31	29784.29373
555.515	29935.40004
555.72	30078.34411
555.925	30433.68702
556.131	30206.99859
556.336	30008.91344
556.541	30233.54692
556.746	30568.48194
556.951	30002.78727
557.156	30429.60241
557.361	30245.80006
557.567	30903.45149
557.772	30533.76151
557.977	30490.87207
558.182	30711.45235
558.387	30956.55979
558.592	30897.32367
558.797	30560.31239
559.002	31117.93327
559.207	30654.26342
559.412	30646.09365
559.617	30305.02419
559.822	30885.06807
560.027	30727.79224
560.232	31007.62637
560.437	30960.64508
560.642	30670.60301
560.847	30919.7924
561.051	31068.90745
561.256	31103.63399
561.461	31526.5163
561.666	31792.13086
561.871	31160.83157
562.076	31322.21688
562.281	31446.83758
562.485	31320.17397
562.69	31193.51643
562.895	31485.65511
563.1	31077.07837
563.305	31277.27317
563.509	31293.61625
563.714	31091.37752
563.919	31220.07316
564.123	31346.73196
564.328	31553.07644
564.533	31877.95126
564.737	31712.44336
564.942	31704.27044
565.147	32106.8221
565.351	31673.62224
565.556	32047.55855
565.761	31612.32701
565.965	31845.25739
566.17	31867.73438
566.374	31506.08562
566.579	32057.77629
566.784	31636.84491
566.988	32345.93743
567.193	32811.9933
567.397	32206.96094
567.602	32474.70401
567.806	32100.69131
568.011	32542.15673
568.215	32431.78084
568.42	32262.14161
568.624	32253.9666
568.828	32366.37598
569.033	32176.30567
569.237	32654.58355
569.442	32609.61197
569.646	32343.89358
569.85	32713.86604
570.055	32486.96796
570.259	32981.68544
570.463	32854.92579
570.668	32523.76029
570.872	32687.29088
571.076	33400.88461
571.281	33468.37682
571.485	32613.70025
571.689	32607.56783
571.893	32869.23687
572.098	32764.97328
572.302	32971.46252
572.506	33337.48581
572.71	33200.47219
572.914	33353.84652
573.119	32811.9933
573.323	32985.77463
573.527	33290.44983
573.731	33816.11806
573.935	33480.64848
574.139	33296.58487
574.343	32756.79602
574.547	33519.50948
574.751	33985.93242
574.955	33458.15051
575.159	33797.70587
575.364	33433.60769
575.568	33345.66614
575.772	33578.82581
575.976	33501.1015
576.18	33542.00847
576.383	33803.84323
576.587	33492.92026
576.791	33818.16387
576.995	33679.05598
577.199	34202.83933
577.403	34024.80897
577.607	34137.35367
577.811	34047.31704
578.015	33912.27508
578.219	33850.89739
578.422	33981.84023
578.626	34741.20112
578.83	34317.44849
579.034	34053.45568
579.238	33834.53052
579.442	34915.25817
579.645	34868.15723
579.849	34974.6497
580.053	35367.96196
580.257	34362.47682
580.46	34436.16362
580.664	34923.44988
580.868	34974.6497
581.071	34857.91821
581.275	34581.50559
581.479	35187.67194
581.682	34718.6784
581.886	34913.21025
582.09	35277.81221
582.293	35036.09325
582.497	35120.07285
582.7	35195.86612
582.904	35189.72048
583.107	34952.12143
583.311	34905.01863
583.515	35361.81508
583.718	35042.23783
583.922	35505.25412
584.125	34980.79387
584.329	35175.38081
584.532	34993.08233
584.735	35466.3182
584.939	35468.36741
585.142	35579.03256
585.346	35021.75605
585.549	35857.81343
585.753	35624.12273
585.956	35884.4669
586.159	36333.6222
586.363	36187.97459
586.566	35923.42369
586.769	35501.15551
586.973	35814.7598
587.176	36007.49531
587.379	35851.66276
587.582	35954.18049
587.786	35767.60863
587.989	35995.19154
588.192	35863.96415
588.395	36411.58712
588.599	36052.61088
588.802	36678.37829
589.005	36134.64643
589.208	36438.2614
589.411	36364.39676
589.615	36267.97442
589.818	36323.36432
590.021	36469.04072
590.224	36627.06383
590.427	36861.09138
590.63	36766.64878
590.833	36840.55916
591.036	37054.12781
591.239	37064.39743
591.442	36491.61313
591.645	37251.33568
591.848	37317.08646
592.051	36852.87841
592.254	36561.38727
592.457	37185.59237
592.66	37302.70284
592.863	37247.22651
593.066	36703.01068
593.269	36947.33414
593.472	37043.85837
593.675	37298.5933
593.878	37261.60875
594.081	37796.06744
594.284	37080.82919
594.486	37903.02247
594.689	37874.22474
594.892	37341.74495
595.095	37633.61926
595.298	37522.60673
595.5	37319.1413
595.703	37555.49699
595.906	37804.29398
596.109	37662.40397
596.311	37705.58391
596.514	37310.92201
596.717	37179.42931
596.92	38228.13734
597.122	37882.4525
597.325	37666.5162
597.528	37787.84103
597.73	38440.19324
597.933	37785.78445
598.136	38567.88332
598.338	38508.15307
598.541	38596.72129
598.743	38205.49599
598.946	37808.4073
599.148	38318.7131
599.351	38116.99871
599.554	38382.53787
599.756	37859.82647
599.959	38569.94311
600.161	38248.72128
600.363	38710.03046
600.566	38975.90095
600.768	38825.42815
600.971	38720.33266
601.173	38411.3647
601.376	38887.26026
601.578	38452.54886
601.78	38504.03402
601.983	38469.02351
602.185	38559.64421
602.388	38633.80128
602.59	38098.47799
602.792	38611.14094
602.995	38440.19324
603.197	38436.07478
603.399	39186.23513
603.601	39132.61106
603.804	38609.08097
604.006	39085.17981
604.208	38775.96847
604.41	39462.71025
604.613	39425.56146
604.815	39516.37534
605.017	39501.92638
605.219	39489.54194
605.421	38926.42493
605.623	39173.85976
605.826	39068.68317
606.028	38623.50099
606.23	38938.79343
606.432	39122.29948
606.634	39724.90867
606.836	39159.42227
607.038	39107.86368
607.24	38916.11811
607.442	38879.01549
607.644	39105.80146
607.846	38924.36355
608.048	39386.35236
608.25	38590.54158
608.452	38798.63683
608.654	39276.99851
608.856	38602.90109
609.058	39404.92464
609.26	39369.84434
609.462	39933.54735
609.664	40175.37258
609.866	39586.56307
610.067	39493.67005
610.269	39468.90202
610.471	39345.0835
610.673	39819.91902
610.875	39506.0546
611.077	38926.42493
611.278	39188.29772
611.48	39227.48887
611.682	39324.45055
611.884	39747.62654
612.085	39704.25715
612.287	40061.67581
612.489	39650.568
612.69	39330.64033
612.892	39122.29948
613.094	39844.70795
613.295	39625.79074
613.497	39017.13512
613.699	39093.42835
613.9	39221.30056
614.102	39429.68894
614.304	39147.04766
614.505	39281.12457
614.707	39285.25067
614.908	39095.49052
615.11	39735.23482
615.311	39200.67349
615.513	39194.48556
615.714	39060.43508
615.916	39778.60747
616.117	39634.04966
616.319	39586.56307
616.52	39799.26273
616.722	39722.84347
616.923	39008.88798
617.124	39114.0504
617.326	39351.27357
617.527	39700.12697
617.729	39941.81247
617.93	39650.568
618.131	39489.54194
618.333	39149.11007
618.534	39871.56433
618.735	39981.07411
618.937	39883.96017
619.138	39929.41486
619.339	39828.18183
619.54	39706.32225
619.742	39780.67295
619.943	39411.11558
620.144	39896.3564
620.345	40131.95724
620.546	40193.98061
620.748	40169.17009
620.949	40206.38646
621.15	40103.01632
621.351	39386.35236
621.552	39933.54735
621.753	39770.34566
621.954	40169.17009
622.155	39305.88174
622.356	39646.43836
622.558	39749.69186
622.759	40065.80967
622.96	39741.43063
623.161	39939.74618
623.362	39219.23781
623.563	39807.52512
623.764	40030.67324
623.965	40845.82704
624.166	40386.3154
624.366	40129.88996
624.567	40142.29379
624.768	40065.80967
624.969	39435.88024
625.17	40293.23835
625.371	39586.56307
625.572	39819.91902
625.773	39435.88024
625.973	39782.73844
626.174	39272.87249
626.375	39801.32831
626.576	39495.73411
626.777	39508.11873
626.977	39543.21044
627.178	39968.67529
627.379	39673.28179
627.58	39528.76056
627.78	39658.82742
627.981	40218.79269
628.182	40256.01375
628.382	40506.31444
628.583	40481.48398
628.784	40080.27851
628.984	39729.0391
629.185	39925.2824
629.386	39248.1172
629.586	40074.07751
629.787	39976.94113
629.987	39952.14411
630.188	40309.78375
630.388	40322.19327
630.589	39421.43402
630.79	39865.36654
630.99	39757.95326
631.191	39974.87465
631.391	40539.42423
631.591	40206.38646
631.792	40299.44279
631.992	40742.28466
632.193	40208.45414
632.393	39724.90867
632.594	39896.3564
632.794	39840.57636
632.994	39801.32831
633.195	40934.89652
633.395	40452.51714
633.595	39776.54201
633.796	40100.94919
633.996	40605.65243
634.196	40084.41256
634.397	40885.18068
634.597	40394.59
634.797	41191.86892
634.997	40349.08191
635.198	39935.61362
635.398	39983.14062
635.598	40673.96236
635.798	40808.54847
635.998	40386.3154
636.199	40601.51283
636.399	40647.05091
636.599	40508.38372
636.799	40378.04098
636.999	40103.01632
637.199	40214.65724
637.399	40928.68168
637.599	40624.28119
637.799	40382.17817
637.999	40558.04975
638.199	40533.21593
638.399	40711.22753
638.599	40429.75901
638.799	41032.27612
638.999	41133.82708
639.199	40893.46619
639.399	40369.76674
639.599	40541.49369
639.799	40322.19327
639.999	40535.28535
640.199	40214.65724
640.399	41092.3743
640.599	39791.0005
640.799	41274.80197
640.998	41140.0454
641.198	40529.07711
641.398	40676.03255
641.598	41135.89984
641.798	40833.40043
641.997	40951.46995
642.197	40713.29793
642.397	40783.69817
642.597	41079.93938
642.796	40936.96816
642.996	41150.40951
643.196	41084.08431
643.395	40750.567
643.595	41028.13178
643.795	40976.3315
643.994	41704.28846
644.194	41774.88219
644.394	41596.34911
644.593	41673.1487
644.793	41662.7694
644.992	41055.07082
645.192	41088.22928
645.392	41028.13178
645.591	41583.8967
645.791	41098.59191
645.99	40970.11596
646.19	40516.66094
646.389	40616.00162
646.589	41108.95484
646.788	40968.04413
646.987	40820.97425
647.187	40843.75591
647.386	41156.62812
647.586	41480.1437
647.785	41602.57548
647.984	42117.67387
648.184	41720.89747
648.383	41422.05527
648.582	40456.65513
648.782	41436.57649
648.981	41044.70941
649.18	41026.05963
649.38	41258.21383
649.579	41013.62697
649.778	41544.46697
649.977	42119.75244
650.177	41482.21846
650.376	41328.71869
650.575	41567.29417
650.774	41291.39087
650.973	41235.40639
651.173	41249.92005
651.372	41181.50362
651.571	41623.33084
651.77	41590.12285
651.969	41737.50726
652.168	41623.33084
652.367	42236.1725
652.566	42078.18348
652.765	41814.33786
652.964	41349.45805
653.163	41826.79847
653.362	42211.22199
653.561	42088.57524
653.76	42128.06684
653.959	41650.31464
654.158	42055.3227
654.357	41181.50362
654.556	40748.4964
654.755	41847.56716
654.954	42213.30113
655.153	42229.9347
655.352	41891.18545
655.551	42109.35972
655.749	42535.72249
655.948	41563.14366
656.147	42086.49686
656.346	42130.14547
656.545	42009.60572
656.743	42105.20273
656.942	42319.35413
657.141	42319.35413
657.34	41965.97246
657.538	41619.17967
657.737	41889.10826
657.936	41760.34702
658.135	41254.06692
658.333	42088.57524
658.532	41722.97365
658.731	41822.64489
658.929	41779.03521
659.128	41272.72841
659.326	41490.51763
659.525	41639.93601
659.724	41565.21891
659.922	41417.90646
660.121	41457.32211
660.319	41173.2116
660.518	41532.01639
660.716	41251.99348
660.915	41496.74213
661.113	42074.02686
661.312	41390.94037
661.51	42209.14286
661.709	41833.02895
661.907	40934.89652
662.105	41546.54211
662.304	42367.19284
662.502	41745.81246
662.701	42130.14547
662.899	41648.23889
663.097	40856.18285
663.296	41260.28731
663.494	41424.1297
663.692	41523.71625
663.891	41565.21891
664.089	41666.92108
664.287	41849.64409
664.485	41411.68334
664.684	42125.98822
664.882	41822.64489
665.08	41417.90646
665.278	41488.44282
665.476	41216.74683
665.675	41509.19147
665.873	41571.44473
666.071	42090.65363
666.269	41739.58354
666.467	41388.86614
666.665	41353.60607
666.863	41144.19101
667.061	41685.60427
667.259	41602.57548
667.457	42211.22199
667.655	42011.68363
667.853	41911.95799
668.051	41372.27273
668.249	41376.42101
668.447	41334.94037
668.645	40847.89818
668.843	40949.39823
669.041	41096.51936
669.239	40731.932
669.437	41212.60039
669.635	41490.51763
669.833	41422.05527
670.031	41368.1245
670.229	41390.94037
670.426	41324.57097
670.624	41390.94037
670.822	41001.19472
671.02	41084.08431
671.218	41471.84477
671.415	41061.2878
671.613	40694.66478
671.811	40858.25405
672.009	41366.0504
672.206	41322.49712
672.404	41260.28731
672.602	40847.89818
672.799	40943.18315
672.997	41005.33876
673.195	40779.55661
673.392	41361.90224
673.59	41422.05527
673.788	40878.96667
673.985	40785.76896
674.183	40984.61905
674.38	40936.96816
674.578	40910.03777
674.775	40889.32341
674.973	40597.37327
675.17	40582.88518
675.368	40332.53483
675.565	40115.41931
675.763	40725.72054
675.96	40740.21411
676.158	40889.32341
676.355	40605.65243
676.553	40986.69097
676.75	40624.28119
676.947	40932.8249
677.145	41210.52719
677.342	41040.56494
677.539	40907.96628
677.737	41283.09632
677.934	41063.36015
678.131	40667.75186
678.329	40423.55248
678.526	40287.034
678.723	40673.96236
678.92	41061.2878
679.118	41158.70102
679.315	41023.98749
679.512	41133.82708
679.709	40845.82704
679.906	40241.53848
680.104	40841.68479
680.301	40043.07398
680.498	40340.80828
680.695	39776.54201
680.892	40264.28558
681.089	39923.21619
681.286	40146.42849
681.483	39925.2824
681.68	40270.48956
681.877	40119.55373
682.075	39939.74618
682.272	39539.08185
682.469	39634.04966
682.665	39138.79812
682.862	39175.9223
683.059	39347.14685
683.256	39514.31117
683.453	39392.54303
683.65	39809.59074
683.847	39908.753
684.044	39470.96597
684.241	39691.86673
684.438	40018.27288
684.635	39411.11558
684.831	39941.81247
685.028	40154.69801
685.225	39979.00761
685.422	39406.98828
685.619	39594.82122
685.815	39396.6702
686.012	39570.04725
686.209	38740.93773
686.405	39406.98828
686.602	39305.88174
686.799	38549.34554
686.996	39262.55762
687.192	38975.90095
687.389	39460.64634
687.586	39241.9286
687.782	39394.60661
687.979	39400.7974
688.175	39068.68317
688.372	39017.13512
688.568	39039.81553
688.765	39072.80727
688.962	39274.9355
689.158	39144.98526
689.355	39537.01757
689.551	39184.17254
689.748	39074.86934
689.944	38765.66503
690.14	39109.92591
690.337	39182.10997
690.533	38808.941
690.73	38780.0899
690.926	38687.36644
691.123	38077.90021
691.319	38304.30221
691.515	38594.66138
691.712	38590.54158
691.908	38364.00724
692.104	38409.30558
692.301	38176.6812
692.497	38246.66285
692.693	38184.91383
692.889	37680.90924
693.086	38114.94082
693.282	38549.34554
693.478	38602.90109
693.674	38897.56642
693.87	38740.93773
694.067	38536.98743
694.263	38604.96104
694.459	38808.941
694.655	38644.1018
694.851	38281.65737
695.047	38261.07206
695.243	37925.65037
695.439	37812.52065
695.635	37777.5582
695.831	38135.5201
696.027	37896.85139
696.224	37841.31499
696.42	37629.50728
696.615	37863.94022
696.811	37625.39534
697.007	37534.94035
697.203	37074.66723
697.399	37290.3743
697.595	37280.10072
697.791	37278.04603
697.987	37985.31047
698.183	37946.22204
698.379	37713.80905
698.575	37857.76961
698.77	37726.14701
698.966	38014.11438
699.162	37861.88334
699.358	37154.77774
699.554	36649.64169
699.749	37150.66924
699.945	37052.07391
700.141	37142.45234
700.337	37337.63513
700.532	36945.2806
700.728	36813.8683
700.924	37148.61501
701.119	37510.27339
701.315	37058.23564
701.511	36935.01301
701.706	37670.62846
701.902	37347.90974
702.097	37746.71089
702.293	37512.32892
702.489	37536.99598
702.684	37999.71222
702.88	37699.41514
703.075	37635.67526
703.271	36914.47833
703.466	36992.51378
703.662	36715.32724
703.857	36996.62118
704.053	37033.5891
704.248	36994.56748
704.443	37327.3607
704.639	37019.21242
704.834	37267.77267
705.03	36483.4049
705.225	36569.59648
705.42	36538.81248
705.616	36380.81042
705.811	36551.1259
706.006	36421.84633
706.202	36306.95204
706.397	36278.23148
706.592	36329.51903
706.787	36286.43723
706.983	36567.54417
707.178	37312.97682
707.373	36376.70697
707.568	36768.70173
707.763	36604.48677
707.959	37041.8045
708.154	37337.63513
708.349	36875.46433
708.544	37319.1413
708.739	36762.54291
708.934	36358.24174
709.129	36764.59584
709.324	36577.80579
709.519	36826.18702
709.714	36345.93186
709.909	36731.74968
710.104	36155.15679
710.299	36114.13666
710.494	35853.71298
710.689	35958.28149
710.884	36030.05275
711.079	36233.10158
711.274	36032.10346
711.469	36376.70697
711.664	36270.02582
711.859	36395.17271
712.054	35833.21106
712.249	35706.11144
712.443	35915.22209
712.638	36323.36432
712.833	35734.80952
713.028	36093.62748
713.223	34794.43874
713.417	35449.92468
713.612	35359.76613
713.807	35738.90933
714.002	35661.01659
714.196	35267.56852
714.391	35589.2801
714.586	35759.40872
714.78	35542.14249
714.975	35181.52635
715.17	35718.41048
715.364	35697.91218
715.559	35755.3088
715.754	35384.35386
715.948	35210.20613
716.143	34921.40194
716.337	35163.08985
716.532	35779.90865
716.726	35718.41048
716.921	34991.03424
717.115	34745.29622
717.31	35017.65975
717.504	35070.9131
717.699	34849.72707
717.893	35070.9131
718.088	35056.57535
718.282	35021.75605
718.476	34741.20112
718.671	34589.69449
718.865	34812.86783
719.059	34911.16234
719.254	34816.96323
719.448	34153.72473
719.642	34573.31677
719.837	33722.01415
720.031	34043.22463
720.225	34139.40004
720.419	34395.22587
720.614	34186.46755
720.808	34290.84173
721.002	33521.55483
721.196	34084.14936
721.39	33818.16387
721.585	34166.00318
721.779	34186.46755
721.973	34348.14942
722.167	34170.09602
722.361	34194.65341
722.555	34518.0439
722.749	34043.22463
722.943	34120.98285
723.137	34206.93231
723.331	34270.37543
723.525	34184.4211
723.719	33519.50948
723.913	33762.92803
724.107	33840.66807
724.301	34008.43974
724.495	33906.13717
724.689	34211.0253
724.883	33824.30134
725.077	33750.65372
725.271	33572.68951
725.465	33660.64578
725.659	33433.60769
725.853	33887.72363
726.046	33429.51727
726.24	33161.6199
726.434	32965.32879
726.628	33366.11718
726.822	32865.14797
727.015	33746.56231
727.209	32785.41661
727.403	32893.77043
727.596	33272.04486
727.79	34364.5236
727.984	34270.37543
728.177	34499.62028
728.371	34198.74636
728.565	33891.8155
728.758	33920.459
728.952	33681.10158
729.146	33670.87364
729.339	33722.01415
729.533	33468.37682
729.726	33443.83381
729.92	33376.3428
730.113	33462.24102
730.307	33368.1623
730.5	33482.69377
730.694	33409.06531
730.887	32724.08737
731.081	33417.24606
731.274	33329.30553
731.468	33028.71175
731.661	33312.94511
731.854	33135.03734
732.048	33083.91835
732.241	33038.93504
732.435	33582.91668
732.628	33227.05591
732.821	33249.55021
733.014	32887.63701
733.208	32838.57043
733.401	33049.15841
733.594	33065.51593
733.788	33580.87124
733.981	33580.87124
734.174	33769.06522
734.367	33683.14718
734.56	34088.24191
734.754	33969.56373
734.947	33672.91922
735.14	32611.65611
735.333	32959.1951
735.526	33276.13483
735.719	32826.30401
735.912	32576.90608
736.105	32523.76029
736.298	32237.61668
736.491	32274.40419
736.684	32421.56118
736.877	32382.72699
737.07	32811.9933
737.263	32374.55147
737.456	32871.28132
737.649	32748.6188
737.842	32697.51205
738.035	32897.8594
738.228	31973.99231
738.421	32053.68919
738.614	32403.16594
738.807	32658.67193
739	32852.88136
739.192	32973.5071
739.385	32928.52695
739.578	33196.38243
739.771	33141.17174
739.964	32846.74809
740.156	32781.32792
740.349	32190.61141
740.542	32221.26689
740.735	32018.94916
740.927	32364.33212
741.12	32288.71062
741.313	32444.0445
741.505	32599.39131
741.698	32241.70414
741.891	32830.3928
742.083	32697.51205
742.276	32605.5237
742.468	33000.08687
742.661	32337.76207
742.854	32403.16594
743.046	32051.64564
743.239	31765.56805
743.431	32630.05345
743.624	32110.90931
743.816	32703.64478
744.009	32799.72708
744.201	32764.97328
744.393	32771.10625
744.586	32771.10625
744.778	32350.02512
744.971	32245.79162
745.163	31653.19032
745.355	31845.25739
745.548	31775.78448
745.74	31826.86729
745.932	31645.0176
746.125	31767.61133
746.317	32178.34934
746.509	32067.99407
746.702	32151.78179
746.894	32429.7369
747.086	31228.24452
747.278	31156.74599
747.471	31647.06078
747.663	31356.94664
747.855	31473.39688
748.047	31555.11954
748.239	31722.65956
748.431	31506.08562
748.623	31732.87579
748.815	31068.90745
749.008	31344.68903
749.2	30903.45149
749.392	31011.71173
749.584	30642.00878
749.776	31154.7032
749.968	30413.26402
750.16	31052.5657
750.352	30727.79224
750.544	30944.30394
750.736	30501.08379
750.928	30934.09078
751.12	30625.66934
751.311	30750.25972
751.503	31166.95995
751.695	30695.11255
751.887	30766.59981
752.079	31232.3302
752.271	30831.96104
752.463	31054.60842
752.654	30337.70001
752.846	30703.28244
753.038	30523.54969
753.23	30805.40787
753.421	30576.6515
753.613	30568.48194
753.805	30970.85834
753.997	30437.77164
754.188	30409.17944
754.38	30607.28756
754.572	30360.16481
754.763	30347.91126
754.955	30256.01105
755.146	30797.23771
755.338	30803.36533
755.53	30266.22206
755.721	30084.47041
755.913	30153.90253
756.104	30006.87138
756.296	29861.8881
756.487	29992.577
756.679	30172.28185
756.87	29433.09666
757.062	29463.72305
757.253	29837.38444
757.445	29314.67683
757.636	29310.59345
757.827	29473.9319
758.019	29559.6873
758.21	29416.76268
758.401	29361.636
758.593	29429.01316
758.784	29361.636
758.975	29022.72571
759.167	29137.05369
759.358	29733.24566
759.549	29394.30357
759.74	29814.92289
759.932	29288.13494
760.123	29055.39052
760.314	29092.13874
760.505	28741.00281
760.696	28941.06486
760.888	28963.52143
761.079	28479.71239
761.27	28489.91873
761.461	28373.56812
761.652	28849.19839
761.843	29018.64263
762.034	28965.56294
762.225	28214.35717
762.416	28420.51619
762.607	28147.00069
762.798	28918.60842
762.989	29363.67771
763.18	29137.05369
763.371	28773.66532
763.562	28430.72237
763.753	28104.1381
763.944	28473.58861
764.135	27979.63528
764.326	28557.28118
764.517	28085.76857
764.708	28022.49644
764.899	27702.07058
765.089	27920.4469
765.28	27904.11924
765.471	27932.69269
765.662	27579.62251
765.853	27793.90945
766.043	27442.89405
766.234	28236.80959
766.425	27461.26023
766.615	27573.50022
766.806	28008.20933
766.997	27461.26023
767.187	27308.21183
767.378	27469.42302
767.569	27012.33919
767.759	27136.8063
767.95	27351.06466
768.141	27067.43056
768.331	26996.01601
768.522	26942.96631
768.712	26832.78923
768.903	26624.68861
769.093	26934.8049
769.284	26830.74895
769.474	26867.47415
769.665	27061.30925
769.855	26812.38652
770.046	27065.39012
770.236	26284.00965
770.426	26143.26344
770.617	26867.47415
770.807	26263.61115
770.998	26810.34626
771.188	26347.24605
771.378	26426.80378
771.569	26271.77053
771.759	26451.28357
771.949	26102.46896
772.139	26634.88926
772.33	26000.48584
772.52	25851.59857
772.71	26106.54837
772.9	26267.69083
773.09	26251.37213
773.281	26659.37097
773.471	26332.96673
773.661	26077.99261
773.851	25912.78394
774.041	25884.23056
774.231	25829.16436
774.421	25580.36398
774.611	25763.90247
774.802	25572.20708
774.992	25955.61468
775.182	25763.90247
775.372	25562.01101
775.562	25480.4442
775.752	25574.2463
775.942	25362.17816
776.131	25199.06421
776.321	25115.4737
776.511	25513.07054
776.701	24801.53359
776.891	24705.73182
777.081	24823.95605
777.271	25317.32046
777.461	25290.81412
777.651	25319.35943
777.84	24885.10967
778.03	24846.3788
778.22	25180.71476
778.41	25392.76354
778.599	25044.1189
778.789	24575.28703
778.979	24467.27021
779.169	24512.10652
779.358	24677.19615
779.548	24991.11427
779.738	24214.58012
779.927	24512.10652
780.117	24402.056
780.307	24177.90271
780.496	24216.61778
780.686	24294.05084
780.875	24122.88825
781.065	24283.86206
781.254	23631.92481
781.444	24092.32553
781.633	23819.32667
781.823	23619.70383
782.012	23786.73324
782.202	24122.88825
782.391	24139.18862
782.581	24960.53538
782.77	24526.37287
782.96	24473.38418
783.149	23676.736
783.338	23709.32687
783.528	23686.92057
783.717	23393.63555
783.906	23652.29335
784.096	23200.18442
784.285	23576.93125
784.474	23259.23486
784.663	23287.74294
784.853	23381.41674
785.042	23196.11207
785.231	23096.34372
785.42	22762.48343
785.61	23373.27092
785.799	23132.99241
785.988	23379.38028
786.177	22896.8309
786.366	23041.3727
786.555	23018.9778
786.744	22652.57398
786.933	22524.35925
787.122	22740.09365
787.312	22945.6882
787.501	22803.19321
787.69	22691.24467
787.879	23059.69611
788.068	22544.70985
788.257	22774.69622
788.445	22475.51926
788.634	22605.7638
788.823	22723.81043
789.012	22558.95549
789.201	22506.04401
789.39	22143.86971
789.579	22050.29316
789.768	22648.50346
789.957	22461.27465
790.145	22607.79899
790.334	22428.71621
790.523	22276.1109
790.712	22038.08811
790.9	22011.6443
791.089	21702.50311
791.278	21779.78005
791.467	21452.40868
791.655	21791.98219
791.844	21972.99681
792.033	21885.53651
792.221	21899.77375
792.41	21830.6232
792.599	21846.89352
792.787	22003.50787
792.976	21944.52059
793.164	21950.62257
793.353	21981.13301
793.541	21844.85972
793.73	21743.17449
793.918	22040.12227
794.107	21478.8386
794.295	21639.46557
794.484	21580.49837
794.672	21369.05721
794.861	21633.36536
795.049	21613.03159
795.238	21596.76486
795.426	21338.56445
795.614	21011.33277
795.803	21277.58164
795.991	21489.00413
796.179	21177.9842
796.368	21289.77791
796.556	21125.14053
796.744	20846.74074
796.932	21299.94158
797.121	20777.66079
797.309	21017.42929
797.497	21058.0737
797.685	21151.56202
797.874	20966.62609
798.062	20946.30553
798.25	20558.26222
798.438	20667.95544
798.626	20812.20017
798.814	21155.62693
799.002	20647.64096
799.19	20984.91495
799.378	20710.61719
799.566	20409.99261
799.755	20127.73283
799.943	20257.68408
800.131	20249.56162
800.318	20188.64533
800.506	20208.95034
800.694	20399.83797
800.882	20336.88157
801.07	20117.58111
801.258	20202.8588
801.446	20466.86051
801.634	20273.9292
801.822	20487.17127
802.01	20485.14017
802.197	20649.67239
802.385	20198.79779
802.573	20107.4295
802.761	20322.66617
802.949	20383.59077
803.136	20247.53102
803.324	20676.08134
803.512	20375.46727
803.699	20361.25131
803.887	20336.88157
804.075	20574.5123
804.262	20357.18965
804.45	20330.78923
804.638	19914.56887
804.825	19756.24851
805.013	19587.80741
805.201	19916.59879
805.388	20038.40134
805.576	20391.71434
805.763	20698.42793
805.951	20714.68031
806.138	20393.74524
806.326	20818.29548
806.513	20580.60615
806.701	20651.70382
806.888	20312.51243
807.075	20739.05938
807.263	20434.36416
807.45	20438.42615
807.638	20101.33859
807.825	20771.56573
808.012	20499.35792
808.2	20637.48388
808.387	20676.08134
808.574	20698.42793
808.761	20527.79404
808.949	20883.31441
809.136	20554.19974
809.323	20952.40166
809.51	20267.83725
809.698	20588.73134
809.885	20143.97579
810.072	20513.57588
810.259	20511.54473
810.446	20489.20237
810.633	20828.45441
810.82	20739.05938
811.008	20732.96456
811.195	20537.95
811.382	20856.89996
811.569	20716.71188
811.756	20030.2807
811.943	20089.15687
812.13	20089.15687
812.317	19729.86426
812.504	19811.04882
812.691	20284.08253
812.878	20353.128
813.064	20832.51801
813.251	20791.88274
813.438	20848.77257
813.625	20302.3588
813.812	20637.48388
813.999	20428.27122
814.186	20381.55989
814.372	19882.09082
814.559	20330.78923
814.746	19993.73864
814.933	20172.40163
815.12	19908.47916
815.306	19999.82889
815.493	20074.94505
815.68	20166.31031
815.866	19971.40806
816.053	19957.19796
816.24	19679.12732
816.426	19762.33728
816.613	20048.55223
816.799	19947.04801
816.986	20229.25577
817.173	20688.27033
817.359	20357.18965
817.546	20607.01326
817.732	20028.25055
817.919	19784.6631
818.105	19348.38639
818.292	19735.95287
818.478	19433.59741
818.665	19997.7988
818.851	19419.39507
819.037	19949.07799
819.224	19983.58832
819.41	19833.37575
819.597	19908.47916
819.783	19490.40883
819.969	19823.22708
820.156	19514.75757
820.342	20180.52345
820.528	19796.84104
820.714	19837.43525
820.901	19760.30769
821.087	19520.84485
821.273	19890.21023
821.459	19494.46691
821.646	19916.59879
821.832	19853.6734
822.018	19565.48605
822.204	19244.92567
822.39	19642.59834
822.576	19417.36618
822.762	19309.84095
822.948	19350.41514
823.134	19301.72631
823.32	18926.49573
823.507	19358.53018
823.693	19297.66901
823.879	18894.04987
824.065	18896.07771
824.25	18758.19396
824.436	18656.82053
824.622	18703.45109
824.808	18407.4833
824.994	18399.37575
825.18	18125.78092
825.366	18441.94108
825.552	18168.33569
825.738	18160.2299
825.923	18212.91861
826.109	18533.15819
826.295	18687.23153
826.481	18758.19396
826.667	18547.34822
826.852	19127.27744
827.038	18912.30054
827.224	18804.82905
827.409	18644.65638
827.595	18879.85514
827.781	18541.26675
827.966	18855.52175
828.152	18458.15689
828.338	18247.37027
828.523	18281.823
828.709	18464.23788
828.894	18218.99824
829.08	18618.3012
829.266	18089.30668
829.451	18445.99501
829.637	18364.91932
829.822	18198.73294
830.008	18148.07132
830.193	18052.83361
830.378	17763.11596
830.564	17923.16094
830.749	17939.36923
830.935	18101.46463
831.12	17878.58929
831.305	17902.90089
831.491	17544.35429
831.676	17880.61524
831.861	17319.55485
832.047	17797.55421
832.232	17755.01299
832.417	17698.29367
832.602	17505.87237
832.788	17181.85834
832.973	17275.00449
833.158	17487.6445
833.343	17623.34714
833.528	18306.14322
833.714	17838.07106
833.899	17625.37266
834.084	17856.30409
834.269	18034.59751
834.454	17637.52586
834.639	17659.80705
834.824	17329.68014
835.009	17360.05645
835.194	17293.22946
835.379	17655.75589
835.564	17345.88075
835.749	17313.47972
835.934	17465.36633
836.119	17439.03807
836.304	17098.8419
836.489	17327.65508
836.674	16776.94311
836.859	17058.34778
837.044	17287.15444
837.228	17384.35799
837.413	17372.20716
837.598	17489.6698
837.783	17019.8794
837.968	17088.71827
838.152	16534.04189
838.337	16748.6029
838.522	16580.59544
838.707	16647.39169
838.891	16509.75354
839.076	16388.31624
839.261	16461.17774
839.445	16400.45965
839.63	16090.82338
839.815	16196.05467
839.999	15971.43134
840.184	16345.81488
840.368	16323.5526
840.553	16444.98607
840.737	16629.17429
840.922	16380.22068
841.106	16319.50494
841.291	16382.24457
841.475	16218.31571
841.66	16463.20171
841.844	16283.0763
842.029	16604.8847
842.213	16339.74333
842.397	16220.33945
842.582	15854.06753
842.766	16066.53984
842.951	15655.77185
843.135	15912.7489
843.319	15817.64511
843.504	15716.47359
843.688	15400.832
843.872	15728.61403
844.056	15754.91846
844.241	15615.30447
844.425	15850.02057
844.609	15924.89
844.793	15969.40779
844.977	15734.68427
845.161	15584.95414
845.346	15945.12528
845.53	15524.25398
845.714	15669.93552
845.898	15536.39396
846.082	15568.76737
846.266	15459.50777
846.45	15182.31779
846.634	15036.64216
846.818	14909.175
847.002	14929.40799
847.186	15066.9913
847.37	15117.57313
847.554	14672.44434
847.738	14868.70887
847.922	14739.21559
848.106	15038.66544
848.29	15066.9913
848.473	14836.33581
848.657	14959.75738
848.841	14753.37906
849.025	14642.09344
849.209	14846.45241
849.392	14739.21559
849.576	14194.88874
849.76	14372.97025
849.944	14453.91208
850.127	14530.80469
850.311	14799.91592
850.495	14777.65921
850.678	15141.85238
850.862	15186.36433
851.046	15097.34041
851.229	14979.99026
851.413	14803.96259
851.596	14553.06273
851.78	14763.4958
851.964	14700.77166
852.147	14690.65478
852.331	14518.66388
852.514	14409.39438
852.698	14142.27091
852.881	14067.38917
853.065	14215.126
853.248	14294.04949
853.431	14277.86029
853.615	14091.67547
853.798	14004.648
853.982	13484.39896
854.165	13620.04839
854.348	13279.88029
854.532	13765.80395
854.715	13255.57825
854.898	13640.29322
855.081	13648.39106
855.265	14020.83949
855.448	13662.56216
855.631	13956.07258
855.814	13356.83273
855.997	13320.38232
856.181	13334.55764
856.364	13514.76964
856.547	13277.85514
856.73	13312.28205
856.913	13065.18993
857.096	13144.18577
857.279	12864.62814
857.462	12939.59148
857.645	12878.81095
857.828	13061.13867
858.011	13176.59226
858.194	13115.82912
858.377	13095.5738
858.56	13087.47154
858.743	13113.80361
858.926	13158.36376
859.109	12856.52356
859.292	12757.23525
859.475	12781.55199
859.658	13119.88013
859.841	12866.65427
860.023	12749.12948
860.206	12706.57271
860.389	12601.18282
860.572	12140.90957
860.755	12252.46237
860.937	12262.60244
861.12	12347.77206
861.303	12315.32794
861.486	12550.50872
861.668	12333.57798
861.851	12589.02139
862.034	12570.77883
862.216	12716.70551
862.399	12366.02109
862.581	12149.02325
862.764	11871.05866
862.947	12382.24199
863.129	11791.90213
863.312	11913.67613
863.494	11700.55143
863.677	11743.18396
863.859	11767.54367
864.042	11434.51501
864.224	11765.51374
864.406	11862.94063
864.589	11558.41442
864.771	11682.27915
864.954	11763.4838
865.136	11724.91335
865.318	11895.41195
865.501	11901.50008
865.683	11698.52121
865.865	11692.4305
866.048	11789.87231
866.23	11763.4838
866.412	11682.27915
866.594	11416.23175
866.777	11341.05886
866.959	11332.93124
867.141	11147.98384
867.323	11247.58153
867.505	10787.99442
867.687	11235.38724
867.869	11080.89352
868.052	11532.01258
868.234	11231.32239
868.416	11442.64065
868.598	11288.22649
868.78	11661.97577
868.962	11775.66329
869.144	11806.11067
869.326	11286.19434
869.508	11420.29476
869.69	11219.12761
869.872	11316.67554
870.054	11269.93676
870.236	11312.61151
870.417	11446.70342
870.599	11237.41965
870.781	11188.639
870.963	11121.55572
871.145	11170.3447
871.327	11123.58871
871.508	10728.97884
871.69	10901.9276
871.872	10678.09525
872.054	11058.52746
872.235	11091.05947
872.417	11113.42362
872.599	10698.44959
872.78	11196.76952
872.962	10960.91456
873.144	10824.61978
873.325	10682.16621
873.507	10840.8965
873.689	10659.7753
873.87	10865.31019
874.052	10883.61936
874.233	10946.6772
874.415	10649.59713
874.596	11221.1601
874.778	10602.77356
874.959	10641.45437
875.141	10384.85464
875.322	10971.08377
875.503	10847.00008
875.685	10934.47331
875.866	10551.87094
876.048	10714.73219
876.229	10456.15266
876.41	10348.18085
876.592	10478.55734
876.773	10653.66843
876.954	10476.52061
877.136	10962.94843
877.317	10596.66566
877.498	11147.98384
877.679	10979.21893
877.86	10952.779
878.042	10954.8129
878.223	10560.01589
878.404	10637.38291
878.585	10783.9247
878.766	10798.16851
878.947	10802.23807
879.128	10710.66161
879.309	10895.82496
879.49	10608.88136
879.672	10983.28645
879.853	10765.61037
880.034	10887.68794
880.215	10665.88206
880.396	11215.06259
880.576	10971.08377
880.757	11034.12663
880.938	10977.18516
881.119	10824.61978
881.3	10684.20168
881.481	11048.36064
881.662	10602.77356
881.843	10655.70407
882.023	10794.09891
882.204	10478.55734
882.385	10478.55734
882.566	10694.37882
882.747	10578.34128
882.927	10905.99598
883.108	10745.26
883.289	10891.75647
883.469	10427.63536
883.65	10604.80951
883.831	10718.80272
884.011	10696.41421
884.192	10741.18978
884.373	11003.62335
884.553	10600.73761
884.734	11015.82496
884.914	10665.88206
885.095	11032.09315
885.275	10914.13259
885.456	11044.29383
885.636	10592.59366
885.817	10578.34128
885.997	10765.61037
886.178	10700.48496
886.358	10562.05209
886.538	10617.0249
886.719	10702.52031
886.899	10857.17248
887.08	11044.29383
887.26	11225.22505
887.44	10948.71114
887.621	11271.969
887.801	10863.27578
887.981	11113.42362
888.161	10614.98904
888.342	10755.43533
888.522	10486.70411
888.702	10999.55606
888.882	10914.13259
889.062	11025.99266
889.242	10983.28645
889.423	10999.55606
889.603	10771.71526
889.783	11099.19204
889.963	10893.79072
890.143	11145.95097
890.323	11001.58971
890.503	11440.60926
890.683	11064.62743
890.863	11164.24641
891.043	10790.02926
891.223	10962.94843
891.403	11080.89352
891.583	11265.87227
891.763	10895.82496
891.943	10934.47331
892.122	10761.54039
892.302	11308.54744
892.482	10749.33017
892.662	10568.16063
892.842	10386.89195
893.022	10684.20168
893.201	10686.23713
893.381	10830.72364
893.561	10694.37882
893.741	10936.50732
893.92	10804.27283
894.1	11125.6217
894.28	10942.60928
894.459	10920.23492
894.639	10698.44959
894.819	10667.91762
894.998	10580.37737
895.178	10665.88206
895.357	10401.15274
895.537	10340.03054
895.716	10515.2162
895.896	10881.58505
896.075	10645.52577
896.255	10572.23293
896.434	10388.92925
896.614	10335.9553
896.793	10107.65577
896.973	10374.66791
897.152	10064.8303
897.331	10193.28821
897.511	10282.97238
897.69	10229.98037
897.87	10111.73406
898.049	10140.28054
898.228	10099.49902
898.407	10331.88001
898.587	10001.60033
898.766	10397.07829
898.945	9752.62376
899.124	10358.36844
899.304	10130.08568
899.483	10121.92955
899.662	10038.31618
899.841	10189.21103
900.02	10256.47752
900.199	10340.03054
900.378	10285.01036
900.557	10403.18994
900.737	10181.0565
900.916	9893.46536
901.095	9752.62376
901.274	10109.69492
901.453	9881.22108
901.632	9679.11264
901.811	9581.06667
901.989	9799.57888
902.168	9797.53752
902.347	10062.79084
902.526	9838.3619
902.705	9664.8165
902.884	9711.7867
903.063	9915.91183
903.242	9871.01711
903.42	10011.79964
903.599	9423.7086
903.778	9648.47712
903.957	9442.10601
904.135	9499.33405
904.314	9409.39859
904.493	9987.32068
904.672	9305.11576
904.85	9333.74668
905.029	9339.88146
905.207	9597.41017
905.386	9630.09414
905.565	9605.58154
905.743	9237.61567
905.922	9376.68701
906.1	9161.91196
906.279	9544.29013
906.457	9198.74369
906.636	9327.61176
906.814	9065.71408
906.993	8944.90072
907.171	8979.71762
907.35	9176.23606
907.528	8676.4318
907.707	9014.52943
907.885	8536.94947
908.063	8916.22414
908.242	8688.73492
908.42	8791.23523
908.598	8731.79064
908.777	9006.33887
908.955	9073.90262
909.133	9266.25429
909.311	8905.98166
909.49	9245.79847
909.668	8996.10028
909.846	8754.34039
910.024	8600.54774
910.202	8647.72191
910.38	8231.01076
910.559	8350.15213
910.737	8103.57919
910.915	8422.01608
911.093	8173.4705
911.271	8257.7206
911.449	8187.85703
911.627	8148.80562
911.805	7974.01312
911.983	8115.91463
912.161	8113.85878
912.339	8157.02757
912.517	8097.4112
912.695	8241.28417
912.872	7969.89859
913.05	8329.61521
913.228	8284.42712
913.406	8239.22953
913.584	8043.94766
913.762	8163.19382
913.939	7475.54982
914.117	7780.54116
914.295	7560.08741
914.473	7726.9952
914.65	7811.42663
914.828	7770.24496
915.006	7712.57655
915.184	7846.42449
915.361	7496.17208
915.539	7706.39682
915.716	7582.76209
915.894	7638.40717
916.072	7335.26095
916.249	7667.25408
916.427	7221.71805
916.604	7456.98794
916.782	7207.26235
916.959	7768.18566
917.137	7450.80025
917.314	7545.65672
917.492	7035.77603
917.669	7322.87768
917.847	6963.4163
918.024	7215.52288
918.201	6979.9581
918.379	7308.42954
918.556	6845.51408
918.733	7046.11089
918.911	6584.62508
919.088	6895.16609
919.265	6561.83173
919.442	6806.19694
919.62	6580.48104
919.797	6818.61377
919.974	6493.43487
920.151	6797.9186
920.328	6470.6303
920.506	6868.27287
920.683	6679.91249
920.86	6491.36184
921.037	6464.41039
921.214	6485.14262
921.391	6342.04284
921.568	6296.39349
921.745	6140.6855
921.922	6342.04284
922.099	6279.79091
922.276	6385.60669
922.453	6063.82092
922.63	6281.86632
922.807	5912.07465
922.984	5970.29355
923.161	5562.37281
923.338	6124.06886
923.514	6065.89877
923.691	5989.00284
923.868	5976.53019
924.045	5955.74056
924.222	5847.59645
924.399	5801.82397
924.575	5481.09684
924.752	5708.16285
924.929	5583.20704
925.105	5783.09557
925.282	5576.95702
925.459	5860.07787
925.635	5722.7355
925.812	5801.82397
925.989	5414.38212
926.165	5493.60316
926.342	5061.64731
926.518	5437.31802
926.695	5074.18182
926.871	5447.74249
927.048	5059.55814
927.224	5282.96727
927.401	4810.78277
927.577	5189.04264
927.754	4909.07742
927.93	5011.5009
928.107	4748.0152
928.283	4982.24269
928.459	4771.03235
928.636	4748.0152
928.812	4737.55195
928.988	4570.06351
929.165	4519.7891
929.341	4808.69085
929.517	4668.48038
929.693	4706.15883
929.87	4360.50312
930.046	4662.19993
930.222	4188.50154
930.398	4410.81761
930.574	4133.93458
930.751	4350.01936
930.927	4247.24997
931.103	4511.4088
931.279	4192.69841
931.455	4435.97015
931.631	3965.94792
931.807	4209.48503
931.983	4154.92356
932.159	4341.63196
932.335	3757.88471
932.511	4209.48503
932.687	3934.4358
932.863	4222.07411
933.039	3831.46467
933.215	3896.61526
933.391	4091.95034
933.566	3961.74657
933.742	3850.38133
933.918	3757.88471
934.094	3406.48232
934.27	3532.79418
934.445	3098.86266
934.621	3406.48232
934.797	3052.47874
934.973	3284.32028
935.148	2940.70508
935.324	3157.88565
935.5	2721.25733
935.675	2980.77976
935.851	2771.91237
936.027	2729.70037
936.202	2622.03619
936.378	2668.48362
936.553	2347.45874
936.729	2391.82601
936.904	2087.51149
937.08	2148.81139
937.255	1865.51558
937.431	2051.57414
937.606	1852.82818
937.782	2081.16976
937.957	1831.68213
938.133	2129.78798
938.308	1704.79696
938.483	1749.20833
938.659	1400.23711
938.834	1457.34346
939.009	1321.98119
939.185	1381.20175
939.36	1184.51125
939.535	1391.77694
939.71	1176.05198
939.886	1300.83129
940.061	1180.28161
940.236	1252.18734
940.411	1080.88983
940.586	1262.762
940.761	1159.13363
940.937	1152.78931
941.112	1021.68293
941.287	1095.69222
941.462	841.97964
941.637	1097.80687
941.812	858.89049
941.987	1002.65311
942.162	723.62049
942.337	844.09347
942.512	700.37515
942.687	683.47028
942.862	715.16749
943.037	628.53462
943.212	658.11436
943.386	751.09394
943.561	518.68897
943.736	577.83217
943.911	588.39456
944.086	677.13115
944.26	596.84472
944.435	732.07367
944.61	603.18247
944.785	677.13115
944.959	592.61962
945.134	689.80952
945.309	598.95729
945.483	582.05709
945.658	571.49488
945.833	582.05709
946.007	503.90488
946.182	539.8103
946.357	487.00965
946.531	622.19641
946.706	607.4077
946.88	567.2701
947.055	639.09854
947.229	677.13115
947.404	596.84472
947.578	622.19641
947.752	649.66276
947.927	579.94462
948.101	706.71465
948.276	903.28403
948.45	694.03574
948.624	748.98054
948.799	592.61962
948.973	696.14886
949.147	503.90488
949.321	717.28072
949.496	698.262
949.67	799.70503
949.844	660.22729
950.018	810.27334
950.193	628.53462
950.367	615.85832
950.541	689.80952
950.715	776.4556
950.889	670.79211
951.063	723.62049
951.237	689.80952
951.411	721.50723
951.585	774.34207
951.759	759.54766
951.933	656.00144
952.107	679.24418
952.281	848.32114
952.455	761.66112
952.629	729.96036
952.803	854.66273
952.977	626.42187
953.151	911.74035
953.325	634.87293
953.499	943.45261
953.672	757.43422
953.846	894.82784
954.02	586.28206
954.194	977.28082
954.368	626.42187
954.541	776.4556
954.715	649.66276
954.889	901.16997
955.062	734.18699
955.236	913.85444
955.41	677.13115
955.583	867.34612
955.757	803.93232
955.93	888.48578
956.104	744.75376
956.278	797.5914
956.451	696.14886
956.625	723.62049
956.798	725.73377
956.972	909.62625
957.145	759.54766
957.319	880.02982
957.492	765.88806
957.665	943.45261
957.839	852.54886
958.012	892.71381
958.185	672.90511
958.359	808.15966
958.532	668.67912
958.705	706.71465
958.879	858.89049
959.052	915.96855
959.225	717.28072
959.398	706.71465
959.572	719.39397
959.745	765.88806
959.918	744.75376
960.091	748.98054
960.264	605.29508
960.438	816.61443
960.611	660.22729
960.784	770.11505
960.957	677.13115
961.13	795.47777
961.303	641.21136
961.476	799.70503
961.649	601.06987
961.822	664.45318
961.995	668.67912
962.168	672.90511
962.341	672.90511
962.514	717.28072
962.686	607.4077
962.859	662.34023
963.032	569.38248
963.205	601.06987
963.378	668.67912
963.551	706.71465
963.723	493.34525
963.896	791.25055
964.069	575.71972
964.242	816.61443
964.414	596.84472
964.587	689.80952
964.76	577.83217
964.932	710.94105
965.105	556.70836
965.278	641.21136
965.45	516.57691
965.623	554.59606
965.795	622.19641
965.968	554.59606
966.14	516.57691
966.313	632.76015
966.485	463.78027
966.658	520.80104
966.83	461.6686
967.003	632.76015
967.175	478.56239
967.348	607.4077
967.52	620.0837
967.692	632.76015
967.865	487.00965
968.037	645.43704
968.209	556.70836
968.382	510.24083
968.554	533.47375
968.726	700.37515
968.898	626.42187
969.071	563.04536
969.243	501.79293
969.415	512.35284
969.587	495.45715
969.759	541.92251
969.932	459.55694
970.104	463.78027
970.276	482.78599
970.448	512.35284
970.62	440.55273
970.792	370.88166
970.964	427.88395
971.136	463.78027
971.308	406.7706
971.48	487.00965
971.652	510.24083
971.824	554.59606
971.996	402.54813
972.168	514.46487
972.339	368.7707
972.511	444.77578
972.683	506.01685
972.855	518.68897
973.027	508.12883
973.199	379.32569
973.37	434.21827
973.542	522.91312
973.714	351.8836
973.886	438.44123
974.057	366.65975
974.229	389.88109
974.401	292.78759
974.572	360.32701
974.744	385.65888
974.915	446.88733
975.087	379.32569
975.259	415.21575
975.43	391.99222
975.602	404.65936
975.773	345.55122
975.945	383.5478
976.116	453.22206
976.288	434.21827
976.459	286.45672
976.63	364.54882
976.802	271.68532
976.973	356.10527
977.145	259.02486
977.316	427.88395
977.487	318.11274
977.659	415.21575
977.83	309.67074
978.001	294.89792
978.172	269.5752
978.344	385.65888
978.515	290.67728
978.686	330.77629
978.857	278.01581
979.028	347.662
979.2	273.79547
979.371	309.67074
979.542	288.56699
979.713	195.73297
979.884	225.26699
980.055	227.37671
980.226	225.26699
980.397	244.25518
980.568	303.33942
980.739	339.219
980.91	159.87558
981.081	259.02486
981.252	259.02486
981.423	267.46509
981.594	227.37671
981.765	284.34646
981.936	183.07674
982.106	174.63967
982.277	168.31207
982.448	250.58493
982.619	242.1453
982.79	183.07674
982.96	157.7665
983.131	233.70599
983.302	168.31207
983.472	126.13296
983.643	244.25518
983.814	225.26699
983.984	170.42125
984.155	119.80683
984.326	191.51415
984.496	147.22146
984.667	202.06136
984.837	259.02486
985.008	170.42125
985.178	216.8283
985.349	138.7858
985.519	235.81579
985.69	178.85816
985.86	185.18606
986.031	191.51415
986.201	233.70599
986.371	143.00359
986.542	191.51415
986.712	143.00359
986.882	92.39587
987.053	233.70599
987.223	210.49949
987.393	202.06136
987.563	145.11251
987.734	170.42125
987.904	81.85419
988.074	81.85419
988.244	140.89469
988.414	140.89469
988.585	54.44846
988.755	145.11251
988.925	149.33043
989.095	109.26371
989.265	128.24171
989.435	130.35049
989.605	119.80683
989.775	86.0708
989.945	157.7665
990.115	58.66448
990.285	115.58952
990.455	115.58952
990.625	191.51415
990.795	81.85419
990.965	124.02423
991.134	100.82962
991.304	147.22146
991.474	124.02423
991.644	140.89469
991.814	115.58952
991.984	147.22146
992.153	37.58533
992.323	37.58533
992.493	98.72115
992.662	143.00359
992.832	145.11251
993.002	90.28749
993.171	107.15516
993.341	90.28749
993.511	98.72115
993.68	176.7489
993.85	113.4809
994.019	107.15516
994.189	140.89469
994.358	134.5681
994.528	37.58533
994.697	98.72115
994.867	140.89469
995.036	90.28749
995.206	77.63768
995.375	83.96248
995.544	90.28749
995.714	52.34049
995.883	46.01671
996.052	124.02423
996.222	10.18593
996.391	41.80097
996.56	77.63768
996.73	27.04663
996.899	105.04662
997.068	100.82962
997.237	124.02423
997.406	48.12461
997.576	48.12461
997.745	140.89469
997.914	18.61609
998.083	115.58952
998.252	71.31307
998.421	94.50427
998.59	58.66448
998.759	81.85419
998.928	81.85419
999.097	27.04663
999.266	92.39587
999.435	48.12461
999.604	149.33043
999.773	3.86356
999.942	102.93811
1000.111	86.0708
1000.28	124.02423
1000.448	75.52945
1000.617	81.85419
1000.786	60.77252
1000.955	90.28749
1001.124	35.47754
1001.292	-17.20943
1001.461	35.47754
1001.63	41.80097
1001.798	1.75615
1001.967	-21.42373
1002.136	96.6127
1002.304	24.93896
1002.473	94.50427
1002.642	3.86356
1002.81	60.77252
1002.979	111.37229
1003.147	-19.31659
1003.316	86.0708
1003.484	50.23254
1003.653	62.88058
1003.821	92.39587
1003.99	98.72115
1004.158	62.88058
1004.327	-0.35123
1004.495	39.69314
1004.663	29.15432
1004.832	48.12461
1005	16.50851
1005.168	43.90883
1005.337	-29.85205
1005.505	56.55646
1005.673	14.40096
1005.842	43.90883
1006.01	22.83131
1006.178	69.20492
1006.346	73.42125
1006.514	43.90883
1006.683	-25.63794
1006.851	41.80097
1007.019	128.24171
1007.187	58.66448
1007.355	31.26204
1007.523	18.61609
1007.691	27.04663
1007.859	-15.10224
1008.027	37.58533
1008.195	54.44846
1008.363	14.40096
1008.531	35.47754
1008.699	-8.78052
1008.867	31.26204
1009.035	52.34049
1009.203	60.77252
1009.37	22.83131
1009.538	43.90883
1009.706	33.36978
1009.874	22.83131
1010.042	81.85419
1010.209	35.47754
1010.377	31.26204
1010.545	100.82962
1010.713	39.69314
1010.88	-15.10224
1011.048	56.55646
1011.216	115.58952
1011.383	-15.10224
1011.551	-42.49378
1011.718	67.09678
1011.886	75.52945
1012.054	56.55646
1012.221	86.0708
1012.389	69.20492
1012.556	-36.17303
1012.724	-15.10224
1012.891	-23.53085
1013.058	14.40096
1013.226	43.90883
1013.393	-2.45859
1013.561	48.12461
1013.728	10.18593
1013.895	16.50851
1014.063	75.52945
1014.23	-50.9211
1014.397	56.55646
1014.565	98.72115
1014.732	-25.63794
1014.899	35.47754
1015.066	75.52945
1015.233	14.40096
1015.401	33.36978
1015.568	27.04663
1015.735	64.98867
1015.902	-2.45859
1016.069	35.47754
1016.236	92.39587
1016.403	56.55646
1016.57	56.55646
1016.737	60.77252
1016.904	52.34049
1017.071	39.69314
1017.238	37.58533
1017.405	-0.35123
1017.572	92.39587
1017.739	50.23254
1017.906	8.07845
1018.073	41.80097
1018.24	10.18593
1018.407	67.09678
1018.573	-8.78052
1018.74	50.23254
1018.907	-2.45859
1019.074	56.55646
1019.241	16.50851
1019.407	-40.38689
1019.574	60.77252
1019.741	56.55646
1019.907	1.75615
1020.074	3.86356
1020.241	18.61609
1020.407	24.93896
1020.574	69.20492
1020.74	35.47754
1020.907	75.52945
1021.073	100.82962
1021.24	14.40096
1021.406	-42.49378
1021.573	-31.95906
1021.739	-48.81431
1021.906	14.40096
1022.072	1.75615
1022.239	37.58533
1022.405	22.83131
1022.571	62.88058
1022.738	8.07845
1022.904	-69.8811
1023.07	43.90883
1023.237	-2.45859
1023.403	27.04663
1023.569	52.34049
1023.735	-15.10224
1023.902	-50.9211
1024.068	18.61609
1024.234	-61.45468
1024.4	41.80097
1024.566	-19.31659
1024.732	56.55646
1024.898	-44.60065
1025.065	41.80097
1025.231	58.66448
1025.397	14.40096
1025.563	31.26204
1025.729	48.12461
1025.895	-0.35123
1026.061	-21.42373
1026.227	1.75615
1026.392	64.98867
1026.558	18.61609
1026.724	27.04663
1026.89	-36.17303
1027.056	-27.74501
1027.222	-25.63794
1027.388	14.40096
1027.553	73.42125
1027.719	-15.10224
1027.885	10.18593
1028.051	98.72115
1028.216	24.93896
1028.382	107.15516
1028.548	-0.35123
1028.713	-31.95906
1028.879	29.15432
1029.045	-12.99502
1029.21	73.42125
1029.376	-19.31659
1029.541	33.36978
1029.707	64.98867
1029.873	5.97099
1030.038	-8.78052
1030.204	29.15432
1030.369	22.83131
1030.534	14.40096
1030.7	24.93896
1030.865	-36.17303
1031.031	-25.63794
1031.196	-36.17303
1031.361	27.04663
1031.527	12.29343
1031.692	94.50427
1031.857	31.26204
1032.023	98.72115
1032.188	-19.31659
1032.353	-15.10224
1032.518	3.86356
1032.684	43.90883
1032.849	-17.20943
1033.014	-17.20943
1033.179	-15.10224
1033.344	14.40096
1033.509	22.83131
1033.674	-31.95906
1033.839	-0.35123
1034.004	8.07845
1034.17	79.74592
1034.335	60.77252
1034.5	35.47754
1034.664	-10.88778
1034.829	107.15516
1034.994	18.61609
1035.159	10.18593
1035.324	31.26204
1035.489	20.72369
1035.654	-8.78052
1035.819	56.55646
1035.984	-42.49378
1036.148	12.29343
1036.313	-42.49378
1036.478	-12.99502
1036.643	33.36978
1036.807	67.09678
1036.972	-6.67324
1037.137	50.23254
1037.301	67.09678
1037.466	-23.53085
1037.631	50.23254
1037.795	-19.31659
1037.96	24.93896
1038.124	134.5681
1038.289	75.52945
1038.454	-31.95906
1038.618	43.90883
1038.783	27.04663
1038.947	48.12461
1039.111	-17.20943
1039.276	-44.60065
1039.44	58.66448
1039.605	64.98867
1039.769	5.97099
1039.933	18.61609
1040.098	-6.67324
1040.262	-12.99502
1040.426	77.63768
1040.591	33.36978
1040.755	-34.06606
1040.919	-67.77453
1041.083	-19.31659
1041.248	-10.88778
1041.412	-29.85205
1041.576	50.23254
1041.74	56.55646
1041.904	-23.53085
1042.068	-63.56133
1042.232	33.36978
1042.397	33.36978
1042.561	8.07845
1042.725	41.80097
1042.889	48.12461
1043.053	-15.10224
1043.217	-10.88778
1043.381	52.34049
1043.544	35.47754
1043.708	48.12461
1043.872	39.69314
1044.036	-0.35123
1044.2	79.74592
1044.364	-19.31659
1044.528	-17.20943
1044.691	52.34049
1044.855	-27.74501
1045.019	24.93896
1045.183	62.88058
1045.346	14.40096
1045.51	8.07845
1045.674	64.98867
1045.837	-6.67324
1046.001	75.52945
1046.165	22.83131
1046.328	-36.17303
1046.492	-67.77453
1046.655	-10.88778
1046.819	31.26204
1046.983	73.42125
1047.146	18.61609
1047.31	-6.67324
1047.473	-10.88778
1047.636	50.23254
1047.8	22.83131
1047.963	39.69314
1048.127	-42.49378
1048.29	5.97099
