Data from mixed_try1_USB4F045381__4__00229.txt Node

Date: Thu Apr 03 20:22:56 EDT 2025
User: mmckonesweet
Spectrometer: USB4F04538
Trigger mode: 4
Integration Time (sec): 2.700000E-3
Scans to average: 1
Electric dark correction enabled: true
Nonlinearity correction enabled: true
Boxcar width: 0
XAxis mode: Wavelengths
Number of Pixels in Spectrum: 3648
>>>>>Begin Spectral Data<<<<<
345.52	-6.67324
345.736	-6.67324
345.952	-6.67324
346.168	-8.78052
346.384	-80.41353
346.6	-57.24133
346.816	-10.88778
347.032	20.72369
347.248	-8.78052
347.464	-59.34802
347.68	92.39587
347.896	56.55646
348.112	16.50851
348.328	3.86356
348.544	-19.31659
348.76	-29.85205
348.975	-4.56592
349.191	-17.20943
349.407	29.15432
349.623	29.15432
349.839	24.93896
350.055	-50.9211
350.27	14.40096
350.486	-101.47647
350.702	48.12461
350.918	-21.42373
351.133	12.29343
351.349	54.44846
351.565	54.44846
351.781	12.29343
351.996	12.29343
352.212	20.72369
352.428	31.26204
352.644	60.77252
352.859	81.85419
353.075	31.26204
353.291	56.55646
353.506	-48.81431
353.722	31.26204
353.938	-27.74501
354.153	1.75615
354.369	-19.31659
354.584	-27.74501
354.8	-55.13461
355.016	1.75615
355.231	37.58533
355.447	-4.56592
355.662	20.72369
355.878	-4.56592
356.093	-36.17303
356.309	39.69314
356.524	-29.85205
356.74	96.6127
356.955	16.50851
357.171	69.20492
357.386	35.47754
357.602	39.69314
357.817	41.80097
358.033	29.15432
358.248	5.97099
358.464	-0.35123
358.679	-88.83902
358.895	58.66448
359.11	3.86356
359.325	-61.45468
359.541	-38.27997
359.756	-4.56592
359.972	-0.35123
360.187	41.80097
360.402	-29.85205
360.618	10.18593
360.833	-12.99502
361.048	-19.31659
361.264	-71.98763
361.479	31.26204
361.694	71.31307
361.909	8.07845
362.125	12.29343
362.34	-10.88778
362.555	-21.42373
362.77	46.01671
362.986	29.15432
363.201	12.29343
363.416	20.72369
363.631	33.36978
363.847	3.86356
364.062	3.86356
364.277	29.15432
364.492	-6.67324
364.707	41.80097
364.922	24.93896
365.138	-19.31659
365.353	29.15432
365.568	24.93896
365.783	50.23254
365.998	-8.78052
366.213	16.50851
366.428	22.83131
366.643	-55.13461
366.858	-29.85205
367.073	12.29343
367.288	-19.31659
367.503	37.58533
367.718	-4.56592
367.933	-10.88778
368.148	-8.78052
368.363	29.15432
368.578	-0.35123
368.793	48.12461
369.008	31.26204
369.223	-36.17303
369.438	16.50851
369.653	-19.31659
369.868	3.86356
370.083	24.93896
370.298	62.88058
370.513	29.15432
370.728	-21.42373
370.943	-8.78052
371.157	29.15432
371.372	117.69816
371.587	22.83131
371.802	20.72369
372.017	-10.88778
372.232	14.40096
372.446	-19.31659
372.661	-0.35123
372.876	62.88058
373.091	-40.38689
373.306	62.88058
373.52	31.26204
373.735	10.18593
373.95	-36.17303
374.165	46.01671
374.379	62.88058
374.594	20.72369
374.809	14.40096
375.023	18.61609
375.238	35.47754
375.453	8.07845
375.667	14.40096
375.882	-8.78052
376.097	-50.9211
376.311	31.26204
376.526	12.29343
376.741	-74.09415
376.955	-23.53085
377.17	-0.35123
377.384	75.52945
377.599	29.15432
377.813	-21.42373
378.028	22.83131
378.242	-2.45859
378.457	-38.27997
378.672	73.42125
378.886	-34.06606
379.101	3.86356
379.315	75.52945
379.53	3.86356
379.744	-71.98763
379.958	-0.35123
380.173	50.23254
380.387	46.01671
380.602	-78.3071
380.816	-67.77453
381.031	67.09678
381.245	20.72369
381.459	-57.24133
381.674	46.01671
381.888	24.93896
382.103	12.29343
382.317	31.26204
382.531	14.40096
382.746	-31.95906
382.96	92.39587
383.174	14.40096
383.388	56.55646
383.603	75.52945
383.817	12.29343
384.031	29.15432
384.246	83.96248
384.46	81.85419
384.674	39.69314
384.888	-12.99502
385.103	24.93896
385.317	48.12461
385.531	5.97099
385.745	105.04662
385.959	48.12461
386.174	-8.78052
386.388	-36.17303
386.602	111.37229
386.816	20.72369
387.03	-50.9211
387.244	5.97099
387.458	24.93896
387.672	37.58533
387.887	-27.74501
388.101	20.72369
388.315	-8.78052
388.529	71.31307
388.743	48.12461
388.957	37.58533
389.171	90.28749
389.385	60.77252
389.599	18.61609
389.813	46.01671
390.027	18.61609
390.241	41.80097
390.455	-19.31659
390.669	71.31307
390.883	20.72369
391.097	46.01671
391.311	29.15432
391.525	54.44846
391.738	-34.06606
391.952	12.29343
392.166	-23.53085
392.38	27.04663
392.594	10.18593
392.808	-61.45468
393.022	-27.74501
393.236	67.09678
393.449	54.44846
393.663	-2.45859
393.877	29.15432
394.091	71.31307
394.305	35.47754
394.518	24.93896
394.732	50.23254
394.946	-10.88778
395.16	50.23254
395.373	29.15432
395.587	-29.85205
395.801	62.88058
396.015	3.86356
396.228	12.29343
396.442	24.93896
396.656	157.7665
396.869	54.44846
397.083	-6.67324
397.297	92.39587
397.51	96.6127
397.724	-44.60065
397.938	46.01671
398.151	33.36978
398.365	39.69314
398.578	-10.88778
398.792	71.31307
399.005	54.44846
399.219	67.09678
399.433	24.93896
399.646	29.15432
399.86	-2.45859
400.073	37.58533
400.287	20.72369
400.5	-4.56592
400.714	54.44846
400.927	16.50851
401.141	-17.20943
401.354	29.15432
401.567	-21.42373
401.781	-2.45859
401.994	52.34049
402.208	67.09678
402.421	90.28749
402.635	54.44846
402.848	56.55646
403.061	69.20492
403.275	79.74592
403.488	-0.35123
403.701	58.66448
403.915	54.44846
404.128	27.04663
404.341	96.6127
404.555	58.66448
404.768	71.31307
404.981	20.72369
405.195	-55.13461
405.408	-38.27997
405.621	3.86356
405.834	134.5681
406.048	24.93896
406.261	46.01671
406.474	16.50851
406.687	37.58533
406.9	149.33043
407.114	109.26371
407.327	71.31307
407.54	-25.63794
407.753	31.26204
407.966	86.0708
408.179	113.4809
408.392	16.50851
408.605	71.31307
408.819	29.15432
409.032	-25.63794
409.245	41.80097
409.458	20.72369
409.671	22.83131
409.884	100.82962
410.097	37.58533
410.31	115.58952
410.523	92.39587
410.736	29.15432
410.949	90.28749
411.162	-4.56592
411.375	-21.42373
411.588	88.17913
411.801	35.47754
412.014	56.55646
412.227	71.31307
412.44	-12.99502
412.653	113.4809
412.865	43.90883
413.078	46.01671
413.291	96.6127
413.504	50.23254
413.717	90.28749
413.93	73.42125
414.143	90.28749
414.356	48.12461
414.568	29.15432
414.781	-10.88778
414.994	107.15516
415.207	1.75615
415.42	60.77252
415.632	8.07845
415.845	48.12461
416.058	64.98867
416.271	96.6127
416.483	39.69314
416.696	-21.42373
416.909	50.23254
417.121	39.69314
417.334	62.88058
417.547	58.66448
417.759	71.31307
417.972	105.04662
418.185	39.69314
418.397	56.55646
418.61	31.26204
418.823	92.39587
419.035	92.39587
419.248	138.7858
419.46	81.85419
419.673	121.91552
419.885	111.37229
420.098	109.26371
420.311	73.42125
420.523	86.0708
420.736	62.88058
420.948	22.83131
421.161	43.90883
421.373	140.89469
421.586	79.74592
421.798	83.96248
422.01	130.35049
422.223	79.74592
422.435	132.45929
422.648	117.69816
422.86	77.63768
423.073	54.44846
423.285	105.04662
423.497	83.96248
423.71	130.35049
423.922	60.77252
424.134	79.74592
424.347	-12.99502
424.559	88.17913
424.771	67.09678
424.984	113.4809
425.196	105.04662
425.408	88.17913
425.621	143.00359
425.833	96.6127
426.045	100.82962
426.257	73.42125
426.47	62.88058
426.682	185.18606
426.894	88.17913
427.106	147.22146
427.318	172.53045
427.531	107.15516
427.743	109.26371
427.955	117.69816
428.167	138.7858
428.379	132.45929
428.591	159.87558
428.804	113.4809
429.016	136.67694
429.228	197.84241
429.44	161.98467
429.652	113.4809
429.864	153.54842
430.076	151.43941
430.288	157.7665
430.5	132.45929
430.712	197.84241
430.924	225.26699
431.136	138.7858
431.348	210.49949
431.56	143.00359
431.772	161.98467
431.984	145.11251
432.196	206.28038
432.408	172.53045
432.62	199.95188
432.832	208.38993
433.044	221.0476
433.256	199.95188
433.468	170.42125
433.679	191.51415
433.891	225.26699
434.103	199.95188
434.315	282.23623
434.527	290.67728
434.739	273.79547
434.95	202.06136
435.162	229.48645
435.374	240.03545
435.586	240.03545
435.798	240.03545
436.009	248.47499
436.221	191.51415
436.433	235.81579
436.645	231.59621
436.856	290.67728
437.068	256.91485
437.28	280.12601
437.491	309.67074
437.703	322.33385
437.915	391.99222
438.126	324.44443
438.338	267.46509
438.55	353.99443
438.761	275.90563
438.973	351.8836
439.184	370.88166
439.396	294.89792
439.608	362.43791
439.819	299.11864
440.031	286.45672
440.242	307.56028
440.454	324.44443
440.665	313.8917
440.877	413.10444
441.088	419.43842
441.3	391.99222
441.511	345.55122
441.723	320.22329
441.934	404.65936
442.146	351.8836
442.357	316.00221
442.569	421.54978
442.78	410.99314
442.991	408.88187
443.203	353.99443
443.414	419.43842
443.626	370.88166
443.837	463.78027
444.048	408.88187
444.26	442.66424
444.471	493.34525
444.682	347.662
444.894	375.10364
445.105	391.99222
445.316	476.45062
445.528	442.66424
445.739	451.11047
445.95	560.93302
446.161	484.89782
446.373	480.67419
446.584	417.32708
446.795	590.50708
447.006	560.93302
447.217	429.99538
447.429	531.3616
447.64	453.22206
447.851	489.12151
448.062	476.45062
448.273	531.3616
448.484	603.18247
448.695	539.8103
448.907	459.55694
449.118	592.61962
449.329	554.59606
449.54	605.29508
449.751	622.19641
449.962	605.29508
450.173	569.38248
450.384	721.50723
450.595	622.19641
450.806	641.21136
451.017	620.0837
451.228	611.63298
451.439	765.88806
451.65	761.66112
451.861	710.94105
452.072	550.37148
452.283	706.71465
452.494	675.01812
452.705	765.88806
452.915	770.11505
453.126	799.70503
453.337	865.2322
453.548	827.18311
453.759	784.9098
453.97	806.04598
454.181	856.7766
454.391	985.73814
454.602	956.13798
454.813	968.8236
455.024	928.65334
455.235	987.85249
455.445	983.6238
455.656	918.08266
455.867	966.70931
456.078	958.25223
456.288	975.1665
456.499	920.19678
456.71	1042.82774
456.921	956.13798
457.131	1190.85574
457.342	966.70931
457.553	1034.36975
457.763	1144.33028
457.974	1095.69222
458.184	1144.33028
458.395	1277.56664
458.606	1334.67122
458.816	1349.47632
459.027	1376.97168
459.237	1393.89199
459.448	1360.05143
459.659	1305.06126
459.869	1440.42304
460.08	1381.20175
460.29	1554.63536
460.501	1512.33472
460.711	1527.13999
460.922	1406.58225
461.132	1624.43017
461.343	1654.03943
461.553	1470.03377
461.764	1613.85532
461.974	1580.0155
462.184	1622.3152
462.395	1821.10893
462.605	1983.92196
462.816	1933.17855
463.026	1840.14061
463.236	1711.14153
463.447	1996.60726
463.657	1897.23328
463.867	2011.40648
464.078	2051.57414
464.288	1962.7793
464.498	2231.23848
464.709	2203.76422
464.919	2053.68816
465.129	2172.06135
465.339	2243.91842
465.55	2319.99109
465.76	2184.74272
465.97	2248.14499
466.18	2514.33998
466.391	2569.24779
466.601	2524.89979
466.811	2721.25733
467.021	2571.35947
467.231	2725.47887
467.441	2415.0642
467.651	2879.52823
467.862	2928.04881
468.072	3014.52266
468.282	2887.96714
468.492	2961.79769
468.702	3185.28487
468.912	3176.85463
469.122	3071.4549
469.332	3313.813
469.542	3054.58726
469.752	3528.58484
469.962	3497.01243
470.172	3656.93636
470.382	3610.65367
470.592	3837.7704
470.802	3751.57674
471.012	3757.88471
471.222	3940.73859
471.432	4068.85546
471.642	3854.58481
471.852	4190.59999
472.062	4073.05472
472.272	4178.009
472.482	4408.72143
472.691	4576.34691
472.901	4188.50154
473.111	4459.02387
473.321	4446.44944
473.531	4672.66723
473.741	4435.97015
473.95	5001.05206
474.16	4672.66723
474.37	5007.32143
474.58	4796.13883
474.79	5433.14807
474.999	5278.79384
475.209	5078.35981
475.419	5330.9549
475.628	5558.20569
475.838	5608.20499
476.048	5703.99903
476.258	5679.01409
476.467	6205.06079
476.677	6007.71022
476.886	6082.52068
477.096	6240.3538
477.306	6315.06959
477.515	5914.15422
477.725	6252.80854
477.935	6555.61487
478.144	6279.79091
478.354	6441.60225
478.563	6715.11509
478.773	6655.05961
478.982	6868.27287
479.192	6837.23747
479.401	7172.15114
479.611	7143.2312
479.82	7217.58796
480.03	7273.33671
480.239	7440.48702
480.449	7215.52288
480.658	7572.45574
480.868	7842.3074
481.077	7875.24175
481.287	7807.30883
481.496	7932.86414
481.705	8039.83451
481.915	8343.99126
482.124	8319.34602
482.333	8107.69108
482.543	8335.77649
482.752	8657.97586
482.961	8545.15672
483.171	8641.56931
483.38	8600.54774
483.589	8893.69009
483.799	8932.61119
484.008	9006.33887
484.217	9088.23189
484.426	9198.74369
484.636	9388.95434
484.845	9442.10601
485.054	9415.53155
485.263	9452.32623
485.472	9581.06667
485.682	9574.93761
485.891	9981.20062
486.1	9717.91265
486.309	10176.97915
486.518	10054.63285
486.727	10021.99859
486.936	10291.12419
487.146	10077.06679
487.355	10329.84235
487.564	10543.7258
487.773	10700.48496
487.982	10680.13074
488.191	10893.79072
488.4	10804.27283
488.609	11152.04955
488.818	10879.55074
489.027	10883.61936
489.236	11336.99507
489.445	11562.4761
489.654	11326.83543
489.863	11467.01665
490.072	11576.69169
490.281	11259.77545
490.49	11806.11067
490.698	11970.4938
490.907	11907.58814
491.116	12250.43433
491.325	12102.36791
491.534	12106.42506
491.743	11891.35315
491.952	12207.84391
492.16	12175.3919
492.369	12485.64013
492.578	12363.99345
492.787	12601.18282
492.996	12710.62585
493.204	12813.97306
493.413	12747.10303
493.622	13115.82912
493.831	12911.22783
494.039	13048.98476
494.248	12903.12374
494.457	13399.35654
494.665	13190.76974
494.874	13403.40633
495.083	13277.85514
495.291	13543.11486
495.5	13490.47317
495.709	13383.1572
495.917	13360.88269
496.126	13551.21337
496.335	13650.41552
496.543	14067.38917
496.752	13887.25484
496.96	14146.31848
497.169	13828.55488
497.377	14239.41046
497.586	14304.16768
497.794	14385.11169
498.003	14087.62778
498.211	14490.33514
498.42	14330.47478
498.628	14470.10017
498.837	14334.522
499.045	14528.78123
499.254	14551.03927
499.462	14680.53788
499.671	14979.99026
499.879	15135.78257
500.087	15099.36368
500.296	15004.26968
500.504	15131.73603
500.713	15319.90047
500.921	15354.2963
501.129	14992.12998
501.338	15243.01594
501.546	15238.9694
501.754	15293.59783
501.962	15512.11402
502.171	15916.79593
502.379	15609.23439
502.587	15767.05902
502.795	15945.12528
503.004	15491.8808
503.212	16030.11493
503.42	15999.7612
503.628	16250.69578
503.837	15803.48094
504.045	16086.7761
504.253	16313.43346
504.461	16487.48948
504.669	16368.07739
504.877	16329.62411
505.085	16647.39169
505.294	16418.67489
505.502	16434.86634
505.71	16872.08875
505.918	16329.62411
506.126	16649.41586
506.334	16574.52317
506.542	17054.29843
506.75	16689.89969
506.958	17256.77975
507.166	16999.63327
507.374	17068.47121
507.582	16855.89336
507.79	17189.95776
507.998	17313.47972
508.206	17264.87961
508.414	16940.92101
508.622	17386.38314
508.83	17230.45556
509.037	17779.32207
509.245	17400.55926
509.453	17410.68515
509.661	17757.03872
509.869	17965.70819
510.077	17609.16857
510.285	17755.01299
510.492	17611.19407
510.7	17785.39942
510.908	17607.14307
511.116	17730.70438
511.324	17773.24476
511.531	17838.07106
511.739	17840.09694
511.947	18218.99824
512.155	17896.82294
512.362	18330.46398
512.57	18004.20466
512.778	18275.74303
512.985	18265.60982
513.193	18162.25634
513.401	18338.57102
513.608	18504.7787
513.816	18322.357
514.024	18427.75245
514.231	18330.46398
514.439	18687.23153
514.646	18328.43723
514.854	18691.28639
515.061	18622.3558
515.269	18829.16124
515.477	18967.0545
515.684	18843.35528
515.892	19078.59944
516.099	18750.08372
516.307	19119.16428
516.514	19244.92567
516.722	19135.39067
516.929	19504.61219
517.136	19147.56064
517.344	19388.96216
517.551	19360.55895
517.759	19180.0146
517.966	19677.0979
518.173	19411.27954
518.381	19908.47916
518.588	19723.77569
518.796	19782.63346
519.003	20206.91982
519.21	19754.21893
519.418	19770.4557
519.625	19898.32971
519.832	19896.29984
520.039	20188.64533
520.247	20164.27988
520.454	19932.83825
520.661	20442.48815
520.868	20280.02119
521.076	20604.98192
521.283	20773.59742
521.49	20885.34632
521.697	20806.1049
521.904	20637.48388
522.112	20580.60615
522.319	20793.91447
522.526	20594.82527
522.733	20934.11339
522.94	20724.83818
523.147	20787.81931
523.354	20944.2735
523.561	21249.12424
523.768	20997.1077
523.975	21421.91346
524.183	21112.94623
524.39	21438.17747
524.597	21995.3715
524.804	21230.83061
525.011	21324.3348
525.218	21358.89285
525.425	21517.46815
525.632	21425.97944
525.838	21647.59923
526.045	21184.08172
526.252	21840.79212
526.459	22093.0119
526.666	21855.02877
526.873	22127.59496
527.08	21596.76486
527.287	21460.54089
527.494	21651.66609
527.701	22489.76404
527.907	22021.81492
528.114	22251.69597
528.321	22168.28229
528.528	22656.64452
528.735	22473.4843
528.941	22255.76509
529.148	22121.49199
529.355	22428.71621
529.562	22326.97706
529.768	22493.83401
529.975	22251.69597
530.182	22567.09593
530.388	22388.01946
530.595	22994.54745
530.802	22599.65826
531.008	22917.18787
531.215	22894.79522
531.422	23442.51195
531.628	23318.288
531.835	23149.28105
532.042	23407.89098
532.248	23858.03233
532.455	22978.26082
532.661	23442.51195
532.868	23471.02401
533.074	23448.62162
533.281	23261.27113
533.487	23519.90324
533.694	23322.36073
533.9	23949.70781
534.107	23919.14867
534.313	23951.74511
534.52	24159.56433
534.726	24198.27894
534.933	23910.99967
535.139	23884.51576
535.345	24253.29612
535.552	24167.7147
535.758	23906.92519
535.965	24477.46017
536.171	24528.41093
536.377	24642.54636
536.584	24463.19425
536.79	24587.51579
536.996	24581.4014
537.203	24817.84081
537.409	24579.36327
537.615	24552.86786
537.821	24785.22653
538.028	25298.96988
538.234	24603.82096
538.44	24854.5326
538.646	24697.57872
538.853	25168.48189
539.059	24982.95985
539.265	25091.00888
539.471	24887.14816
539.677	25095.08633
539.883	25280.61947
540.09	25268.38596
540.296	25496.75731
540.502	25466.17035
540.708	25535.50144
540.914	25869.95401
541.12	25484.52247
541.326	25413.15405
541.532	25570.16786
541.738	25572.20708
541.944	25823.04597
542.15	26014.76321
542.356	26031.08031
542.562	25996.40661
542.768	26122.86611
542.974	26155.50191
543.18	25990.28777
543.386	26404.36417
543.592	26398.24431
543.798	26418.6439
544.004	26400.28426
544.21	26826.6684
544.415	26449.24358
544.621	26596.12701
544.827	26565.52563
545.033	26657.33082
545.239	26714.4556
545.445	27142.92777
545.651	26657.33082
545.856	27167.41375
546.062	26828.70867
546.268	26869.51446
546.474	26414.56397
546.679	26412.524
546.885	26394.16441
547.091	26718.53599
547.297	26528.80443
547.502	26863.39355
547.708	27246.9945
547.914	26830.74895
548.119	27377.59289
548.325	26757.29996
548.531	26483.92365
548.736	27597.98945
548.942	27473.50441
549.147	27416.3653
549.353	27320.45544
549.559	27526.56305
549.764	27279.6436
549.97	27073.55189
550.175	27726.56071
550.381	27902.07828
550.586	27426.56864
550.792	28189.86376
550.997	28314.37353
551.203	28310.29118
551.408	28030.66052
551.614	27924.52882
551.819	28002.0863
552.025	27979.63528
552.23	28296.00298
552.435	28298.04415
552.641	28104.1381
552.846	28189.86376
553.052	28277.63252
553.257	28563.4051
553.462	28440.92857
553.668	28634.8515
553.873	28412.35127
554.078	28573.61165
554.283	28316.41471
554.489	28651.18229
554.694	28424.59866
554.899	28873.69591
555.105	29032.93343
555.31	28996.18575
555.515	28963.52143
555.72	29210.55196
555.925	28781.83099
556.131	28965.56294
556.336	28981.89508
556.541	29275.8849
556.746	29284.05159
556.951	29424.92966
557.156	29371.84458
557.361	29173.80266
557.567	29324.8853
557.772	29516.80937
557.977	29008.43494
558.182	29251.38492
558.387	28988.01965
558.592	29729.16184
558.797	29349.38573
559.002	29837.38444
559.207	29841.46838
559.412	29457.59775
559.617	29527.01835
559.822	29790.41954
560.027	29684.24015
560.232	29849.63625
560.437	29537.22737
560.642	29804.71314
560.847	29837.38444
561.051	29996.6611
561.256	30057.92319
561.461	30102.84937
561.666	29925.18996
561.871	29935.40004
562.076	29929.27399
562.281	30200.87208
562.485	30274.3909
562.69	30447.98319
562.895	30317.27759
563.1	30311.15088
563.305	30229.46255
563.509	30411.22173
563.714	30249.88445
563.919	30501.08379
564.123	30478.61805
564.328	30856.47186
564.533	30662.4332
564.737	30470.44873
564.942	30482.70272
565.147	31191.47361
565.351	30836.04616
565.556	30343.82676
565.761	30554.18525
565.965	30868.72734
566.17	30701.23997
566.374	30613.41481
566.579	30548.05811
566.784	30858.51443
566.988	31007.62637
567.193	31058.69385
567.397	30558.27001
567.602	30897.32367
567.806	30964.73038
568.011	30821.74825
568.215	31516.30094
568.42	31428.45054
568.624	31211.90183
568.828	31363.07547
569.033	31465.22476
569.237	31430.49354
569.442	31358.98958
569.646	30735.96221
569.85	31614.37016
570.055	31606.19758
570.259	31761.4815
570.463	32145.65087
570.668	31837.084
570.872	31669.53584
571.076	31902.47198
571.281	32004.6446
571.485	31510.17174
571.689	31330.38855
571.893	31892.25498
572.098	32041.42793
572.302	31822.78063
572.506	31642.97443
572.71	31222.116
572.914	31745.13534
573.119	32135.4327
573.323	31714.4866
573.527	31924.94955
573.731	32243.74788
573.935	32303.01717
574.139	32278.49173
574.343	31879.99465
574.547	32638.23011
574.751	32298.92957
574.955	32501.276
575.159	32568.7297
575.364	32149.73815
575.568	32139.51996
575.772	32599.39131
575.976	32489.01196
576.18	32074.12476
576.383	32697.51205
576.587	32597.34719
576.791	32466.52809
576.995	32762.92896
577.199	32613.70025
577.403	32425.64904
577.607	33028.71175
577.811	33341.57597
578.015	32756.79602
578.219	33026.66709
578.422	32460.39618
578.626	33368.1623
578.83	32482.87997
579.034	32640.27429
579.238	33002.13149
579.442	33458.15051
579.645	33026.66709
579.849	33499.05619
580.053	33627.91718
580.257	33139.12694
580.46	33611.55318
580.664	33337.48581
580.868	33470.42209
581.071	33542.00847
581.275	33220.92117
581.479	33239.32549
581.682	33433.60769
581.886	33863.17268
582.09	33854.98914
582.293	34104.61226
582.497	33838.62222
582.7	33351.80142
582.904	33711.78588
583.107	33816.11806
583.311	33697.46645
583.515	33940.91906
583.718	33519.50948
583.922	33981.84023
584.125	34208.9788
584.329	34018.67048
584.532	34118.93651
584.735	34211.0253
584.939	33979.79414
585.142	34043.22463
585.346	33783.38546
585.549	34284.7018
585.753	34106.65857
585.956	34544.65639
586.159	35075.00965
586.363	34620.40343
586.566	34262.18901
586.769	34075.96429
586.973	34612.21429
587.176	34694.10874
587.379	34651.11331
587.582	34561.03365
587.786	34773.96238
587.989	34845.63153
588.192	34620.40343
588.395	35294.20236
588.599	34950.07343
588.802	35591.32962
589.005	34954.16943
589.208	35277.81221
589.411	35656.91718
589.615	35062.72008
589.818	35312.64166
590.021	34874.3007
590.224	35142.6053
590.427	35367.96196
590.63	34991.03424
590.833	34978.74581
591.036	35187.67194
591.239	35591.32962
591.442	35482.71204
591.645	35226.59499
591.848	35609.77558
592.051	35646.66877
592.254	35386.40287
592.457	35706.11144
592.66	35554.43899
592.863	35933.67581
593.066	36200.28166
593.269	36204.38407
593.472	36032.10346
593.675	36401.32807
593.878	36044.40784
594.081	36311.05507
594.284	36019.79928
594.486	36089.52572
594.689	36325.41588
594.892	35956.23098
595.095	36438.2614
595.298	36405.43167
595.5	36356.19007
595.703	36735.85536
595.906	36321.31276
596.109	36520.34277
596.311	36598.32952
596.514	35943.92808
596.717	35952.12999
596.92	36311.05507
597.122	36473.14474
597.325	36466.98872
597.528	36497.76938
597.73	37119.85644
597.933	36436.20949
598.136	36943.22707
598.338	36450.57296
598.541	36655.79942
598.743	36797.44372
598.946	36391.06917
599.148	36885.73094
599.351	36889.83762
599.554	37130.1272
599.756	36961.70912
599.959	36992.51378
600.161	36844.66555
600.363	36680.43095
600.566	36670.1677
600.768	36904.21125
600.971	37029.48144
601.173	36974.03079
601.376	36820.02763
601.578	36852.87841
601.78	36965.81631
601.983	36481.35285
602.185	36752.27833
602.388	36579.85813
602.59	36386.96565
602.792	36957.60195
602.995	37251.33568
603.197	37635.67526
603.399	37288.31957
603.601	37391.06513
603.804	37927.7075
604.006	37783.72788
604.208	37666.5162
604.41	36935.01301
604.613	37167.1034
604.815	37530.82911
605.017	37999.71222
605.219	37446.55547
605.421	37282.15542
605.623	37600.72431
605.826	37917.42193
606.028	37843.37179
606.23	37773.44512
606.432	36928.85253
606.634	38079.95795
606.836	37128.07303
607.038	38088.189
607.24	37284.21013
607.442	37043.85837
607.644	37573.99863
607.846	37553.44129
608.048	37645.95538
608.25	37865.99711
608.452	37892.73738
608.654	37497.94032
608.856	37571.94286
609.058	37905.07951
609.26	37972.96644
609.462	38032.63202
609.664	37907.13656
609.866	37730.25972
610.067	37804.29398
610.269	37399.28557
610.471	37596.61258
610.673	38506.09354
610.875	38479.32045
611.077	38300.18489
611.278	37769.33207
611.48	38088.189
611.682	37722.03432
611.884	38464.9048
612.085	38236.37082
612.287	38957.34681
612.489	38536.98743
612.69	38174.62307
612.892	38005.88452
613.094	38337.24201
613.295	37489.71842
613.497	37536.99598
613.699	37633.61926
613.9	38508.15307
614.102	38333.12442
614.304	37777.5582
614.505	37522.60673
614.707	38240.4876
614.908	37777.5582
615.11	38287.83313
615.311	38370.18404
615.513	37771.38859
615.714	38028.51693
615.916	37977.08108
616.117	38049.09272
616.319	38586.42181
616.52	37940.05045
616.722	38376.36091
616.923	38296.0676
617.124	37975.02376
617.326	38275.48169
617.527	38543.16644
617.729	38372.24299
617.93	38047.0351
618.131	38431.95634
618.333	38137.57808
618.534	38469.02351
618.735	38271.36461
618.937	38032.63202
619.138	38123.17243
619.339	37857.76961
619.54	38156.10023
619.742	38133.46214
619.943	37485.60752
620.144	38049.09272
620.345	38549.34554
620.546	38569.94311
620.748	38559.64421
620.949	38460.78612
621.15	38701.78887
621.351	38246.66285
621.552	38226.07899
621.753	38164.33252
621.954	38329.00686
622.155	37656.23569
622.356	38310.47825
622.558	38193.14659
622.759	38567.88332
622.96	38232.25406
623.161	38728.57458
623.362	38644.1018
623.563	38833.67195
623.764	38631.74121
623.965	38491.67708
624.166	39083.11769
624.366	38106.70934
624.567	38411.3647
624.768	38724.4536
624.969	37952.3937
625.17	37915.36484
625.371	38384.59687
625.572	38092.30457
625.773	38160.21636
625.973	38722.39312
626.174	38782.15064
626.375	38604.96104
626.576	38199.32125
626.777	38524.62963
626.977	37631.56327
627.178	38232.25406
627.379	37876.28167
627.58	37859.82647
627.78	37744.65446
627.981	38040.8623
628.182	38425.77876
628.382	38413.42382
628.583	38213.72909
628.784	38644.1018
628.984	37900.96543
629.185	38431.95634
629.386	37680.90924
629.586	38975.90095
629.787	38473.14226
629.987	38594.66138
630.188	39128.4864
630.388	38656.46272
630.589	38359.88942
630.79	39027.44425
630.99	38747.11944
631.191	38914.05678
631.391	38961.46988
631.591	38596.72129
631.792	38788.33289
631.992	38895.50517
632.193	39171.79723
632.393	38716.21175
632.594	38469.02351
632.794	39089.30406
632.994	39122.29948
633.195	39157.35981
633.395	39545.27475
633.595	39485.41388
633.796	39035.69173
633.996	38977.96257
634.196	38982.08583
634.397	39345.0835
634.597	39175.9223
634.797	39373.97128
634.997	38707.97005
635.198	38594.66138
635.398	39122.29948
635.598	38990.33248
635.798	38936.73199
635.998	38998.57927
636.199	38813.06273
636.399	38868.70974
636.599	38149.92611
636.799	38685.30612
636.999	37851.59907
637.199	38949.10077
637.399	38734.75612
637.599	38504.03402
637.799	38427.83794
637.999	39126.42408
638.199	39276.99851
638.399	38773.90776
638.599	38652.34237
638.799	38654.40254
638.999	38720.33266
639.199	39144.98526
639.399	39475.09389
639.599	39186.23513
639.799	39056.31109
639.999	39446.19927
640.199	39262.55762
640.399	39091.3662
640.599	37670.62846
640.799	39683.60666
640.998	39458.58244
641.198	39411.11558
641.398	39503.99048
641.598	39266.68354
641.798	39390.47946
641.997	39450.32696
642.197	39328.57706
642.397	39642.30875
642.597	39161.48474
642.796	39031.56797
642.996	38710.03046
643.196	39396.6702
643.395	38786.27213
643.595	39128.4864
643.795	39534.95331
643.994	39355.40034
644.194	39654.69769
644.394	40026.53974
644.593	39828.18183
644.793	40187.77784
644.992	39621.66133
645.192	40297.37463
645.392	39826.11611
645.591	39855.03712
645.791	39485.41388
645.99	39151.17249
646.19	39250.18009
646.389	39652.63284
646.589	39766.21482
646.788	39609.27337
646.987	39580.36956
647.187	39646.43836
647.386	39813.72202
647.586	39215.11234
647.785	39435.88024
647.984	39665.02209
648.184	40131.95724
648.383	39665.02209
648.582	39857.10298
648.782	39974.87465
648.981	39669.15192
649.18	39307.9449
649.38	39650.568
649.579	39983.14062
649.778	39722.84347
649.977	39817.85334
650.177	39444.13545
650.376	39435.88024
650.575	39297.62919
650.774	39322.38731
650.973	39681.54166
651.173	39202.73616
651.372	39440.00782
651.571	39464.77416
651.77	39873.63027
651.969	39836.44481
652.168	39586.56307
652.367	39747.62654
652.566	39774.47655
652.765	39819.91902
652.964	40158.83284
653.163	40030.67324
653.362	40144.36113
653.561	40293.23835
653.76	39840.57636
653.959	39452.39081
654.158	39960.40961
654.357	39456.51856
654.556	38648.22207
654.755	39598.95036
654.954	39757.95326
655.153	39857.10298
655.352	40260.14964
655.551	39819.91902
655.749	40003.80628
655.948	39960.40961
656.147	40270.48956
656.346	39993.47332
656.545	40063.74273
656.743	40266.35356
656.942	39667.087
657.141	40165.03516
657.34	40100.94919
657.538	40529.07711
657.737	39939.74618
657.936	40212.58953
658.135	39685.67166
658.333	39720.77828
658.532	39704.25715
658.731	39793.06604
658.929	39252.24299
659.128	39369.84434
659.326	39650.568
659.525	39821.98471
659.724	39923.21619
659.922	39737.30008
660.121	39272.87249
660.319	39508.11873
660.518	39667.087
660.716	39852.97126
660.915	40237.40278
661.113	40584.95488
661.312	40055.4751
661.51	40413.20849
661.709	40613.93176
661.907	40204.31879
662.105	40165.03516
662.304	40187.77784
662.502	40094.74787
662.701	40196.04823
662.899	39745.56123
663.097	40233.26713
663.296	40320.12499
663.494	40837.54259
663.692	40318.05672
663.891	40103.01632
664.089	39675.34675
664.287	40398.72737
664.485	40090.61372
664.684	40673.96236
664.882	40369.76674
665.08	39875.69623
665.278	40543.56315
665.476	40324.26156
665.675	40100.94919
665.873	40251.8779
666.071	39855.03712
666.269	39673.28179
666.467	38677.06497
666.665	39312.07126
666.863	39466.83809
667.061	40251.8779
667.259	39782.73844
667.457	40127.82269
667.655	39788.93497
667.853	40152.63061
668.051	39768.28024
668.249	39665.02209
668.447	39941.81247
668.645	39646.43836
668.843	39788.93497
669.041	39755.88789
669.239	39543.21044
669.437	39753.82254
669.635	40080.27851
669.833	40088.54665
670.031	39687.73667
670.229	39625.79074
670.426	39788.93497
670.624	39590.69212
670.822	39235.74009
671.02	39250.18009
671.218	39435.88024
671.415	39052.18715
671.613	39101.67706
671.811	38961.46988
672.009	38742.99829
672.206	38994.45586
672.404	39415.24293
672.602	39262.55762
672.799	39966.60885
672.997	39739.36535
673.195	39182.10997
673.392	39299.69232
673.59	39155.29737
673.788	39035.69173
673.985	39138.79812
674.183	39165.60971
674.38	39266.68354
674.578	39349.21021
674.775	39072.80727
674.973	38971.77774
675.17	39524.63211
675.368	39371.90781
675.565	38959.40834
675.763	39246.05433
675.96	39068.68317
676.158	38761.54373
676.355	38932.60914
676.553	39693.93177
676.75	39153.23493
676.947	39355.40034
677.145	39235.74009
677.342	39231.61446
677.539	39081.05559
677.737	39964.54243
677.934	39122.29948
678.131	39256.36881
678.329	39085.17981
678.526	38761.54373
678.723	38998.57927
678.92	39021.25874
679.118	38757.42245
679.315	38611.14094
679.512	38057.32326
679.709	38506.09354
679.906	38512.27216
680.104	38592.60148
680.301	38353.71275
680.498	38677.06497
680.695	38594.66138
680.892	38594.66138
681.089	38639.98157
681.286	38298.12624
681.483	37985.31047
681.68	38094.36237
681.877	37989.42522
682.075	38372.24299
682.272	37950.33647
682.469	38675.0047
682.665	37937.99327
682.862	37915.36484
683.059	37763.16257
683.256	37818.69073
683.453	37645.95538
683.65	37771.38859
683.847	38234.31243
684.044	37826.91762
684.241	37625.39534
684.438	38191.08839
684.635	37606.89196
684.831	38209.61252
685.028	37479.44123
685.225	37730.25972
685.422	37722.03432
685.619	38090.24678
685.815	37911.25068
686.012	37730.25972
686.209	37245.17193
686.405	38059.38092
686.602	37376.67963
686.799	36826.18702
686.996	37744.65446
687.192	37563.71986
687.389	37333.52533
687.586	37687.0778
687.782	38042.91989
687.979	37870.11091
688.175	37732.31609
688.372	37586.3334
688.568	37598.66844
688.765	36815.9214
688.962	37536.99598
689.158	37119.85644
689.355	37041.8045
689.551	37160.94053
689.748	37154.77774
689.944	37027.42762
690.14	37335.58023
690.337	37699.41514
690.533	37222.57207
690.73	36551.1259
690.926	36941.17354
691.123	36540.8647
691.319	36852.87841
691.515	37187.64673
691.712	36822.08075
691.908	37056.18172
692.104	36988.4064
692.301	36602.43435
692.497	36557.2827
692.693	36454.67686
692.889	36612.69652
693.086	36179.77
693.282	36395.17271
693.478	36778.96657
693.674	36737.9082
693.87	36707.11617
694.067	36805.65595
694.263	36883.6776
694.459	36799.49676
694.655	37031.53527
694.851	37097.26141
695.047	37415.72682
695.243	36489.56106
695.439	36409.5353
695.635	36019.79928
695.831	36577.80579
696.027	36378.75869
696.224	36419.79448
696.42	36202.33286
696.615	36013.64727
696.811	36235.15287
697.007	36573.70112
697.203	36071.06807
697.399	35941.87761
697.595	35927.52452
697.791	36549.07365
697.987	36032.10346
698.183	36645.53657
698.379	35956.23098
698.575	36547.0214
698.77	35962.38251
698.966	36091.5766
699.162	36040.30636
699.358	36073.11889
699.554	35642.56944
699.749	36093.62748
699.945	36066.96643
700.141	35607.72601
700.337	35745.05909
700.532	35390.5009
700.728	35894.71849
700.924	35687.66323
701.119	35417.13862
701.315	35365.91299
701.511	35593.37915
701.706	36259.76889
701.902	35753.25884
702.097	35802.45922
702.293	35451.97385
702.489	35667.16573
702.684	35650.76812
702.88	35425.33501
703.075	35210.20613
703.271	35148.75062
703.466	34851.77485
703.662	35120.07285
703.857	35335.17912
704.053	35486.81055
704.248	35533.94493
704.443	35833.21106
704.639	35513.45139
704.834	35087.29938
705.03	35265.5198
705.225	34931.64166
705.42	35083.20279
705.616	35283.95848
705.811	35142.6053
706.006	34890.68347
706.202	34522.13809
706.397	34655.20803
706.592	34585.60003
706.787	34159.86394
706.983	35105.73431
707.178	35880.36631
707.373	35451.97385
707.568	35531.89555
707.763	34864.06161
707.959	35439.6789
708.154	35087.29938
708.349	34591.74172
708.544	35013.56347
708.739	34935.73758
708.934	34356.33648
709.129	34745.29622
709.324	34690.01386
709.519	35140.55687
709.714	34716.6309
709.909	35281.90972
710.104	35103.68596
710.299	34544.65639
710.494	34524.18518
710.689	34943.92947
710.884	34792.39108
711.079	34923.44988
711.274	34290.84173
711.469	34604.02521
711.664	34384.99169
711.859	34174.18888
712.054	34305.16837
712.249	34348.14942
712.443	34468.91496
712.638	34788.29579
712.833	34503.71439
713.028	35136.46003
713.223	34493.47914
713.417	34483.24399
713.612	34417.74144
713.807	34190.56047
714.002	33965.47159
714.196	33857.03502
714.391	33088.00781
714.586	33617.68966
714.78	33693.37521
714.975	33889.76956
715.17	33724.05981
715.364	34153.72473
715.559	33852.94326
715.754	33615.64416
715.948	33867.26447
716.143	33597.23486
716.337	34286.74844
716.532	33930.68899
716.726	33908.18313
716.921	33558.3716
717.115	32987.81923
717.31	33124.81341
717.504	33400.88461
717.699	33419.29125
717.893	33629.96269
718.088	34057.54812
718.282	33834.53052
718.476	33677.01039
718.671	33314.99015
718.865	33691.3296
719.059	32589.17072
719.254	32556.46521
719.448	32777.23925
719.642	32977.59626
719.837	32785.41661
720.031	33249.55021
720.225	32646.40681
720.419	33159.57508
720.614	33314.99015
720.808	33192.29267
721.002	32944.88322
721.196	33218.87625
721.39	32856.97022
721.585	32693.42357
721.779	32521.71625
721.973	32464.48412
722.167	32912.17085
722.361	32354.11282
722.555	32683.20243
722.749	32106.8221
722.943	32482.87997
723.137	32560.55336
723.331	32652.53936
723.525	32499.23199
723.719	32570.7738
723.913	32658.67193
724.107	32094.56054
724.301	32221.26689
724.495	32151.78179
724.689	32341.84974
724.883	31820.7373
725.077	32303.01717
725.271	32556.46521
725.465	32290.75441
725.659	31800.30409
725.853	32043.47147
726.046	32215.13576
726.24	31524.47323
726.434	31408.02066
726.628	31863.64763
726.822	31393.71983
727.015	32119.08374
727.209	31540.81788
727.403	32249.8791
727.596	32033.25381
727.79	32186.52404
727.984	32409.29766
728.177	32270.31665
728.371	31673.62224
728.565	31328.34563
728.758	31642.97443
728.952	31818.69397
729.146	31832.99731
729.339	32168.13101
729.533	31757.39494
729.726	31700.18399
729.92	31700.18399
730.113	31886.12481
730.307	31796.21747
730.5	31514.25787
730.694	31761.4815
730.887	32137.47633
731.081	31832.99731
731.274	31493.82729
731.468	31238.45874
731.661	31436.62255
731.854	31348.77489
732.048	31530.60246
732.241	30862.59959
732.435	31142.4465
732.628	31504.04256
732.821	31275.23029
733.014	31886.12481
733.208	31516.30094
733.401	31751.26513
733.594	31314.04524
733.788	31700.18399
733.981	31855.47417
734.174	32536.02456
734.367	32489.01196
734.56	32168.13101
734.754	31710.40013
734.947	31591.89562
735.14	31332.43147
735.333	31410.06364
735.526	30995.37031
735.719	30987.19963
735.912	31346.73196
736.105	31765.56805
736.298	31240.50159
736.491	31007.62637
736.684	31093.42026
736.877	30842.17385
737.07	30772.72737
737.263	30915.70717
737.456	31179.21675
737.649	31228.24452
737.842	31265.01592
738.035	31542.86097
738.228	31021.92517
738.421	30870.76993
738.614	31111.805
738.807	30923.87764
739	31181.25956
739.192	30850.34413
739.385	30893.23846
739.578	30821.74825
739.771	30672.64546
739.964	30411.22173
740.156	31007.62637
740.349	31252.75873
740.542	31271.14454
740.735	30552.14287
740.927	30864.64218
741.12	30613.41481
741.313	30527.63441
741.505	30454.11014
741.698	30200.87208
741.891	30417.34861
742.083	30286.64418
742.276	30597.07551
742.468	30368.33387
742.661	30441.85625
742.854	30668.56055
743.046	30533.76151
743.239	30756.38724
743.431	30646.09365
743.624	30644.05122
743.816	30492.91441
744.009	30390.79887
744.201	30403.05257
744.393	30492.91441
744.586	30452.06782
744.778	30462.27942
744.971	30560.31239
745.163	30866.68476
745.355	30772.72737
745.548	30356.08029
745.74	30854.42928
745.932	30642.00878
746.125	30778.85493
746.317	30817.66315
746.509	30378.54521
746.702	30474.53339
746.894	30351.99577
747.086	29731.20375
747.278	29590.31468
747.471	29351.42743
747.663	29328.96869
747.855	29576.02187
748.047	29547.43641
748.239	29833.30052
748.431	29475.97368
748.623	29718.95232
748.815	29422.88791
749.008	29237.09334
749.2	29504.55861
749.392	29588.27285
749.584	29212.5936
749.776	29812.88094
749.968	29508.64219
750.16	29361.636
750.352	29451.47247
750.544	29718.95232
750.736	29778.16792
750.928	29982.36677
751.12	29492.3079
751.311	29290.17662
751.503	29806.75509
751.695	30031.37616
751.887	29563.77093
752.079	29814.92289
752.271	28981.89508
752.463	29429.01316
752.654	29269.75989
752.846	28981.89508
753.038	29024.76725
753.23	29116.63774
753.421	28771.6239
753.613	29018.64263
753.805	28983.9366
753.997	28718.54749
754.188	28802.24523
754.38	28563.4051
754.572	28393.98025
754.763	28359.27969
754.955	28065.35809
755.146	28594.02483
755.338	28824.70102
755.53	28963.52143
755.721	29065.59832
755.913	28826.74247
756.104	28777.74815
756.296	28818.57671
756.487	28555.23988
756.679	28102.09704
756.87	27722.47901
757.062	28226.60393
757.253	28122.50772
757.445	27816.35932
757.636	28326.62061
757.827	28328.6618
758.019	28563.4051
758.21	28030.66052
758.401	28485.83619
758.593	28351.11489
758.784	27491.87077
758.975	27685.74392
759.167	27736.76498
759.358	28044.94772
759.549	28016.37338
759.74	27679.62144
759.932	27873.50507
760.123	27642.8868
760.314	27906.16019
760.505	27400.04001
760.696	27673.49898
760.888	27693.90724
761.079	27234.75118
761.27	26993.97562
761.461	27193.94044
761.652	27375.55225
761.843	27071.51144
762.034	27087.83503
762.225	27195.98097
762.416	27271.4813
762.607	27110.2801
762.798	27351.06466
762.989	27285.76534
763.18	27420.44663
763.371	26569.60579
763.562	26645.08994
763.753	26481.88363
763.944	26832.78923
764.135	26659.37097
764.326	27104.1587
764.517	26877.67568
764.708	26571.64587
764.899	26330.92683
765.089	25941.33768
765.28	26122.86611
765.471	26114.70723
765.662	25698.64254
765.853	25829.16436
766.043	25712.91798
766.234	26082.07198
766.425	26045.35787
766.615	26241.17299
766.806	26204.45645
766.997	26418.6439
767.187	26402.32421
767.378	26649.17023
767.569	26049.43718
767.759	26096.34985
767.95	26279.92993
768.141	26322.76726
768.331	26133.06475
768.522	25190.90888
768.712	25146.05516
768.903	25576.28553
769.093	25064.5057
769.284	25303.04777
769.474	25409.07593
769.665	25044.1189
769.855	25629.30603
770.046	25716.9967
770.236	25484.52247
770.426	25386.64642
770.617	25429.46661
770.807	24989.07566
770.998	25156.2491
771.188	25482.48333
771.378	24940.14974
771.569	25176.63713
771.759	25184.7924
771.949	25172.5595
772.139	25341.78817
772.33	24650.69918
772.52	24662.9285
772.71	24807.64878
772.9	24477.46017
773.09	24646.62277
773.281	24279.78657
773.471	24287.93757
773.661	24656.81383
773.851	24589.55393
774.041	24980.92125
774.231	24803.57199
774.421	24373.52562
774.611	24283.86206
774.802	24426.51102
774.992	24355.18493
775.182	24593.63021
775.372	24371.48775
775.562	23819.32667
775.752	23959.89433
775.942	23803.02986
776.131	24141.22618
776.321	23772.47385
776.511	24120.85072
776.701	23925.26045
776.891	24027.12715
777.081	23825.43802
777.271	23719.51168
777.461	23809.14114
777.651	23978.23025
777.84	23966.00628
778.03	23705.25297
778.22	23800.99277
778.41	23794.88153
778.599	23758.21461
778.789	23957.85702
778.979	23460.84106
779.169	23363.08873
779.358	23631.92481
779.548	23157.42546
779.738	23552.49038
779.927	23625.8143
780.117	23552.49038
780.307	23466.95082
780.496	23118.74002
780.686	23688.95749
780.875	23255.16233
781.065	23570.82099
781.254	23434.36576
781.444	23249.05355
781.633	22864.26045
781.823	22925.33075
782.012	22839.83318
782.202	22911.08074
782.391	22530.46439
782.581	22648.50346
782.77	22632.2215
782.96	22941.61668
783.149	22715.66891
783.338	22786.90913
783.528	22740.09365
783.717	22705.49208
783.906	22514.18408
784.096	22351.39362
784.285	21991.30334
784.474	21859.09642
784.663	21830.6232
784.853	21541.86649
785.042	21289.77791
785.231	21682.16801
785.42	21285.71247
785.61	21936.38466
785.799	21393.45206
785.988	21525.60087
786.177	21537.80006
786.366	21194.24434
786.555	21478.8386
786.744	21672.0006
786.933	21106.84914
787.122	21771.64538
787.312	21989.26927
787.501	21796.0496
787.69	21515.43498
787.879	21879.43489
788.068	21220.66763
788.257	21171.88671
788.445	20978.81863
788.634	21446.30957
788.823	21462.57395
789.012	21466.64009
789.201	21655.73296
789.39	21383.28747
789.579	21456.47478
789.768	21897.73985
789.957	21283.67976
790.145	21452.40868
790.334	21334.49881
790.523	21340.59727
790.712	21606.93153
790.9	21456.47478
791.089	21269.45087
791.278	21326.36759
791.467	21423.94645
791.655	21243.02632
791.844	21045.8802
792.033	20903.63369
792.221	20759.37573
792.41	21194.24434
792.599	20377.49814
792.787	20846.74074
792.976	20968.65817
793.164	20627.3269
793.353	20489.20237
793.541	21070.26734
793.73	20932.08138
793.918	20739.05938
794.107	20623.26414
794.295	20440.45715
794.484	20696.3964
794.672	20619.20139
794.861	20424.20928
795.049	20773.59742
795.238	20814.23193
795.426	20741.091
795.614	20357.18965
795.803	20491.23347
795.991	20607.01326
796.179	20271.89855
796.368	20535.9188
796.556	20176.46253
796.744	19961.25796
796.932	19863.82238
797.121	19721.74618
797.309	20148.03658
797.497	19979.52821
797.685	19945.01803
797.874	20143.97579
798.062	19916.59879
798.25	19129.30574
798.438	19685.21561
798.626	19287.52585
798.814	19612.15856
799.002	19557.36932
799.19	19555.34015
799.378	19632.45164
799.566	19750.15977
799.755	19388.96216
799.943	19656.80389
800.131	19508.67033
800.318	19551.28182
800.506	19449.82891
800.694	19443.74207
800.882	19468.08967
801.07	19971.40806
801.258	19593.89514
801.446	19602.01218
801.634	19182.04301
801.822	19117.136
802.01	19155.67403
802.197	19362.58772
802.385	19246.95421
802.573	19411.27954
802.761	19145.5323
802.949	19508.67033
803.136	19311.86962
803.324	19551.28182
803.512	19283.46861
803.699	19109.02291
803.887	19595.92439
804.075	19449.82891
804.262	19230.72601
804.45	19214.49808
804.638	19338.24271
804.825	19492.43787
805.013	19500.55407
805.201	19228.69751
805.388	18748.05617
805.576	19064.40213
805.763	19238.84008
805.951	19090.76872
806.138	19218.55504
806.326	19283.46861
806.513	18869.71616
806.701	18829.16124
806.888	18861.60504
807.075	18954.8867
807.263	18889.99421
807.45	19441.71313
807.638	18918.38417
807.825	19324.04173
808.012	19025.86757
808.2	19240.8686
808.387	19287.52585
808.574	19319.98434
808.761	18987.33448
808.949	19180.0146
809.136	18634.5197
809.323	18770.35943
809.51	18883.91076
809.698	18725.75339
809.885	19100.9099
810.072	19017.75522
810.259	19167.84424
810.446	19309.84095
810.633	19003.55877
810.82	19175.9578
811.008	19429.53958
811.195	19395.04867
811.382	18770.35943
811.569	19289.55447
811.756	19115.10772
811.943	19338.24271
812.13	19143.50396
812.317	18971.11046
812.504	19023.83948
812.691	19165.81586
812.878	19354.47265
813.064	19882.09082
813.251	20028.25055
813.438	19632.45164
813.625	19281.43999
813.812	19439.6842
813.999	18746.02863
814.186	18894.04987
814.372	18520.99546
814.559	18727.7809
814.746	18701.42363
814.933	18843.35528
815.12	19117.136
815.306	18924.46783
815.493	19173.9294
815.68	19277.38278
815.866	18944.74698
816.053	19084.68406
816.24	18516.94125
816.426	18677.09443
816.613	18632.49237
816.799	18971.11046
816.986	19378.81806
817.173	19358.53018
817.359	18867.68837
817.546	19042.09247
817.732	18841.32755
817.919	19478.23468
818.105	18934.60735
818.292	19169.87262
818.478	18845.38301
818.665	18981.25045
818.851	18750.08372
819.037	18958.94261
819.224	18845.38301
819.41	18634.5197
819.597	18498.69748
819.783	18741.97355
819.969	18954.8867
820.156	18881.88294
820.342	19417.36618
820.528	19019.78331
820.714	19222.61201
820.901	19315.92697
821.087	18952.85875
821.273	18936.63527
821.459	18711.56096
821.646	18827.13353
821.832	18237.23732
822.018	18411.5371
822.204	18024.46647
822.39	18338.57102
822.576	18135.91286
822.762	18123.75454
822.948	17888.71906
823.134	18271.68973
823.32	18046.75488
823.507	18139.96567
823.693	18182.52097
823.879	18200.75946
824.065	18050.80736
824.25	18071.07
824.436	17933.2911
824.622	17906.95287
824.808	17846.1746
824.994	17981.91707
825.18	17795.5284
825.366	18221.02479
825.552	17882.64119
825.738	18056.88612
825.923	18008.25699
826.109	18144.01848
826.295	17884.66714
826.481	17977.86483
826.667	17742.85862
826.852	18127.8073
827.038	17515.99908
827.224	17665.8838
827.409	17410.68515
827.595	17475.49272
827.781	17305.37958
827.966	17619.2961
828.152	17165.65963
828.338	17513.97373
828.523	16993.55948
828.709	17125.16367
828.894	16807.30814
829.08	17582.83737
829.266	16872.08875
829.451	17254.7548
829.637	17115.03985
829.822	17390.43344
830.008	16807.30814
830.193	16803.25944
830.378	16809.3325
830.564	17200.0821
830.749	17398.53409
830.935	17145.41151
831.12	16989.51031
831.305	17019.8794
831.491	16870.06432
831.676	16930.79843
831.861	16491.53747
832.047	16805.28379
832.232	16416.65096
832.417	16801.23509
832.602	16645.36753
832.788	16447.01002
832.973	16362.00578
833.158	16317.48111
833.343	16461.17774
833.528	16548.21024
833.714	16289.1477
833.899	16914.60244
834.084	16649.41586
834.269	16799.21075
834.454	16293.1953
834.639	16544.16213
834.824	16005.83192
835.009	16230.45819
835.194	16220.33945
835.379	16673.70604
835.564	16374.14903
835.749	16420.69881
835.934	16392.36404
836.119	16712.16619
836.304	16036.18572
836.489	16224.38694
836.674	15987.6198
836.859	16192.00723
837.044	16444.98607
837.228	16299.26673
837.413	15939.05468
837.598	16109.03618
837.783	15908.70187
837.968	16416.65096
838.152	15862.16145
838.337	15845.97362
838.522	15754.91846
838.707	15916.79593
838.891	15570.79071
839.076	15682.07584
839.261	15396.78541
839.445	15398.8087
839.63	15398.8087
839.815	15313.83063
839.999	15079.13095
840.184	15236.94612
840.368	15249.08576
840.553	15332.04016
840.737	15368.45932
840.922	15696.23958
841.106	15453.43785
841.291	15323.94703
841.475	15044.73527
841.66	15066.9913
841.844	14739.21559
842.029	15133.7593
842.213	15421.06498
842.397	15127.68948
842.582	15042.71199
842.766	15198.50396
842.951	14530.80469
843.135	14988.08341
843.319	14698.74828
843.504	14923.33809
843.688	14897.03518
843.872	14897.03518
844.056	15038.66544
844.241	15085.20077
844.425	14629.95301
844.609	14658.28062
844.793	14874.77881
844.977	15024.50248
845.161	14441.77096
845.346	14381.06455
845.53	14326.42755
845.714	14858.59231
845.898	14702.79503
846.082	14757.42576
846.266	14769.56584
846.45	14583.41435
846.634	14415.46502
846.818	14522.71082
847.002	14510.56998
847.186	14443.79449
847.37	14285.9549
847.554	14140.24711
847.738	14095.72316
847.922	14014.7677
848.106	13990.48032
848.29	14122.0329
848.473	14227.26827
848.657	13950.00055
848.841	14249.5289
849.025	13891.30303
849.209	13348.73275
849.392	13573.48396
849.576	13707.09885
849.76	13593.72959
849.944	13443.90342
850.127	13769.85249
850.311	14010.71983
850.495	14324.40394
850.678	14334.522
850.862	14389.15882
851.046	13966.19258
851.229	13887.25484
851.413	13559.31181
851.596	13848.79651
851.78	13526.91768
851.964	13336.58267
852.147	13371.00753
852.331	13472.25046
852.514	13223.17456
852.698	13257.60344
852.881	12931.48769
853.065	13231.27559
853.248	12949.72111
853.431	13437.82895
853.615	13146.21121
853.798	12899.07166
853.982	12998.34155
854.165	12915.27984
854.348	12842.34032
854.532	13180.64299
854.715	13020.62494
854.898	12953.77293
855.081	12734.94418
855.265	13241.40177
855.448	12807.89422
855.631	12793.71006
855.814	12706.57271
855.997	12793.71006
856.181	12951.74702
856.364	12749.12948
856.547	12822.0781
856.73	12805.86793
856.913	12678.2001
857.096	12657.93324
857.279	12343.71664
857.462	12303.16094
857.645	12408.60002
857.828	12751.15593
858.011	12710.62585
858.194	12751.15593
858.377	12363.99345
858.56	12641.71932
858.743	12309.24448
858.926	12481.58562
859.109	12268.68639
859.292	12293.02158
859.475	11952.23167
859.658	12124.68183
859.841	11735.06377
860.023	11716.79285
860.206	11749.274
860.389	11562.4761
860.572	11274.00122
860.755	11692.4305
860.937	11631.51901
861.12	11832.49683
861.303	11806.11067
861.486	12069.90965
861.668	11925.85188
861.851	11672.12757
862.034	11529.9816
862.216	11599.02955
862.399	11322.7715
862.581	11176.44289
862.764	11011.7578
862.947	11402.01089
863.129	11590.90682
863.312	11777.69318
863.494	11532.01258
863.677	11552.32182
863.859	11544.19824
864.042	11517.79555
864.224	11180.5083
864.406	11103.25826
864.589	11034.12663
864.771	11054.46077
864.954	10643.49008
865.136	11091.05947
865.318	10905.99598
865.501	10932.43929
865.683	10983.28645
865.865	11213.03007
866.048	10779.85493
866.23	10910.0643
866.412	10808.34231
866.594	10967.01612
866.777	10741.18978
866.959	10832.75823
867.141	10623.13244
867.323	10643.49008
867.505	10537.6168
867.687	10653.66843
867.869	10480.59405
868.052	10482.63075
868.234	10162.708
868.416	10855.13802
868.598	10916.16671
868.78	10910.0643
868.962	10692.34342
869.144	10879.55074
869.326	10623.13244
869.508	10940.57531
869.69	10639.41865
869.872	11054.46077
870.054	10706.59099
870.236	10665.88206
870.417	10313.54055
870.599	10360.40592
870.781	10072.98802
870.963	10431.70942
871.145	10480.59405
871.327	10592.59366
871.508	10368.55571
871.69	10433.74643
871.872	10191.24962
872.054	10362.44339
872.235	10064.8303
872.417	10305.38934
872.599	10189.21103
872.78	10384.85464
872.962	10111.73406
873.144	10044.43503
873.325	10270.74427
873.507	10513.1797
873.689	10150.47505
873.87	10280.9344
874.052	10046.47462
874.233	10248.3248
874.415	10105.6166
874.596	10176.97915
874.778	10019.95883
874.959	10229.98037
875.141	10044.43503
875.322	10439.85737
875.503	9907.74969
875.685	10299.27578
875.866	10011.79964
876.048	9873.05793
876.229	9893.46536
876.41	9922.03329
876.592	9719.9546
876.773	10225.90368
876.954	9946.51781
877.136	10162.708
877.317	10072.98802
877.498	10225.90368
877.679	10077.06679
877.86	10350.2184
878.042	10024.03834
878.223	10256.47752
878.404	10034.23687
878.585	10148.43618
878.766	10189.21103
878.947	10380.77999
879.128	9973.04034
879.309	9944.47751
879.49	10042.39543
879.672	10248.3248
879.853	9832.23862
880.034	9889.38399
880.215	9950.59836
880.396	9966.91997
880.576	10015.87926
880.757	10136.20264
880.938	9885.30257
881.119	10097.45979
881.3	10185.13379
881.481	10156.59159
881.662	9868.97627
881.843	10168.82429
882.023	9952.63861
882.204	10319.65383
882.385	9832.23862
882.566	9911.83079
882.747	10044.43503
882.927	10144.35839
883.108	9815.90923
883.289	10419.4871
883.469	10340.03054
883.65	10238.13359
883.831	10317.61608
884.011	10362.44339
884.192	9942.4372
884.373	10036.27653
884.553	9805.70288
884.734	10032.19719
884.914	9830.1975
885.095	10187.17241
885.275	10282.97238
885.456	10505.03359
885.636	10378.74264
885.817	10370.59312
885.997	10168.82429
886.178	10545.7621
886.358	10507.07014
886.538	10393.0038
886.719	10121.92955
886.899	10266.66812
887.08	9936.31618
887.26	10168.82429
887.44	9875.09874
887.621	10276.85839
887.801	10232.0187
887.981	10419.4871
888.161	10238.13359
888.342	10146.39729
888.522	10109.69492
888.702	10462.26318
888.882	10266.66812
889.062	10411.33862
889.242	10223.86532
889.423	10307.42716
889.603	10254.43936
889.783	10429.6724
889.963	9932.23543
890.143	10429.6724
890.323	10152.51391
890.503	10480.59405
890.683	10019.95883
890.863	10248.3248
891.043	10134.16367
891.223	10223.86532
891.403	10056.67237
891.583	10250.363
891.763	9905.70911
891.943	10050.55376
892.122	10087.26347
892.302	10305.38934
892.482	10068.90919
892.662	10089.30276
892.842	9815.90923
893.022	10123.9686
893.201	9799.57888
893.381	9997.5205
893.561	9962.83965
893.741	10028.11779
893.92	9909.79025
894.1	10089.30276
894.28	9693.40802
894.459	9805.70288
894.639	9705.66061
894.819	9787.33049
894.998	9862.85366
895.178	9987.32068
895.357	9728.12226
895.537	9973.04034
895.716	9574.93761
895.896	9824.07405
896.075	9264.20879
896.255	9305.11576
896.434	9235.56993
896.614	9668.90119
896.793	9750.58205
896.973	9595.36728
897.152	9286.70845
897.331	9670.94351
897.511	9159.86559
897.69	9640.30707
897.87	9335.79163
898.049	9534.07352
898.228	9697.49228
898.407	9752.62376
898.587	9176.23606
898.766	9321.47669
898.945	9174.18981
899.124	9321.47669
899.304	9337.83655
899.483	9442.10601
899.662	9243.75279
899.841	9429.84122
900.02	8996.10028
900.199	9305.11576
900.378	9264.20879
900.557	9417.57584
900.737	9566.76529
900.916	9458.45817
901.095	9241.7071
901.274	9284.66311
901.453	8989.95692
901.632	8992.00472
901.811	8508.22172
901.989	8674.38121
902.168	8567.72509
902.347	8793.28477
902.526	8754.34039
902.705	8893.69009
902.884	8850.66454
903.063	9221.24926
903.242	8727.69044
903.42	8920.32101
903.599	8766.63933
903.778	8744.09078
903.957	8467.17562
904.135	8577.98268
904.314	8302.9143
904.493	8625.16158
904.672	8278.26437
904.85	8399.43282
905.029	8380.95387
905.207	8670.27998
905.386	8304.96833
905.565	8637.46749
905.743	8497.96091
905.922	8403.53904
906.1	8354.25928
906.279	8428.17474
906.457	7996.64157
906.636	8280.31864
906.814	8319.34602
906.993	8309.07634
907.171	8200.18756
907.35	8317.29212
907.528	8087.13081
907.707	8428.17474
907.885	8095.35516
908.063	7963.72664
908.242	8159.083
908.42	8198.13252
908.598	7895.82303
908.777	8052.1737
908.955	7871.12525
909.133	8058.34303
909.311	7883.47451
909.49	7906.1129
909.668	7790.83684
909.846	7823.7795
910.024	7708.45675
910.202	7926.69108
910.38	7522.97779
910.559	7512.66833
910.737	7217.58796
910.915	7582.76209
911.093	7293.98032
911.271	7362.08867
911.449	7320.81373
911.627	7459.05045
911.805	6961.34847
911.983	7353.83438
912.161	7130.83561
912.339	7122.57143
912.517	7287.78747
912.695	7126.70357
912.872	6891.02892
913.05	6948.94104
913.228	7000.63332
913.406	6915.85057
913.584	7010.97008
913.762	7141.16532
913.939	6791.70961
914.117	7145.29706
914.295	6940.66897
914.473	7190.74022
914.65	6899.30317
914.828	6831.02977
915.006	6652.98838
915.184	6942.73702
915.361	6543.18054
915.539	6853.79032
915.716	6497.58085
915.894	6727.53795
916.072	6868.27287
916.249	6837.23747
916.427	6787.57016
916.604	6547.32541
916.782	6510.01824
916.959	6422.93895
917.137	6445.74939
917.314	6619.84568
917.492	6348.26688
917.669	6472.70356
917.847	6173.91428
918.024	6169.76101
918.201	5964.05669
918.379	6286.01705
918.556	6094.98612
918.733	6094.98612
918.911	5781.01452
919.088	5986.92412
919.265	5670.68503
919.442	5897.51704
919.62	5608.20499
919.797	5658.19072
919.974	5670.68503
920.151	5772.69008
920.328	5520.6973
920.506	5712.32658
920.683	5558.20569
920.86	5674.84961
921.037	5722.7355
921.214	5512.36107
921.391	5708.16285
921.568	5587.3736
921.745	5412.2969
921.922	5324.69635
922.099	5228.70547
922.276	5474.84335
922.453	5197.39341
922.63	5376.84452
922.807	5078.35981
922.984	5330.9549
923.161	4988.51269
923.338	5264.18613
923.514	5105.51447
923.691	5285.05394
923.868	5007.32143
924.045	5205.74381
924.222	4833.79242
924.399	5036.57577
924.575	4666.38692
924.752	4812.87467
924.929	4593.10167
925.105	4917.44059
925.282	4597.29013
925.459	4735.45924
925.635	4693.60015
925.812	4842.15889
925.989	4530.26399
926.165	4651.73206
926.342	4377.27601
926.518	4572.158
926.695	4278.71546
926.871	4375.17948
927.048	4192.69841
927.224	4601.47851
927.401	4089.85091
927.577	4482.07493
927.754	4106.64578
927.93	4253.54345
928.107	3867.19478
928.283	4066.7558
928.459	4117.14189
928.636	4299.68978
928.812	4140.23149
928.988	4198.99355
929.165	3940.73859
929.341	4098.24851
929.517	3942.83948
929.693	4133.93458
929.87	3707.41607
930.046	3921.82968
930.222	3570.67495
930.398	3957.54514
930.574	3898.71657
930.751	3865.09317
930.927	3524.37542
931.103	3751.57674
931.279	3530.68952
931.455	3616.96548
931.631	3277.99998
931.807	3606.4457
931.983	3410.69376
932.159	3537.00345
932.335	3195.8223
932.511	3374.8943
932.687	3334.87716
932.863	3532.79418
933.039	3252.71725
933.215	3334.87716
933.391	3090.42979
933.566	3269.57267
933.742	3305.38685
933.918	3214.78863
934.094	2795.12668
934.27	2894.29617
934.445	2600.92174
934.621	2873.19889
934.797	2448.86293
934.973	2645.26067
935.148	2495.33162
935.324	2647.37191
935.5	2322.10404
935.675	2467.87349
935.851	2305.20013
936.027	2364.36109
936.202	2201.65075
936.378	2463.649
936.553	2091.73927
936.729	1967.00788
936.904	1681.53329
937.08	1717.48608
937.255	1592.70549
937.431	1761.89701
937.606	1474.26387
937.782	1533.48509
937.957	1431.96284
938.133	1491.18427
938.308	1349.47632
938.483	1402.35216
938.659	1110.49485
938.834	1307.17624
939.009	1034.36975
939.185	1028.02631
939.36	1051.28583
939.535	994.19557
939.71	1028.02631
939.886	992.08121
940.061	858.89049
940.236	924.42505
940.411	791.25055
940.586	924.42505
940.761	753.20736
940.937	899.05592
941.112	734.18699
941.287	909.62625
941.462	755.32078
941.637	751.09394
941.812	666.56615
941.987	755.32078
942.162	689.80952
942.337	793.36416
942.512	687.69643
942.687	628.53462
942.862	499.68099
943.037	645.43704
943.212	546.14697
943.386	535.58592
943.561	527.13733
943.736	535.58592
943.911	451.11047
944.086	607.4077
944.26	470.11538
944.435	567.2701
944.61	501.79293
944.785	522.91312
944.959	461.6686
945.134	472.22711
945.309	539.8103
945.483	563.04536
945.658	503.90488
945.833	451.11047
946.007	468.00366
946.182	546.14697
946.357	434.21827
946.531	537.6981
946.706	514.46487
946.88	503.90488
947.055	402.54813
947.229	575.71972
947.404	451.11047
947.578	531.3616
947.752	501.79293
947.927	656.00144
948.101	554.59606
948.276	645.43704
948.45	472.22711
948.624	590.50708
948.799	493.34525
948.973	594.73216
949.147	514.46487
949.321	647.5499
949.496	620.0837
949.67	632.76015
949.844	539.8103
950.018	506.01685
950.193	493.34525
950.367	569.38248
950.541	577.83217
950.715	607.4077
950.889	474.33885
951.063	565.15772
951.237	472.22711
951.411	639.09854
951.585	601.06987
951.759	622.19641
951.933	594.73216
952.107	603.18247
952.281	584.16957
952.455	662.34023
952.629	569.38248
952.803	632.76015
952.977	658.11436
953.151	651.77565
953.325	552.48376
953.499	632.76015
953.672	596.84472
953.846	628.53462
954.02	577.83217
954.194	668.67912
954.368	605.29508
954.541	717.28072
954.715	584.16957
954.889	715.16749
955.062	662.34023
955.236	601.06987
955.41	664.45318
955.583	713.05426
955.757	636.98573
955.93	710.94105
956.104	560.93302
956.278	732.07367
956.451	594.73216
956.625	586.28206
956.798	563.04536
956.972	774.34207
957.145	550.37148
957.319	713.05426
957.492	687.69643
957.665	759.54766
957.839	727.84706
958.012	683.47028
958.185	630.64738
958.359	704.60147
958.532	653.88854
958.705	653.88854
958.879	607.4077
959.052	592.61962
959.225	518.68897
959.398	636.98573
959.572	577.83217
959.745	632.76015
959.918	611.63298
960.091	687.69643
960.264	569.38248
960.438	645.43704
960.611	480.67419
960.784	620.0837
960.957	558.82068
961.13	641.21136
961.303	582.05709
961.476	611.63298
961.649	514.46487
961.822	535.58592
961.995	628.53462
962.168	544.03473
962.341	527.13733
962.514	535.58592
962.686	427.88395
962.859	503.90488
963.032	501.79293
963.205	512.35284
963.378	510.24083
963.551	514.46487
963.723	446.88733
963.896	527.13733
964.069	478.56239
964.242	544.03473
964.414	455.33367
964.587	493.34525
964.76	463.78027
964.932	535.58592
965.105	497.56906
965.278	514.46487
965.45	463.78027
965.623	417.32708
965.795	476.45062
965.968	503.90488
966.14	527.13733
966.313	476.45062
966.485	421.54978
966.658	531.3616
966.83	381.43673
967.003	425.77255
967.175	309.67074
967.348	366.65975
967.52	436.32974
967.692	474.33885
967.865	493.34525
968.037	362.43791
968.209	434.21827
968.382	506.01685
968.554	375.10364
968.726	506.01685
968.898	453.22206
969.071	493.34525
969.243	394.10337
969.415	489.12151
969.587	436.32974
969.759	476.45062
969.932	375.10364
970.104	358.21613
970.276	385.65888
970.448	499.68099
970.62	360.32701
970.792	408.88187
970.964	341.32972
971.136	419.43842
971.308	436.32974
971.48	343.44047
971.652	337.1083
971.824	343.44047
971.996	341.32972
972.168	375.10364
972.339	286.45672
972.511	332.88694
972.683	233.70599
972.855	379.32569
973.027	377.21465
973.199	372.99264
973.37	377.21465
973.542	362.43791
973.714	326.55503
973.886	299.11864
974.057	223.15728
974.229	284.34646
974.401	225.26699
974.572	235.81579
974.744	267.46509
974.915	316.00221
975.087	202.06136
975.259	345.55122
975.43	218.93794
975.602	311.78121
975.773	273.79547
975.945	267.46509
976.116	248.47499
976.288	286.45672
976.459	273.79547
976.63	246.36508
976.802	256.91485
976.973	356.10527
977.145	358.21613
977.316	299.11864
977.487	240.03545
977.659	240.03545
977.83	299.11864
978.001	237.92561
978.172	204.17086
978.344	240.03545
978.515	159.87558
978.686	166.20292
978.857	235.81579
979.028	197.84241
979.2	248.47499
979.371	273.79547
979.542	130.35049
979.713	237.92561
979.884	193.62355
980.055	151.43941
980.226	199.95188
980.397	202.06136
980.568	206.28038
980.739	202.06136
980.91	248.47499
981.081	244.25518
981.252	218.93794
981.423	176.7489
981.594	189.40476
981.765	174.63967
981.936	176.7489
982.106	214.71868
982.277	96.6127
982.448	172.53045
982.619	189.40476
982.79	256.91485
982.96	168.31207
983.131	155.65745
983.302	117.69816
983.472	140.89469
983.643	143.00359
983.814	193.62355
983.984	149.33043
984.155	105.04662
984.326	111.37229
984.496	189.40476
984.667	121.91552
984.837	149.33043
985.008	124.02423
985.178	134.5681
985.349	88.17913
985.519	119.80683
985.69	174.63967
985.86	166.20292
986.031	134.5681
986.201	176.7489
986.371	130.35049
986.542	126.13296
986.712	132.45929
986.882	157.7665
987.053	149.33043
987.223	105.04662
987.393	124.02423
987.563	100.82962
987.734	121.91552
987.904	166.20292
988.074	81.85419
988.244	178.85816
988.414	138.7858
988.585	128.24171
988.755	90.28749
988.925	62.88058
989.095	180.96744
989.265	149.33043
989.435	22.83131
989.605	100.82962
989.775	134.5681
989.945	109.26371
990.115	-21.42373
990.285	102.93811
990.455	100.82962
990.625	121.91552
990.795	77.63768
990.965	166.20292
991.134	31.26204
991.304	79.74592
991.474	62.88058
991.644	132.45929
991.814	88.17913
991.984	46.01671
992.153	46.01671
992.323	155.65745
992.493	22.83131
992.662	29.15432
992.832	67.09678
993.002	96.6127
993.171	75.52945
993.341	134.5681
993.511	56.55646
993.68	62.88058
993.85	62.88058
994.019	56.55646
994.189	115.58952
994.358	94.50427
994.528	126.13296
994.697	121.91552
994.867	83.96248
995.036	88.17913
995.206	161.98467
995.375	50.23254
995.544	62.88058
995.714	157.7665
995.883	121.91552
996.052	132.45929
996.222	121.91552
996.391	105.04662
996.56	130.35049
996.73	138.7858
996.899	67.09678
997.068	69.20492
997.237	81.85419
997.406	52.34049
997.576	60.77252
997.745	20.72369
997.914	81.85419
998.083	48.12461
998.252	113.4809
998.421	64.98867
998.59	83.96248
998.759	29.15432
998.928	77.63768
999.097	117.69816
999.266	132.45929
999.435	5.97099
999.604	20.72369
999.773	29.15432
999.942	98.72115
1000.111	16.50851
1000.28	117.69816
1000.448	43.90883
1000.617	46.01671
1000.786	105.04662
1000.955	109.26371
1001.124	54.44846
1001.292	16.50851
1001.461	-2.45859
1001.63	121.91552
1001.798	54.44846
1001.967	-34.06606
1002.136	117.69816
1002.304	90.28749
1002.473	121.91552
1002.642	86.0708
1002.81	14.40096
1002.979	176.7489
1003.147	107.15516
1003.316	62.88058
1003.484	90.28749
1003.653	73.42125
1003.821	3.86356
1003.99	43.90883
1004.158	62.88058
1004.327	33.36978
1004.495	79.74592
1004.663	81.85419
1004.832	-19.31659
1005	14.40096
1005.168	71.31307
1005.337	24.93896
1005.505	48.12461
1005.673	48.12461
1005.842	86.0708
1006.01	29.15432
1006.178	58.66448
1006.346	58.66448
1006.514	20.72369
1006.683	37.58533
1006.851	33.36978
1007.019	77.63768
1007.187	115.58952
1007.355	-53.02787
1007.523	43.90883
1007.691	83.96248
1007.859	145.11251
1008.027	73.42125
1008.195	-12.99502
1008.363	62.88058
1008.531	39.69314
1008.699	-46.70749
1008.867	39.69314
1009.035	43.90883
1009.203	-19.31659
1009.37	79.74592
1009.538	-6.67324
1009.706	54.44846
1009.874	81.85419
1010.042	22.83131
1010.209	67.09678
1010.377	24.93896
1010.545	8.07845
1010.713	31.26204
1010.88	14.40096
1011.048	75.52945
1011.216	92.39587
1011.383	67.09678
1011.551	31.26204
1011.718	71.31307
1011.886	39.69314
1012.054	-34.06606
1012.221	83.96248
1012.389	-34.06606
1012.556	20.72369
1012.724	64.98867
1012.891	-12.99502
1013.058	71.31307
1013.226	3.86356
1013.393	43.90883
1013.561	54.44846
1013.728	22.83131
1013.895	58.66448
1014.063	41.80097
1014.23	24.93896
1014.397	16.50851
1014.565	62.88058
1014.732	-21.42373
1014.899	-53.02787
1015.066	27.04663
1015.233	14.40096
1015.401	37.58533
1015.568	29.15432
1015.735	43.90883
1015.902	46.01671
1016.069	24.93896
1016.236	75.52945
1016.403	-0.35123
1016.57	39.69314
1016.737	29.15432
1016.904	56.55646
1017.071	54.44846
1017.238	79.74592
1017.405	71.31307
1017.572	79.74592
1017.739	-4.56592
1017.906	10.18593
1018.073	14.40096
1018.24	56.55646
1018.407	12.29343
1018.573	-2.45859
1018.74	37.58533
1018.907	71.31307
1019.074	29.15432
1019.241	5.97099
1019.407	-0.35123
1019.574	-4.56592
1019.741	52.34049
1019.907	88.17913
1020.074	37.58533
1020.241	29.15432
1020.407	71.31307
1020.574	14.40096
1020.74	5.97099
1020.907	56.55646
1021.073	31.26204
1021.24	-4.56592
1021.406	33.36978
1021.573	107.15516
1021.739	14.40096
1021.906	29.15432
1022.072	52.34049
1022.239	62.88058
1022.405	56.55646
1022.571	98.72115
1022.738	-44.60065
1022.904	31.26204
1023.07	60.77252
1023.237	64.98867
1023.403	-23.53085
1023.569	20.72369
1023.735	22.83131
1023.902	20.72369
1024.068	20.72369
1024.234	-12.99502
1024.4	-4.56592
1024.566	-53.02787
1024.732	-21.42373
1024.898	58.66448
1025.065	14.40096
1025.231	64.98867
1025.397	24.93896
1025.563	20.72369
1025.729	88.17913
1025.895	3.86356
1026.061	14.40096
1026.227	88.17913
1026.392	14.40096
1026.558	3.86356
1026.724	-40.38689
1026.89	14.40096
1027.056	20.72369
1027.222	48.12461
1027.388	37.58533
1027.553	37.58533
1027.719	-8.78052
1027.885	50.23254
1028.051	10.18593
1028.216	-50.9211
1028.382	41.80097
1028.548	105.04662
1028.713	14.40096
1028.879	29.15432
1029.045	27.04663
1029.21	75.52945
1029.376	3.86356
1029.541	79.74592
1029.707	46.01671
1029.873	16.50851
1030.038	29.15432
1030.204	62.88058
1030.369	48.12461
1030.534	-38.27997
1030.7	58.66448
1030.865	-0.35123
1031.031	48.12461
1031.196	12.29343
1031.361	48.12461
1031.527	24.93896
1031.692	-0.35123
1031.857	37.58533
1032.023	54.44846
1032.188	37.58533
1032.353	-25.63794
1032.518	31.26204
1032.684	22.83131
1032.849	-10.88778
1033.014	12.29343
1033.179	-12.99502
1033.344	-10.88778
1033.509	1.75615
1033.674	69.20492
1033.839	16.50851
1034.004	35.47754
1034.17	79.74592
1034.335	-25.63794
1034.5	37.58533
1034.664	-50.9211
1034.829	64.98867
1034.994	-0.35123
1035.159	-46.70749
1035.324	-4.56592
1035.489	24.93896
1035.654	-2.45859
1035.819	-67.77453
1035.984	37.58533
1036.148	-19.31659
1036.313	37.58533
1036.478	35.47754
1036.643	48.12461
1036.807	14.40096
1036.972	79.74592
1037.137	-23.53085
1037.301	71.31307
1037.466	46.01671
1037.631	37.58533
1037.795	12.29343
1037.96	29.15432
1038.124	29.15432
1038.289	-27.74501
1038.454	41.80097
1038.618	-71.98763
1038.783	75.52945
1038.947	58.66448
1039.111	8.07845
1039.276	37.58533
1039.44	41.80097
1039.605	-4.56592
1039.769	48.12461
1039.933	33.36978
1040.098	-42.49378
1040.262	-38.27997
1040.426	-2.45859
1040.591	41.80097
1040.755	20.72369
1040.919	81.85419
1041.083	-0.35123
1041.248	22.83131
1041.412	37.58533
1041.576	-21.42373
1041.74	35.47754
1041.904	37.58533
1042.068	43.90883
1042.232	16.50851
1042.397	46.01671
1042.561	27.04663
1042.725	54.44846
1042.889	27.04663
1043.053	14.40096
1043.217	92.39587
1043.381	39.69314
1043.544	-19.31659
1043.708	31.26204
1043.872	5.97099
1044.036	-2.45859
1044.2	24.93896
1044.364	102.93811
1044.528	52.34049
1044.691	12.29343
1044.855	-53.02787
1045.019	-78.3071
1045.183	-27.74501
1045.346	43.90883
1045.51	56.55646
1045.674	12.29343
1045.837	-61.45468
1046.001	35.47754
1046.165	48.12461
1046.328	-59.34802
1046.492	46.01671
1046.655	24.93896
1046.819	18.61609
1046.983	10.18593
1047.146	37.58533
1047.31	16.50851
1047.473	39.69314
1047.636	69.20492
1047.8	-12.99502
1047.963	-25.63794
1048.127	-4.56592
1048.29	14.40096
