Data from mixed_try1_USB4F045381__31__00256.txt Node

Date: Thu Apr 03 20:26:46 EDT 2025
User: mmckonesweet
Spectrometer: USB4F04538
Trigger mode: 4
Integration Time (sec): 2.700000E-3
Scans to average: 1
Electric dark correction enabled: true
Nonlinearity correction enabled: true
Boxcar width: 0
XAxis mode: Wavelengths
Number of Pixels in Spectrum: 3648
>>>>>Begin Spectral Data<<<<<
345.52	3.51233
345.736	3.51233
345.952	3.51233
346.168	-28.09618
346.384	-28.09618
346.6	-13.34623
346.816	-36.52418
347.032	58.31314
347.248	58.31314
347.464	28.80304
347.68	-55.48573
347.896	-17.56062
348.112	33.01848
348.328	16.15725
348.544	-34.41722
348.76	-23.88203
348.975	-13.34623
349.191	-78.65817
349.407	37.23403
349.623	-23.88203
349.839	-49.16544
350.055	-30.20322
350.27	66.74543
350.486	-2.80981
350.702	-17.56062
350.918	18.26482
351.133	64.63732
351.349	-2.80981
351.565	-4.91714
351.781	-9.13173
351.996	-38.63112
352.212	-36.52418
352.428	3.51233
352.644	-4.91714
352.859	-59.69913
353.075	-63.91243
353.291	-25.98912
353.506	-36.52418
353.722	-42.84492
353.938	-53.37899
354.153	14.04971
354.369	9.83468
354.584	37.23403
354.8	-38.63112
355.016	-30.20322
355.231	-44.95179
355.447	-4.91714
355.662	14.04971
355.878	-49.16544
356.093	-28.09618
356.309	-47.05863
356.524	47.77329
356.74	-11.23899
356.955	-55.48573
357.171	-17.56062
357.386	-15.45344
357.602	-17.56062
357.817	-9.13173
358.033	-34.41722
358.248	16.15725
358.464	5.61975
358.679	58.31314
358.895	-4.91714
359.11	-72.33872
359.325	-11.23899
359.541	-51.27223
359.756	-2.80981
359.972	-28.09618
360.187	-13.34623
360.402	35.12624
360.618	-21.77492
360.833	-34.41722
361.048	70.96171
361.264	-30.20322
361.479	-15.45344
361.694	56.20513
361.909	-63.91243
362.125	47.77329
362.34	-21.77492
362.555	-72.33872
362.77	24.58768
362.986	11.94218
363.201	-13.34623
363.416	33.01848
363.631	-28.09618
363.847	11.94218
364.062	-38.63112
364.277	-38.63112
364.492	-30.20322
364.707	28.80304
364.922	-42.84492
365.138	-42.84492
365.353	58.31314
365.568	-2.80981
365.783	54.09713
365.998	43.55752
366.213	5.61975
366.428	-66.01904
366.643	-59.69913
366.858	-38.63112
367.073	-34.41722
367.288	-28.09618
367.503	54.09713
367.718	11.94218
367.933	-11.23899
368.148	58.31314
368.363	16.15725
368.578	-4.91714
368.793	-28.09618
369.008	-42.84492
369.223	-80.7646
369.438	5.61975
369.653	16.15725
369.868	11.94218
370.083	-21.77492
370.298	11.94218
370.513	14.04971
370.728	35.12624
370.943	1.40492
371.157	-44.95179
371.372	-13.34623
371.587	-42.84492
371.802	87.82774
372.017	-2.80981
372.232	79.39455
372.446	-9.13173
372.661	-21.77492
372.876	-4.91714
373.091	-4.91714
373.306	-21.77492
373.52	5.61975
373.735	24.58768
373.95	-13.34623
374.165	-47.05863
374.379	11.94218
374.594	14.04971
374.809	11.94218
375.023	-34.41722
375.238	-15.45344
375.453	11.94218
375.667	-72.33872
375.882	22.48004
376.097	22.48004
376.311	-25.98912
376.526	18.26482
376.741	-21.77492
376.955	-15.45344
377.17	-61.80579
377.384	45.6654
377.599	24.58768
377.813	-4.91714
378.028	-91.29638
378.242	30.91075
378.457	-38.63112
378.672	45.6654
378.886	-25.98912
379.101	11.94218
379.315	-76.55171
379.53	-0.70246
379.744	11.94218
379.958	-38.63112
380.173	7.72721
380.387	-30.20322
380.602	-4.91714
380.816	41.44967
381.031	3.51233
381.245	-25.98912
381.459	-44.95179
381.674	1.40492
381.888	-30.20322
382.103	-11.23899
382.317	20.37242
382.531	-36.52418
382.746	26.69535
382.96	28.80304
383.174	45.6654
383.388	20.37242
383.603	33.01848
383.817	-44.95179
384.031	-38.63112
384.246	87.82774
384.46	7.72721
384.674	1.40492
384.888	-19.66778
385.103	-36.52418
385.317	3.51233
385.531	-19.66778
385.745	-21.77492
385.959	-11.23899
386.174	-28.09618
386.388	11.94218
386.602	-17.56062
386.816	-9.13173
387.03	-55.48573
387.244	-70.23219
387.458	-63.91243
387.672	-0.70246
387.887	-21.77492
388.101	-49.16544
388.315	7.72721
388.529	-51.27223
388.743	7.72721
388.957	-30.20322
389.171	3.51233
389.385	-13.34623
389.599	-15.45344
389.813	-36.52418
390.027	33.01848
390.241	11.94218
390.455	30.91075
390.669	-11.23899
390.883	-47.05863
391.097	-49.16544
391.311	3.51233
391.525	5.61975
391.738	-21.77492
391.952	54.09713
392.166	-28.09618
392.38	26.69535
392.594	-51.27223
392.808	-2.80981
393.022	-89.19007
393.236	1.40492
393.449	-9.13173
393.663	49.88122
393.877	-36.52418
394.091	-21.77492
394.305	39.34183
394.518	20.37242
394.732	11.94218
394.946	-42.84492
395.16	-47.05863
395.373	-21.77492
395.587	28.80304
395.801	3.51233
396.015	-36.52418
396.228	22.48004
396.442	24.58768
396.656	-21.77492
396.869	-4.91714
397.083	-103.93364
397.297	-11.23899
397.51	41.44967
397.724	-36.52418
397.938	-23.88203
398.151	-0.70246
398.365	30.91075
398.578	-13.34623
398.792	28.80304
399.005	-19.66778
399.219	41.44967
399.433	14.04971
399.646	11.94218
399.86	43.55752
400.073	62.52924
400.287	-15.45344
400.5	-21.77492
400.714	-76.55171
400.927	-17.56062
401.141	28.80304
401.354	9.83468
401.567	47.77329
401.781	70.96171
401.994	-66.01904
402.208	11.94218
402.421	51.98916
402.635	-28.09618
402.848	-25.98912
403.061	54.09713
403.275	9.83468
403.488	-40.73804
403.701	-13.34623
403.915	-25.98912
404.128	-25.98912
404.341	-63.91243
404.555	28.80304
404.768	-87.08375
404.981	41.44967
405.195	-7.02445
405.408	-36.52418
405.621	-17.56062
405.834	45.6654
406.048	58.31314
406.261	-2.80981
406.474	28.80304
406.687	-21.77492
406.9	-13.34623
407.114	49.88122
407.327	3.51233
407.54	-19.66778
407.753	-28.09618
407.966	14.04971
408.179	-25.98912
408.392	24.58768
408.605	14.04971
408.819	-23.88203
409.032	-0.70246
409.245	-38.63112
409.458	9.83468
409.671	-34.41722
409.884	22.48004
410.097	37.23403
410.31	-59.69913
410.523	-9.13173
410.736	-40.73804
410.949	-47.05863
411.162	47.77329
411.375	-28.09618
411.588	56.20513
411.801	11.94218
412.014	14.04971
412.227	-11.23899
412.44	28.80304
412.653	-30.20322
412.865	11.94218
413.078	11.94218
413.291	64.63732
413.504	-19.66778
413.717	-61.80579
413.93	70.96171
414.143	28.80304
414.356	3.51233
414.568	-17.56062
414.781	77.2863
414.994	41.44967
415.207	-61.80579
415.42	37.23403
415.632	-61.80579
415.845	-30.20322
416.058	-11.23899
416.271	-21.77492
416.483	56.20513
416.696	-7.02445
416.909	16.15725
417.121	37.23403
417.334	-30.20322
417.547	-47.05863
417.759	60.42118
417.972	33.01848
418.185	-74.44523
418.397	22.48004
418.61	-9.13173
418.823	-30.20322
419.035	35.12624
419.248	-30.20322
419.46	22.48004
419.673	-11.23899
419.885	-36.52418
420.098	45.6654
420.311	16.15725
420.523	-7.02445
420.736	-4.91714
420.948	41.44967
421.161	45.6654
421.373	-21.77492
421.586	-19.66778
421.798	-38.63112
422.01	43.55752
422.223	58.31314
422.435	-13.34623
422.648	22.48004
422.86	58.31314
423.073	-42.84492
423.285	-55.48573
423.497	11.94218
423.71	20.37242
423.922	28.80304
424.134	-55.48573
424.347	20.37242
424.559	-78.65817
424.771	-34.41722
424.984	37.23403
425.196	-11.23899
425.408	28.80304
425.621	3.51233
425.833	16.15725
426.045	37.23403
426.257	-55.48573
426.47	-4.91714
426.682	26.69535
426.894	-4.91714
427.106	62.52924
427.318	-21.77492
427.531	43.55752
427.743	30.91075
427.955	-19.66778
428.167	-51.27223
428.379	-38.63112
428.591	-11.23899
428.804	-59.69913
429.016	-4.91714
429.228	3.51233
429.44	16.15725
429.652	-17.56062
429.864	56.20513
430.076	-11.23899
430.288	-34.41722
430.5	-21.77492
430.712	33.01848
430.924	73.06989
431.136	-34.41722
431.348	5.61975
431.56	-40.73804
431.772	7.72721
431.984	20.37242
432.196	-4.91714
432.408	20.37242
432.62	-49.16544
432.832	11.94218
433.044	-7.02445
433.256	28.80304
433.468	3.51233
433.679	-30.20322
433.891	47.77329
434.103	58.31314
434.315	-11.23899
434.527	77.2863
434.739	-19.66778
434.95	-19.66778
435.162	-51.27223
435.374	-2.80981
435.586	49.88122
435.798	121.56407
436.009	-59.69913
436.221	24.58768
436.433	62.52924
436.645	66.74543
436.856	20.37242
437.068	79.39455
437.28	20.37242
437.491	-32.31023
437.703	54.09713
437.915	96.26129
438.126	-21.77492
438.338	-0.70246
438.55	16.15725
438.761	30.91075
438.973	11.94218
439.184	45.6654
439.396	3.51233
439.608	35.12624
439.819	11.94218
440.031	20.37242
440.242	-28.09618
440.454	24.58768
440.665	30.91075
440.877	16.15725
441.088	30.91075
441.3	-17.56062
441.511	62.52924
441.723	-11.23899
441.934	24.58768
442.146	-44.95179
442.357	3.51233
442.569	56.20513
442.78	3.51233
442.991	-68.12563
443.203	7.72721
443.414	49.88122
443.626	-13.34623
443.837	-17.56062
444.048	-11.23899
444.26	3.51233
444.471	-13.34623
444.682	30.91075
444.894	35.12624
445.105	89.9361
445.316	45.6654
445.528	7.72721
445.739	45.6654
445.95	39.34183
446.161	5.61975
446.373	45.6654
446.584	30.91075
446.795	51.98916
447.006	43.55752
447.217	121.56407
447.429	54.09713
447.64	30.91075
447.851	-38.63112
448.062	87.82774
448.273	-13.34623
448.484	37.23403
448.695	-13.34623
448.907	102.58669
449.118	-13.34623
449.329	5.61975
449.54	62.52924
449.751	41.44967
449.962	87.82774
450.173	92.04447
450.384	-4.91714
450.595	16.15725
450.806	-9.13173
451.017	14.04971
451.228	62.52924
451.439	-11.23899
451.65	-28.09618
451.861	75.17808
452.072	58.31314
452.283	70.96171
452.494	-4.91714
452.705	11.94218
452.915	37.23403
453.126	104.6952
453.337	121.56407
453.548	47.77329
453.759	3.51233
453.97	73.06989
454.181	-44.95179
454.391	14.04971
454.602	24.58768
454.813	16.15725
455.024	113.12946
455.235	64.63732
455.445	39.34183
455.656	70.96171
455.867	81.50281
456.078	16.15725
456.288	41.44967
456.499	5.61975
456.71	58.31314
456.921	106.80373
457.131	-21.77492
457.342	56.20513
457.553	64.63732
457.763	-11.23899
457.974	47.77329
458.184	-47.05863
458.395	-4.91714
458.606	37.23403
458.816	24.58768
459.027	56.20513
459.237	45.6654
459.448	66.74543
459.659	7.72721
459.869	-19.66778
460.08	-25.98912
460.29	54.09713
460.501	26.69535
460.711	41.44967
460.922	62.52924
461.132	73.06989
461.343	108.91229
461.553	85.71941
461.764	73.06989
461.974	22.48004
462.184	64.63732
462.395	24.58768
462.605	62.52924
462.816	73.06989
463.026	33.01848
463.236	30.91075
463.447	70.96171
463.657	51.98916
463.867	54.09713
464.078	70.96171
464.288	47.77329
464.498	33.01848
464.709	9.83468
464.919	89.9361
465.129	104.6952
465.339	58.31314
465.55	62.52924
465.76	58.31314
465.97	28.80304
466.18	16.15725
466.391	92.04447
466.601	134.21663
466.811	121.56407
467.021	77.2863
467.231	138.43433
467.441	58.31314
467.651	155.30595
467.862	163.74226
468.072	62.52924
468.282	104.6952
468.492	121.56407
468.702	87.82774
468.912	108.91229
469.122	104.6952
469.332	180.61589
469.542	104.6952
469.752	104.6952
469.962	100.4782
470.172	62.52924
470.382	214.36707
470.592	163.74226
470.802	45.6654
471.012	70.96171
471.222	140.5432
471.432	178.50662
471.642	81.50281
471.852	132.10782
472.062	159.52406
472.272	104.6952
472.482	233.35436
472.691	146.86997
472.901	159.52406
473.111	180.61589
473.321	201.70978
473.531	148.97893
473.741	199.6003
473.95	155.30595
474.16	193.27198
474.37	269.22351
474.58	231.24458
474.79	243.90353
474.999	148.97893
475.209	267.11341
475.419	277.66411
475.628	302.98769
475.838	191.16258
476.048	349.42099
476.258	324.09267
476.467	362.08609
476.677	307.20854
476.886	366.30793
477.096	269.22351
477.306	362.08609
477.515	338.86722
477.725	372.64081
477.935	336.75651
478.144	410.64126
478.354	281.88452
478.563	425.42065
478.773	446.5354
478.982	547.90718
479.192	442.31232
479.401	509.88883
479.611	516.2249
479.82	484.54585
480.03	501.44093
480.239	638.7464
480.449	509.88883
480.658	571.14282
480.868	590.155
481.077	611.28088
481.287	509.88883
481.496	636.6336
481.705	647.19775
481.915	733.83477
482.124	714.81528
482.333	695.79667
482.543	776.10334
482.752	854.31041
482.961	773.98982
483.171	828.94458
483.38	761.30888
483.589	864.87988
483.799	960.01411
484.008	962.12838
484.217	864.87988
484.426	1110.1424
484.636	1008.64392
484.845	1042.47532
485.054	1088.99587
485.263	1063.6207
485.472	1000.18632
485.682	1067.84985
485.891	1040.36082
486.1	1211.65179
486.309	1270.86929
486.518	1139.74833
486.727	1163.01073
486.936	1393.53948
487.146	1179.92914
487.355	1433.72538
487.564	1258.17964
487.773	1550.05281
487.982	1279.3291
488.191	1410.45983
488.4	1374.50414
488.609	1406.22974
488.818	1562.74293
489.027	1660.03172
489.236	1437.95548
489.445	1478.14147
489.654	1569.08797
489.863	1693.87013
490.072	1558.51289
490.281	1907.45318
490.49	1556.39787
490.698	1748.85587
490.907	1778.46257
491.116	1778.46257
491.325	1636.76741
491.534	1888.42293
491.743	1761.54455
491.952	1922.25418
492.16	1867.27771
492.369	1913.7965
492.578	2008.93996
492.787	1975.11259
492.996	2011.05412
493.204	2112.52545
493.413	2066.0198
493.622	2213.97918
493.831	1956.08399
494.039	2104.07014
494.248	2260.47228
494.457	2220.3194
494.665	2336.54231
494.874	2573.1192
495.083	2290.05653
495.291	2433.72425
495.5	2387.24864
495.709	2518.21195
495.917	2370.34718
496.126	2499.20377
496.335	2431.61184
496.543	2615.35008
496.752	2467.52145
496.96	2600.56982
497.169	2395.69913
497.377	2505.53993
497.586	2554.11374
497.794	2847.52862
498.003	2615.35008
498.211	2685.02025
498.42	2887.61552
498.628	2826.4282
498.837	2701.90791
499.045	2748.34466
499.254	2809.54686
499.462	2845.41864
499.671	2731.4593
499.879	2921.3689
500.087	2910.82136
500.296	3092.18666
500.504	2919.25942
500.713	3250.25908
500.921	3064.77825
501.129	3134.34823
501.338	3039.47583
501.546	3427.18786
501.754	3163.85751
501.962	3132.2403
502.171	3081.64528
502.379	3448.24258
502.587	3222.86647
502.795	3473.50587
503.004	3338.73874
503.212	3568.21989
503.42	3395.60245
503.628	3505.08133
503.837	3349.27002
504.045	3458.76926
504.253	3484.03148
504.461	3378.75527
504.669	3494.55663
504.877	3635.54928
505.085	3385.0731
505.294	3669.20674
505.502	3570.32423
505.71	3778.5596
505.918	3723.8897
506.126	3791.17386
506.334	3547.17554
506.542	3919.37841
506.75	3625.03033
506.958	3702.85933
507.166	3965.59781
507.374	3833.21628
507.582	3629.23797
507.79	3898.36635
507.998	3854.23452
508.206	3850.03103
508.414	3835.31819
508.622	4087.40155
508.83	3782.76443
509.037	4219.62629
509.245	3833.21628
509.453	3957.19501
509.661	4131.48573
509.869	4265.78023
510.077	3955.09426
510.285	4127.28763
510.492	4173.46207
510.7	4165.06748
510.908	4251.09601
511.116	4276.26832
511.324	3965.59781
511.531	4358.05696
511.739	4282.56092
511.947	4324.50661
512.155	4261.58485
512.362	4511.05961
512.57	4295.14553
512.778	4666.038
512.985	4307.72937
513.193	4259.48712
513.401	4387.40896
513.608	4435.62083
513.816	4437.71674
514.024	4609.50598
514.231	4450.29171
514.439	4515.24981
514.646	4494.2979
514.854	4613.6941
515.061	4542.48399
515.269	4921.27359
515.477	4563.43081
515.684	4630.44567
515.892	4655.57034
516.099	5019.51129
516.307	4871.09009
516.514	4940.089
516.722	4584.37541
516.929	4848.08491
517.136	4705.80998
517.344	4937.99849
517.551	4693.25129
517.759	4952.63157
517.966	4971.44388
518.173	4894.0925
518.381	4927.5456
518.588	4971.44388
518.796	4686.97164
519.003	5078.01165
519.21	4937.99849
519.418	5370.23989
519.625	5140.67044
519.832	5180.34353
520.039	5155.28782
520.247	5178.25568
520.454	5278.44605
520.661	5451.56464
520.868	5182.43135
521.076	5439.05547
521.283	5297.22575
521.49	5399.4375
521.697	5372.32559
521.904	5453.64942
522.112	5222.09559
522.319	5557.85842
522.526	5305.57168
522.733	5480.74943
522.94	5391.0958
523.147	5499.50863
523.354	5487.00271
523.561	5549.52387
523.768	5551.60754
523.975	5838.9283
524.183	5657.84364
524.39	5747.36758
524.597	5818.12305
524.804	5884.69152
525.011	5612.02383
525.218	5749.44901
525.425	5786.91077
525.632	5965.78918
525.838	5899.25015
526.045	5805.63878
526.252	5699.48811
526.459	5913.80763
526.666	5797.31545
526.873	5976.18372
527.08	6113.33648
527.287	6075.94135
527.494	5899.25015
527.701	6293.97237
527.907	6063.47461
528.114	6192.25675
528.321	6136.18531
528.528	6086.32965
528.735	6327.17346
528.941	6198.48586
529.148	6102.94971
529.355	6283.5958
529.562	6244.1595
529.768	6509.67277
529.975	6229.62821
530.182	6445.4038
530.388	6393.55771
530.595	6343.77176
530.802	6403.92809
531.008	6604.99859
531.215	6430.88836
531.422	6654.7144
531.628	6551.12479
531.835	6611.21379
532.042	6667.14129
532.248	6791.36466
532.455	6418.44565
532.661	6689.92175
532.868	6818.26887
533.074	6778.94603
533.281	6575.99156
533.487	6729.26328
533.694	6696.13412
533.9	7008.55822
534.107	6807.92155
534.313	7124.29317
534.52	6911.36913
534.726	7004.42353
534.933	6969.27502
535.139	7047.83331
535.345	7004.42353
535.552	7169.74131
535.758	6971.34276
535.965	7097.43238
536.171	6963.07166
536.377	7089.16676
536.584	7047.83331
536.79	7223.43889
536.996	7101.56505
537.203	7446.33125
537.409	6956.8681
537.615	7134.62324
537.821	7291.57201
538.028	7341.10833
538.234	7204.85296
538.44	7332.85316
538.646	7229.63381
538.853	7607.15166
539.059	7223.43889
539.265	7355.55405
539.471	7479.33073
539.677	7646.30614
539.883	7237.89338
540.09	7462.83168
540.296	7266.79911
540.502	7477.26842
540.708	7351.42681
540.914	7724.59216
541.12	7572.11218
541.326	7743.12913
541.532	7644.24557
541.738	7938.69408
541.944	7625.69948
542.15	8099.12455
542.356	7724.59216
542.562	8000.41274
542.768	7699.87356
542.974	7967.49841
543.18	7881.07332
543.386	7932.5212
543.592	7959.26901
543.798	8179.29374
544.004	7815.20119
544.21	8051.83096
544.415	8029.20851
544.621	8095.01248
544.827	7934.57884
545.033	8286.13896
545.239	8358.0241
545.445	8374.45164
545.651	8105.29249
545.856	8187.5145
546.062	8292.30148
546.268	8257.37819
546.474	8245.05096
546.679	8284.08475
546.885	8086.78812
547.091	8275.8677
547.297	8203.95507
547.502	8345.70263
547.708	8230.6683
547.914	8166.96199
548.119	8503.77543
548.325	8374.45164
548.531	8438.09668
548.736	8427.8326
548.942	8423.72684
549.147	8452.46558
549.353	8505.82758
549.559	8544.81475
549.764	8575.58928
549.97	8472.99095
550.175	8608.41079
550.381	8745.79908
550.586	8491.46215
550.792	8823.68415
550.997	8743.74912
551.203	8641.2275
551.408	8647.3801
551.614	8909.73729
551.819	8866.71468
552.025	8653.53254
552.23	8899.49453
552.435	9155.43173
552.641	9046.94764
552.846	8870.81241
553.052	9071.51433
553.257	9083.79673
553.462	9106.31286
553.668	9188.17218
553.873	9008.04526
554.078	9216.81651
554.283	8995.75899
554.489	9034.66336
554.694	9040.80558
554.899	9171.8025
555.105	9143.15294
555.31	9126.78026
555.515	9034.66336
555.72	9267.95887
555.925	8954.80017
556.131	9276.14068
556.336	9018.28334
556.541	9582.76917
556.746	9059.2313
556.951	9386.56907
557.156	9227.04582
557.361	9427.45633
557.567	9454.02956
557.772	9472.42482
557.977	9642.00918
558.182	9335.4508
558.387	9456.07354
558.592	9727.78194
558.797	9637.92408
559.002	9737.99118
559.207	9525.55937
559.412	9746.1583
559.617	9503.08069
559.822	9552.1226
560.027	9668.5608
560.232	9613.4122
560.437	9466.29321
560.642	9586.85511
560.847	9627.71107
561.051	9727.78194
561.256	9496.9498
561.461	9848.22689
561.666	9578.68317
561.871	9727.78194
562.076	9897.20656
562.281	9766.57503
562.485	9782.90733
562.69	9586.85511
562.895	9664.4761
563.1	9780.86584
563.305	10060.41145
563.509	10003.30024
563.714	9833.93955
563.919	10019.61887
564.123	9956.37903
564.328	10158.29061
564.533	9848.22689
564.737	10011.45967
564.942	9882.92171
565.147	10270.40459
565.351	9976.7805
565.556	10133.82384
565.761	9940.05682
565.965	10186.83264
566.17	10007.37998
566.374	10186.83264
566.579	10288.7466
566.784	10364.14127
566.988	10272.44265
567.193	10427.29586
567.397	10439.51788
567.602	10445.62872
567.806	9978.82056
568.011	10109.35506
568.215	10396.73875
568.42	10329.50274
568.624	10358.02886
568.828	10372.29095
569.033	10429.33289
569.237	10677.756
569.442	10400.8132
569.646	10358.02886
569.85	10186.83264
570.055	10305.0497
570.259	10378.40308
570.463	10500.62103
570.668	10323.38966
570.872	10305.0497
571.076	10702.18109
571.281	10516.91327
571.485	10417.11048
571.689	10518.94974
571.893	10504.69417
572.098	10667.57836
572.302	10496.54785
572.506	10761.20123
572.71	10614.64972
572.914	10773.41104
573.119	10372.29095
573.323	10549.4953
573.527	10457.85004
573.731	10628.90056
573.935	10785.62042
574.139	10838.52286
574.343	10492.47461
574.547	10753.06112
574.751	10940.23631
574.955	10962.60945
575.159	10575.96582
575.364	10582.07411
575.568	10936.16832
575.772	10974.81241
575.976	10830.38454
576.18	11048.02174
576.383	10899.55437
576.587	11139.51349
576.791	11184.23489
576.995	11332.59259
577.199	10958.54171
577.403	11064.28854
577.607	11119.18387
577.811	11011.41887
578.015	11072.42168
578.219	11045.98834
578.422	11080.55465
578.626	11421.98768
578.83	10934.13431
579.034	11109.01866
579.238	11106.98559
579.442	11135.44765
579.645	11131.38177
579.849	11373.2291
580.053	11300.0805
580.257	11249.27515
580.46	11444.33348
580.664	11523.55012
580.868	11419.95618
581.071	11460.58423
581.275	11452.45893
581.479	11525.58112
581.682	11549.95246
581.886	11503.23954
582.09	11202.52854
582.293	11612.90555
582.497	11415.89316
582.7	11665.69812
582.904	11738.78554
583.107	11690.06187
583.311	11623.05844
583.515	11507.30173
583.718	11493.0839
583.922	11750.96567
584.125	11466.67811
584.329	11994.50413
584.532	11456.5216
584.735	11874.77938
584.939	11562.13762
585.142	11759.08558
585.346	11811.86162
585.549	11951.89348
585.753	11886.95608
585.956	12104.05839
586.159	11850.42508
586.363	12049.2841
586.566	11962.03919
586.769	11771.26518
586.973	11964.06831
587.176	12187.22358
587.379	11757.05561
587.582	12075.65761
587.786	11744.87564
587.989	12175.05385
588.192	12095.94404
588.395	12231.84367
588.599	12221.70305
588.802	12250.09632
589.005	12201.42126
589.208	12430.56419
589.411	12296.73937
589.615	12252.12436
589.818	12355.54486
590.021	12272.40434
590.224	12373.79366
590.427	12373.79366
590.63	12357.57253
590.833	12475.16594
591.036	12166.94055
591.239	12702.18179
591.442	12394.06945
591.645	12493.41119
591.848	12434.61902
592.051	12730.55343
592.254	12621.11357
592.457	12783.24063
592.66	12562.33303
592.863	12720.42083
593.066	12428.53676
593.269	12762.97678
593.472	12742.71236
593.675	12890.62976
593.878	12602.87189
594.081	12649.48853
594.284	12677.86232
594.486	12795.39867
594.689	12716.36775
594.892	12750.81819
595.095	12463.00214
595.298	12842.00263
595.5	12783.24063
595.703	12937.22788
595.906	12931.15003
596.109	13115.49154
596.311	13018.26158
596.514	12860.23817
596.717	12750.81819
596.92	13192.45752
597.122	13220.81175
597.325	12860.23817
597.528	12846.05501
597.73	13378.76984
597.933	12529.90014
598.136	13382.81971
598.338	12823.76664
598.541	13208.66004
598.743	12983.82326
598.946	12979.77159
599.148	13058.77542
599.351	13119.54254
599.554	13151.94994
599.756	13107.38946
599.959	12995.97813
600.161	13301.8191
600.363	13192.45752
600.566	13038.51875
600.768	13147.89908
600.971	13228.9128
601.173	13153.97536
601.376	13439.51631
601.578	13475.96252
601.78	13403.06885
601.983	13103.3384
602.185	13370.67004
602.388	13488.11098
602.59	13386.86957
602.792	13392.94433
602.995	13358.52022
603.197	13429.39214
603.399	13759.39375
603.601	13285.61818
603.804	13631.85792
604.006	13668.29803
604.208	13437.49148
604.41	13360.5452
604.613	13654.127
604.815	13435.46665
605.017	13791.78183
605.219	13581.24483
605.421	13419.26788
605.623	13587.31851
605.826	13743.19942
606.028	13563.02358
606.23	13927.39889
606.432	13605.53938
606.634	13931.44698
606.836	13502.28402
607.038	13973.9512
607.24	13878.82109
607.442	13569.09736
607.644	13490.13571
607.846	13700.68836
608.048	13247.1399
608.25	13759.39375
608.452	13737.1265
608.654	13751.29661
608.856	13524.55557
609.058	13698.66399
609.26	13407.11863
609.462	13852.50745
609.664	13868.70051
609.866	14002.28673
610.067	13949.66321
610.269	14099.43353
610.471	13382.81971
610.673	13860.604
610.875	13666.27361
611.077	14014.43038
611.278	13704.73709
611.48	14022.5261
611.682	13799.87873
611.884	14030.62177
612.085	13684.4933
612.287	13905.13426
612.489	13781.66064
612.69	14000.26278
612.892	13662.22475
613.094	14081.21891
613.295	13876.79698
613.497	14038.71741
613.699	13870.72463
613.9	14182.409
614.102	13805.95138
614.304	14089.31432
614.505	13795.83029
614.707	13895.01386
614.908	13743.19942
615.11	14435.36313
615.311	13909.1824
615.513	14014.43038
615.714	14040.74132
615.916	13943.59116
616.117	13876.79698
616.319	14115.62415
616.52	14046.81302
616.722	13615.66196
616.923	14063.00411
617.124	13903.11018
617.326	14006.33462
617.527	14135.86223
617.729	13927.39889
617.93	14079.19505
618.131	13973.9512
618.333	14275.49935
618.534	14083.24277
618.735	14289.66492
618.937	14038.71741
619.138	14354.42073
619.339	14249.19162
619.54	14020.50217
619.742	13980.02314
619.943	14152.05253
620.144	14174.31398
620.345	14135.86223
620.546	14152.05253
620.748	14216.81243
620.949	14156.10009
621.15	14328.1139
621.351	14010.3825
621.552	14164.19517
621.753	13842.38669
621.954	14184.43274
622.155	13971.92722
622.356	14342.27915
622.558	13917.27864
622.759	14135.86223
622.96	14022.5261
623.161	14398.93936
623.362	14257.28634
623.563	14463.69239
623.764	14479.88042
623.965	14352.39714
624.166	14131.81463
624.366	14374.65657
624.567	14010.3825
624.768	14095.38585
624.969	14184.43274
625.17	13986.09506
625.371	13901.08611
625.572	14131.81463
625.773	14050.8608
625.973	14253.23898
626.174	14344.30275
626.375	14556.77238
626.576	14409.05712
626.777	14718.64475
626.977	14235.02579
627.178	14500.11533
627.379	14241.09687
627.58	14107.52886
627.78	14133.83843
627.981	14307.87767
628.182	14006.33462
628.382	14340.25555
628.583	14107.52886
628.784	14202.64638
628.984	14099.43353
629.185	14394.89224
629.386	13957.75925
629.586	14742.92507
629.787	14589.14741
629.987	14398.93936
630.188	14405.01002
630.388	14744.94843
630.589	14388.82156
630.79	14645.80301
630.99	14305.85404
631.191	14595.21769
631.391	14295.73586
631.591	14411.08067
631.792	14271.45203
631.992	14552.72548
632.193	14273.47569
632.393	14686.27079
632.594	14226.93098
632.794	14338.23194
632.994	14170.26647
633.195	14469.76292
633.395	14131.81463
633.595	14617.47531
633.796	14473.80992
633.996	14494.04487
634.196	14502.13882
634.397	14706.50454
634.597	14419.17485
634.797	14989.76948
634.997	14621.52214
635.198	14696.38768
635.398	14579.03025
635.598	14692.34093
635.798	14670.08373
635.998	14771.25196
636.199	14461.66888
636.399	14629.61578
636.599	14492.02138
636.799	14623.54555
636.999	14649.8498
637.199	14874.44159
637.399	15010.00231
637.599	14799.5787
637.799	14235.02579
637.999	14603.31139
638.199	14736.855
638.399	14985.72291
638.599	14819.812
638.799	14961.44346
638.999	14846.11519
639.199	14779.34533
639.399	14886.58144
639.599	14722.69148
639.799	14714.59802
639.999	14755.06519
640.199	14759.11188
640.399	14603.31139
640.599	14340.25555
640.799	14888.60475
640.998	14661.99017
641.198	15050.46789
641.398	14755.06519
641.598	15244.702
641.798	15056.53771
641.997	14912.88438
642.197	14829.92863
642.397	14961.44346
642.597	14532.49091
642.796	15026.18855
642.996	14686.27079
643.196	15137.46863
643.395	14799.5787
643.595	15007.97903
643.795	14993.81605
643.994	15337.7728
644.194	14914.90768
644.394	15212.32965
644.593	14720.66812
644.793	15335.74952
644.992	14882.53482
645.192	15167.81769
645.392	14999.8859
645.591	14931.09407
645.791	14916.93098
645.99	15010.00231
646.19	14864.32503
646.389	15277.0744
646.589	14935.14066
646.788	15032.25839
646.987	14866.34834
647.187	15155.67806
647.386	15094.97992
647.586	15248.74855
647.785	15309.44685
647.984	15627.10742
648.184	15277.0744
648.383	15285.16751
648.582	15109.14283
648.782	15254.81837
648.981	14995.83933
649.18	15155.67806
649.38	15208.2831
649.579	15252.7951
649.778	14953.35029
649.977	15353.95909
650.177	15224.46928
650.376	15495.59022
650.575	15105.09629
650.774	15349.91251
650.973	15141.51517
651.173	15099.02647
651.372	15481.42699
651.571	15368.1221
651.77	15487.49694
651.969	15368.1221
652.168	15250.77183
652.367	15532.01008
652.566	15436.91418
652.765	15532.01008
652.964	15260.8882
653.163	15469.28711
653.362	15384.30843
653.561	15198.16675
653.76	15088.9101
653.959	15001.90918
654.158	15483.45031
654.357	15442.98409
654.556	15179.95731
654.755	15406.56467
654.954	15333.72623
655.153	15511.7768
655.352	15321.58654
655.551	15948.8351
655.749	15958.9528
655.948	15584.61692
656.147	15655.43462
656.346	15732.32362
656.545	15643.29437
656.743	15697.92575
656.942	15430.84427
657.141	15483.45031
657.34	15457.14725
657.538	15550.22008
657.737	15311.47013
657.936	15681.73861
658.135	15313.49341
658.333	15616.9906
658.532	15532.01008
658.731	15819.33132
658.929	15455.12394
659.128	15416.68116
659.326	15293.26062
659.525	16005.49466
659.724	15576.52353
659.922	15712.08954
660.121	15368.1221
660.319	15536.05674
660.518	15311.47013
660.716	15766.72178
660.915	15795.04991
661.113	15576.52353
661.312	15734.34703
661.51	15813.26096
661.709	15536.05674
661.907	15827.42517
662.105	15548.19675
662.304	15712.08954
662.502	15730.30021
662.701	15667.5749
662.899	15534.03341
663.097	15892.17658
663.296	15693.87896
663.494	16153.21961
663.692	15736.37045
663.891	15744.46412
664.089	15837.54249
664.287	15977.16474
664.485	15362.05224
664.684	15956.92926
664.882	15629.13079
665.08	15948.8351
665.278	15374.19197
665.476	15687.80878
665.675	15200.19002
665.873	15485.47363
666.071	15481.42699
666.269	15699.94914
666.467	15366.09881
666.665	15689.83217
666.863	15287.19079
667.061	15515.82345
667.259	15248.74855
667.457	15916.45868
667.655	15442.98409
667.853	15479.40368
668.051	15465.24049
668.249	15485.47363
668.447	15327.65638
668.645	15631.15415
668.843	15459.17055
669.041	15641.271
669.239	15445.0074
669.437	15754.58122
669.635	15825.4017
669.833	15764.69835
670.031	15339.79609
670.229	15683.76199
670.426	15570.45349
670.624	15631.15415
670.822	15572.47683
671.02	15843.61291
671.218	15960.97634
671.415	15902.2941
671.613	15689.83217
671.811	16017.63614
672.009	15544.15007
672.206	15380.26185
672.404	15220.42273
672.602	15616.9906
672.799	15653.41125
672.997	15770.76865
673.195	15436.91418
673.392	15402.51808
673.59	15262.91147
673.788	15408.58797
673.985	15094.97992
674.183	15687.80878
674.38	15459.17055
674.578	15412.63457
674.775	15511.7768
674.973	15542.12674
675.17	15333.72623
675.368	15772.79208
675.565	15576.52353
675.763	15653.41125
675.96	15208.2831
676.158	15649.3645
676.355	15007.97903
676.553	15859.80072
676.75	15438.93748
676.947	15491.54358
677.145	15364.07552
677.342	15289.21406
677.539	15226.49255
677.737	15438.93748
677.934	15416.68116
678.131	15730.30021
678.329	15157.70133
678.526	15268.9813
678.723	15576.52353
678.92	15904.3176
679.118	15455.12394
679.315	15467.2638
679.512	15532.01008
679.709	15200.19002
679.906	15125.329
680.104	15273.02785
680.301	15072.72391
680.498	15109.14283
680.695	15026.18855
680.892	15325.6331
681.089	14953.35029
681.286	15273.02785
681.483	14840.04523
681.68	15360.02895
681.877	15167.81769
682.075	15469.28711
682.272	14872.41828
682.469	15099.02647
682.665	14975.60648
682.862	15252.7951
683.059	15066.65409
683.256	15230.53909
683.453	15066.65409
683.65	14937.16395
683.847	15277.0744
684.044	15046.42133
684.241	14918.95428
684.438	15157.70133
684.635	14799.5787
684.831	15268.9813
685.028	15054.51444
685.225	14878.48821
685.422	14833.97527
685.619	15163.77115
685.815	14888.60475
686.012	15196.14348
686.209	14732.80829
686.405	15141.51517
686.602	14742.92507
686.799	14969.53661
686.996	14672.10711
687.192	14781.36867
687.389	14746.97178
687.586	14858.25509
687.782	14738.87836
687.979	14953.35029
688.175	14793.5087
688.372	14807.67203
688.568	14975.60648
688.765	14916.93098
688.962	14965.49004
689.158	14777.32199
689.355	14781.36867
689.551	14933.11736
689.748	14536.53784
689.944	14906.81448
690.14	14696.38768
690.337	14977.62976
690.533	14637.7094
690.73	14769.22862
690.926	14858.25509
691.123	14583.07711
691.319	14833.97527
691.515	15018.09543
691.712	14795.53203
691.908	14746.97178
692.104	14534.51437
692.301	14643.77961
692.497	14530.46745
692.693	14635.686
692.889	14937.16395
693.086	14815.76535
693.282	14550.70203
693.478	14706.50454
693.674	14496.06836
693.87	14684.24741
694.067	14765.18193
694.263	14603.31139
694.459	14781.36867
694.655	14870.39497
694.851	14880.51152
695.047	14923.00088
695.243	14748.99513
695.439	14746.97178
695.635	14589.14741
695.831	14496.06836
696.027	14275.49935
696.224	14299.78314
696.42	14150.02875
696.615	14099.43353
696.811	14463.69239
697.007	14419.17485
697.203	14178.36149
697.399	14050.8608
697.595	14192.52771
697.791	14469.76292
697.987	14143.9574
698.183	14676.15388
698.379	14411.08067
698.575	14498.09185
698.77	14218.83615
698.966	14528.44398
699.162	14251.2153
699.358	14382.75086
699.554	14226.93098
699.749	14216.81243
699.945	14259.31001
700.141	14483.92741
700.337	14237.04948
700.532	14063.00411
700.728	14143.9574
700.924	13941.56713
701.119	14194.55145
701.315	14220.85986
701.511	13901.08611
701.706	14241.09687
701.902	14299.78314
702.097	14145.98118
702.293	14309.90131
702.489	14441.43371
702.684	14322.04305
702.88	14305.85404
703.075	14042.76522
703.271	14097.40969
703.466	14239.07318
703.662	14212.765
703.857	14127.76702
704.053	14184.43274
704.248	14257.28634
704.443	14332.16112
704.639	13965.85524
704.834	14233.00209
705.03	14212.765
705.225	14271.45203
705.42	13741.17512
705.616	13868.70051
705.811	13860.604
706.006	13775.58789
706.202	13625.78446
706.397	13731.05354
706.592	13990.14299
706.787	14396.9158
706.983	13899.06203
707.178	14587.12398
707.373	14455.59835
707.568	14016.45431
707.763	13990.14299
707.959	14297.7595
708.154	14332.16112
708.349	14103.4812
708.544	14054.90858
708.739	14145.98118
708.934	14008.35856
709.129	14002.28673
709.324	13927.39889
709.519	14099.43353
709.714	13587.31851
709.909	13941.56713
710.104	13911.20646
710.299	13801.90295
710.494	13878.82109
710.689	13733.07787
710.884	13554.92516
711.079	13917.27864
711.274	13530.62955
711.469	13805.95138
711.664	13611.61294
711.859	13812.02399
712.054	13595.41671
712.249	13682.4689
712.443	13429.39214
712.638	13627.80895
712.833	13461.78914
713.028	13822.14496
713.223	13611.61294
713.417	13654.127
713.612	13676.39569
713.807	13980.02314
714.002	13520.50623
714.196	13795.83029
714.391	13279.54277
714.586	13733.07787
714.78	13401.04395
714.975	13621.73547
715.17	13403.06885
715.364	13793.80606
715.559	13787.73336
715.754	13439.51631
715.948	13362.57017
716.143	13617.68647
716.337	13514.43219
716.532	13739.15081
716.726	13475.96252
716.921	13870.72463
717.115	13526.58024
717.31	13449.64038
717.504	13401.04395
717.699	13516.45688
717.893	13239.03901
718.088	13263.34147
718.282	13401.04395
718.476	13382.81971
718.671	13212.71063
718.865	13607.5639
719.059	13538.72815
719.254	13670.32245
719.448	13099.28731
719.642	13172.20395
719.837	12904.8121
720.031	13417.24301
720.225	13028.39023
720.419	13271.44215
720.614	13303.8442
720.808	13415.21814
721.002	12916.96817
721.196	13168.15319
721.39	13151.94994
721.585	13158.02619
721.779	12937.22788
721.973	13103.3384
722.167	12821.74039
722.361	13010.15858
722.555	12795.39867
722.749	12856.18586
722.943	12959.51297
723.137	12898.73398
723.331	12929.12406
723.525	13330.17006
723.719	13103.3384
723.913	13372.69499
724.107	13042.57012
724.301	12993.95233
724.495	13180.30543
724.689	12825.79288
724.883	12633.27441
725.077	12819.71414
725.271	12505.57441
725.465	12835.92401
725.659	12590.71049
725.853	12665.70227
726.046	12625.16721
726.24	12896.70794
726.434	12661.64887
726.628	12797.42499
726.822	12444.756
727.015	13074.98041
727.209	12653.542
727.403	12617.0599
727.596	12724.47389
727.79	12653.542
727.984	12785.26698
728.177	12698.1286
728.371	12572.46798
728.565	12921.02016
728.758	12835.92401
728.952	12945.33162
729.146	12452.86546
729.339	12862.26431
729.533	12728.52692
729.726	12872.39495
729.92	12645.43504
730.113	12754.87108
730.307	12408.26211
730.5	12694.07539
730.694	12369.73842
730.887	12809.58279
731.081	12718.39429
731.274	12947.35755
731.468	12677.86232
731.661	12906.83812
731.854	12499.49283
732.048	12756.89751
732.241	12669.75565
732.435	12750.81819
732.628	12572.46798
732.821	12795.39867
733.014	12625.16721
733.208	12558.27901
733.401	12590.71049
733.594	12708.26152
733.788	12728.52692
733.981	12985.84908
734.174	12888.60369
734.367	12872.39495
734.56	12874.42106
734.754	12586.65664
734.947	12846.05501
735.14	12694.07539
735.333	12779.1879
735.526	12645.43504
735.719	12655.56873
735.912	12681.91563
736.105	12937.22788
736.298	12811.60907
736.491	12645.43504
736.684	12730.55343
736.877	12402.17958
737.07	12659.62217
737.263	12604.89876
737.456	12558.27901
737.649	12606.92564
737.842	12349.4618
738.035	12507.60159
738.228	12349.4618
738.421	12458.94749
738.614	12651.51527
738.807	12690.02216
739	12610.97936
739.192	12266.32042
739.385	12426.50932
739.578	12521.79166
739.771	12371.76604
739.964	12195.33659
740.156	12246.04023
740.349	12469.08407
740.542	12369.73842
740.735	12560.30602
740.927	12590.71049
741.12	12493.41119
741.313	12286.5999
741.505	12515.71024
741.698	12418.39952
741.891	12223.73119
742.083	12371.76604
742.276	12264.29243
742.468	12481.24775
742.661	12177.08216
742.854	12128.40073
743.046	12207.50588
743.239	12211.56225
743.431	12687.99554
743.624	12335.26776
743.816	12363.65551
744.009	12317.01779
744.201	12201.42126
744.393	12168.96888
744.586	12154.77037
744.778	12308.9065
744.971	12314.98998
745.163	12014.79368
745.355	12179.11046
745.548	12152.74198
745.74	12290.65571
745.932	12430.56419
746.125	12185.19531
746.317	12112.17263
746.509	12268.3484
746.702	12444.756
746.894	11955.95179
747.086	12136.5146
747.278	11919.42583
747.471	12250.09632
747.663	12144.62835
747.855	11911.30859
748.047	12055.37041
748.239	12199.39305
748.431	11947.83513
748.623	12197.36482
748.815	12142.59993
749.008	12039.14009
749.2	11897.1031
749.392	11824.03988
749.584	11852.45465
749.776	12102.02982
749.968	11929.57219
750.16	11949.86431
750.352	11759.08558
750.544	11618.99731
750.736	11659.60698
750.928	12110.14408
751.12	11736.75549
751.311	11623.05844
751.503	11852.45465
751.695	11903.19122
751.887	11669.75884
752.079	12053.34165
752.271	11769.23527
752.463	11895.07371
752.654	11616.96673
752.846	11972.1847
753.038	11464.64682
753.23	11817.95079
753.421	11744.87564
753.613	11543.85975
753.805	11696.15261
753.997	11519.48808
754.188	11576.35322
754.38	11521.5191
754.572	11525.58112
754.763	11688.03161
754.955	11466.67811
755.146	11399.6407
755.338	11681.94077
755.53	11436.20787
755.721	11326.49677
755.913	11584.47622
756.104	11531.67409
756.296	11683.97106
756.487	11696.15261
756.679	11805.77237
756.87	11438.23928
757.062	11407.76701
757.253	11614.93614
757.445	11582.44549
757.636	11367.13387
757.827	11472.77189
758.019	11592.59907
758.21	11172.03865
758.401	11407.76701
758.593	11472.77189
758.784	11623.05844
758.975	11503.23954
759.167	11086.65426
759.358	11125.28287
759.549	11064.28854
759.74	11273.66251
759.932	11308.20876
760.123	11354.94316
760.314	11275.69473
760.505	11157.80923
760.696	11161.87483
760.888	11289.91994
761.079	11080.55465
761.27	11318.36887
761.461	11155.77641
761.652	11190.33287
761.843	11257.40444
762.034	11194.39814
762.225	10702.18109
762.416	11033.78771
762.607	10600.39828
762.798	10895.48592
762.989	10944.30426
763.18	10940.23631
763.371	10518.94974
763.562	10626.86476
763.753	10512.84028
763.944	10858.86785
764.135	10850.72999
764.326	11086.65426
764.517	10909.72528
764.708	11208.62624
764.899	10934.13431
765.089	10728.63964
765.28	10753.06112
765.471	10883.28031
765.662	10353.95386
765.853	10726.60444
766.043	10769.34115
766.234	10730.67483
766.425	10578.00193
766.615	10632.97212
766.806	10598.36231
766.997	10614.64972
767.187	10327.46506
767.378	10388.5897
767.569	10197.02558
767.759	10005.34012
767.95	10166.44575
768.141	10343.76612
768.331	10410.9991
768.522	10333.57806
768.712	10386.5524
768.903	10527.0955
769.093	10290.78454
769.284	10133.82384
769.474	10252.06149
769.665	10508.76725
769.855	10209.25664
770.046	10329.50274
770.236	10152.1741
770.426	10154.21295
770.617	10203.14117
770.807	10125.6678
770.998	10029.81755
771.188	10152.1741
771.378	9782.90733
771.569	10203.14117
771.759	9874.75861
771.949	9989.02068
772.139	10349.87881
772.33	10009.41983
772.52	10103.23756
772.71	10072.64812
772.9	9991.06066
773.09	10154.21295
773.281	9872.71779
773.471	9766.57503
773.661	9846.18589
773.851	10011.45967
774.041	9760.45017
774.231	10048.17427
774.421	9737.99118
774.611	9464.24931
774.802	9394.74705
774.992	9515.34202
775.182	9803.32134
775.372	9648.13671
775.562	9789.03169
775.752	9590.94099
775.942	9545.99286
776.131	9595.0268
776.321	9421.32366
776.511	9574.5971
776.701	9321.13584
776.891	9539.86298
777.081	9411.10221
777.271	9476.51248
777.461	9637.92408
777.651	9400.88036
777.84	9284.32221
778.03	9359.98886
778.22	9492.86246
778.41	9801.28001
778.599	9592.9839
778.789	9543.94959
778.979	9208.63275
779.169	9257.73124
779.358	9374.30163
779.548	9521.47248
779.738	9270.00435
779.927	9447.89752
780.117	9441.76533
780.307	9267.95887
780.496	9280.23148
780.686	9470.38096
780.875	9012.14055
781.065	8952.75204
781.254	9132.92014
781.444	9143.15294
781.633	9091.98466
781.823	9128.8269
782.012	9400.88036
782.202	9218.8624
782.391	8989.61561
782.581	9067.42005
782.77	9055.13682
782.96	9441.76533
783.149	8801.14117
783.338	9053.08955
783.528	9126.78026
783.717	8870.81241
783.906	8930.22148
784.096	8899.49453
784.285	8950.7039
784.474	8647.3801
784.663	8581.74368
784.853	8643.27838
785.042	8879.00766
785.231	8838.02854
785.42	8702.74601
785.61	8874.91007
785.799	8715.04771
785.988	8852.37205
786.177	8390.87794
786.366	8676.09003
786.555	8727.34875
786.744	8380.61165
786.933	8442.20217
787.122	8643.27838
787.312	8542.76297
787.501	8466.83354
787.69	8319.00371
787.879	8450.41294
788.068	8201.90007
788.257	8382.66495
788.445	8483.25292
788.634	8778.596
788.823	8688.39318
789.012	8542.76297
789.201	8637.12567
789.39	8370.34487
789.579	8321.05759
789.768	8553.02171
789.957	8127.90673
790.145	8368.29146
790.334	8082.67581
790.523	8158.74043
790.712	8343.64898
790.9	8138.18513
791.089	8111.46025
791.278	8394.98432
791.467	7986.01337
791.655	8376.505
791.844	8152.57405
792.033	8064.16945
792.221	8006.5836
792.41	8119.68365
792.599	8010.6974
792.787	8407.30301
792.976	8107.34843
793.164	8078.56343
793.353	8051.83096
793.541	8193.67986
793.73	8084.73197
793.918	8164.90663
794.107	7848.13991
794.295	7973.67025
794.484	7930.46353
794.672	7967.49841
794.861	8002.46972
795.049	7823.43637
795.238	7846.0814
795.426	7800.78883
795.614	7743.12913
795.803	7749.30774
795.991	7788.43456
796.179	8029.20851
796.368	7946.9243
796.556	7656.60868
796.744	7528.81958
796.932	7831.67122
797.121	7477.26842
797.309	7835.78852
797.497	7819.31883
797.685	7821.37761
797.874	7600.96867
798.062	7819.31883
798.25	7627.76024
798.438	7646.30614
798.626	7644.24557
798.814	7605.09068
799.002	7603.02969
799.19	7815.20119
799.378	7769.90174
799.566	7852.25688
799.755	7627.76024
799.943	7774.02029
800.131	7922.23265
800.318	7848.13991
800.506	7497.8905
800.694	7784.3163
800.882	7703.99353
801.07	7909.88572
801.258	7794.61179
801.446	7806.96568
801.634	7466.95657
801.822	7584.47976
802.01	7592.72439
802.197	7757.54559
802.385	7372.06213
802.573	7815.20119
802.761	7541.18986
802.949	7668.97103
803.136	7454.58164
803.324	7452.51907
803.512	7423.6409
803.699	7436.01778
803.887	7365.87176
804.075	7642.18498
804.262	7456.64418
804.45	7555.62088
804.638	7471.08138
804.825	7718.4128
805.013	7427.76661
805.201	7493.76626
805.388	7485.51751
805.576	7629.82098
805.763	7708.11343
805.951	7823.43637
806.138	7668.97103
806.326	7739.00995
806.513	7518.51043
806.701	7512.32468
806.888	7405.07411
807.075	7551.49784
807.263	7341.10833
807.45	7495.82839
807.638	7392.69527
807.825	7576.23479
808.012	7491.7041
808.2	7786.37544
808.387	7506.13873
808.574	7920.17488
808.761	7776.07954
808.949	7706.05349
809.136	7378.2523
809.323	7784.3163
809.51	7625.69948
809.698	7677.21217
809.885	7567.98948
810.072	7695.75349
810.259	7584.47976
810.446	7642.18498
810.633	7227.56886
810.82	7510.26272
811.008	7464.89414
811.195	7539.1282
811.382	7369.9987
811.569	7683.3928
811.756	7365.87176
811.943	7549.43629
812.13	7324.59763
812.317	7743.12913
812.504	7436.01778
812.691	7584.47976
812.878	7613.33446
813.064	7495.82839
813.251	7537.06652
813.438	7664.85033
813.625	7537.06652
813.812	7831.67122
813.999	7438.08052
814.186	7462.83168
814.372	7355.55405
814.559	7627.76024
814.746	7436.01778
814.933	7567.98948
815.12	7520.5723
815.306	7590.66326
815.493	7497.8905
815.68	7386.50556
815.866	7132.55727
816.053	7175.93795
816.24	7438.08052
816.426	7539.1282
816.613	7512.32468
816.799	7776.07954
816.986	7699.87356
817.173	7724.59216
817.359	7464.89414
817.546	7444.2686
817.732	7215.1787
817.919	7535.00482
818.105	7204.85296
818.292	7413.32623
818.478	7178.00345
818.665	7242.02303
818.851	7252.34678
819.037	7524.69599
819.224	7396.82164
819.41	7237.89338
819.597	7266.79911
819.783	7163.54447
819.969	7105.69764
820.156	7200.72251
820.342	7295.70052
820.528	7328.72544
820.714	7188.33063
820.901	7423.6409
821.087	7301.89312
821.273	7629.82098
821.459	7206.91815
821.646	7386.50556
821.832	7155.2817
822.018	7254.41147
822.204	7012.69282
822.39	7283.31473
822.576	6934.11998
822.762	7144.95275
822.948	7093.29962
823.134	7043.69947
823.32	6923.77903
823.507	7252.34678
823.693	7113.96254
823.879	7147.01858
824.065	7082.96732
824.25	7208.98332
824.436	7076.76767
824.622	7324.59763
824.808	7151.15019
824.994	7132.55727
825.18	7008.55822
825.366	6907.23232
825.552	6932.05184
825.738	6965.13947
825.923	6758.24649
826.109	6907.23232
826.295	6718.91105
826.481	7023.02894
826.667	6834.82339
826.852	7165.6101
827.038	6793.43435
827.224	7103.63136
827.409	6776.87618
827.595	7248.21735
827.781	7035.43153
827.966	7002.35615
828.152	6853.44549
828.338	6787.22521
828.523	6671.2834
828.709	6915.50585
828.894	6741.68521
829.08	6617.42879
829.266	6464.06483
829.451	6669.21235
829.637	6246.23531
829.822	6439.18304
830.008	6271.14315
830.193	6484.7971
830.378	6285.67116
830.564	6729.26328
830.749	6432.96206
830.935	6611.21379
831.12	6526.25469
831.305	6592.56756
831.491	6412.22398
831.676	6669.21235
831.861	6430.88836
832.047	6575.99156
832.232	6298.12283
832.417	6551.12479
832.602	6161.10807
832.788	6370.74082
832.973	6264.9165
833.158	6418.44565
833.343	6171.49155
833.528	6422.59331
833.714	6138.26234
833.899	6418.44565
834.084	6213.01961
834.269	6526.25469
834.454	6219.24801
834.639	6381.11248
834.824	6235.85605
835.009	6206.791
835.194	6242.08368
835.379	6356.21951
835.564	6115.41377
835.749	6314.72375
835.934	6320.94871
836.119	6428.81463
836.304	5761.93711
836.489	6154.87769
836.674	6023.99102
836.859	6165.26153
837.044	5994.89241
837.228	5863.89147
837.413	5707.81587
837.598	6088.40724
837.783	6011.52075
837.968	6229.62821
838.152	5853.49056
838.337	6003.20677
838.522	5678.66706
838.707	5947.07752
838.891	5699.48811
839.076	5843.08906
839.261	5764.01838
839.445	6123.72267
839.63	5870.13173
839.815	5944.99832
839.999	5728.63362
840.184	6098.79484
840.368	5689.07788
840.553	5955.39404
840.737	5553.69119
840.922	5843.08906
841.106	5564.10909
841.291	5836.84788
841.475	5520.34996
841.66	5932.52268
841.844	5599.52553
842.029	5720.3068
842.213	5745.28612
842.397	5711.97961
842.582	5637.01787
842.766	5782.74873
842.951	5409.86411
843.135	5797.31545
843.319	5386.92481
843.504	5487.00271
843.688	5607.85782
843.872	5503.67709
844.056	5566.1926
844.241	5603.69172
844.425	5595.35925
844.609	5584.94312
844.793	5520.34996
844.977	5564.10909
845.161	5182.43135
845.346	5562.02556
845.53	5409.86411
845.714	5288.87945
845.898	5174.07992
846.082	5372.32559
846.266	5209.57095
846.45	5265.9252
846.634	5190.78242
846.818	5255.49051
847.002	5105.16636
847.186	5420.29012
847.37	4996.52405
847.554	5063.38826
847.738	5295.13921
847.922	5126.05193
848.106	5194.95781
848.29	5084.27847
848.473	4954.72192
848.657	5119.7865
848.841	5036.22753
849.025	5011.15262
849.209	5040.40636
849.392	5036.22753
849.576	4820.89341
849.76	5017.42166
849.944	4956.81224
850.127	5036.22753
850.311	4841.81029
850.495	4889.91045
850.678	4726.73934
850.862	5290.96606
851.046	4839.71871
851.229	4969.35371
851.413	4806.25024
851.596	5011.15262
851.78	4852.26787
851.964	5069.65557
852.147	4703.71693
852.331	4709.99604
852.514	4735.11045
852.698	4814.61791
852.881	4269.97553
853.065	4852.26787
853.248	4701.62384
853.431	4737.20317
853.615	4592.75262
853.798	4730.92494
853.982	4645.10212
854.165	4728.83215
854.348	4609.50598
854.532	4793.69807
854.715	4609.50598
854.898	4762.31405
855.081	4337.08864
855.265	4590.65835
855.448	4376.92659
855.631	4460.77026
855.814	4355.96022
855.997	4506.86931
856.181	4286.75587
856.364	4575.99784
856.547	4500.58371
856.73	4519.43993
856.913	4293.04815
857.096	4575.99784
857.279	4420.94887
857.462	4546.67354
857.645	4387.40896
857.828	4655.57034
858.011	4376.92659
858.194	4575.99784
858.377	4209.13533
858.56	4689.06488
858.743	4389.50537
858.926	4358.05696
859.109	4127.28763
859.292	4089.50101
859.475	3913.075
859.658	4261.58485
859.841	3908.87263
860.023	4307.72937
860.206	4049.60781
860.389	3986.60338
860.572	3929.88368
860.755	4007.60691
860.937	3992.90466
861.12	3984.50292
861.303	3906.77142
861.486	4018.10791
861.668	4066.40586
861.851	3942.48933
862.034	4034.90843
862.216	4112.59364
862.399	3654.4822
862.581	3816.40026
862.764	3601.88698
862.947	3938.28753
863.129	3814.29817
863.312	3793.27617
863.494	3616.61483
863.677	3664.99983
863.859	3677.62035
864.042	3780.66203
864.224	3553.48904
864.406	3736.50699
864.589	3408.23709
864.771	3673.41359
864.954	3366.11915
865.136	3631.34176
865.318	3462.97981
865.501	3711.27171
865.683	3408.23709
865.865	3549.28006
866.048	3425.08229
866.23	3551.38456
866.412	3387.179
866.594	3433.50446
866.777	3492.45163
866.959	3410.34281
867.141	3395.60245
867.323	3530.33874
867.505	3328.20703
867.687	3429.29341
867.869	3387.179
868.052	3608.19903
868.234	3433.50446
868.416	3660.79284
868.598	3439.82091
868.78	3570.32423
868.962	3515.60557
869.144	3603.99102
869.326	3431.39895
869.508	3648.1714
869.69	3439.82091
869.872	3450.34795
870.054	3243.93796
870.236	3151.21106
870.417	3361.90697
870.599	3353.4824
870.781	3292.396
870.963	3450.34795
871.145	3016.27999
871.327	3368.22522
871.508	3155.42661
871.69	3545.07101
871.872	3382.96717
872.054	3444.03178
872.235	3206.00808
872.417	3210.22278
872.599	3182.82608
872.78	3334.52611
872.962	3045.80164
873.144	3387.179
873.325	3163.85751
873.507	3412.4485
873.689	3140.67191
873.87	3193.3636
874.052	3109.05205
874.233	3302.92917
874.415	3018.38878
874.596	3378.75527
874.778	2921.3689
874.959	3031.0412
875.141	3121.70043
875.322	3542.96645
875.503	3009.95354
875.685	3298.71595
875.866	3182.82608
876.048	3155.42661
876.229	2944.57217
876.41	3239.72379
876.592	2946.68147
876.773	3119.5924
876.954	3033.14988
877.136	3294.50267
877.317	3098.5113
877.498	3237.61669
877.679	3104.8358
877.86	3370.33126
878.042	3073.21189
878.223	3222.86647
878.404	3014.17119
878.585	3130.13236
878.766	3039.47583
878.947	3174.39576
879.128	3134.34823
879.309	3136.45614
879.49	3134.34823
879.672	3163.85751
879.853	3094.29489
880.034	3231.29527
880.215	3123.80843
880.396	3136.45614
880.576	3037.36719
880.757	3376.6493
880.938	2971.99192
881.119	3321.8878
881.3	3317.67489
881.481	3290.28932
881.662	3054.23584
881.843	3172.28814
882.023	3014.17119
882.204	3269.22153
882.385	3163.85751
882.566	3410.34281
882.747	3104.8358
882.927	3180.71852
883.108	2963.55534
883.289	3281.86241
883.469	3075.32026
883.65	3334.52611
883.831	3144.88762
884.011	3319.78135
884.192	3149.10326
884.373	3395.60245
884.553	3100.61948
884.734	3281.86241
884.914	3174.39576
885.095	3180.71852
885.275	3037.36719
885.456	3302.92917
885.636	3235.50956
885.817	3155.42661
885.997	3157.53436
886.178	3458.76926
886.358	3300.82257
886.538	3258.687
886.719	3269.22153
886.899	3332.41977
887.08	3062.6698
887.26	3220.75923
887.44	2978.31919
887.621	3359.80086
887.801	3258.687
887.981	3475.61103
888.161	3404.02562
888.342	3340.84503
888.522	3323.99422
888.702	3526.12935
888.882	3349.27002
889.062	3378.75527
889.242	3425.08229
889.423	3454.55864
889.603	3260.79394
889.783	3378.75527
889.963	2990.97334
890.143	3189.14864
890.323	3012.06237
890.503	3267.11466
890.683	3096.4031
890.863	3073.21189
891.043	2927.69724
891.223	3151.21106
891.403	3012.06237
891.583	3128.0244
891.763	2961.44616
891.943	3298.71595
892.122	3014.17119
892.302	3307.14232
892.482	3071.1035
892.662	3121.70043
892.842	3079.53695
893.022	3100.61948
893.201	2847.52862
893.381	3132.2403
893.561	2860.18819
893.741	3146.99545
893.92	2708.24057
894.1	3079.53695
894.28	2750.45527
894.459	2961.44616
894.639	2767.33966
894.819	2826.4282
894.998	2758.89757
895.178	2820.0978
895.357	2801.10586
895.537	2940.35353
895.716	2965.66451
895.896	3121.70043
896.075	2697.68607
896.255	2754.67645
896.434	2636.46369
896.614	2988.86435
896.793	2860.18819
896.973	3142.77977
897.152	2839.08862
897.331	2948.79076
897.511	2826.4282
897.69	2792.66463
897.87	2674.46505
898.049	2794.77496
898.228	2716.68393
898.407	2716.68393
898.587	2708.24057
898.766	2708.24057
898.945	2547.77837
899.124	2834.86853
899.304	2488.64328
899.483	2714.57311
899.662	2564.67244
899.841	2623.79568
900.02	2678.68717
900.199	2649.13126
900.378	2391.47391
900.557	2623.79568
900.737	2541.4429
900.916	2801.10586
901.095	2497.09169
901.274	2640.68627
901.453	2226.65954
901.632	2478.0825
901.811	2197.07155
901.989	2357.67065
902.168	2285.83032
902.347	2539.33105
902.526	2254.13257
902.705	2281.60407
902.884	2127.32194
903.063	2408.37455
903.242	2129.43569
903.42	2389.36128
903.599	2243.5662
903.778	2260.47228
903.957	2002.59746
904.135	2101.9563
904.314	2013.16827
904.493	2099.84245
904.672	2019.51068
904.85	2273.15147
905.029	1966.6555
905.207	2104.07014
905.386	1848.24658
905.565	2000.48327
905.743	1871.50679
905.922	1939.16927
906.1	1693.87013
906.279	1943.39799
906.457	1763.65931
906.636	1922.25418
906.814	1822.87113
906.993	1803.83912
907.171	1643.11225
907.35	1706.55934
907.528	1588.123
907.707	1660.03172
907.885	1609.27288
908.063	1685.4106
908.242	1463.33611
908.42	1731.93742
908.598	1410.45983
908.777	1676.95101
908.955	1503.52204
909.133	1687.52549
909.311	1560.62791
909.49	1672.72121
909.668	1499.29195
909.846	1619.84774
910.024	1473.91137
910.202	1645.22719
910.38	1524.67245
910.559	1594.46798
910.737	1526.78748
910.915	1520.44237
911.093	1473.91137
911.271	1753.08544
911.449	1649.45707
911.627	1753.08544
911.805	1579.663
911.983	1700.21475
912.161	1571.20298
912.339	1689.64037
912.517	1495.06186
912.695	1837.67356
912.872	1679.06591
913.05	1854.59033
913.228	1723.47812
913.406	1782.69204
913.584	1636.76741
913.762	1725.59295
913.939	1516.21229
914.117	1780.57731
914.295	1560.62791
914.473	1660.03172
914.65	1719.24844
914.828	1664.26156
915.006	1425.26517
915.184	1702.32962
915.361	1473.91137
915.539	1605.04292
915.716	1372.38911
915.894	1558.51289
916.072	1537.36265
916.249	1569.08797
916.427	1478.14147
916.604	1503.52204
916.782	1385.07932
916.959	1628.3076
917.137	1528.90252
917.314	1579.663
917.492	1249.71993
917.669	1564.85794
917.847	1258.17964
918.024	1486.60167
918.201	1287.78895
918.379	1463.33611
918.556	1344.89378
918.733	1404.1147
918.911	1211.65179
919.088	1511.98221
919.265	1308.93873
919.442	1298.36382
919.62	1264.52445
919.797	1330.0887
919.974	1127.05997
920.151	1270.86929
920.328	1205.3072
920.506	1397.76956
920.683	1374.50414
920.86	1334.31872
921.037	1127.05997
921.214	1391.42444
921.391	1078.42279
921.568	1249.71993
921.745	1182.04396
921.922	1298.36382
922.099	1044.58984
922.276	1215.88153
922.453	1021.33052
922.63	1385.07932
922.807	1044.58984
922.984	1228.57084
923.161	966.35693
923.338	1351.23884
923.514	1021.33052
923.691	1217.99641
923.868	907.15983
924.045	1069.96443
924.222	1017.10163
924.399	1069.96443
924.575	900.81763
924.752	1061.50614
924.929	957.89985
925.105	1160.89594
925.282	974.81412
925.459	1131.2894
925.635	930.41514
925.812	1239.14535
925.989	934.64348
926.165	1055.16249
926.342	881.79147
926.518	902.93169
926.695	877.56352
926.871	983.27141
927.048	746.51491
927.224	839.51352
927.401	738.06144
927.577	877.56352
927.754	877.56352
927.93	795.1255
928.107	763.42234
928.283	841.62734
928.459	659.87514
928.636	708.47565
928.812	697.90981
928.988	816.26215
929.165	716.92852
929.341	771.8763
929.517	581.70501
929.693	905.04575
929.87	706.36246
930.046	771.8763
930.222	630.29525
930.398	647.19775
930.574	630.29525
930.751	833.17213
930.927	604.94298
931.103	801.4664
931.279	655.64929
931.455	746.51491
931.631	564.80566
931.807	666.21399
931.983	509.88883
932.159	706.36246
932.335	590.155
932.511	611.28088
932.687	520.44902
932.863	645.0849
933.039	522.5611
933.215	463.42832
933.391	435.97783
933.566	480.32222
933.742	520.44902
933.918	469.76342
934.094	488.76953
934.27	488.76953
934.445	509.88883
934.621	444.42385
934.797	421.19789
934.973	302.98769
935.148	364.197
935.324	353.64262
935.5	290.32557
935.675	351.5318
935.851	364.197
936.027	260.78321
936.202	340.97794
936.378	340.97794
936.553	351.5318
936.729	332.53516
936.904	205.9288
937.08	239.6838
937.255	184.83451
937.431	275.55393
937.606	218.58633
937.782	224.91537
937.957	172.17891
938.133	214.36707
938.308	108.91229
938.483	222.80567
938.659	108.91229
938.834	159.52406
939.009	113.12946
939.185	111.02086
939.36	142.6521
939.535	115.23808
939.71	121.56407
939.886	104.6952
940.061	155.30595
940.236	121.56407
940.411	87.82774
940.586	62.52924
940.761	66.74543
940.937	100.4782
941.112	96.26129
941.287	64.63732
941.462	100.4782
941.637	108.91229
941.812	70.96171
941.987	132.10782
942.162	138.43433
942.337	113.12946
942.512	30.91075
942.687	89.9361
942.862	20.37242
943.037	87.82774
943.212	66.74543
943.386	96.26129
943.561	68.85356
943.736	123.67278
943.911	106.80373
944.086	121.56407
944.26	117.34672
944.435	30.91075
944.61	39.34183
944.785	134.21663
944.959	117.34672
945.134	37.23403
945.309	81.50281
945.483	100.4782
945.658	104.6952
945.833	132.10782
946.007	79.39455
946.182	37.23403
946.357	87.82774
946.531	3.51233
946.706	96.26129
946.88	148.97893
947.055	66.74543
947.229	60.42118
947.404	75.17808
947.578	37.23403
947.752	41.44967
947.927	56.20513
948.101	54.09713
948.276	79.39455
948.45	121.56407
948.624	129.99903
948.799	151.08791
948.973	62.52924
949.147	127.89025
949.321	58.31314
949.496	148.97893
949.67	14.04971
949.844	113.12946
950.018	121.56407
950.193	47.77329
950.367	132.10782
950.541	104.6952
950.715	58.31314
950.889	58.31314
951.063	106.80373
951.237	62.52924
951.411	83.6111
951.585	62.52924
951.759	79.39455
951.933	85.71941
952.107	22.48004
952.281	79.39455
952.455	96.26129
952.629	98.36974
952.803	62.52924
952.977	37.23403
953.151	73.06989
953.325	148.97893
953.499	66.74543
953.672	56.20513
953.846	172.17891
954.02	70.96171
954.194	106.80373
954.368	182.72519
954.541	108.91229
954.715	89.9361
954.889	73.06989
955.062	64.63732
955.236	83.6111
955.41	125.7815
955.583	64.63732
955.757	108.91229
955.93	180.61589
956.104	62.52924
956.278	180.61589
956.451	123.67278
956.625	123.67278
956.798	56.20513
956.972	11.94218
957.145	117.34672
957.319	26.69535
957.492	142.6521
957.665	146.86997
957.839	79.39455
958.012	129.99903
958.185	119.45538
958.359	81.50281
958.532	83.6111
958.705	100.4782
958.879	49.88122
959.052	123.67278
959.225	81.50281
959.398	96.26129
959.572	108.91229
959.745	66.74543
959.918	62.52924
960.091	62.52924
960.264	121.56407
960.438	142.6521
960.611	79.39455
960.784	100.4782
960.957	89.9361
961.13	89.9361
961.303	58.31314
961.476	43.55752
961.649	87.82774
961.822	151.08791
961.995	104.6952
962.168	92.04447
962.341	43.55752
962.514	30.91075
962.686	96.26129
962.859	125.7815
963.032	73.06989
963.205	113.12946
963.378	56.20513
963.551	134.21663
963.723	54.09713
963.896	123.67278
964.069	-47.05863
964.242	83.6111
964.414	138.43433
964.587	117.34672
964.76	56.20513
964.932	108.91229
965.105	45.6654
965.278	132.10782
965.45	43.55752
965.623	79.39455
965.795	54.09713
965.968	113.12946
966.14	11.94218
966.313	70.96171
966.485	28.80304
966.658	49.88122
966.83	123.67278
967.003	54.09713
967.175	113.12946
967.348	89.9361
967.52	92.04447
967.692	73.06989
967.865	70.96171
968.037	119.45538
968.209	104.6952
968.382	56.20513
968.554	54.09713
968.726	157.41499
968.898	45.6654
969.071	138.43433
969.243	47.77329
969.415	47.77329
969.587	3.51233
969.759	24.58768
969.932	123.67278
970.104	62.52924
970.276	102.58669
970.448	70.96171
970.62	45.6654
970.792	115.23808
970.964	66.74543
971.136	-4.91714
971.308	83.6111
971.48	58.31314
971.652	89.9361
971.824	28.80304
971.996	30.91075
972.168	45.6654
972.339	68.85356
972.511	96.26129
972.683	70.96171
972.855	22.48004
973.027	28.80304
973.199	89.9361
973.37	47.77329
973.542	125.7815
973.714	33.01848
973.886	62.52924
974.057	37.23403
974.229	-9.13173
974.401	73.06989
974.572	79.39455
974.744	18.26482
974.915	87.82774
975.087	33.01848
975.259	81.50281
975.43	37.23403
975.602	28.80304
975.773	30.91075
975.945	9.83468
976.116	104.6952
976.288	79.39455
976.459	62.52924
976.63	26.69535
976.802	70.96171
976.973	73.06989
977.145	79.39455
977.316	102.58669
977.487	70.96171
977.659	28.80304
977.83	24.58768
978.001	45.6654
978.172	11.94218
978.344	24.58768
978.515	92.04447
978.686	83.6111
978.857	20.37242
979.028	37.23403
979.2	11.94218
979.371	35.12624
979.542	66.74543
979.713	92.04447
979.884	28.80304
980.055	62.52924
980.226	11.94218
980.397	41.44967
980.568	30.91075
980.739	70.96171
980.91	83.6111
981.081	-25.98912
981.252	20.37242
981.423	49.88122
981.594	35.12624
981.765	30.91075
981.936	-11.23899
982.106	106.80373
982.277	20.37242
982.448	58.31314
982.619	39.34183
982.79	115.23808
982.96	100.4782
983.131	70.96171
983.302	7.72721
983.472	43.55752
983.643	-21.77492
983.814	30.91075
983.984	33.01848
984.155	-36.52418
984.326	-30.20322
984.496	-2.80981
984.667	58.31314
984.837	54.09713
985.008	54.09713
985.178	20.37242
985.349	37.23403
985.519	56.20513
985.69	37.23403
985.86	16.15725
986.031	62.52924
986.201	-4.91714
986.371	28.80304
986.542	22.48004
986.712	-30.20322
986.882	66.74543
987.053	-4.91714
987.223	58.31314
987.393	-15.45344
987.563	3.51233
987.734	45.6654
987.904	77.2863
988.074	56.20513
988.244	11.94218
988.414	11.94218
988.585	66.74543
988.755	14.04971
988.925	7.72721
989.095	7.72721
989.265	-7.02445
989.435	83.6111
989.605	56.20513
989.775	3.51233
989.945	113.12946
990.115	-11.23899
990.285	58.31314
990.455	-34.41722
990.625	-2.80981
990.795	73.06989
990.965	-2.80981
991.134	3.51233
991.304	54.09713
991.474	-21.77492
991.644	-23.88203
991.814	33.01848
991.984	-23.88203
992.153	37.23403
992.323	89.9361
992.493	3.51233
992.662	41.44967
992.832	70.96171
993.002	-0.70246
993.171	54.09713
993.341	-9.13173
993.511	37.23403
993.68	30.91075
993.85	-30.20322
994.019	-28.09618
994.189	89.9361
994.358	11.94218
994.528	28.80304
994.697	49.88122
994.867	-11.23899
995.036	37.23403
995.206	-59.69913
995.375	-32.31023
995.544	-13.34623
995.714	92.04447
995.883	56.20513
996.052	14.04971
996.222	49.88122
996.391	35.12624
996.56	96.26129
996.73	14.04971
996.899	81.50281
997.068	37.23403
997.237	5.61975
997.406	51.98916
997.576	45.6654
997.745	47.77329
997.914	37.23403
998.083	83.6111
998.252	-89.19007
998.421	-19.66778
998.59	-44.95179
998.759	-68.12563
998.928	7.72721
999.097	73.06989
999.266	75.17808
999.435	-21.77492
999.604	-30.20322
999.773	-21.77492
999.942	-61.80579
1000.111	-21.77492
1000.28	98.36974
1000.448	-4.91714
1000.617	-2.80981
1000.786	45.6654
1000.955	22.48004
1001.124	-25.98912
1001.292	5.61975
1001.461	18.26482
1001.63	-17.56062
1001.798	-30.20322
1001.967	54.09713
1002.136	-23.88203
1002.304	33.01848
1002.473	-30.20322
1002.642	16.15725
1002.81	-30.20322
1002.979	-25.98912
1003.147	87.82774
1003.316	33.01848
1003.484	125.7815
1003.653	14.04971
1003.821	11.94218
1003.99	-23.88203
1004.158	5.61975
1004.327	11.94218
1004.495	-0.70246
1004.663	24.58768
1004.832	-0.70246
1005	11.94218
1005.168	-21.77492
1005.337	81.50281
1005.505	-15.45344
1005.673	-11.23899
1005.842	30.91075
1006.01	3.51233
1006.178	-21.77492
1006.346	33.01848
1006.514	39.34183
1006.683	64.63732
1006.851	-55.48573
1007.019	-57.59244
1007.187	66.74543
1007.355	26.69535
1007.523	51.98916
1007.691	-23.88203
1007.859	92.04447
1008.027	30.91075
1008.195	11.94218
1008.363	20.37242
1008.531	-17.56062
1008.699	-17.56062
1008.867	26.69535
1009.035	-21.77492
1009.203	-0.70246
1009.37	39.34183
1009.538	14.04971
1009.706	24.58768
1009.874	11.94218
1010.042	54.09713
1010.209	-44.95179
1010.377	-53.37899
1010.545	3.51233
1010.713	-30.20322
1010.88	37.23403
1011.048	-4.91714
1011.216	-7.02445
1011.383	83.6111
1011.551	5.61975
1011.718	11.94218
1011.886	47.77329
1012.054	-38.63112
1012.221	11.94218
1012.389	5.61975
1012.556	22.48004
1012.724	87.82774
1012.891	-38.63112
1013.058	7.72721
1013.226	62.52924
1013.393	33.01848
1013.561	33.01848
1013.728	-42.84492
1013.895	-47.05863
1014.063	-30.20322
1014.23	11.94218
1014.397	-21.77492
1014.565	62.52924
1014.732	-34.41722
1014.899	9.83468
1015.066	-4.91714
1015.233	28.80304
1015.401	-21.77492
1015.568	-25.98912
1015.735	-17.56062
1015.902	-21.77492
1016.069	75.17808
1016.236	-57.59244
1016.403	-13.34623
1016.57	30.91075
1016.737	5.61975
1016.904	-11.23899
1017.071	18.26482
1017.238	20.37242
1017.405	16.15725
1017.572	30.91075
1017.739	54.09713
1017.906	22.48004
1018.073	28.80304
1018.24	-2.80981
1018.407	11.94218
1018.573	-11.23899
1018.74	-25.98912
1018.907	-51.27223
1019.074	9.83468
1019.241	41.44967
1019.407	20.37242
1019.574	3.51233
1019.741	-11.23899
1019.907	7.72721
1020.074	-9.13173
1020.241	-34.41722
1020.407	62.52924
1020.574	7.72721
1020.74	7.72721
1020.907	-30.20322
1021.073	22.48004
1021.24	-11.23899
1021.406	70.96171
1021.573	-51.27223
1021.739	77.2863
1021.906	75.17808
1022.072	-34.41722
1022.239	39.34183
1022.405	7.72721
1022.571	-17.56062
1022.738	96.26129
1022.904	-76.55171
1023.07	66.74543
1023.237	-38.63112
1023.403	60.42118
1023.569	-11.23899
1023.735	-17.56062
1023.902	-17.56062
1024.068	-87.08375
1024.234	-68.12563
1024.4	20.37242
1024.566	30.91075
1024.732	79.39455
1024.898	3.51233
1025.065	-30.20322
1025.231	-17.56062
1025.397	33.01848
1025.563	54.09713
1025.729	30.91075
1025.895	-0.70246
1026.061	7.72721
1026.227	58.31314
1026.392	33.01848
1026.558	-25.98912
1026.724	37.23403
1026.89	-63.91243
1027.056	-9.13173
1027.222	11.94218
1027.388	33.01848
1027.553	3.51233
1027.719	54.09713
1027.885	45.6654
1028.051	-13.34623
1028.216	-36.52418
1028.382	-72.33872
1028.548	16.15725
1028.713	-23.88203
1028.879	-9.13173
1029.045	-28.09618
1029.21	14.04971
1029.376	3.51233
1029.541	16.15725
1029.707	16.15725
1029.873	11.94218
1030.038	20.37242
1030.204	28.80304
1030.369	-28.09618
1030.534	-0.70246
1030.7	30.91075
1030.865	-40.73804
1031.031	37.23403
1031.196	-28.09618
1031.361	60.42118
1031.527	24.58768
1031.692	-28.09618
1031.857	47.77329
1032.023	39.34183
1032.188	-36.52418
1032.353	-61.80579
1032.518	70.96171
1032.684	-28.09618
1032.849	-0.70246
1033.014	-21.77492
1033.179	3.51233
1033.344	16.15725
1033.509	-17.56062
1033.674	70.96171
1033.839	24.58768
1034.004	11.94218
1034.17	-9.13173
1034.335	39.34183
1034.5	-42.84492
1034.664	-87.08375
1034.829	28.80304
1034.994	39.34183
1035.159	11.94218
1035.324	-7.02445
1035.489	7.72721
1035.654	-87.08375
1035.819	-34.41722
1035.984	70.96171
1036.148	-53.37899
1036.313	-23.88203
1036.478	-38.63112
1036.643	37.23403
1036.807	-89.19007
1036.972	87.82774
1037.137	-9.13173
1037.301	-9.13173
1037.466	11.94218
1037.631	-28.09618
1037.795	83.6111
1037.96	5.61975
1038.124	-0.70246
1038.289	-0.70246
1038.454	20.37242
1038.618	20.37242
1038.783	22.48004
1038.947	-82.87101
1039.111	11.94218
1039.276	5.61975
1039.44	123.67278
1039.605	-4.91714
1039.769	-15.45344
1039.933	3.51233
1040.098	-4.91714
1040.262	-2.80981
1040.426	-17.56062
1040.591	56.20513
1040.755	20.37242
1040.919	45.6654
1041.083	-76.55171
1041.248	39.34183
1041.412	-25.98912
1041.576	7.72721
1041.74	-11.23899
1041.904	11.94218
1042.068	-55.48573
1042.232	-19.66778
1042.397	-23.88203
1042.561	41.44967
1042.725	-13.34623
1042.889	18.26482
1043.053	-101.8275
1043.217	3.51233
1043.381	-66.01904
1043.544	-47.05863
1043.708	11.94218
1043.872	5.61975
1044.036	24.58768
1044.2	33.01848
1044.364	37.23403
1044.528	-76.55171
1044.691	28.80304
1044.855	-51.27223
1045.019	3.51233
1045.183	51.98916
1045.346	-72.33872
1045.51	-55.48573
1045.674	11.94218
1045.837	37.23403
1046.001	79.39455
1046.165	-21.77492
1046.328	73.06989
1046.492	49.88122
1046.655	20.37242
1046.819	45.6654
1046.983	-80.7646
1047.146	18.26482
1047.31	20.37242
1047.473	-53.37899
1047.636	24.58768
1047.8	-61.80579
1047.963	28.80304
1048.127	37.23403
1048.29	20.37242
