Data from mixed_try1_USB4F045381__22__00247.txt Node

Date: Thu Apr 03 20:25:39 EDT 2025
User: mmckonesweet
Spectrometer: USB4F04538
Trigger mode: 4
Integration Time (sec): 2.700000E-3
Scans to average: 1
Electric dark correction enabled: true
Nonlinearity correction enabled: true
Boxcar width: 0
XAxis mode: Wavelengths
Number of Pixels in Spectrum: 3648
>>>>>Begin Spectral Data<<<<<
345.52	-108.14586
345.736	-108.14586
345.952	-108.14586
346.168	24.58768
346.384	-57.59244
346.6	-0.70246
346.816	-36.52418
347.032	1.40492
347.248	47.77329
347.464	-25.98912
347.68	16.15725
347.896	-25.98912
348.112	54.09713
348.328	-9.13173
348.544	60.42118
348.76	-82.87101
348.975	1.40492
349.191	-4.91714
349.407	-17.56062
349.623	102.58669
349.839	20.37242
350.055	-28.09618
350.27	58.31314
350.486	14.04971
350.702	-47.05863
350.918	-84.97739
351.133	45.6654
351.349	5.61975
351.565	28.80304
351.781	-28.09618
351.996	-9.13173
352.212	-4.91714
352.428	49.88122
352.644	-47.05863
352.859	24.58768
353.075	-25.98912
353.291	-32.31023
353.506	-11.23899
353.722	3.51233
353.938	1.40492
354.153	-42.84492
354.369	16.15725
354.584	-7.02445
354.8	-38.63112
355.016	-51.27223
355.231	-40.73804
355.447	-25.98912
355.662	66.74543
355.878	-32.31023
356.093	-4.91714
356.309	-49.16544
356.524	-49.16544
356.74	-59.69913
356.955	-0.70246
357.171	60.42118
357.386	-17.56062
357.602	49.88122
357.817	-66.01904
358.033	-38.63112
358.248	-84.97739
358.464	-17.56062
358.679	79.39455
358.895	-25.98912
359.11	24.58768
359.325	-4.91714
359.541	-59.69913
359.756	49.88122
359.972	-17.56062
360.187	11.94218
360.402	-42.84492
360.618	14.04971
360.833	66.74543
361.048	75.17808
361.264	26.69535
361.479	70.96171
361.694	-21.77492
361.909	-23.88203
362.125	-38.63112
362.34	7.72721
362.555	20.37242
362.77	-0.70246
362.986	-53.37899
363.201	35.12624
363.416	37.23403
363.631	-7.02445
363.847	-13.34623
364.062	-49.16544
364.277	54.09713
364.492	66.74543
364.707	11.94218
364.922	18.26482
365.138	-59.69913
365.353	-47.05863
365.568	-17.56062
365.783	-44.95179
365.998	45.6654
366.213	-49.16544
366.428	16.15725
366.643	3.51233
366.858	-74.44523
367.073	-51.27223
367.288	-80.7646
367.503	9.83468
367.718	41.44967
367.933	-4.91714
368.148	-42.84492
368.363	-55.48573
368.578	-70.23219
368.793	-15.45344
369.008	-95.5089
369.223	-7.02445
369.438	-19.66778
369.653	-2.80981
369.868	-40.73804
370.083	-40.73804
370.298	1.40492
370.513	30.91075
370.728	1.40492
370.943	7.72721
371.157	43.55752
371.372	33.01848
371.587	-42.84492
371.802	-21.77492
372.017	-53.37899
372.232	18.26482
372.446	-9.13173
372.661	37.23403
372.876	-32.31023
373.091	-17.56062
373.306	-13.34623
373.52	-25.98912
373.735	18.26482
373.95	1.40492
374.165	-7.02445
374.379	-42.84492
374.594	22.48004
374.809	-38.63112
375.023	-9.13173
375.238	-11.23899
375.453	33.01848
375.667	60.42118
375.882	-7.02445
376.097	28.80304
376.311	49.88122
376.526	-74.44523
376.741	-2.80981
376.955	1.40492
377.17	-70.23219
377.384	-42.84492
377.599	-13.34623
377.813	-23.88203
378.028	-36.52418
378.242	7.72721
378.457	-23.88203
378.672	30.91075
378.886	9.83468
379.101	60.42118
379.315	-2.80981
379.53	66.74543
379.744	26.69535
379.958	-25.98912
380.173	-7.02445
380.387	28.80304
380.602	-49.16544
380.816	41.44967
381.031	11.94218
381.245	-47.05863
381.459	-11.23899
381.674	-21.77492
381.888	-25.98912
382.103	70.96171
382.317	-25.98912
382.531	-55.48573
382.746	1.40492
382.96	-32.31023
383.174	-34.41722
383.388	-21.77492
383.603	26.69535
383.817	-21.77492
384.031	33.01848
384.246	-42.84492
384.46	-25.98912
384.674	7.72721
384.888	26.69535
385.103	-23.88203
385.317	51.98916
385.531	20.37242
385.745	-42.84492
385.959	-17.56062
386.174	28.80304
386.388	54.09713
386.602	5.61975
386.816	-57.59244
387.03	-13.34623
387.244	16.15725
387.458	41.44967
387.672	-25.98912
387.887	16.15725
388.101	7.72721
388.315	16.15725
388.529	-23.88203
388.743	-7.02445
388.957	-7.02445
389.171	7.72721
389.385	-25.98912
389.599	-4.91714
389.813	-34.41722
390.027	-68.12563
390.241	28.80304
390.455	66.74543
390.669	-38.63112
390.883	-15.45344
391.097	51.98916
391.311	-0.70246
391.525	-9.13173
391.738	49.88122
391.952	-0.70246
392.166	-36.52418
392.38	16.15725
392.594	28.80304
392.808	11.94218
393.022	22.48004
393.236	-42.84492
393.449	-2.80981
393.663	-30.20322
393.877	-13.34623
394.091	1.40492
394.305	7.72721
394.518	39.34183
394.732	-49.16544
394.946	-19.66778
395.16	26.69535
395.373	37.23403
395.587	-13.34623
395.801	3.51233
396.015	33.01848
396.228	-23.88203
396.442	-57.59244
396.656	16.15725
396.869	33.01848
397.083	49.88122
397.297	54.09713
397.51	14.04971
397.724	37.23403
397.938	39.34183
398.151	-28.09618
398.365	-34.41722
398.578	-49.16544
398.792	24.58768
399.005	-9.13173
399.219	-13.34623
399.433	9.83468
399.646	54.09713
399.86	33.01848
400.073	16.15725
400.287	7.72721
400.5	-0.70246
400.714	-19.66778
400.927	35.12624
401.141	37.23403
401.354	-59.69913
401.567	-9.13173
401.781	-34.41722
401.994	-25.98912
402.208	-66.01904
402.421	7.72721
402.635	7.72721
402.848	-51.27223
403.061	7.72721
403.275	-17.56062
403.488	-80.7646
403.701	-9.13173
403.915	-25.98912
404.128	62.52924
404.341	-21.77492
404.555	-55.48573
404.768	-49.16544
404.981	-15.45344
405.195	7.72721
405.408	-51.27223
405.621	-13.34623
405.834	-59.69913
406.048	-2.80981
406.261	-47.05863
406.474	-25.98912
406.687	39.34183
406.9	-63.91243
407.114	-57.59244
407.327	58.31314
407.54	-13.34623
407.753	16.15725
407.966	-40.73804
408.179	30.91075
408.392	9.83468
408.605	-7.02445
408.819	-25.98912
409.032	-53.37899
409.245	-19.66778
409.458	22.48004
409.671	9.83468
409.884	-0.70246
410.097	30.91075
410.31	-7.02445
410.523	51.98916
410.736	75.17808
410.949	43.55752
411.162	24.58768
411.375	-38.63112
411.588	-57.59244
411.801	11.94218
412.014	35.12624
412.227	33.01848
412.44	1.40492
412.653	-40.73804
412.865	18.26482
413.078	-2.80981
413.291	-25.98912
413.504	117.34672
413.717	-9.13173
413.93	-13.34623
414.143	33.01848
414.356	-66.01904
414.568	26.69535
414.781	-15.45344
414.994	-34.41722
415.207	-21.77492
415.42	7.72721
415.632	9.83468
415.845	62.52924
416.058	43.55752
416.271	-17.56062
416.483	24.58768
416.696	-11.23899
416.909	33.01848
417.121	66.74543
417.334	-2.80981
417.547	51.98916
417.759	-0.70246
417.972	16.15725
418.185	-30.20322
418.397	41.44967
418.61	-72.33872
418.823	-15.45344
419.035	-23.88203
419.248	-28.09618
419.46	43.55752
419.673	66.74543
419.885	-47.05863
420.098	28.80304
420.311	-76.55171
420.523	7.72721
420.736	35.12624
420.948	24.58768
421.161	9.83468
421.373	33.01848
421.586	-13.34623
421.798	-17.56062
422.01	-17.56062
422.223	-40.73804
422.435	-63.91243
422.648	-47.05863
422.86	3.51233
423.073	-15.45344
423.285	-25.98912
423.497	33.01848
423.71	-30.20322
423.922	-2.80981
424.134	-34.41722
424.347	75.17808
424.559	-28.09618
424.771	-25.98912
424.984	-17.56062
425.196	-59.69913
425.408	70.96171
425.621	-9.13173
425.833	-32.31023
426.045	-7.02445
426.257	-30.20322
426.47	-2.80981
426.682	66.74543
426.894	41.44967
427.106	43.55752
427.318	-0.70246
427.531	1.40492
427.743	-114.46398
427.955	24.58768
428.167	-9.13173
428.379	-13.34623
428.591	66.74543
428.804	-25.98912
429.016	-4.91714
429.228	41.44967
429.44	7.72721
429.652	41.44967
429.864	-23.88203
430.076	-44.95179
430.288	37.23403
430.5	-97.61513
430.712	43.55752
430.924	14.04971
431.136	-38.63112
431.348	-17.56062
431.56	20.37242
431.772	47.77329
431.984	14.04971
432.196	81.50281
432.408	66.74543
432.62	20.37242
432.832	3.51233
433.044	9.83468
433.256	24.58768
433.468	-51.27223
433.679	-0.70246
433.891	-7.02445
434.103	11.94218
434.315	7.72721
434.527	-28.09618
434.739	7.72721
434.95	-23.88203
435.162	-21.77492
435.374	35.12624
435.586	3.51233
435.798	-34.41722
436.009	-21.77492
436.221	-21.77492
436.433	-17.56062
436.645	41.44967
436.856	18.26482
437.068	18.26482
437.28	-66.01904
437.491	41.44967
437.703	-40.73804
437.915	-0.70246
438.126	41.44967
438.338	-11.23899
438.55	49.88122
438.761	-38.63112
438.973	37.23403
439.184	49.88122
439.396	33.01848
439.608	54.09713
439.819	-55.48573
440.031	94.15287
440.242	-51.27223
440.454	41.44967
440.665	-32.31023
440.877	24.58768
441.088	14.04971
441.3	-34.41722
441.511	-0.70246
441.723	1.40492
441.934	-47.05863
442.146	66.74543
442.357	3.51233
442.569	-2.80981
442.78	7.72721
442.991	-21.77492
443.203	-28.09618
443.414	7.72721
443.626	-82.87101
443.837	49.88122
444.048	9.83468
444.26	-40.73804
444.471	-0.70246
444.682	-0.70246
444.894	-25.98912
445.105	-42.84492
445.316	28.80304
445.528	-34.41722
445.739	49.88122
445.95	-9.13173
446.161	9.83468
446.373	-68.12563
446.584	1.40492
446.795	-7.02445
447.006	-15.45344
447.217	-7.02445
447.429	-7.02445
447.64	11.94218
447.851	60.42118
448.062	-25.98912
448.273	-40.73804
448.484	49.88122
448.695	58.31314
448.907	-21.77492
449.118	35.12624
449.329	24.58768
449.54	-51.27223
449.751	-30.20322
449.962	-15.45344
450.173	35.12624
450.384	30.91075
450.595	77.2863
450.806	43.55752
451.017	-38.63112
451.228	104.6952
451.439	11.94218
451.65	-30.20322
451.861	28.80304
452.072	1.40492
452.283	33.01848
452.494	64.63732
452.705	113.12946
452.915	-49.16544
453.126	-0.70246
453.337	22.48004
453.548	35.12624
453.759	33.01848
453.97	33.01848
454.181	49.88122
454.391	85.71941
454.602	66.74543
454.813	24.58768
455.024	60.42118
455.235	3.51233
455.445	-9.13173
455.656	-25.98912
455.867	-59.69913
456.078	33.01848
456.288	-25.98912
456.499	41.44967
456.71	30.91075
456.921	3.51233
457.131	20.37242
457.342	3.51233
457.553	33.01848
457.763	9.83468
457.974	-25.98912
458.184	43.55752
458.395	-34.41722
458.606	108.91229
458.816	5.61975
459.027	94.15287
459.237	7.72721
459.448	-9.13173
459.659	41.44967
459.869	-9.13173
460.08	3.51233
460.29	7.72721
460.501	7.72721
460.711	58.31314
460.922	26.69535
461.132	134.21663
461.343	45.6654
461.553	-34.41722
461.764	7.72721
461.974	49.88122
462.184	-32.31023
462.395	58.31314
462.605	87.82774
462.816	-9.13173
463.026	11.94218
463.236	11.94218
463.447	45.6654
463.657	16.15725
463.867	41.44967
464.078	43.55752
464.288	16.15725
464.498	-9.13173
464.709	-47.05863
464.919	49.88122
465.129	62.52924
465.339	85.71941
465.55	54.09713
465.76	70.96171
465.97	-9.13173
466.18	37.23403
466.391	16.15725
466.601	79.39455
466.811	77.2863
467.021	79.39455
467.231	30.91075
467.441	56.20513
467.651	60.42118
467.862	16.15725
468.072	-0.70246
468.282	43.55752
468.492	7.72721
468.702	49.88122
468.912	20.37242
469.122	49.88122
469.332	1.40492
469.542	73.06989
469.752	161.63315
469.962	113.12946
470.172	64.63732
470.382	49.88122
470.592	60.42118
470.802	49.88122
471.012	37.23403
471.222	26.69535
471.432	60.42118
471.642	33.01848
471.852	33.01848
472.062	66.74543
472.272	43.55752
472.482	30.91075
472.691	83.6111
472.901	96.26129
473.111	26.69535
473.321	96.26129
473.531	70.96171
473.741	68.85356
473.95	66.74543
474.16	85.71941
474.37	87.82774
474.58	115.23808
474.79	121.56407
474.999	106.80373
475.209	134.21663
475.419	210.14789
475.628	96.26129
475.838	100.4782
476.048	193.27198
476.258	155.30595
476.467	92.04447
476.677	176.39736
476.886	100.4782
477.096	117.34672
477.306	159.52406
477.515	104.6952
477.725	159.52406
477.935	129.99903
478.144	108.91229
478.354	151.08791
478.563	167.96055
478.773	199.6003
478.982	184.83451
479.192	254.45319
479.401	222.80567
479.611	182.72519
479.82	277.66411
480.03	237.57397
480.239	246.01343
480.449	144.76102
480.658	302.98769
480.868	302.98769
481.077	186.94385
481.287	222.80567
481.496	220.69599
481.705	279.77431
481.915	378.97385
482.124	319.87153
482.333	347.3102
482.543	273.44377
482.752	349.42099
482.961	302.98769
483.171	389.52924
483.38	298.76691
483.589	404.30748
483.799	395.86267
484.008	362.08609
484.217	364.197
484.426	391.64037
484.636	416.97519
484.845	416.97519
485.054	471.87515
485.263	501.44093
485.472	459.205
485.682	412.75256
485.891	425.42065
486.1	509.88883
486.309	524.6732
486.518	706.36246
486.727	492.99327
486.936	558.46863
487.146	488.76953
487.355	623.95701
487.564	588.04248
487.773	710.58885
487.982	533.12172
488.191	651.4235
488.4	727.49485
488.609	645.0849
488.818	617.61889
489.027	683.11811
489.236	716.92852
489.445	793.01189
489.654	771.8763
489.863	839.51352
490.072	704.24928
490.281	754.96854
490.49	828.94458
490.698	780.33042
490.907	820.48959
491.116	987.5001
491.325	883.90545
491.534	871.22166
491.743	879.67749
491.952	947.32867
492.16	951.55712
492.369	1042.47532
492.578	1004.41511
492.787	1021.33052
492.996	1023.44497
493.204	1148.20733
493.413	1078.42279
493.622	1012.87276
493.831	1152.43685
494.039	1160.89594
494.248	1091.1105
494.457	1249.71993
494.665	1055.16249
494.874	1361.81396
495.083	1220.11129
495.291	1308.93873
495.5	1258.17964
495.709	1323.74369
495.917	1378.73421
496.126	1397.76956
496.335	1325.8587
496.543	1478.14147
496.752	1317.3987
496.96	1507.75213
497.169	1427.38022
497.377	1554.28285
497.586	1342.77877
497.794	1497.1769
498.003	1372.38911
498.211	1492.94681
498.42	1501.40699
498.628	1630.42255
498.837	1448.53074
499.045	1774.23309
499.254	1683.29571
499.462	1748.85587
499.671	1685.4106
499.879	1725.59295
500.087	1651.57201
500.296	1994.14069
500.504	1632.53751
500.713	1624.07767
500.921	1824.98578
501.129	1837.67356
501.338	1698.09988
501.546	1824.98578
501.754	1710.78906
501.962	1924.36859
502.171	1685.4106
502.379	2023.73892
502.587	1981.45535
502.795	2034.30939
503.004	1875.73586
503.212	1926.48299
503.42	1956.08399
503.628	2129.43569
503.837	1886.30843
504.045	2140.00434
504.253	2116.75305
504.461	2154.80011
504.669	1913.7965
504.877	2220.3194
505.085	2167.48189
505.294	2334.42942
505.502	2125.20818
505.71	2437.94905
505.918	2171.70908
506.126	2380.91067
506.334	2239.33959
506.542	2429.49941
506.75	2112.52545
506.958	2528.77164
507.166	2275.26463
507.374	2437.94905
507.582	2391.47391
507.79	2309.074
507.998	2357.67065
508.206	2590.01213
508.414	2448.51087
508.622	2676.57611
508.83	2349.21943
509.037	2585.78897
509.245	2507.65196
509.453	2663.90953
509.661	2600.56982
509.869	2661.79838
510.077	2520.32391
510.285	2742.01275
510.492	2442.17381
510.7	2817.98764
510.908	2611.12721
511.116	2649.13126
511.324	2619.5729
511.531	2547.77837
511.739	2611.12721
511.947	2754.67645
512.155	2630.12974
512.362	2965.66451
512.57	2733.57002
512.778	2602.68133
512.985	2792.66463
513.193	2910.82136
513.401	3003.62694
513.608	2957.22775
513.816	2695.57513
514.024	2771.56063
514.231	2931.91606
514.439	3050.01877
514.646	3033.14988
514.854	3001.51805
515.061	2788.44394
515.269	3123.80843
515.477	3035.25854
515.684	3121.70043
515.892	3123.80843
516.099	2912.9309
516.307	3286.07589
516.514	3208.11544
516.722	3195.47105
516.929	3212.3301
517.136	3239.72379
517.344	3290.28932
517.551	3199.68592
517.759	3361.90697
517.966	3130.13236
518.173	3450.34795
518.381	3475.61103
518.588	3471.40069
518.796	3408.23709
519.003	3641.86043
519.21	3475.61103
519.418	3784.86682
519.625	3458.76926
519.832	3591.36653
520.039	3374.5433
520.247	3564.01117
520.454	3614.51091
520.661	3742.81538
520.868	3551.38456
521.076	3803.78741
521.283	3709.16864
521.49	3829.01239
521.697	3650.27502
521.904	3816.40026
522.112	3753.32897
522.319	3850.03103
522.526	3616.61483
522.733	3942.48933
522.94	3660.79284
523.147	3816.40026
523.354	3582.94983
523.561	4068.50552
523.768	3883.65672
523.975	3877.3523
524.183	3883.65672
524.39	4135.68374
524.597	3984.50292
524.804	4228.01869
525.011	4026.50833
525.218	4290.95074
525.425	4135.68374
525.632	4253.19382
525.838	4043.3082
526.045	4345.47623
526.252	4148.27728
526.459	4219.62629
526.666	4106.2959
526.873	4320.31243
527.08	4013.90757
527.287	4475.43929
527.494	4244.80245
527.701	4452.38747
527.907	4324.50661
528.114	4559.24163
528.321	4427.23699
528.528	4290.95074
528.735	4393.69812
528.941	4682.78509
529.148	4372.73349
529.355	4655.57034
529.562	4353.86347
529.768	4680.69178
529.975	4458.67459
530.182	4575.99784
530.388	4508.96447
530.595	4712.08903
530.802	4517.34488
531.008	4864.81622
531.215	4745.57383
531.422	4718.36787
531.628	4774.86827
531.835	4831.35214
532.042	4601.12948
532.248	4883.6372
532.455	4722.55365
532.661	5107.25502
532.868	4785.3295
533.074	4871.09009
533.281	4766.49888
533.487	5082.18955
533.694	4845.99339
533.9	5215.83337
534.107	5065.47739
534.313	5238.7938
534.52	5184.51915
534.726	5238.7938
534.933	5059.20994
535.139	5140.67044
535.345	5309.7445
535.552	5393.18126
535.758	5207.48343
535.965	5391.0958
536.171	5226.27028
536.377	5459.90362
536.584	5441.14039
536.79	5386.92481
536.996	5441.14039
537.203	5386.92481
537.409	5407.77883
537.615	5574.5264
537.821	5359.81106
538.028	5484.9183
538.234	5553.69119
538.44	5682.83146
538.646	5309.7445
538.853	5549.52387
539.059	5491.17144
539.265	5507.84545
539.471	5466.15761
539.677	5728.63362
539.883	5541.18894
540.09	5849.33003
540.296	5880.5317
540.502	5901.32986
540.708	5782.74873
540.914	5857.65099
541.12	5803.55798
541.326	6163.18481
541.532	5716.14325
541.738	5936.68132
541.944	5786.91077
542.15	6125.79983
542.356	5807.71955
542.562	6065.55246
542.768	5853.49056
542.974	6019.83436
543.18	6023.99102
543.386	6048.92902
543.592	5932.52268
543.798	6206.791
544.004	6190.18034
544.21	6300.19803
544.415	6136.18531
544.621	6206.791
544.827	6023.99102
545.033	6526.25469
545.239	6435.03574
545.445	6275.29413
545.651	6109.18184
545.856	6335.4728
546.062	6408.07608
546.268	6347.92111
546.474	6117.49103
546.679	6312.64872
546.885	6219.24801
547.091	6335.4728
547.297	6073.86362
547.502	6553.19715
547.708	6368.66642
547.914	6555.26949
548.119	6439.18304
548.325	6393.55771
548.531	6627.78665
548.736	6783.08566
548.942	6571.84733
549.147	6586.35174
549.353	6497.23535
549.559	6691.99256
549.764	6613.28548
549.97	6613.28548
550.175	6716.84054
550.381	6996.15388
550.586	6828.61561
550.792	7128.42526
550.997	6894.82133
551.203	6961.00383
551.408	6861.72138
551.614	6996.15388
551.819	6694.06335
552.025	7080.90079
552.23	6774.8063
552.435	6981.68112
552.641	7134.62324
552.846	7303.95728
553.052	6936.18811
553.257	7303.95728
553.462	7178.00345
553.668	7237.89338
553.873	7144.95275
554.078	7332.85316
554.283	7227.56886
554.489	7287.44341
554.694	7384.44228
554.899	7213.1136
555.105	7394.75846
555.31	7258.54077
555.515	7423.6409
555.72	7316.34175
555.925	7332.85316
556.131	7621.57789
556.336	7275.0571
556.541	7398.88479
556.746	7066.43447
556.951	7561.80528
557.156	7289.50772
557.361	7679.2724
557.567	7631.8817
557.772	7644.24557
557.977	7427.76661
558.182	7436.01778
558.387	7638.06373
558.592	7681.33261
558.797	7998.35575
559.002	7930.46353
559.207	7436.01778
559.412	7813.14235
559.617	7642.18498
559.822	8000.41274
560.027	7673.09164
560.232	7652.48773
560.437	7648.36669
560.642	7961.32639
560.847	7864.60728
561.051	7988.07048
561.256	7918.11709
561.461	7996.29874
561.666	7743.12913
561.871	8064.16945
562.076	7745.18869
562.281	8000.41274
562.485	7955.15419
562.69	8107.34843
562.895	7883.13149
563.1	7946.9243
563.305	8199.84505
563.509	8267.65033
563.714	8004.52667
563.919	8388.82472
564.123	7938.69408
564.328	8360.07761
564.533	8208.06502
564.737	8189.56964
564.942	7934.57884
565.147	8444.25489
565.351	8263.54153
565.556	8222.4492
565.761	8230.6683
565.965	8164.90663
566.17	7979.8419
566.374	8146.40749
566.579	8208.06502
566.784	8191.62476
566.988	8464.78103
567.193	8349.80986
567.397	8242.99636
567.602	8436.0439
567.806	8214.22979
568.011	8505.82758
568.215	8321.05759
568.42	8581.74368
568.624	8684.2922
568.828	8641.2275
569.033	8310.78799
569.237	8680.19116
569.442	8544.81475
569.646	8553.02171
569.85	8345.70263
570.055	8876.95887
570.259	8495.56666
570.463	8739.64914
570.668	8470.9385
570.872	8386.77148
571.076	8661.73552
571.281	8567.38316
571.485	8589.94928
571.689	8774.49664
571.893	8772.44693
572.098	8870.81241
572.302	8909.73729
572.506	8977.32839
572.71	8692.49408
572.914	9071.51433
573.119	8784.7449
573.323	9005.99759
573.527	8872.86125
573.731	9108.35968
573.935	8893.34865
574.139	9128.8269
574.343	8774.49664
574.547	8958.89637
574.751	8997.80674
574.955	9083.79673
575.159	8944.55936
575.364	9319.09078
575.568	9116.54677
575.772	9331.3609
575.976	9169.75621
576.18	9120.64022
576.383	9024.42598
576.587	9315.00061
576.791	9083.79673
576.995	9214.77059
577.199	9042.85295
577.403	9091.98466
577.607	9046.94764
577.811	9265.91338
578.015	9337.49573
578.219	9306.82007
578.422	9227.04582
578.626	9378.39084
578.83	9431.5447
579.034	9267.95887
579.238	9494.90614
579.442	9421.32366
579.645	9478.55628
579.849	9668.5608
580.053	9599.11256
580.257	9525.55937
580.46	9548.03613
580.664	9799.23866
580.868	9554.16582
581.071	9619.54038
581.275	9729.82382
581.479	9709.40435
581.682	9682.85674
581.886	9658.34895
582.09	9723.69814
582.293	9805.36266
582.497	9615.45494
582.7	9813.52778
582.904	9819.65147
583.107	9680.81451
583.311	9895.16591
583.515	9887.00317
583.718	9846.18589
583.922	10082.84495
584.125	9650.17919
584.329	9889.04388
584.532	9809.44525
584.735	9758.40852
584.939	9935.97612
585.142	9815.56903
585.346	9909.45015
585.549	10254.09967
585.753	10223.52559
585.956	10044.0951
586.159	10105.27674
586.363	10109.35506
586.566	10207.21816
586.769	10146.05747
586.973	10056.33245
587.176	10231.67898
587.379	10317.27646
587.582	10494.51124
587.786	10037.97624
587.989	10176.63937
588.192	9917.61225
588.395	10488.40133
588.599	10313.20092
588.802	10620.7573
589.005	10205.17967
589.208	10618.72145
589.411	10465.99733
589.615	10486.36466
589.818	10423.22175
590.021	10592.25433
590.224	10197.02558
590.427	10812.07263
590.63	10520.9862
590.833	10398.77599
591.036	10457.85004
591.239	10702.18109
591.442	10435.44392
591.645	10445.62872
591.848	10608.54204
592.051	11029.72075
592.254	10520.9862
592.457	10700.14573
592.66	10360.06634
592.863	10812.07263
593.066	10956.50782
593.269	10824.28067
593.472	10757.1312
593.675	10893.45168
593.878	10759.16622
594.081	10783.58555
594.284	10683.86244
594.486	10997.18345
594.689	10881.246
594.892	10789.69012
595.095	10934.13431
595.298	10962.60945
595.5	10787.65528
595.703	10907.69112
595.906	10891.41743
596.109	11076.48819
596.311	11279.75913
596.514	11109.01866
596.717	11033.78771
596.92	11265.53356
597.122	11165.94039
597.325	11050.05513
597.528	11017.51959
597.73	11265.53356
597.933	11001.25077
598.136	11338.68832
598.338	11025.65374
598.541	11131.38177
598.743	11285.85564
598.946	11310.24081
599.148	11271.63029
599.351	11501.20843
599.554	11255.37213
599.756	11326.49677
599.959	11523.55012
600.161	11462.61553
600.363	11448.39622
600.566	11359.00677
600.768	11692.09213
600.971	11610.87494
601.173	11383.3876
601.376	11970.15562
601.578	11710.36402
601.78	11596.66044
601.983	11493.0839
602.185	11574.32245
602.388	11560.10679
602.59	11582.44549
602.792	11434.17644
602.995	11627.11954
603.197	11574.32245
603.399	11722.54488
603.601	11489.02157
603.804	11681.94077
604.006	11724.575
604.208	11716.45449
604.41	11757.05561
604.613	11700.21306
604.815	11659.60698
605.017	12028.99589
605.219	11537.76696
605.421	11428.0821
605.623	11551.98334
605.826	12006.67795
606.028	11704.27347
606.23	11773.29508
606.432	11629.15007
606.634	12164.9122
606.836	11793.59365
607.038	11891.01491
607.24	11700.21306
607.442	11998.5621
607.644	11748.93567
607.846	12219.6749
608.048	11572.29167
608.25	11700.21306
608.452	11801.71283
608.654	12203.44948
608.856	11994.50413
609.058	11913.33791
609.26	12173.02554
609.462	11953.92264
609.664	12136.5146
609.866	12495.43841
610.067	12254.15239
610.269	12280.51613
610.471	12008.7069
610.673	12148.68518
610.875	12229.81556
611.077	12343.37869
611.278	12059.42791
611.48	12197.36482
611.682	12168.96888
611.884	12314.98998
612.085	11982.33002
612.287	12392.04191
612.489	12002.62004
612.69	12177.08216
612.892	12252.12436
613.094	12418.39952
613.295	12217.64675
613.497	12456.92015
613.699	12239.95603
613.9	12375.82127
614.102	12276.46025
614.304	12533.95434
614.505	12252.12436
614.707	12024.93816
614.908	11919.42583
615.11	12164.9122
615.311	12067.54282
615.513	12430.56419
615.714	12373.79366
615.916	12416.37205
616.117	11917.39653
616.319	12529.90014
616.52	12280.51613
616.722	12410.2896
616.923	12276.46025
617.124	12499.49283
617.326	12185.19531
617.527	12312.96216
617.729	12519.76453
617.93	12531.92724
618.131	12223.73119
618.333	12211.56225
618.534	12613.00621
618.735	12696.102
618.937	12489.35674
619.138	12635.3012
619.339	12718.39429
619.54	12641.38152
619.742	12765.00319
619.943	12602.87189
620.144	12564.36003
620.345	12698.1286
620.546	12359.6002
620.748	12748.79174
620.949	12635.3012
621.15	12738.6594
621.351	12694.07539
621.552	12481.24775
621.753	12448.81074
621.954	12639.35475
622.155	12448.81074
622.356	12627.19402
622.558	12685.96891
622.759	12588.68357
622.96	12239.95603
623.161	12298.76724
623.362	12550.17088
623.563	12641.38152
623.764	12602.87189
623.965	12758.92394
624.166	12467.05676
624.366	12799.4513
624.567	12621.11357
624.768	12704.20837
624.969	12325.12896
625.17	12683.94227
625.371	12442.72862
625.572	12793.37234
625.773	12570.441
625.973	13014.21009
626.174	12923.04614
626.375	12943.3057
626.576	13048.64715
626.777	12941.27976
626.977	12653.542
627.178	12967.61648
627.379	12600.845
627.58	12588.68357
627.78	12744.73882
627.981	12955.46118
628.182	12975.71991
628.382	12854.1597
628.583	12842.00263
628.784	12677.86232
628.984	12363.65551
629.185	12998.00392
629.386	12675.83566
629.586	12894.68188
629.787	12752.84464
629.987	12783.24063
630.188	12943.3057
630.388	13014.21009
630.589	12598.81811
630.79	12967.61648
630.99	12702.18179
631.191	12823.76664
631.391	12884.55154
631.591	12694.07539
631.792	12517.73739
631.992	13083.08279
632.193	13139.7973
632.393	12704.20837
632.594	12856.18586
632.794	13127.6445
632.994	13008.13281
633.195	13156.00078
633.395	13064.85233
633.595	13174.22933
633.796	13226.88754
633.996	13301.8191
634.196	12860.23817
634.397	13186.38149
634.597	13107.38946
634.797	13396.99415
634.997	12868.34271
635.198	12884.55154
635.398	12949.38346
635.598	13153.97536
635.798	13030.41594
635.998	12985.84908
636.199	12998.00392
636.399	13054.72413
636.599	12762.97678
636.799	13052.69847
636.999	13062.8267
637.199	13326.11998
637.399	13318.01975
637.599	13253.21552
637.799	12635.3012
637.999	13467.86347
638.199	13599.46579
638.399	13465.83869
638.599	13382.81971
638.799	13623.75996
638.999	13704.73709
639.199	13623.75996
639.399	13407.11863
639.599	13368.64508
639.799	13186.38149
639.999	13447.61557
640.199	13415.21814
640.399	13413.19327
640.599	12933.17598
640.799	13700.68836
640.998	13498.2346
641.198	13542.77742
641.398	13216.7612
641.598	13482.03676
641.798	13569.09736
641.997	13860.604
642.197	13585.29395
642.397	13621.73547
642.597	13512.40751
642.796	13617.68647
642.996	13591.36762
643.196	13556.94977
643.395	13388.89449
643.595	13990.14299
643.795	13548.85131
643.994	13771.53937
644.194	13727.00489
644.394	13710.81017
644.593	13890.96568
644.793	13919.3027
644.992	13437.49148
645.192	13830.24169
645.392	13670.32245
645.591	13666.27361
645.791	13951.68722
645.99	13589.34306
646.19	13447.61557
646.389	13710.81017
646.589	13783.68488
646.788	13787.73336
646.987	13453.68998
647.187	13670.32245
647.386	13603.51485
647.586	13998.23883
647.785	13826.19333
647.984	13809.99979
648.184	13971.92722
648.383	13692.59085
648.582	13830.24169
648.782	14081.21891
648.981	13848.45915
649.18	13963.83125
649.38	13892.98977
649.579	14271.45203
649.778	13710.81017
649.977	14012.40644
650.177	13641.98028
650.376	13988.11903
650.575	13720.93189
650.774	13878.82109
650.973	14079.19505
651.173	14071.0996
651.372	14054.90858
651.571	14352.39714
651.77	13917.27864
651.969	14184.43274
652.168	13753.3209
652.367	14293.71221
652.566	14097.40969
652.765	14069.07573
652.964	14372.63299
653.163	14077.17119
653.362	14089.31432
653.561	14160.14764
653.76	14202.64638
653.959	14228.95468
654.158	14133.83843
654.357	14119.67178
654.556	14050.8608
654.755	14220.85986
654.954	14075.14733
655.153	14281.57032
655.352	14226.93098
655.551	14263.35736
655.749	14315.97218
655.948	14135.86223
656.147	14267.4047
656.346	14176.33774
656.545	14145.98118
656.743	13945.61518
656.942	14241.09687
657.141	14435.36313
657.34	14046.81302
657.538	14350.37355
657.737	14340.25555
657.936	14269.42836
658.135	13773.56363
658.333	14152.05253
658.532	13895.01386
658.731	14141.93361
658.929	14105.50503
659.128	14301.80677
659.326	14063.00411
659.525	14439.41018
659.724	13994.19091
659.922	14550.70203
660.121	14322.04305
660.319	14336.20834
660.518	14473.80992
660.716	14358.46791
660.915	14392.86868
661.113	14443.45723
661.312	13870.72463
661.51	14295.73586
661.709	14402.98647
661.907	14402.98647
662.105	14388.82156
662.304	14718.64475
662.502	14255.26266
662.701	14396.9158
662.899	13961.80725
663.097	14285.61763
663.296	14411.08067
663.494	14714.59802
663.692	14479.88042
663.891	14716.62139
664.089	14152.05253
664.287	14720.66812
664.485	14445.48076
664.684	14801.60203
664.882	14597.24112
665.08	14463.69239
665.278	14287.64128
665.476	14445.48076
665.675	14253.23898
665.873	14305.85404
666.071	14467.73941
666.269	14303.83041
666.467	14002.28673
666.665	14568.91305
666.863	13988.11903
667.061	14384.77443
667.259	14510.23274
667.457	14487.9744
667.655	14249.19162
667.853	14269.42836
668.051	14141.93361
668.249	14188.48023
668.447	14251.2153
668.645	14518.32664
668.843	14577.00681
669.041	14710.55128
669.239	14048.83691
669.437	14299.78314
669.635	14479.88042
669.833	14797.55537
670.031	14562.84272
670.229	14526.42052
670.426	14498.09185
670.624	14664.01356
670.822	14730.78493
671.02	14761.13523
671.218	14892.65136
671.415	14744.94843
671.613	14898.72127
671.811	14508.20926
672.009	14568.91305
672.206	14528.44398
672.404	14259.31001
672.602	14504.1623
672.799	14220.85986
672.997	14433.3396
673.195	14338.23194
673.392	14627.59237
673.59	14489.99789
673.788	14405.01002
673.985	14593.19427
674.183	14607.35823
674.38	14485.95091
674.578	14498.09185
674.775	14291.68857
674.973	14309.90131
675.17	14374.65657
675.368	14585.10055
675.565	14081.21891
675.763	14277.52301
675.96	14364.53867
676.158	14386.79799
676.355	14239.07318
676.553	14696.38768
676.75	14018.47824
676.947	14556.77238
677.145	14680.20065
677.342	14536.53784
677.539	14512.25621
677.737	14807.67203
677.934	14350.37355
678.131	14651.8732
678.329	14135.86223
678.526	14394.89224
678.723	14613.42848
678.92	14492.02138
679.118	14376.68014
679.315	14552.72548
679.512	14259.31001
679.709	14500.11533
679.906	13998.23883
680.104	14022.5261
680.301	13799.87873
680.498	14109.55268
680.695	13982.04712
680.892	14303.83041
681.089	14069.07573
681.286	14160.14764
681.483	13882.8693
681.68	14342.27915
681.877	14398.93936
682.075	14455.59835
682.272	13795.83029
682.469	14285.61763
682.665	13654.127
682.862	13787.73336
683.059	14097.40969
683.256	14012.40644
683.453	13953.71123
683.65	14101.45736
683.847	14423.22193
684.044	14253.23898
684.241	13994.19091
684.438	14101.45736
684.635	13860.604
684.831	14407.03357
685.028	14222.88357
685.225	14415.12776
685.422	14184.43274
685.619	14101.45736
685.815	14143.9574
686.012	14020.50217
686.209	13729.02922
686.405	14315.97218
686.602	14069.07573
686.799	14123.71941
686.996	14048.83691
687.192	14002.28673
687.389	13803.92716
687.586	14115.62415
687.782	14083.24277
687.979	14184.43274
688.175	13858.57987
688.372	14107.52886
688.568	13763.4423
688.765	14182.409
688.962	13757.36947
689.158	14034.6696
689.355	14206.69383
689.551	14152.05253
689.748	13939.54311
689.944	14101.45736
690.14	14028.59786
690.337	14077.17119
690.533	13838.33837
690.73	13994.19091
690.926	14156.10009
691.123	13696.63961
691.319	13771.53937
691.515	13941.56713
691.712	13818.09658
691.908	13868.70051
692.104	13755.34519
692.301	13718.90755
692.497	13399.01905
692.693	13767.49084
692.889	13641.98028
693.086	13892.98977
693.282	13951.68722
693.478	13984.07109
693.674	13971.92722
693.87	14119.67178
694.067	14192.52771
694.263	13749.27232
694.459	13965.85524
694.655	14099.43353
694.851	13840.36253
695.047	13809.99979
695.243	14006.33462
695.439	13635.90687
695.635	13449.64038
695.831	13882.8693
696.027	13629.83343
696.224	13437.49148
696.42	13567.07277
696.615	13892.98977
696.811	13516.45688
697.007	13905.13426
697.203	13301.8191
697.399	13204.60944
697.595	13508.35812
697.791	13569.09736
697.987	13429.39214
698.183	13773.56363
698.379	13554.92516
698.575	13731.05354
698.77	13639.95581
698.966	13427.3673
699.162	13453.68998
699.358	13846.435
699.554	13591.36762
699.749	13633.88239
699.945	13585.29395
700.141	13844.41085
700.337	13842.38669
700.532	13777.61214
700.728	13370.67004
700.924	13492.16044
701.119	13475.96252
701.315	13376.74489
701.511	13372.69499
701.706	13892.98977
701.902	13708.78581
702.097	13890.96568
702.293	13554.92516
702.489	13633.88239
702.684	13686.51769
702.88	13322.06987
703.075	13344.34524
703.271	13097.26177
703.466	13587.31851
703.662	13591.36762
703.857	13356.49523
704.053	13243.08946
704.248	13322.06987
704.443	13295.74379
704.639	13429.39214
704.834	13477.98727
705.03	13469.88823
705.225	13552.90055
705.42	13143.8482
705.616	13239.03901
705.811	13427.3673
706.006	13518.48156
706.202	13265.36665
706.397	13356.49523
706.592	13234.98854
706.787	13459.76435
706.983	13702.71273
707.178	13621.73547
707.373	13433.44182
707.568	13356.49523
707.763	13170.17857
707.959	13289.66844
708.154	12989.90071
708.349	13407.11863
708.544	13558.97438
708.739	13743.19942
708.934	13299.794
709.129	13631.85792
709.324	13386.86957
709.519	13850.4833
709.714	13230.93805
709.909	13654.127
710.104	13477.98727
710.299	13346.37025
710.494	13350.42025
710.689	13160.0516
710.884	13469.88823
711.079	13658.17589
711.274	13196.50817
711.469	13538.72815
711.664	13275.49247
711.859	13595.41671
712.054	13072.9548
712.249	13190.43218
712.443	12971.6682
712.638	13386.86957
712.833	12837.95022
713.028	13492.16044
713.223	13253.21552
713.417	13502.28402
713.612	13261.31629
713.807	13224.86228
714.002	13046.62148
714.196	13275.49247
714.391	12949.38346
714.586	12955.46118
714.78	12720.42083
714.975	12981.79743
715.17	13077.00601
715.364	13151.94994
715.559	13070.92919
715.754	13022.31306
715.948	13064.85233
716.143	13087.13395
716.337	12953.43528
716.532	12989.90071
716.726	12876.44717
716.921	12783.24063
717.115	12580.57582
717.31	12580.57582
717.504	12708.26152
717.699	12898.73398
717.893	12700.1552
718.088	12813.63535
718.282	12886.57762
718.476	12651.51527
718.671	12590.71049
718.865	12621.11357
719.059	12736.63292
719.254	12732.57993
719.448	12704.20837
719.642	12892.65583
719.837	12454.89281
720.031	12665.70227
720.225	12521.79166
720.419	12971.6682
720.614	12939.25383
720.808	13259.2911
721.002	12977.74575
721.196	13208.66004
721.39	12521.79166
721.585	12876.44717
721.779	12864.29045
721.973	13040.54444
722.167	12690.02216
722.361	12991.92652
722.555	12929.12406
722.749	12588.68357
722.943	12341.35097
723.137	12487.3295
723.331	12613.00621
723.525	12673.809
723.719	12718.39429
723.913	12785.26698
724.107	12292.6836
724.301	12424.48188
724.495	12351.4895
724.689	12448.81074
724.883	12148.68518
725.077	12568.41402
725.271	12637.32798
725.465	12574.49495
725.659	12377.84887
725.853	12491.38397
726.046	12505.57441
726.24	12337.29551
726.434	12264.29243
726.628	12572.46798
726.822	12341.35097
727.015	12769.05599
727.209	12341.35097
727.403	12629.22082
727.596	12495.43841
727.79	12600.845
727.984	12458.94749
728.177	12787.29333
728.371	12495.43841
728.565	12696.102
728.758	12969.64234
728.952	12442.72862
729.146	12483.275
729.339	12633.27441
729.533	12361.62786
729.726	12775.13515
729.92	12572.46798
730.113	12513.68309
730.307	12694.07539
730.5	12588.68357
730.694	12434.61902
730.887	12633.27441
731.081	12600.845
731.274	12694.07539
731.468	12252.12436
731.661	12592.7374
731.854	12067.54282
732.048	12256.18041
732.241	12503.54722
732.435	12556.25198
732.628	12568.41402
732.821	12809.58279
733.014	12487.3295
733.208	12410.2896
733.401	12515.71024
733.594	12509.62876
733.788	12454.89281
733.981	12501.52003
734.174	12463.00214
734.367	12442.72862
734.56	12406.23461
734.754	12554.22496
734.947	12578.54887
735.14	12108.11553
735.333	12473.13865
735.526	12325.12896
735.719	12223.73119
735.912	12250.09632
736.105	12256.18041
736.298	12268.3484
736.491	12000.59108
736.684	12353.51718
736.877	12430.56419
737.07	12049.2841
737.263	12089.85819
737.456	12310.93433
737.649	12219.6749
737.842	12357.57253
738.035	12369.73842
738.228	12412.31709
738.421	12341.35097
738.614	12288.6278
738.807	12361.62786
739	12302.82297
739.192	12150.71359
739.385	12292.6836
739.578	11937.68914
739.771	12290.65571
739.964	12197.36482
740.156	12312.96216
740.349	11933.63068
740.542	11988.41711
740.735	11943.77676
740.927	11901.16185
741.12	11716.45449
741.313	12142.59993
741.505	11996.53312
741.698	12016.82259
741.891	12006.67795
742.083	11874.77938
742.276	12209.53407
742.468	11913.33791
742.661	12361.62786
742.854	12244.01217
743.046	12235.89986
743.239	12057.39917
743.431	12081.74362
743.624	11947.83513
743.816	12063.48538
744.009	11886.95608
744.201	11874.77938
744.393	12020.88039
744.586	12079.71496
744.778	11830.1289
744.971	11757.05561
745.163	11937.68914
745.355	11765.17542
745.548	11710.36402
745.74	11740.81558
745.932	11815.92107
746.125	11919.42583
746.317	12471.11136
746.509	11872.7499
746.702	11842.30671
746.894	12026.96703
747.086	12071.60023
747.278	11992.47513
747.471	11966.09742
747.663	11763.14548
747.855	11939.71835
748.047	11949.86431
748.239	11878.83831
748.431	11649.45491
748.623	11564.16845
748.815	11470.74064
749.008	12081.74362
749.2	11921.45512
749.392	11852.45465
749.584	11192.36551
749.776	11673.81952
749.968	11588.53766
750.16	11610.87494
750.352	11706.30366
750.544	11726.6051
750.736	11783.44447
750.928	11708.33385
751.12	11826.06956
751.311	11657.57659
751.503	11809.83188
751.695	11681.94077
751.887	11421.98768
752.079	11509.33281
752.271	11430.11356
752.463	11629.15007
752.654	11273.66251
752.846	11318.36887
753.038	11300.0805
753.23	11428.0821
753.421	11556.04508
753.613	11499.17731
753.805	11661.63737
753.997	11537.76696
754.188	11497.14618
754.38	11724.575
754.572	11385.41927
754.763	11856.51377
754.955	11539.7979
755.146	11673.81952
755.338	11815.92107
755.53	11525.58112
755.721	11669.75884
755.913	11647.42446
756.104	11245.21045
756.296	11452.45893
756.487	11551.98334
756.679	11582.44549
756.87	11521.5191
757.062	11257.40444
757.253	11375.26082
757.445	11350.87951
757.636	11448.39622
757.827	11267.56581
758.019	11407.76701
758.21	11190.33287
758.401	11125.28287
758.593	11139.51349
758.784	11037.85463
758.975	11182.20221
759.167	10903.62276
759.358	11050.05513
759.549	11109.01866
759.74	11216.75635
759.932	11359.00677
760.123	11245.21045
760.314	11302.11258
760.505	11226.91876
760.696	11220.82135
760.888	11005.31804
761.079	11070.38841
761.27	11381.35592
761.461	11263.50129
761.652	11041.92151
761.843	10895.48592
762.034	10858.86785
762.225	10734.74517
762.416	10930.06625
762.607	10759.16622
762.798	10976.84619
762.989	10818.1767
763.18	11216.75635
763.371	10726.60444
763.562	10712.35769
763.753	10624.82895
763.944	10826.3153
764.135	10832.41913
764.326	11048.02174
764.517	11041.92151
764.708	10923.96408
764.899	10716.42825
765.089	10968.71098
765.28	10765.27121
765.471	10765.27121
765.662	10588.18228
765.853	10472.10767
766.043	10555.60407
766.234	10580.03802
766.425	10329.50274
766.615	10431.36992
766.806	10343.76612
766.997	10264.29035
767.187	10164.40698
767.378	10392.66425
767.569	10339.69094
767.759	10333.57806
767.95	10353.95386
768.141	10180.71672
768.331	10044.0951
768.522	10154.21295
768.712	10125.6678
768.903	10048.17427
769.093	10003.30024
769.284	10035.93658
769.474	10137.90177
769.665	10141.97965
769.855	10009.41983
770.046	10278.55673
770.236	10088.96288
770.426	10270.40459
770.617	10264.29035
770.807	10115.47245
770.998	9917.61225
771.188	10070.60871
771.378	9940.05682
771.569	10211.2951
771.759	9970.66021
771.949	9976.7805
772.139	10005.34012
772.33	10162.36821
772.52	10040.01587
772.71	10009.41983
772.9	9821.69267
773.09	9878.84018
773.281	9970.66021
773.471	10072.64812
773.661	10205.17967
773.851	9933.93575
774.041	9831.89844
774.231	10082.84495
774.421	9789.03169
774.611	9819.65147
774.802	9427.45633
774.992	9682.85674
775.182	9537.81966
775.372	9707.36232
775.562	9719.61427
775.752	9968.62009
775.942	9494.90614
776.131	9815.56903
776.321	9321.13584
776.511	9568.46788
776.701	9772.69976
776.891	9480.60007
777.081	9548.03613
777.271	9746.1583
777.461	9715.53035
777.651	9627.71107
777.84	9648.13671
778.03	9454.02956
778.22	9541.90629
778.41	9613.4122
778.599	9664.4761
778.789	9599.11256
778.979	9404.96915
779.169	9417.23513
779.358	9435.633
779.548	9517.38552
779.738	9317.04571
779.927	9566.42478
780.117	9519.42901
780.307	9415.19084
780.496	9321.13584
780.686	9419.2794
780.875	8971.18454
781.065	9537.81966
781.254	9141.10641
781.444	9265.91338
781.633	9038.75819
781.823	9051.04226
782.012	9175.89502
782.202	9398.83594
782.391	9155.43173
782.581	9282.27685
782.77	9329.31592
782.96	9126.78026
783.149	8862.61687
783.338	9214.77059
783.528	9053.08955
783.717	9051.04226
783.906	8889.25132
784.096	8969.13656
784.285	9034.66336
784.474	9169.75621
784.663	9036.71079
784.853	9186.12603
785.042	8858.519
785.231	9098.12542
785.42	8950.7039
785.61	8905.64024
785.799	8788.84408
785.988	8622.76869
786.177	8460.67596
786.366	8610.46197
786.555	8809.33887
786.744	8842.12678
786.933	8448.36027
787.122	8733.49903
787.312	8653.53254
787.501	8616.61541
787.69	8425.77973
787.879	8813.43761
788.068	8442.20217
788.257	8807.28947
788.445	8794.99271
788.634	9141.10641
788.823	8501.72327
789.012	8928.17314
789.201	8690.44364
789.39	8661.73552
789.579	8319.00371
789.768	8657.63407
789.957	8446.30759
790.145	8427.8326
790.334	8594.05197
790.523	8585.84652
790.712	8501.72327
790.9	8546.86652
791.089	8347.75626
791.278	8386.77148
791.467	8421.67393
791.655	8259.43266
791.844	8312.84195
792.033	8185.45934
792.221	8405.24994
792.41	8538.65934
792.599	8132.01815
792.787	8329.27291
792.976	8234.77773
793.164	8296.40973
793.353	8088.84424
793.541	8273.81339
793.73	8247.10555
793.918	8220.39438
794.107	7971.61299
794.295	8123.79523
794.484	7901.65402
794.672	7914.00145
794.861	8033.32186
795.049	8068.28211
795.238	8088.84424
795.426	8203.95507
795.614	7988.07048
795.803	8043.6049
795.991	7942.80923
796.179	8331.3267
796.368	8175.18323
796.556	8218.33954
796.744	8025.09507
796.932	7860.49056
797.121	7683.3928
797.309	7848.13991
797.497	7741.06955
797.685	8002.46972
797.874	7681.33261
798.062	7899.59604
798.25	7522.63415
798.438	7794.61179
798.626	7584.47976
798.814	7689.57324
799.002	7650.42722
799.19	7788.43456
799.378	7557.68237
799.566	7761.66439
799.755	7673.09164
799.943	8031.2652
800.131	7903.71197
800.318	7897.53805
800.506	7774.02029
800.694	7734.89069
800.882	7662.78995
801.07	7905.76991
801.258	7398.88479
801.446	7782.25714
801.634	7318.40575
801.822	7514.38661
802.01	7553.55937
802.197	7951.03928
802.385	7514.38661
802.573	7728.71164
802.761	7301.89312
802.949	7621.57789
803.136	7308.08552
803.324	7648.36669
803.512	7578.29607
803.699	7549.43629
803.887	7471.08138
804.075	7815.20119
804.262	7539.1282
804.45	7809.02459
804.638	7477.26842
804.825	7794.61179
805.013	7671.03134
805.201	7642.18498
805.388	7512.32468
805.576	7833.72988
805.763	7831.67122
805.951	7757.54559
806.138	7817.26002
806.326	7953.09675
806.513	7763.72376
806.701	7755.48616
806.888	7605.09068
807.075	7794.61179
807.263	7547.37471
807.45	7928.40584
807.638	7646.30614
807.825	7747.24822
808.012	7656.60868
808.2	7590.66326
808.387	7677.21217
808.574	7815.20119
808.761	7351.42681
808.949	7600.96867
809.136	7530.88135
809.323	7763.72376
809.51	7600.96867
809.698	7854.31533
809.885	7504.07671
810.072	7751.36723
810.259	7866.66561
810.446	7897.53805
810.633	7792.55273
810.82	8016.86795
811.008	8000.41274
811.195	7835.78852
811.382	7708.11343
811.569	7932.5212
811.756	7510.26272
811.943	7924.2904
812.13	7739.00995
812.317	7988.07048
812.504	7796.67082
812.691	8146.40749
812.878	7996.29874
813.064	8232.72303
813.251	8189.56964
813.438	8029.20851
813.625	7749.30774
813.812	7817.26002
813.999	7755.48616
814.186	7835.78852
814.372	7526.7578
814.559	7844.02287
814.746	7493.76626
814.933	7899.59604
815.12	7563.8667
815.306	7736.95033
815.493	7757.54559
815.68	7946.9243
815.866	7409.20021
816.053	7722.53239
816.24	7423.6409
816.426	7689.57324
816.613	7464.89414
816.799	7638.06373
816.986	7444.2686
817.173	7862.54893
817.359	7345.23579
817.546	7627.76024
817.732	7598.90763
817.919	7572.11218
818.105	7270.92815
818.292	7625.69948
818.478	7621.57789
818.665	7456.64418
818.851	7856.37376
819.037	7782.25714
819.224	7751.36723
819.41	7819.31883
819.597	7716.35296
819.783	7706.05349
819.969	7607.15166
820.156	7891.36393
820.342	7603.02969
820.528	7464.89414
820.714	7365.87176
820.901	7452.51907
821.087	7192.46135
821.273	7598.90763
821.459	7369.9987
821.646	7621.57789
821.832	7582.41855
822.018	7526.7578
822.204	7268.86364
822.39	7464.89414
822.576	7027.16322
822.762	7248.21735
822.948	7068.50116
823.134	7293.63628
823.32	6965.13947
823.507	7033.36448
823.693	7324.59763
823.879	7264.73456
824.065	7134.62324
824.25	7023.02894
824.436	7336.98079
824.622	7175.93795
824.808	7287.44341
824.994	7242.02303
825.18	7134.62324
825.366	7299.82894
825.552	7260.60539
825.738	7407.13717
825.923	7010.62554
826.109	7398.88479
826.295	7283.31473
826.481	7136.68918
826.667	7128.42526
826.852	7293.63628
827.038	7018.89456
827.224	7322.53369
827.409	7198.65725
827.595	7336.98079
827.781	7363.80827
827.966	7328.72544
828.152	7068.50116
828.338	7068.50116
828.523	6929.98367
828.709	7208.98332
828.894	6617.42879
829.08	6851.37646
829.266	6642.2867
829.451	7012.69282
829.637	6863.7903
829.822	7045.7664
830.008	6689.92175
830.193	6979.61349
830.378	6600.85501
830.564	6861.72138
830.749	6731.33366
830.935	6845.16923
831.12	6575.99156
831.305	6903.09541
831.491	6582.20774
831.676	6781.01586
831.861	6491.01633
832.047	6716.84054
832.232	6766.52658
832.417	6855.51449
832.602	6488.94328
832.788	6565.63081
832.973	6604.99859
833.158	6737.54466
833.343	6658.85679
833.528	6789.29494
833.714	6625.71513
833.899	6778.94603
834.084	6505.52706
834.269	6609.14208
834.454	6592.56756
834.639	6596.71133
834.824	6472.35802
835.009	6468.21147
835.194	6416.37178
835.379	6600.85501
835.564	6227.55222
835.749	6708.55825
835.934	6381.11248
836.119	6629.85816
836.304	6173.56818
836.489	6242.08368
836.674	6237.93195
836.859	6298.12283
837.044	6397.70593
837.228	6335.4728
837.413	6202.63848
837.598	6347.92111
837.783	6123.72267
837.968	6302.2732
838.152	6165.26153
838.337	6248.31109
838.522	6075.94135
838.707	6325.09857
838.891	5926.28454
839.076	6152.80086
839.261	6115.41377
839.445	6065.55246
839.63	6011.52075
839.815	6071.78587
839.999	5899.25015
840.184	6513.81839
840.368	6119.56826
840.553	6349.99574
840.737	6192.25675
840.922	6264.9165
841.106	6215.09577
841.291	6235.85605
841.475	6134.10826
841.66	6401.85406
841.844	6038.5386
842.029	6034.38226
842.213	5826.44543
842.397	5942.91911
842.582	5757.77451
842.766	5803.55798
842.951	5828.52597
843.135	5901.32986
843.319	5753.61181
843.504	5849.33003
843.688	5691.15997
843.872	5664.09091
844.056	5591.19286
844.241	5920.04619
844.425	5470.32682
844.609	5616.18974
844.793	5736.96006
844.977	5701.57009
845.161	5468.24223
845.346	5759.85582
845.53	5591.19286
845.714	5734.87849
845.898	5468.24223
846.082	5499.50863
846.266	5368.15417
846.45	5797.31545
846.634	5459.90362
846.818	5587.02639
847.002	5526.6019
847.186	5753.61181
847.37	5576.60979
847.554	5549.52387
847.738	5416.11979
847.922	5503.67709
848.106	5351.46757
848.29	5320.17615
848.473	4998.61391
848.657	5182.43135
848.841	5155.28782
849.025	5140.67044
849.209	4933.8174
849.392	5167.81609
849.576	5057.12075
849.76	5161.55206
849.944	5174.07992
850.127	5357.72522
850.311	5000.70376
850.495	5224.18294
850.678	4814.61791
850.862	5253.4035
851.046	5048.76374
851.229	5380.66814
851.413	4956.81224
851.596	5149.02337
851.78	4866.90753
851.964	5307.6581
852.147	4958.90255
852.331	5040.40636
852.514	4866.90753
852.698	5023.69049
852.881	4716.27494
853.065	5025.78005
853.248	5065.47739
853.431	5174.07992
853.615	4873.18133
853.798	5073.83365
853.982	4718.36787
854.165	5032.04861
854.348	4885.7283
854.532	5048.76374
854.715	4751.85158
854.898	4889.91045
855.081	4789.51383
855.265	5044.58509
855.448	4632.53952
855.631	4864.81622
855.814	4580.18667
855.997	4756.03664
856.181	4649.28948
856.364	4835.53547
856.547	4657.66392
856.73	4508.96447
856.913	4697.43761
857.096	4737.20317
857.279	4582.28105
857.462	4582.28105
857.645	4540.38919
857.828	4596.9411
858.011	4596.9411
858.194	4684.87838
858.377	4286.75587
858.56	4500.58371
858.743	4355.96022
858.926	4622.07007
859.109	4332.89472
859.292	4527.8199
859.475	4146.17841
859.658	4500.58371
859.841	4328.70071
860.023	4435.62083
860.206	4125.18855
860.389	4366.44368
860.572	4034.90843
860.755	4345.47623
860.937	4087.40155
861.12	4274.17075
861.303	4221.72442
861.486	4429.33298
861.668	4034.90843
861.851	4299.34023
862.034	4177.65924
862.216	4362.25036
862.399	4068.50552
862.581	4284.65841
862.764	4062.20647
862.947	4565.52537
863.129	4251.09601
863.312	4303.53484
863.494	4030.70842
863.677	4276.26832
863.859	4190.25025
864.042	4005.50665
864.224	4037.0084
864.406	4085.30208
864.589	3866.84452
864.771	4028.60839
864.954	3847.92926
865.136	3917.27729
865.318	3711.27171
865.501	3919.37841
865.683	3765.94464
865.865	3875.25078
866.048	3753.32897
866.23	3936.1866
866.412	3608.19903
866.594	3707.06556
866.777	3715.47778
866.959	3803.78741
867.141	3719.68378
867.323	3847.92926
867.505	3734.40416
867.687	3816.40026
867.869	3555.59351
868.052	3692.34342
868.234	3526.12935
868.416	3742.81538
868.598	3658.68931
868.78	3580.84561
868.962	3557.69795
869.144	3639.75673
869.326	3467.19029
869.508	3681.82704
869.69	3414.55418
869.872	3791.17386
870.054	3547.17554
870.236	3625.03033
870.417	3513.50076
870.599	3589.26238
870.781	3347.16379
870.963	3606.09503
871.145	3456.66396
871.327	3519.81514
871.508	3218.65197
871.69	3589.26238
871.872	3481.92639
872.054	3589.26238
872.235	3414.55418
872.417	3490.34662
872.599	3252.36609
872.78	3566.11554
872.962	3456.66396
873.144	3311.3554
873.325	3258.687
873.507	3509.29108
873.689	3290.28932
873.87	3610.30301
874.052	3412.4485
874.233	3393.49662
874.415	3243.93796
874.596	3391.39076
874.778	3294.50267
874.959	3547.17554
875.141	3321.8878
875.322	3456.66396
875.503	3305.03575
875.685	3420.8711
875.866	3246.04502
876.048	3431.39895
876.229	3370.33126
876.41	3328.20703
876.592	3237.61669
876.773	3526.12935
876.954	3178.61095
877.136	3511.39593
877.317	3193.3636
877.498	3549.28006
877.679	3220.75923
877.86	3664.99983
878.042	3431.39895
878.223	3370.33126
878.404	3345.05756
878.585	3505.08133
878.766	3416.65983
878.947	3614.51091
879.128	3509.29108
879.309	3444.03178
879.49	3572.42854
879.672	3585.05404
879.853	3410.34281
880.034	3467.19029
880.215	3500.8715
880.396	3557.69795
880.576	3614.51091
880.757	3601.88698
880.938	3269.22153
881.119	3582.94983
881.3	3319.78135
881.481	3599.78293
881.662	3311.3554
881.843	3545.07101
882.023	3210.22278
882.204	3465.08506
882.385	3454.55864
882.566	3505.08133
882.747	3456.66396
882.927	3591.36653
883.108	3395.60245
883.289	3387.179
883.469	3357.69472
883.65	3555.59351
883.831	3307.14232
884.011	3578.74137
884.192	3144.88762
884.373	3719.68378
884.553	3458.76926
884.734	3591.36653
884.914	3551.38456
885.095	3547.17554
885.275	3302.92917
885.456	3660.79284
885.636	3420.8711
885.817	3664.99983
885.997	3542.96645
886.178	3673.41359
886.358	3330.31341
886.538	3597.67886
886.719	3477.71617
886.899	3450.34795
887.08	3542.96645
887.26	3597.67886
887.44	3490.34662
887.621	3795.37846
887.801	3454.55864
887.981	3656.58577
888.161	3572.42854
888.342	3694.44664
888.522	3589.26238
888.702	3719.68378
888.882	3399.81407
889.062	3496.6616
889.242	3498.76656
889.423	3395.60245
889.603	3460.87455
889.783	3664.99983
889.963	3364.01307
890.143	3589.26238
890.323	3589.26238
890.503	3490.34662
890.683	3399.81407
890.863	3452.45331
891.043	3349.27002
891.223	3669.20674
891.403	3252.36609
891.583	3387.179
891.763	3113.26824
891.943	3286.07589
892.122	3505.08133
892.302	3538.75729
892.482	3406.13136
892.662	3345.05756
892.842	3201.79332
893.022	3395.60245
893.201	3142.77977
893.381	3479.82129
893.561	3431.39895
893.741	3484.03148
893.92	3111.16015
894.1	3235.50956
894.28	3210.22278
894.459	3269.22153
894.639	3106.94393
894.819	3260.79394
894.998	3275.54204
895.178	3168.07286
895.357	3087.97015
895.537	3094.29489
895.716	2959.33696
895.896	3153.31884
896.075	2963.55534
896.255	3096.4031
896.434	3031.0412
896.614	3102.72765
896.793	3037.36719
896.973	3271.32839
897.152	2919.25942
897.331	3302.92917
897.511	3062.6698
897.69	3201.79332
897.87	2898.16385
898.049	2938.24418
898.228	2953.00928
898.407	3132.2403
898.587	2950.90003
898.766	3033.14988
898.945	2860.18819
899.124	2953.00928
899.304	2855.96839
899.483	3220.75923
899.662	2754.67645
899.841	2750.45527
900.02	2484.419
900.199	2883.39609
900.378	2632.24107
900.557	2974.10103
900.737	2712.46227
900.916	2581.56576
901.095	2647.02003
901.274	2782.1128
901.453	2385.136
901.632	2659.68723
901.811	2526.65973
901.989	2904.49267
902.168	2448.51087
902.347	2841.19864
902.526	2630.12974
902.705	2815.87746
902.884	2680.79821
903.063	2691.35322
903.242	2526.65973
903.42	2583.67737
903.599	2323.86483
903.778	2532.99544
903.957	2351.33225
904.135	2444.28618
904.314	2349.21943
904.493	2528.77164
904.672	2273.15147
904.85	2342.88092
905.029	2116.75305
905.207	2167.48189
905.386	2222.43279
905.565	2082.93136
905.743	1920.13977
905.922	2106.18398
906.1	1820.75648
906.279	2011.05412
906.457	1640.99731
906.636	2082.93136
906.814	1767.88883
906.993	1928.59738
907.171	1765.77408
907.35	1964.54121
907.528	1478.14147
907.707	1835.55894
907.885	1782.69204
908.063	1776.34783
908.242	1717.1336
908.42	1795.38034
908.598	1547.93778
908.777	1858.81948
908.955	1691.75525
909.133	1892.65191
909.311	1884.19393
909.49	1818.64183
909.668	1596.58297
909.846	1958.19831
910.024	1746.74107
910.202	1932.82616
910.38	1791.15092
910.559	1803.83912
910.737	1594.46798
910.915	1805.95381
911.093	1605.04292
911.271	1943.39799
911.449	1704.44448
911.627	1824.98578
911.805	1588.123
911.983	1662.14664
912.161	1715.01876
912.339	1748.85587
912.517	1666.37647
912.695	1890.53742
912.872	1624.07767
913.05	1846.13198
913.228	1801.72443
913.406	1712.90391
913.584	1647.34213
913.762	1676.95101
913.939	1528.90252
914.117	1814.41251
914.295	1664.26156
914.473	1812.29784
914.65	1503.52204
914.828	1750.97066
915.006	1613.50283
915.184	1693.87013
915.361	1590.238
915.539	1951.85535
915.716	1600.81295
915.894	1892.65191
916.072	1607.1579
916.249	1693.87013
916.427	1533.13258
916.604	1723.47812
916.782	1471.79631
916.959	1613.50283
917.137	1522.55741
917.314	1778.46257
917.492	1446.41569
917.669	1537.36265
917.847	1437.95548
918.024	1478.14147
918.201	1486.60167
918.379	1520.44237
918.556	1429.49528
918.733	1691.75525
918.911	1338.54874
919.088	1495.06186
919.265	1325.8587
919.442	1541.59271
919.62	1277.21415
919.797	1287.78895
919.974	1226.45595
920.151	1446.41569
920.328	1304.70876
920.506	1588.123
920.683	1298.36382
920.86	1397.76956
921.037	1279.3291
921.214	1448.53074
921.391	1241.26026
921.568	1435.84043
921.745	1279.3291
921.922	1427.38022
922.099	1173.58471
922.276	1327.9737
922.453	1198.96263
922.63	1298.36382
922.807	1129.17468
922.984	1317.3987
923.161	1065.73527
923.338	1088.99587
923.514	1141.86307
923.691	1205.3072
923.868	1169.3551
924.045	1247.60501
924.222	1082.65201
924.399	1163.01073
924.575	1114.37177
924.752	1101.68373
924.929	1105.91306
925.105	1296.24884
925.282	953.67136
925.459	1105.91306
925.635	1021.33052
925.812	1175.69951
925.989	1012.87276
926.165	1046.70436
926.342	896.58954
926.518	1072.07901
926.695	957.89985
926.871	1133.40413
927.048	843.74116
927.224	930.41514
927.401	744.40153
927.577	909.27391
927.754	801.4664
927.93	915.6162
928.107	712.70206
928.283	896.58954
928.459	822.60332
928.636	803.58005
928.812	759.19542
928.988	776.10334
929.165	793.01189
929.341	919.84443
929.517	744.40153
929.693	778.21687
929.87	676.77897
930.046	812.03474
930.222	691.57044
930.398	793.01189
930.574	585.92998
930.751	642.97205
930.927	681.00505
931.103	744.40153
931.279	585.92998
931.455	719.04176
931.631	556.35631
931.807	626.06974
931.983	615.5062
932.159	759.19542
932.335	539.45826
932.511	710.58885
932.687	592.26753
932.863	607.0556
933.039	512.00084
933.215	731.72145
933.391	598.60519
933.566	607.0556
933.742	480.32222
933.918	454.98174
934.094	550.01944
934.27	590.155
934.445	397.97385
934.621	473.9869
934.797	429.64347
934.973	362.08609
935.148	330.42451
935.324	387.41813
935.5	351.5318
935.675	395.86267
935.851	326.20327
936.027	328.31388
936.202	381.08489
936.378	406.41873
936.553	385.30703
936.729	372.64081
936.904	148.97893
937.08	292.43587
937.255	167.96055
937.431	227.02509
937.606	157.41499
937.782	227.02509
937.957	191.16258
938.133	231.24458
938.308	163.74226
938.483	237.57397
938.659	121.56407
938.834	117.34672
939.009	117.34672
939.185	115.23808
939.36	172.17891
939.535	146.86997
939.71	159.52406
939.886	201.70978
940.061	138.43433
940.236	155.30595
940.411	151.08791
940.586	92.04447
940.761	127.89025
940.937	125.7815
941.112	108.91229
941.287	132.10782
941.462	81.50281
941.637	138.43433
941.812	83.6111
941.987	108.91229
942.162	106.80373
942.337	123.67278
942.512	62.52924
942.687	100.4782
942.862	77.2863
943.037	47.77329
943.212	30.91075
943.386	119.45538
943.561	75.17808
943.736	98.36974
943.911	117.34672
944.086	77.2863
944.26	24.58768
944.435	41.44967
944.61	68.85356
944.785	58.31314
944.959	121.56407
945.134	33.01848
945.309	106.80373
945.483	117.34672
945.658	94.15287
945.833	100.4782
946.007	89.9361
946.182	51.98916
946.357	155.30595
946.531	77.2863
946.706	104.6952
946.88	11.94218
947.055	83.6111
947.229	98.36974
947.404	102.58669
947.578	85.71941
947.752	108.91229
947.927	89.9361
948.101	24.58768
948.276	77.2863
948.45	79.39455
948.624	94.15287
948.799	117.34672
948.973	73.06989
949.147	77.2863
949.321	127.89025
949.496	58.31314
949.67	58.31314
949.844	68.85356
950.018	75.17808
950.193	136.32547
950.367	96.26129
950.541	75.17808
950.715	45.6654
950.889	167.96055
951.063	113.12946
951.237	100.4782
951.411	127.89025
951.585	66.74543
951.759	33.01848
951.933	111.02086
952.107	115.23808
952.281	96.26129
952.455	117.34672
952.629	11.94218
952.803	83.6111
952.977	96.26129
953.151	89.9361
953.325	66.74543
953.499	102.58669
953.672	104.6952
953.846	70.96171
954.02	66.74543
954.194	92.04447
954.368	85.71941
954.541	70.96171
954.715	106.80373
954.889	163.74226
955.062	108.91229
955.236	83.6111
955.41	79.39455
955.583	140.5432
955.757	87.82774
955.93	111.02086
956.104	37.23403
956.278	113.12946
956.451	60.42118
956.625	85.71941
956.798	18.26482
956.972	108.91229
957.145	75.17808
957.319	111.02086
957.492	136.32547
957.665	121.56407
957.839	151.08791
958.012	79.39455
958.185	123.67278
958.359	134.21663
958.532	1.40492
958.705	60.42118
958.879	125.7815
959.052	85.71941
959.225	113.12946
959.398	108.91229
959.572	92.04447
959.745	111.02086
959.918	77.2863
960.091	26.69535
960.264	117.34672
960.438	75.17808
960.611	33.01848
960.784	134.21663
960.957	54.09713
961.13	54.09713
961.303	68.85356
961.476	102.58669
961.649	102.58669
961.822	79.39455
961.995	127.89025
962.168	83.6111
962.341	49.88122
962.514	66.74543
962.686	33.01848
962.859	129.99903
963.032	-9.13173
963.205	49.88122
963.378	73.06989
963.551	75.17808
963.723	33.01848
963.896	108.91229
964.069	62.52924
964.242	70.96171
964.414	75.17808
964.587	62.52924
964.76	16.15725
964.932	75.17808
965.105	104.6952
965.278	24.58768
965.45	58.31314
965.623	28.80304
965.795	104.6952
965.968	58.31314
966.14	20.37242
966.313	68.85356
966.485	66.74543
966.658	33.01848
966.83	70.96171
967.003	96.26129
967.175	85.71941
967.348	45.6654
967.52	20.37242
967.692	96.26129
967.865	159.52406
968.037	83.6111
968.209	62.52924
968.382	41.44967
968.554	87.82774
968.726	41.44967
968.898	83.6111
969.071	87.82774
969.243	79.39455
969.415	-13.34623
969.587	33.01848
969.759	75.17808
969.932	96.26129
970.104	11.94218
970.276	117.34672
970.448	45.6654
970.62	49.88122
970.792	20.37242
970.964	106.80373
971.136	81.50281
971.308	92.04447
971.48	85.71941
971.652	96.26129
971.824	75.17808
971.996	108.91229
972.168	75.17808
972.339	16.15725
972.511	24.58768
972.683	16.15725
972.855	70.96171
973.027	45.6654
973.199	9.83468
973.37	66.74543
973.542	54.09713
973.714	73.06989
973.886	28.80304
974.057	66.74543
974.229	49.88122
974.401	60.42118
974.572	96.26129
974.744	83.6111
974.915	16.15725
975.087	39.34183
975.259	-34.41722
975.43	7.72721
975.602	33.01848
975.773	117.34672
975.945	16.15725
976.116	92.04447
976.288	43.55752
976.459	66.74543
976.63	66.74543
976.802	87.82774
976.973	7.72721
977.145	16.15725
977.316	58.31314
977.487	75.17808
977.659	49.88122
977.83	100.4782
978.001	37.23403
978.172	62.52924
978.344	121.56407
978.515	89.9361
978.686	39.34183
978.857	68.85356
979.028	-11.23899
979.2	-15.45344
979.371	49.88122
979.542	-38.63112
979.713	64.63732
979.884	60.42118
980.055	-0.70246
980.226	24.58768
980.397	-0.70246
980.568	117.34672
980.739	11.94218
980.91	37.23403
981.081	92.04447
981.252	79.39455
981.423	121.56407
981.594	127.89025
981.765	73.06989
981.936	-51.27223
982.106	24.58768
982.277	35.12624
982.448	-25.98912
982.619	33.01848
982.79	54.09713
982.96	98.36974
983.131	24.58768
983.302	28.80304
983.472	26.69535
983.643	70.96171
983.814	108.91229
983.984	54.09713
984.155	-13.34623
984.326	14.04971
984.496	-7.02445
984.667	75.17808
984.837	-17.56062
985.008	58.31314
985.178	7.72721
985.349	24.58768
985.519	-47.05863
985.69	33.01848
985.86	87.82774
986.031	108.91229
986.201	7.72721
986.371	62.52924
986.542	-13.34623
986.712	58.31314
986.882	24.58768
987.053	-9.13173
987.223	18.26482
987.393	24.58768
987.563	41.44967
987.734	58.31314
987.904	-0.70246
988.074	18.26482
988.244	62.52924
988.414	-0.70246
988.585	-63.91243
988.755	-13.34623
988.925	66.74543
989.095	26.69535
989.265	66.74543
989.435	37.23403
989.605	51.98916
989.775	26.69535
989.945	-13.34623
990.115	64.63732
990.285	83.6111
990.455	20.37242
990.625	22.48004
990.795	37.23403
990.965	41.44967
991.134	-11.23899
991.304	11.94218
991.474	33.01848
991.644	-15.45344
991.814	-9.13173
991.984	24.58768
992.153	7.72721
992.323	7.72721
992.493	-25.98912
992.662	-17.56062
992.832	33.01848
993.002	83.6111
993.171	18.26482
993.341	18.26482
993.511	49.88122
993.68	45.6654
993.85	33.01848
994.019	7.72721
994.189	24.58768
994.358	26.69535
994.528	54.09713
994.697	-7.02445
994.867	49.88122
995.036	28.80304
995.206	49.88122
995.375	-23.88203
995.544	-59.69913
995.714	-15.45344
995.883	49.88122
996.052	75.17808
996.222	94.15287
996.391	41.44967
996.56	14.04971
996.73	-9.13173
996.899	33.01848
997.068	41.44967
997.237	-42.84492
997.406	33.01848
997.576	43.55752
997.745	20.37242
997.914	33.01848
998.083	20.37242
998.252	20.37242
998.421	-0.70246
998.59	-57.59244
998.759	-40.73804
998.928	11.94218
999.097	26.69535
999.266	1.40492
999.435	-19.66778
999.604	-40.73804
999.773	-9.13173
999.942	14.04971
1000.111	47.77329
1000.28	30.91075
1000.448	-0.70246
1000.617	16.15725
1000.786	7.72721
1000.955	-9.13173
1001.124	-9.13173
1001.292	83.6111
1001.461	30.91075
1001.63	-25.98912
1001.798	1.40492
1001.967	-93.40265
1002.136	33.01848
1002.304	-21.77492
1002.473	85.71941
1002.642	-0.70246
1002.81	24.58768
1002.979	28.80304
1003.147	-0.70246
1003.316	14.04971
1003.484	33.01848
1003.653	-15.45344
1003.821	102.58669
1003.99	-51.27223
1004.158	20.37242
1004.327	-42.84492
1004.495	37.23403
1004.663	35.12624
1004.832	16.15725
1005	-32.31023
1005.168	14.04971
1005.337	41.44967
1005.505	-0.70246
1005.673	43.55752
1005.842	35.12624
1006.01	70.96171
1006.178	-28.09618
1006.346	-0.70246
1006.514	20.37242
1006.683	-34.41722
1006.851	14.04971
1007.019	58.31314
1007.187	-13.34623
1007.355	20.37242
1007.523	-4.91714
1007.691	11.94218
1007.859	-32.31023
1008.027	-34.41722
1008.195	-80.7646
1008.363	33.01848
1008.531	43.55752
1008.699	-9.13173
1008.867	33.01848
1009.035	58.31314
1009.203	3.51233
1009.37	-72.33872
1009.538	3.51233
1009.706	37.23403
1009.874	33.01848
1010.042	43.55752
1010.209	14.04971
1010.377	58.31314
1010.545	7.72721
1010.713	-15.45344
1010.88	14.04971
1011.048	26.69535
1011.216	41.44967
1011.383	18.26482
1011.551	24.58768
1011.718	94.15287
1011.886	35.12624
1012.054	-25.98912
1012.221	-9.13173
1012.389	-19.66778
1012.556	-42.84492
1012.724	37.23403
1012.891	-7.02445
1013.058	39.34183
1013.226	37.23403
1013.393	-21.77492
1013.561	9.83468
1013.728	-9.13173
1013.895	-30.20322
1014.063	-30.20322
1014.23	83.6111
1014.397	33.01848
1014.565	5.61975
1014.732	-76.55171
1014.899	79.39455
1015.066	-2.80981
1015.233	-9.13173
1015.401	-2.80981
1015.568	28.80304
1015.735	58.31314
1015.902	-34.41722
1016.069	-57.59244
1016.236	3.51233
1016.403	-82.87101
1016.57	-76.55171
1016.737	24.58768
1016.904	-0.70246
1017.071	-72.33872
1017.238	-82.87101
1017.405	-51.27223
1017.572	45.6654
1017.739	-59.69913
1017.906	-0.70246
1018.073	-76.55171
1018.24	20.37242
1018.407	3.51233
1018.573	-25.98912
1018.74	-25.98912
1018.907	-36.52418
1019.074	-17.56062
1019.241	3.51233
1019.407	24.58768
1019.574	49.88122
1019.741	-0.70246
1019.907	-30.20322
1020.074	-25.98912
1020.241	41.44967
1020.407	3.51233
1020.574	-34.41722
1020.74	16.15725
1020.907	-25.98912
1021.073	14.04971
1021.24	-80.7646
1021.406	-11.23899
1021.573	-17.56062
1021.739	-23.88203
1021.906	20.37242
1022.072	43.55752
1022.239	-0.70246
1022.405	9.83468
1022.571	-9.13173
1022.738	-61.80579
1022.904	-15.45344
1023.07	-25.98912
1023.237	-9.13173
1023.403	-9.13173
1023.569	-40.73804
1023.735	-9.13173
1023.902	-13.34623
1024.068	37.23403
1024.234	33.01848
1024.4	20.37242
1024.566	24.58768
1024.732	41.44967
1024.898	7.72721
1025.065	-42.84492
1025.231	-51.27223
1025.397	-36.52418
1025.563	-55.48573
1025.729	18.26482
1025.895	-13.34623
1026.061	-30.20322
1026.227	-34.41722
1026.392	3.51233
1026.558	-15.45344
1026.724	28.80304
1026.89	-47.05863
1027.056	-11.23899
1027.222	9.83468
1027.388	14.04971
1027.553	-23.88203
1027.719	16.15725
1027.885	58.31314
1028.051	33.01848
1028.216	24.58768
1028.382	18.26482
1028.548	-55.48573
1028.713	16.15725
1028.879	-4.91714
1029.045	20.37242
1029.21	24.58768
1029.376	-4.91714
1029.541	-9.13173
1029.707	68.85356
1029.873	-42.84492
1030.038	-7.02445
1030.204	-23.88203
1030.369	-32.31023
1030.534	-21.77492
1030.7	49.88122
1030.865	-93.40265
1031.031	26.69535
1031.196	20.37242
1031.361	-13.34623
1031.527	-17.56062
1031.692	16.15725
1031.857	-17.56062
1032.023	35.12624
1032.188	-0.70246
1032.353	-19.66778
1032.518	24.58768
1032.684	-47.05863
1032.849	9.83468
1033.014	16.15725
1033.179	-9.13173
1033.344	20.37242
1033.509	-55.48573
1033.674	-30.20322
1033.839	20.37242
1034.004	-15.45344
1034.17	-36.52418
1034.335	26.69535
1034.5	-19.66778
1034.664	83.6111
1034.829	-21.77492
1034.994	37.23403
1035.159	-4.91714
1035.324	3.51233
1035.489	-0.70246
1035.654	37.23403
1035.819	-61.80579
1035.984	-49.16544
1036.148	-51.27223
1036.313	26.69535
1036.478	-80.7646
1036.643	-34.41722
1036.807	-15.45344
1036.972	7.72721
1037.137	51.98916
1037.301	-15.45344
1037.466	-0.70246
1037.631	7.72721
1037.795	-23.88203
1037.96	-21.77492
1038.124	-72.33872
1038.289	-13.34623
1038.454	22.48004
1038.618	-23.88203
1038.783	-38.63112
1038.947	30.91075
1039.111	22.48004
1039.276	-7.02445
1039.44	-19.66778
1039.605	79.39455
1039.769	-44.95179
1039.933	-30.20322
1040.098	9.83468
1040.262	30.91075
1040.426	26.69535
1040.591	-19.66778
1040.755	1.40492
1040.919	16.15725
1041.083	11.94218
1041.248	-23.88203
1041.412	41.44967
1041.576	18.26482
1041.74	-25.98912
1041.904	-4.91714
1042.068	7.72721
1042.232	22.48004
1042.397	-32.31023
1042.561	-84.97739
1042.725	-25.98912
1042.889	-2.80981
1043.053	-42.84492
1043.217	18.26482
1043.381	56.20513
1043.544	5.61975
1043.708	3.51233
1043.872	-23.88203
1044.036	-55.48573
1044.2	-17.56062
1044.364	58.31314
1044.528	3.51233
1044.691	-66.01904
1044.855	39.34183
1045.019	1.40492
1045.183	-0.70246
1045.346	-57.59244
1045.51	-42.84492
1045.674	3.51233
1045.837	35.12624
1046.001	-36.52418
1046.165	-13.34623
1046.328	-7.02445
1046.492	-63.91243
1046.655	-47.05863
1046.819	-51.27223
1046.983	83.6111
1047.146	33.01848
1047.31	-59.69913
1047.473	-25.98912
1047.636	-13.34623
1047.8	-32.31023
1047.963	-17.56062
1048.127	1.40492
1048.29	-13.34623
