Data from mixed_try1_USB4F045381__26__00251.txt Node

Date: Thu Apr 03 20:25:53 EDT 2025
User: mmckonesweet
Spectrometer: USB4F04538
Trigger mode: 4
Integration Time (sec): 2.700000E-3
Scans to average: 1
Electric dark correction enabled: true
Nonlinearity correction enabled: true
Boxcar width: 0
XAxis mode: Wavelengths
Number of Pixels in Spectrum: 3648
>>>>>Begin Spectral Data<<<<<
345.52	27.39791
345.736	27.39791
345.952	27.39791
346.168	14.75222
346.384	54.79979
346.6	71.66443
346.816	-14.75104
347.032	-42.14263
347.248	37.93663
347.464	12.64469
347.68	27.39791
347.896	2.10739
348.112	-31.6079
348.328	0
348.544	-27.39383
348.76	-12.64382
348.975	-23.17966
349.191	16.85977
349.407	0
349.623	-71.63655
349.839	10.53718
350.055	-33.71489
350.27	42.15228
350.486	29.5056
350.702	-37.92881
350.918	-48.46317
351.133	-56.89021
351.349	-8.42931
351.565	-16.85823
351.781	16.85977
351.996	16.85977
352.212	-69.53
352.428	-40.03573
352.644	-33.71489
352.859	-23.17966
353.075	12.64469
353.291	16.85977
353.506	0
353.722	-16.85823
353.938	-14.75104
354.153	-42.14263
354.369	25.29023
354.584	-46.35635
354.8	-14.75104
355.016	25.29023
355.231	-27.39383
355.447	2.10739
355.662	-8.42931
355.878	10.53718
356.093	-31.6079
356.309	-12.64382
356.524	25.29023
356.74	6.32224
356.955	0
357.171	10.53718
357.386	-6.32202
357.602	-8.42931
357.817	-8.42931
358.033	0
358.248	84.31387
358.464	-29.50088
358.679	-35.82187
358.895	16.85977
359.11	46.36803
359.325	-12.64382
359.541	2.10739
359.756	54.79979
359.972	-42.14263
360.187	-54.78349
360.402	56.90779
360.618	16.85977
360.833	21.07496
361.048	0
361.264	10.53718
361.479	29.5056
361.694	-33.71489
361.909	4.2148
362.125	-113.76198
362.34	54.79979
362.555	-29.50088
362.77	73.77262
362.986	-67.42343
363.201	42.15228
363.416	8.4297
363.631	25.29023
363.847	-67.42343
364.062	0
364.277	25.29023
364.492	21.07496
364.707	16.85977
364.922	14.75222
365.138	-12.64382
365.353	16.85977
365.568	-88.48797
365.783	21.07496
365.998	16.85977
366.213	16.85977
366.428	88.53052
366.643	-29.50088
366.858	-29.50088
367.073	75.88082
367.288	-4.2147
367.503	14.75222
367.718	-10.53658
367.933	27.39791
368.148	-33.71489
368.363	25.29023
368.578	-31.6079
368.793	2.10739
369.008	10.53718
369.223	80.0973
369.438	-63.21022
369.653	-4.2147
369.868	14.75222
370.083	37.93663
370.298	25.29023
370.513	44.26014
370.728	-25.28676
370.943	2.10739
371.157	12.64469
371.372	8.4297
371.587	-50.56997
371.802	-37.92881
372.017	-23.17966
372.232	16.85977
372.446	-21.07254
372.661	2.10739
372.876	16.85977
373.091	33.72107
373.306	-73.74306
373.52	29.5056
373.735	-58.9969
373.95	-16.85823
374.165	8.4297
374.379	50.58386
374.594	-67.42343
374.809	-18.9654
375.023	50.58386
375.238	2.10739
375.453	-14.75104
375.667	2.10739
375.882	-48.46317
376.097	12.64469
376.311	-31.6079
376.526	-27.39383
376.741	-37.92881
376.955	16.85977
377.17	-31.6079
377.384	-33.71489
377.599	-71.63655
377.813	0
378.028	44.26014
378.242	10.53718
378.457	33.72107
378.672	-25.28676
378.886	16.85977
379.101	42.15228
379.315	27.39791
379.53	21.07496
379.744	27.39791
379.958	-50.56997
380.173	21.07496
380.387	-16.85823
380.602	16.85977
380.816	-88.48797
381.031	33.72107
381.245	-10.53658
381.459	52.69182
381.674	33.72107
381.888	-67.42343
382.103	-8.42931
382.317	8.4297
382.531	-92.70056
382.746	16.85977
382.96	12.64469
383.174	-4.2147
383.388	0
383.603	84.31387
383.817	10.53718
384.031	-37.92881
384.246	71.66443
384.46	37.93663
384.674	25.29023
384.888	-69.53
385.103	-14.75104
385.317	-42.14263
385.531	12.64469
385.745	-14.75104
385.959	10.53718
386.174	8.4297
386.388	12.64469
386.602	-25.28676
386.816	16.85977
387.03	50.58386
387.244	-27.39383
387.458	-37.92881
387.672	-8.42931
387.887	-33.71489
388.101	-69.53
388.315	-14.75104
388.529	-14.75104
388.743	-40.03573
388.957	44.26014
389.171	33.72107
389.385	42.15228
389.599	-21.07254
389.813	25.29023
390.027	-8.42931
390.241	27.39791
390.455	-31.6079
390.669	-46.35635
390.883	2.10739
391.097	40.04444
391.311	-21.07254
391.525	44.26014
391.738	27.39791
391.952	-42.14263
392.166	18.96735
392.38	4.2148
392.594	31.61332
392.808	50.58386
393.022	-42.14263
393.236	-8.42931
393.449	-16.85823
393.663	-42.14263
393.877	16.85977
394.091	25.29023
394.305	8.4297
394.518	8.4297
394.732	42.15228
394.946	-65.31684
395.16	2.10739
395.373	14.75222
395.587	-33.71489
395.801	44.26014
396.015	-4.2147
396.228	77.98905
396.442	-6.32202
396.656	16.85977
396.869	37.93663
397.083	35.82884
397.297	31.61332
397.51	8.4297
397.724	8.4297
397.938	-40.03573
398.151	65.34002
398.365	-6.32202
398.578	42.15228
398.792	29.5056
399.005	25.29023
399.219	37.93663
399.433	-4.2147
399.646	54.79979
399.86	54.79979
400.073	67.44814
400.287	-77.95602
400.5	0
400.714	86.42218
400.927	-23.17966
401.141	-31.6079
401.354	0
401.567	-27.39383
401.781	-35.82187
401.994	-8.42931
402.208	-71.63655
402.421	18.96735
402.635	-4.2147
402.848	12.64469
403.061	-4.2147
403.275	-44.2495
403.488	67.44814
403.701	44.26014
403.915	-58.9969
404.128	25.29023
404.341	-21.07254
404.555	92.74727
404.768	-88.48797
404.981	25.29023
405.195	61.12386
405.408	21.07496
405.621	37.93663
405.834	-8.42931
406.048	50.58386
406.261	2.10739
406.474	-10.53658
406.687	56.90779
406.9	-33.71489
407.114	-16.85823
407.327	16.85977
407.54	-61.10358
407.753	46.36803
407.966	-12.64382
408.179	-6.32202
408.392	31.61332
408.605	-21.07254
408.819	-80.06246
409.032	-40.03573
409.245	-8.42931
409.458	-33.71489
409.671	-21.07254
409.884	23.18258
410.097	-4.2147
410.31	-58.9969
410.523	0
410.736	2.10739
410.949	109.61514
411.162	29.5056
411.375	25.29023
411.588	67.44814
411.801	67.44814
412.014	6.32224
412.227	-27.39383
412.44	6.32224
412.653	27.39791
412.865	33.72107
413.078	2.10739
413.291	-23.17966
413.504	61.12386
413.717	2.10739
413.93	-16.85823
414.143	-54.78349
414.356	-14.75104
414.568	33.72107
414.781	35.82884
414.994	8.4297
415.207	25.29023
415.42	-37.92881
415.632	-44.2495
415.845	-75.84956
416.058	-21.07254
416.271	6.32224
416.483	12.64469
416.696	18.96735
416.909	-23.17966
417.121	-65.31684
417.334	-25.28676
417.547	52.69182
417.759	-33.71489
417.972	29.5056
418.185	35.82884
418.397	75.88082
418.61	-33.71489
418.823	2.10739
419.035	44.26014
419.248	67.44814
419.46	-37.92881
419.673	4.2148
419.885	-31.6079
420.098	16.85977
420.311	92.74727
420.523	-16.85823
420.736	-25.28676
420.948	-6.32202
421.161	8.4297
421.373	16.85977
421.586	35.82884
421.798	8.4297
422.01	-12.64382
422.223	-31.6079
422.435	-80.06246
422.648	-16.85823
422.86	-10.53658
423.073	-6.32202
423.285	-2.10736
423.497	-44.2495
423.71	25.29023
423.922	-29.50088
424.134	8.4297
424.347	8.4297
424.559	33.72107
424.771	0
424.984	46.36803
425.196	113.83233
425.408	27.39791
425.621	18.96735
425.833	-18.9654
426.045	-25.28676
426.257	33.72107
426.47	-23.17966
426.682	-37.92881
426.894	2.10739
427.106	-23.17966
427.318	-16.85823
427.531	61.12386
427.743	-14.75104
427.955	-6.32202
428.167	52.69182
428.379	33.72107
428.591	27.39791
428.804	42.15228
429.016	-31.6079
429.228	50.58386
429.44	14.75222
429.652	-16.85823
429.864	80.0973
430.076	-29.50088
430.288	27.39791
430.5	-16.85823
430.712	-21.07254
430.924	2.10739
431.136	33.72107
431.348	-8.42931
431.56	54.79979
431.772	-6.32202
431.984	-48.46317
432.196	35.82884
432.408	-16.85823
432.62	46.36803
432.832	0
433.044	0
433.256	44.26014
433.468	96.96411
433.679	-58.9969
433.891	-46.35635
434.103	-12.64382
434.315	21.07496
434.527	82.20557
434.739	10.53718
434.95	-16.85823
435.162	63.23193
435.374	46.36803
435.586	-12.64382
435.798	-8.42931
436.009	-16.85823
436.221	37.93663
436.433	-29.50088
436.645	-33.71489
436.856	-25.28676
437.068	25.29023
437.28	8.4297
437.491	42.15228
437.703	-6.32202
437.915	-21.07254
438.126	-8.42931
438.338	-31.6079
438.55	61.12386
438.761	-12.64382
438.973	25.29023
439.184	0
439.396	-18.9654
439.608	2.10739
439.819	-31.6079
440.031	84.31387
440.242	75.88082
440.454	54.79979
440.665	37.93663
440.877	88.53052
441.088	-8.42931
441.3	75.88082
441.511	16.85977
441.723	37.93663
441.934	92.74727
442.146	35.82884
442.357	59.01582
442.569	35.82884
442.78	31.61332
442.991	-16.85823
443.203	86.42218
443.414	18.96735
443.626	16.85977
443.837	33.72107
444.048	23.18258
444.26	94.85568
444.471	63.23193
444.682	16.85977
444.894	29.5056
445.105	2.10739
445.316	29.5056
445.528	-4.2147
445.739	-14.75104
445.95	16.85977
446.161	59.01582
446.373	-54.78349
446.584	4.2148
446.795	-29.50088
447.006	50.58386
447.217	14.75222
447.429	12.64469
447.64	-48.46317
447.851	16.85977
448.062	4.2148
448.273	18.96735
448.484	-25.28676
448.695	50.58386
448.907	-14.75104
449.118	61.12386
449.329	2.10739
449.54	63.23193
449.751	37.93663
449.962	42.15228
450.173	12.64469
450.384	-14.75104
450.595	-67.42343
450.806	-37.92881
451.017	21.07496
451.228	71.66443
451.439	10.53718
451.65	0
451.861	27.39791
452.072	-16.85823
452.283	94.85568
452.494	-6.32202
452.705	-14.75104
452.915	35.82884
453.126	25.29023
453.337	-21.07254
453.548	8.4297
453.759	31.61332
453.97	77.98905
454.181	-54.78349
454.391	25.29023
454.602	65.34002
454.813	86.42218
455.024	-6.32202
455.235	-21.07254
455.445	21.07496
455.656	48.47593
455.867	12.64469
456.078	35.82884
456.288	27.39791
456.499	46.36803
456.71	18.96735
456.921	54.79979
457.131	103.28953
457.342	120.15828
457.553	-23.17966
457.763	-8.42931
457.974	59.01582
458.184	-50.56997
458.395	27.39791
458.606	-63.21022
458.816	71.66443
459.027	8.4297
459.237	35.82884
459.448	94.85568
459.659	67.44814
459.869	37.93663
460.08	46.36803
460.29	63.23193
460.501	16.85977
460.711	73.77262
460.922	84.31387
461.132	77.98905
461.343	-8.42931
461.553	42.15228
461.764	0
461.974	23.18258
462.184	84.31387
462.395	59.01582
462.605	59.01582
462.816	-16.85823
463.026	59.01582
463.236	101.18103
463.447	46.36803
463.657	18.96735
463.867	128.59318
464.078	23.18258
464.288	35.82884
464.498	149.68192
464.709	33.72107
464.919	29.5056
465.129	27.39791
465.339	88.53052
465.55	33.72107
465.76	2.10739
465.97	52.69182
466.18	42.15228
466.391	84.31387
466.601	80.0973
466.811	113.83233
467.021	63.23193
467.231	8.4297
467.441	59.01582
467.651	77.98905
467.862	109.61514
468.072	50.58386
468.282	105.39804
468.492	50.58386
468.702	29.5056
468.912	46.36803
469.122	158.11802
469.332	0
469.542	88.53052
469.752	46.36803
469.962	137.02842
470.172	84.31387
470.382	92.74727
470.592	90.63889
470.802	137.02842
471.012	145.464
471.222	99.07256
471.432	103.28953
471.642	42.15228
471.852	63.23193
472.062	75.88082
472.272	151.79091
472.482	63.23193
472.691	107.50658
472.901	204.52245
473.111	168.6636
473.321	103.28953
473.531	118.04961
473.741	147.57295
473.95	50.58386
474.16	153.89993
474.37	151.79091
474.58	145.464
474.79	164.4453
474.999	162.33619
475.209	122.26697
475.419	82.20557
475.628	212.96067
475.838	120.15828
476.048	181.31899
476.258	221.39921
476.467	193.97512
476.677	219.28955
476.886	229.83807
477.096	250.93658
477.306	204.52245
477.515	134.91958
477.725	236.16742
477.935	181.31899
478.144	204.52245
478.354	202.41294
478.563	177.10045
478.773	276.25732
478.982	303.69116
479.192	223.5089
479.401	246.71673
479.611	291.029
479.82	295.24965
480.03	280.47771
480.239	362.78973
480.449	297.36
480.658	295.24965
480.868	333.23872
481.077	417.67897
481.287	278.36751
481.496	314.24345
481.705	337.46008
481.915	445.1277
482.124	329.01742
482.333	400.78878
482.543	388.12183
482.752	447.23925
482.961	436.68165
483.171	497.92105
483.38	464.13222
483.589	417.67897
483.799	409.23374
484.008	516.92892
484.217	457.79724
484.426	430.34728
484.636	535.93795
484.845	637.33786
485.054	544.38677
485.263	529.60148
485.472	552.83581
485.682	711.29325
485.891	685.93553
486.1	671.14428
486.309	688.04861
486.518	688.04861
486.727	635.22506
486.936	734.53922
487.146	759.89991
487.355	745.10599
487.564	700.72734
487.773	742.99261
487.982	762.01336
488.191	827.5354
488.4	802.17095
488.609	838.10432
488.818	945.91919
489.027	878.26818
489.236	793.71643
489.445	981.86185
489.654	905.75044
489.863	979.74753
490.072	969.17598
490.281	1062.211
490.49	1051.63825
490.698	1157.37131
490.907	1015.692
491.116	1140.45325
491.325	1110.84729
491.534	1227.16091
491.743	1041.06565
491.952	1241.96523
492.16	1083.35688
492.369	1275.80418
492.578	1098.15931
492.787	1275.80418
492.996	1267.34438
493.204	1370.97908
493.413	1258.88462
493.622	1419.62504
493.831	1237.73541
494.039	1411.16485
494.248	1271.57427
494.457	1411.16485
494.665	1428.08524
494.874	1504.22705
495.083	1406.93476
495.291	1445.00565
495.5	1580.368
495.709	1574.02299
495.917	1664.96653
496.126	1774.938
496.335	1599.40296
496.543	1673.42618
496.752	1645.93217
496.96	1728.41272
497.169	1508.45714
497.377	1753.79037
497.586	1741.10161
497.794	1933.53095
498.003	1660.73669
498.211	1844.72225
498.42	1791.85583
498.628	1768.59375
498.837	1766.479
499.045	1827.8053
499.254	1855.29519
499.462	2113.23005
499.671	1984.27433
499.879	2003.30218
500.087	1969.47454
500.296	2060.38251
500.504	1988.50279
500.713	1893.35674
500.921	2157.61831
501.129	2030.78592
501.338	1961.01738
501.546	2392.17812
501.754	2109.00242
501.962	2240.04403
502.171	1965.24597
502.379	2375.27684
502.587	2223.13725
502.795	2354.14933
503.004	2210.4568
503.212	2425.97867
503.42	2368.93869
503.628	2461.88878
503.837	2368.93869
504.045	2478.78656
504.253	2485.12305
504.461	2476.67438
504.669	2358.37491
504.877	2453.43962
505.085	2400.62851
505.294	2622.38809
505.502	2438.65318
505.71	2649.83501
505.918	2476.67438
506.126	2795.4784
506.334	2461.88878
506.542	2856.67169
506.75	2586.49283
506.958	2831.35175
507.166	2594.93909
507.374	2721.60912
507.582	2831.35175
507.79	3035.96143
507.998	2863.00136
508.206	2911.52454
508.414	2829.24167
508.622	3023.30923
508.83	2993.7853
509.037	2932.61919
509.245	2951.60312
509.453	3025.41797
509.661	3107.64664
509.869	3033.85277
510.077	2810.25026
510.285	3073.91468
510.492	3025.41797
510.7	3177.2059
510.908	3128.72705
511.116	3067.58949
511.324	3067.58949
511.531	3080.23973
511.739	3084.45635
511.947	3240.42616
512.155	3103.43037
512.362	3160.34466
512.57	3084.45635
512.778	3185.63612
512.985	3364.7151
513.193	3392.09272
513.401	3160.34466
513.608	3240.42616
513.816	3255.1754
514.024	3215.13984
514.231	3280.45789
514.439	3438.41727
514.646	3396.30439
514.854	3440.52272
515.061	3137.15877
515.269	3615.21222
515.477	3501.57314
515.684	3611.00433
515.892	3556.29499
516.099	3751.92719
516.307	3566.81699
516.514	3627.83543
516.722	3556.29499
516.929	3674.11472
517.136	3503.67806
517.344	3762.44036
517.551	3648.87261
517.759	3867.54505
517.966	3592.06791
518.173	3690.94127
518.381	3650.97622
518.588	3785.56761
518.796	3690.94127
519.003	3947.39134
519.21	3796.07921
519.418	3966.29803
519.625	3733.00226
519.832	3943.18963
520.039	3976.80104
520.247	3867.54505
520.454	3901.16808
520.661	4174.16161
520.868	3917.97767
521.076	4289.55246
521.283	4274.86994
521.49	4279.06505
521.697	4119.59091
521.904	4237.11006
522.112	4004.10647
522.319	4448.89453
522.526	4067.10575
522.733	4335.69068
522.94	4169.96436
523.147	4272.77235
523.354	4232.91409
523.561	4706.50767
523.768	4333.59371
523.975	4438.41537
524.183	4289.55246
524.39	4444.70293
524.597	4507.5677
524.804	4624.86197
525.011	4362.94925
525.218	4492.90103
525.425	4388.10776
525.632	4421.64756
525.838	4582.97917
526.045	4654.17461
526.252	4526.42326
526.459	4576.69598
526.666	4463.56444
526.873	4871.78717
527.08	4750.45654
527.287	4932.42369
527.494	4752.5491
527.701	4911.51672
527.907	4867.60463
528.114	4882.24312
528.321	4769.28872
528.528	4790.21121
528.735	4913.60752
528.941	4802.76361
529.148	4765.10395
529.355	4980.50099
529.562	4723.25127
529.768	5045.28154
529.975	4857.14788
530.182	5041.10282
530.388	4794.39543
530.595	5078.70797
530.802	4951.23799
531.008	5308.35357
531.215	5141.36654
531.422	5331.30259
531.628	5277.05489
531.835	5364.67792
532.042	5358.4205
532.248	5379.27774
532.455	5262.44704
532.661	5533.54825
532.868	5174.77588
533.074	5446.00512
533.281	5258.27315
533.487	5377.19212
533.694	5368.84942
533.9	5608.55216
534.107	5379.27774
534.313	5770.95577
534.52	5418.90002
534.726	5610.63517
534.933	5510.6243
535.139	5621.04984
535.345	5577.30425
535.552	5768.87458
535.758	5758.46828
535.965	5937.37442
536.171	5804.25158
536.377	5816.73595
536.584	5685.60767
536.79	5814.65528
536.996	5931.13645
537.203	5858.34439
537.409	5762.63087
537.615	5943.61218
537.821	5814.65528
538.028	6157.64677
538.234	5937.37442
538.44	5933.21579
538.646	5916.58035
538.853	6037.15316
539.059	5785.52343
539.265	6082.86695
539.471	6008.05664
539.677	6271.83498
539.883	6066.24507
540.09	6464.75594
540.296	5920.73935
540.502	6352.76189
540.708	6001.82107
540.914	6251.07876
541.12	6149.33941
541.326	6489.6343
541.532	6149.33941
541.738	6510.36371
541.944	6149.33941
542.15	6551.81558
542.356	6543.52595
542.562	6485.48814
542.768	6361.06007
542.974	6470.97585
543.18	6665.76056
543.386	6638.83441
543.592	6551.81558
543.798	6703.03652
544.004	6479.26873
544.21	6847.92802
544.415	6624.3341
544.621	6756.86644
544.827	6659.54718
545.033	6936.87748
545.239	6758.93651
545.445	6949.2857
545.651	6829.30538
545.856	6849.99709
546.062	6674.04475
546.268	6821.02806
546.474	6752.72622
546.679	6825.16676
546.885	6607.76093
547.091	6912.05859
547.297	6655.40481
547.502	6796.1939
547.708	6837.58234
547.914	6680.25765
548.119	7174.56093
548.325	7029.91936
548.531	6932.74122
548.736	7114.65127
548.942	7168.36425
549.147	6891.37369
549.353	7052.65601
549.559	7168.36425
549.764	7114.65127
549.97	7114.65127
550.175	7244.77609
550.381	7391.31979
550.586	7000.97789
550.792	7432.57983
550.997	7416.07686
551.203	7548.06191
551.408	7304.64532
551.614	7564.55384
551.819	7242.7113
552.025	7422.26564
552.23	7234.45193
552.435	7523.32143
552.641	7475.89354
552.846	7465.58162
553.052	7475.89354
553.257	7630.50789
553.462	7399.5725
553.668	7665.53712
553.873	7525.38326
554.078	7708.80007
554.283	7488.26713
554.489	7908.51379
554.694	7791.18002
554.899	7797.35716
555.105	7510.95004
555.31	7953.78256
555.515	7764.41021
555.72	7970.24147
555.925	7743.81565
556.131	8134.75905
556.336	7663.47674
556.541	7877.64301
556.746	7898.22405
556.951	8091.5857
557.156	7780.88436
557.361	8025.78065
557.567	7875.58479
557.772	8110.08965
557.977	8066.91123
558.182	8173.81305
558.387	7955.84
558.592	8262.17192
558.797	7945.55262
559.002	8058.68576
559.207	7996.98441
559.412	8042.23385
559.617	8216.96963
559.822	8077.19262
560.027	8110.08965
560.232	8366.92251
560.437	8083.3612
560.642	8391.56234
560.847	8097.75387
561.051	8350.4944
561.256	8235.46263
561.461	8371.02934
561.666	8005.21231
561.871	8192.3098
562.076	8052.51645
562.281	8399.77501
562.485	8395.66871
562.69	8455.2024
562.895	8650.11454
563.1	8707.53008
563.305	8362.8156
563.509	8574.22162
563.714	8594.73574
563.919	8592.68442
564.123	8465.4652
564.328	8490.09397
564.533	8350.4944
564.737	8342.27987
564.942	8660.36838
565.147	8857.15302
565.351	8627.55445
565.556	8684.9757
565.761	8656.2669
565.965	8666.52046
566.17	8559.86061
566.374	8609.09452
566.579	8725.982
566.784	8742.38246
566.988	8814.12073
567.193	8781.32886
567.397	8625.50342
567.602	8873.54419
567.806	8777.22955
568.011	9078.33796
568.215	8855.10405
568.42	9014.8707
568.624	8633.70742
568.828	8732.13231
569.033	8514.71999
569.237	9002.58477
569.442	8805.9232
569.646	9117.22902
569.85	8904.27454
570.055	9123.36914
570.259	9203.17676
570.463	9242.04805
570.668	8969.81922
570.872	9154.06745
571.076	9309.54695
571.281	9223.63609
571.485	9000.53706
571.689	9280.91327
571.893	9272.73162
572.098	9274.77706
572.302	9100.8546
572.506	9215.45257
572.71	9047.63008
572.914	9395.42853
573.119	9174.53086
573.323	9100.8546
573.527	9186.80808
573.731	9231.81935
573.935	9491.5
574.139	9444.49077
574.343	9256.36752
574.547	9485.36885
574.751	9370.8939
574.955	9458.79883
575.159	9460.84277
575.364	9536.45743
575.568	9436.31438
575.772	9473.1061
575.976	9379.07237
576.18	9542.58739
576.383	9446.53482
576.587	9834.61991
576.791	9489.4563
576.995	9710.08502
577.199	9689.66407
577.403	9808.08439
577.607	9942.77725
577.811	9891.7648
578.015	9791.75358
578.219	9924.41382
578.422	9634.51979
578.626	9716.21101
578.83	9491.5
579.034	9836.661
579.238	9901.96802
579.442	10048.85413
579.645	9755.00574
579.849	9922.37337
580.053	10030.49745
580.257	9724.37878
580.46	9908.08978
580.664	10110.03478
580.868	9910.13034
581.071	10107.99563
581.275	10181.39627
581.479	10061.09128
581.682	9918.29242
581.886	10120.23032
582.09	9885.64269
582.293	10201.78216
582.497	10103.91729
582.7	10446.30769
582.904	10154.89256
583.107	10303.69114
583.311	10163.0478
583.515	10040.69575
583.718	10114.11304
583.922	10110.03478
584.125	9950.9384
584.329	10421.8637
584.532	10124.30844
584.735	10721.17718
584.939	10246.62629
585.142	10590.89698
585.346	10379.0822
585.549	10662.15017
585.753	10556.28281
585.956	10387.2315
586.159	10295.53966
586.363	10654.00771
586.566	10670.29243
586.769	10552.21032
586.973	10450.38151
587.176	10715.0714
587.379	10476.86007
587.582	10664.18575
587.786	10491.11686
587.989	10617.36422
588.192	10377.04484
588.395	10869.71804
588.599	10611.25658
588.802	10983.6254
589.005	10440.19687
589.208	10932.77829
589.411	10684.54092
589.615	10794.43804
589.818	10863.61485
590.021	10686.57637
590.224	10835.13191
590.427	10749.66935
590.63	10765.94954
590.833	10973.45654
591.036	10623.47174
591.239	10780.19408
591.442	10898.19822
591.645	10845.30465
591.848	10713.03612
592.051	11085.2988
592.254	10855.4771
592.457	11337.33372
592.66	10898.19822
592.863	11197.10829
593.066	10912.43747
593.269	11268.24323
593.472	10944.98224
593.675	11270.27547
593.878	11223.53132
594.081	11312.95018
594.284	11367.81112
594.486	11538.44394
594.689	11249.9526
594.892	11442.97922
595.095	11556.72204
595.298	11416.57033
595.5	11225.56379
595.703	11505.94767
595.906	11402.34948
596.109	11449.07334
596.311	11312.95018
596.514	11540.47488
596.717	11343.42938
596.92	11948.51153
597.122	11713.07091
597.325	11605.45994
597.528	11635.91845
597.73	11579.06091
597.933	11491.72979
598.136	11520.16509
598.338	11256.04957
598.541	11800.35964
598.743	11897.77956
598.946	11599.368
599.148	11806.44896
599.351	11761.79218
599.554	11694.79912
599.756	11808.47871
599.959	11757.73227
600.161	11700.8898
600.363	11617.64359
600.566	11759.76223
600.768	11918.07296
600.971	11739.46222
601.173	11526.25812
601.376	12017.49889
601.578	11909.9557
601.78	12139.2192
601.983	12041.84518
602.185	12240.63206
602.388	12029.67218
602.59	11743.52229
602.792	11985.0354
602.995	11859.21983
603.197	11660.28378
603.399	12175.72995
603.601	11991.12246
603.804	12161.53161
604.006	12005.32532
604.208	11968.80289
604.41	12090.5344
604.613	12469.75983
604.815	12062.1329
605.017	12295.38745
605.219	12094.59163
605.421	12216.29464
605.623	12062.1329
605.826	12145.30449
606.028	12260.91244
606.23	12348.11001
606.432	12281.1921
606.634	12603.54751
606.836	11916.04366
607.038	12386.63507
607.24	12045.90279
607.442	12054.0179
607.644	12151.38972
607.846	12230.49159
608.048	11909.9557
608.25	12376.49714
608.452	12125.01992
608.654	12301.47106
608.856	12088.50577
609.058	12297.41533
609.26	12135.1623
609.462	12133.13384
609.664	12163.55997
609.866	12528.54873
610.067	12427.18514
610.269	12579.22452
610.471	12157.47488
610.673	12548.81952
610.875	12488.00525
611.077	12368.38667
611.278	12313.6381
611.48	12425.1577
611.682	12303.49892
611.884	12725.1494
612.085	12374.46953
612.287	12548.81952
612.489	12419.07534
612.69	12352.16539
612.892	12419.07534
613.094	12567.06269
613.295	12342.02687
613.497	12585.30535
613.699	12370.41429
613.9	12660.29774
614.102	12072.27646
614.304	12694.75093
614.505	12475.8417
614.707	12741.36137
614.908	12374.46953
615.11	12615.70868
615.311	12635.97679
615.513	12433.26741
615.714	12441.37702
615.916	12522.46737
616.117	12236.57589
616.319	12759.59941
616.52	12540.71128
616.722	12824.44206
616.923	12565.0357
617.124	12623.816
617.326	12552.8736
617.527	12899.40933
617.729	12921.69549
617.93	12613.68183
618.131	12398.80038
618.333	12563.0087
618.534	12524.4945
618.735	12678.53788
618.937	12646.11062
619.138	12777.83699
619.339	12652.19085
619.54	12796.07411
619.742	12729.20242
619.943	12660.29774
620.144	12496.11415
620.345	12984.49853
620.546	12962.21415
620.748	13049.32237
620.949	12672.45788
621.15	12798.10042
621.351	12510.30448
621.552	12607.60126
621.753	12950.05877
621.954	12757.57299
622.155	12640.03034
622.356	13018.93683
622.558	12869.01809
622.759	12773.78423
622.96	12731.22893
623.161	12840.65183
623.362	12909.53948
623.563	13025.01403
623.764	12627.86962
623.965	13073.63001
624.166	12964.24002
624.366	13047.2967
624.567	13104.01358
624.768	13104.01358
624.969	12792.02145
625.17	13043.24535
625.371	12783.91608
625.572	13185.03126
625.773	13112.11568
625.973	13160.72673
626.174	13233.63837
626.375	13243.76453
626.576	12990.57598
626.777	13029.06547
626.977	12846.7304
627.178	13266.0417
627.379	12931.82535
627.58	13085.78356
627.78	13095.9114
627.981	12990.57598
628.182	13039.19398
628.382	13110.09016
628.583	13006.7823
628.784	13085.78356
628.984	12941.95508
629.185	13249.84018
629.386	12749.46723
629.586	13247.81497
629.787	12747.44077
629.987	13055.39934
630.188	13033.11689
630.388	13063.50191
630.589	13002.73075
630.79	13071.6044
630.99	13049.32237
631.191	13203.25923
631.391	12909.53948
631.591	13000.70497
631.792	12871.04421
631.992	13110.09016
632.193	13079.70681
632.393	13148.57422
632.594	12901.43537
632.794	13138.447
632.994	13016.91109
633.195	13614.31229
633.395	13302.49413
633.595	13340.97022
633.796	13363.24516
633.996	13363.24516
634.196	13334.89515
634.397	13549.52618
634.597	13239.71408
634.797	13474.61268
634.997	12925.74745
635.198	13091.86028
635.398	13257.94098
635.598	13517.13177
635.798	13585.96881
635.998	13624.4348
636.199	13436.1416
636.399	13498.9095
636.599	13108.06464
636.799	13399.69402
636.999	13144.52335
637.199	13197.18328
637.399	13035.14259
637.599	13164.77753
637.799	13199.2086
637.999	13673.02167
638.199	13557.62464
638.399	13905.80895
638.599	13460.43928
638.799	14021.17681
638.999	13745.89849
639.199	13756.01995
639.399	13723.63101
639.599	14013.08109
639.799	13401.71892
639.999	13675.04609
640.199	13666.94842
640.399	13581.91968
640.599	13000.70497
640.799	13865.32697
640.998	13533.32909
641.198	13662.89956
641.398	13668.97284
641.598	13614.31229
641.798	13644.67956
641.997	13618.3613
642.197	13683.1437
642.397	13614.31229
642.597	13790.43234
642.796	13772.21413
642.996	13689.21688
643.196	13889.61629
643.395	13575.84597
643.595	13654.80182
643.795	13936.16972
643.994	13745.89849
644.194	13721.60667
644.394	13996.88952
644.593	13808.65032
644.793	13883.544
644.992	13687.19249
645.192	13794.4808
645.392	13703.38751
645.591	13816.74712
645.791	13847.10972
645.99	13717.55799
646.19	13419.94283
646.389	13796.50503
646.589	13788.40811
646.788	13966.52991
646.987	13482.71168
647.187	13790.43234
647.386	13507.00832
647.586	13919.97738
647.785	13778.28689
647.984	14110.22729
648.184	13861.27871
648.383	13948.31387
648.582	13978.67382
648.782	14154.7509
648.981	14092.01278
649.18	14019.15288
649.38	14002.96138
649.579	14185.10733
649.778	14126.41782
649.977	14207.36841
650.177	14172.96481
650.376	14132.48923
650.575	14152.72713
650.774	14434.01411
650.973	13960.45792
651.173	14282.24487
651.372	13905.80895
651.571	14213.43957
651.77	14326.76482
651.969	14051.53543
652.168	13812.69873
652.367	14144.63199
652.566	14027.24858
652.765	14310.57585
652.964	14073.79809
653.163	14077.84581
653.362	14209.39213
653.561	14108.20347
653.76	14011.05715
653.959	14189.15481
654.158	14340.93008
654.357	14326.76482
654.556	14304.50495
654.755	14642.43067
654.954	14353.07167
655.153	14496.74286
655.352	14490.67239
655.551	14480.55492
655.749	14545.30616
655.948	14440.08469
656.147	14458.29637
656.346	14205.34468
656.545	14201.29723
656.743	14425.91998
656.942	14266.05559
657.141	14306.52859
657.34	14181.05983
657.538	14640.40727
657.737	14255.93722
657.936	14759.78633
658.135	14191.17855
658.333	14464.3669
658.532	14215.46329
658.731	14419.84936
658.929	14330.81205
659.128	14411.75519
659.326	14112.25111
659.525	14525.07154
659.724	14478.53142
659.922	14506.86027
660.121	14351.04808
660.319	14563.51721
660.518	14229.62925
660.716	14379.37824
660.915	14597.91559
661.113	14618.14979
661.312	14353.07167
661.51	14579.70472
661.709	14357.11885
661.907	14662.66463
662.105	14361.16603
662.304	14514.95418
662.502	14614.10296
662.701	14636.36047
662.899	14514.95418
663.097	14668.7348
663.296	14359.14244
663.494	14480.55492
663.692	14399.61388
663.891	14399.61388
664.089	14213.43957
664.287	14591.84531
664.485	14357.11885
664.684	14266.05559
664.882	14302.48132
665.08	14907.48891
665.278	14852.85958
665.476	14670.75819
665.675	14215.46329
665.873	14444.13174
666.071	14454.24934
666.269	14512.93071
666.467	14514.95418
666.665	14703.13226
666.863	14288.31583
667.061	14577.68129
667.259	14498.76634
667.457	14678.85173
667.655	14541.25924
667.853	14533.1654
668.051	14569.58753
668.249	14616.12637
668.447	14490.67239
668.645	14731.45938
668.843	14773.94975
669.041	14699.08551
669.239	14253.91354
669.437	14662.66463
669.635	14545.30616
669.833	14792.15981
670.031	14338.90648
670.229	14411.75519
670.426	14695.03876
670.624	14725.3893
670.822	14423.89644
671.02	14480.55492
671.218	14371.28394
671.415	14444.13174
671.613	14353.07167
671.811	14642.43067
672.009	14492.69588
672.206	14587.79845
672.404	14470.43742
672.602	14379.37824
672.799	14512.93071
672.997	14597.91559
673.195	14229.62925
673.392	14357.11885
673.59	14146.65578
673.788	14318.67035
673.985	14300.45768
674.183	14474.48442
674.38	14363.18961
674.578	14775.97309
674.775	14213.43957
674.973	14363.18961
675.17	14106.17964
675.368	14379.37824
675.565	14373.30752
675.763	14577.68129
675.96	14407.70809
676.158	14608.0327
676.355	14282.24487
676.553	14549.35306
676.75	14257.9609
676.947	14666.71141
677.145	14403.66099
677.342	14729.43602
677.539	14286.29218
677.737	14731.45938
677.934	14474.48442
678.131	14300.45768
678.329	14237.72405
678.526	14126.41782
678.723	14427.94351
678.92	14624.22002
679.118	14330.81205
679.315	14448.17878
679.512	14514.95418
679.709	14336.88287
679.906	14213.43957
680.104	14023.20074
680.301	14047.48765
680.498	14189.15481
680.695	14320.69397
680.892	14508.88375
681.089	14083.91739
681.286	14330.81205
681.483	13968.5539
681.68	14620.1732
681.877	14223.55814
682.075	14452.22582
682.272	14011.05715
682.469	14355.09526
682.665	13922.00144
682.862	13792.45657
683.059	13822.81969
683.256	14310.57585
683.453	13970.57789
683.65	14077.84581
683.847	14233.67665
684.044	14197.24976
684.241	14007.00927
684.438	14377.35467
684.635	14019.15288
684.831	14581.72816
685.028	14112.25111
685.225	14126.41782
685.422	13654.80182
685.619	13992.84161
685.815	13830.91641
686.012	14174.98857
686.209	13960.45792
686.405	14223.55814
686.602	14369.26036
686.799	14017.12895
686.996	14130.46543
687.192	14092.01278
687.389	13725.65534
687.586	14130.46543
687.782	14031.29641
687.979	14229.62925
688.175	13679.0949
688.372	13998.91348
688.568	13954.3859
688.765	14092.01278
688.962	13887.59219
689.158	13753.99566
689.355	13940.21778
689.551	14278.19756
689.748	13741.84989
689.944	13877.47168
690.14	13978.67382
690.337	14004.98532
690.533	13865.32697
690.73	13699.33878
690.926	13940.21778
691.123	13849.13387
691.319	13877.47168
691.515	13986.76971
691.712	13737.80127
691.908	13871.39934
692.104	13462.46406
692.301	13537.37839
692.497	13618.3613
692.693	13816.74712
692.889	13543.4523
693.086	14100.10814
693.282	13934.14569
693.478	13857.23044
693.674	13857.23044
693.87	13954.3859
694.067	14102.13198
694.263	14253.91354
694.459	14075.82195
694.655	14257.9609
694.851	13924.02549
695.047	13774.23838
695.243	13727.67967
695.439	13624.4348
695.635	13812.69873
695.831	13926.04953
696.027	13654.80182
696.224	13458.4145
696.42	13545.47693
696.615	13703.38751
696.811	13689.21688
697.007	13822.81969
697.203	13679.0949
697.399	13446.2657
697.595	13407.79359
697.791	13768.1656
697.987	13452.34011
698.183	13731.72832
698.379	13478.66219
698.575	13640.63063
698.77	13211.36043
698.966	13330.84508
699.162	13298.44393
699.358	13375.39493
699.554	13025.01403
699.749	13553.57542
699.945	13367.2951
700.141	13658.8507
700.337	13474.61268
700.532	13675.04609
700.728	13399.69402
700.924	13432.09193
701.119	13170.8537
701.315	13419.94283
701.511	13363.24516
701.706	13735.77695
701.902	13395.64421
702.097	13458.4145
702.293	13565.72304
702.489	13507.00832
702.684	13213.38572
702.88	13130.34514
703.075	13067.55316
703.271	13298.44393
703.466	13142.4979
703.662	13257.94098
703.857	13304.51923
704.053	13504.98362
704.248	13284.26809
704.443	13322.74489
704.639	13409.81847
704.834	13602.16516
705.03	13652.77737
705.225	13683.1437
705.42	13091.86028
705.616	13590.01792
705.811	13286.29322
706.006	13395.64421
706.202	13170.8537
706.397	13656.82626
706.592	13468.53839
706.787	13470.56316
706.983	13221.48684
707.178	13717.55799
707.373	13608.23874
707.568	13286.29322
707.763	13170.8537
707.959	13334.89515
708.154	13150.59965
708.349	13063.50191
708.544	13067.55316
708.739	13176.92982
708.934	13006.7823
709.129	13594.06701
709.324	13172.87908
709.519	13662.89956
709.714	13243.76453
709.909	13814.72293
710.104	13170.8537
710.299	13178.95519
710.494	13213.38572
710.689	13393.6193
710.884	13126.29418
711.079	13183.00591
711.274	13128.31966
711.469	13468.53839
711.664	13085.78356
711.859	13120.21771
712.054	12937.9032
712.249	12948.03285
712.443	12935.87725
712.638	13284.26809
712.833	12883.20082
713.028	13373.36998
713.223	12873.07032
713.417	13067.55316
713.612	12952.08468
713.807	13385.51962
714.002	13280.21781
714.196	12972.34349
714.391	12666.37784
714.586	12974.36934
714.78	12739.3349
714.975	13059.45064
715.17	12852.80893
715.364	12844.70422
715.559	13063.50191
715.754	12662.32444
715.948	12642.05711
716.143	12629.89642
716.337	12518.4131
716.532	13029.06547
716.726	13069.57878
716.921	13087.80914
717.115	12670.43121
717.31	12656.24431
717.504	12925.74745
717.699	12779.86336
717.893	12335.94368
718.088	12619.76235
718.282	12804.17935
718.476	12749.46723
718.671	12352.16539
718.865	12698.80414
719.059	12394.7453
719.254	12646.11062
719.448	12260.91244
719.642	12696.77754
719.837	12394.7453
720.031	12621.78918
720.225	12311.61028
720.419	12702.85732
720.614	12506.25013
720.808	12905.48744
721.002	12366.35903
721.196	12925.74745
721.39	12366.35903
721.585	12777.83699
721.779	12731.22893
721.973	12715.01672
722.167	12530.57584
722.361	13069.57878
722.555	12656.24431
722.749	12658.27102
722.943	12611.65498
723.137	12281.1921
723.331	12706.91047
723.525	12536.65713
723.719	12473.81441
723.913	12589.35921
724.107	12601.52063
724.301	12483.95075
724.495	12346.0823
724.689	12356.22075
724.883	12051.98914
725.077	12449.48653
725.271	12321.74932
725.465	12587.33228
725.659	12058.07542
725.853	12323.7771
726.046	12058.07542
726.24	12013.44107
726.434	12009.38321
726.628	12285.24795
726.822	12187.89967
727.015	12386.63507
727.209	12104.73458
727.403	12437.32223
727.596	12281.1921
727.79	12390.6902
727.984	12558.95468
728.177	12374.46953
728.371	12196.01267
728.565	12546.79247
728.758	12398.80038
728.952	12500.16856
729.146	12412.99292
729.339	12560.98169
729.533	12222.37909
729.726	12350.1377
729.92	12220.35095
730.113	12506.25013
730.307	12058.07542
730.5	12362.30374
730.694	12082.41984
730.887	12352.16539
731.081	12234.5478
731.274	12200.06912
731.468	12110.82026
731.661	12198.0409
731.854	11753.67232
732.048	12372.44192
732.241	11924.16082
732.435	12485.978
732.628	12167.61666
732.821	12378.52474
733.014	12196.01267
733.208	12200.06912
733.401	12072.27646
733.594	12108.79171
733.788	12198.0409
733.981	12299.4432
734.174	12281.1921
734.367	12384.6075
734.56	12297.41533
734.754	12372.44192
734.947	12185.8714
735.14	12297.41533
735.333	12106.76315
735.526	11954.59902
735.719	12056.04666
735.912	11936.33632
736.105	11747.58233
736.298	12234.5478
736.491	12009.38321
736.684	12179.78655
736.877	12102.70601
737.07	11920.10226
737.263	12256.85642
737.456	11983.00636
737.649	11901.83831
737.842	12005.32532
738.035	11914.01435
738.228	11895.75018
738.421	12242.66013
738.614	12339.99915
738.807	12086.47713
739	11889.66197
739.192	11723.22159
739.385	11735.40212
739.578	11832.83511
739.771	12021.55668
739.964	11702.92
740.156	11980.97732
740.349	11924.16082
740.542	11887.63255
740.735	11891.69138
740.927	11970.83198
741.12	11767.88199
741.313	11607.49058
741.505	11743.52229
741.698	11540.47488
741.891	11759.76223
742.083	11980.97732
742.276	11794.27025
742.468	12033.72988
742.661	12005.32532
742.854	11968.80289
743.046	11688.70837
743.239	11824.71644
743.431	11530.3201
743.624	11711.04074
743.816	11836.89439
744.009	11879.5148
744.201	11540.47488
744.393	11635.91845
744.586	11879.5148
744.778	11765.85206
744.971	11676.52662
745.163	11696.82936
745.355	11471.41773
745.548	11755.7023
745.74	11727.2818
745.932	11763.82213
746.125	11907.92637
746.317	12159.50325
746.509	11656.22298
746.702	11733.37205
746.894	11676.52662
747.086	11700.8898
747.278	11725.2517
747.471	11792.24044
747.663	11507.97876
747.855	11656.22298
748.047	11412.50728
748.239	11652.16215
748.431	11579.06091
748.623	11680.58724
748.815	11432.82215
749.008	11731.34198
749.2	11542.50581
749.392	11654.19257
749.584	11349.52495
749.776	11625.76584
749.968	11485.63627
750.16	11577.03015
750.352	11597.33733
750.544	11715.10106
750.736	11469.38647
750.928	11510.00984
751.12	11418.60185
751.311	11445.0106
751.503	11619.67417
751.695	11475.48022
751.887	11400.31789
752.079	11396.25469
752.271	11091.39833
752.463	11207.2712
752.654	11184.91245
752.846	11225.56379
753.038	11223.53132
753.23	11233.69356
753.421	11170.68349
753.613	11201.17349
753.805	11111.72941
753.997	11469.38647
754.188	11436.88501
754.38	11453.13605
754.572	11420.63335
754.763	11648.10128
754.955	11412.50728
755.146	11501.88547
755.338	11420.63335
755.53	11351.55679
755.721	11566.87621
755.913	11451.1047
756.104	11428.75925
756.296	11195.07568
756.487	11221.49884
756.679	11184.91245
756.87	11223.53132
757.062	11217.43386
757.253	10993.79398
757.445	11026.33158
757.636	11186.94512
757.827	10997.86134
758.019	10843.27013
758.21	10609.22067
758.401	10888.02699
758.593	10957.18578
758.784	10790.3684
758.975	10737.4587
759.167	10772.05441
759.358	10863.61485
759.549	11093.43149
759.74	10871.75241
759.932	10706.93021
760.123	10676.399
760.314	10914.47161
760.505	10763.91456
760.696	10747.63427
760.888	10947.01619
761.079	10647.90074
761.27	10765.94954
761.461	10727.28284
761.652	10717.10667
761.843	10509.44609
762.034	10670.29243
762.225	10330.18196
762.416	10564.42765
762.607	10413.71528
762.798	10399.45506
762.989	10599.04097
763.18	10802.57719
763.371	10517.59209
763.562	10704.89488
763.753	10550.17405
763.944	10588.86096
764.135	10651.97206
764.326	10729.31804
764.517	10784.26384
764.708	10578.68063
764.899	10291.46385
765.089	10480.9335
765.28	10533.88348
765.471	10529.81071
765.662	10350.55799
765.853	10244.58806
766.043	10326.1066
766.234	10332.21962
766.425	10177.31893
766.615	10256.81721
766.806	10169.16408
766.997	10350.55799
767.187	9869.31641
767.378	9771.33872
767.569	10040.69575
767.759	10022.33855
767.95	10175.28024
768.141	9930.5351
768.331	9852.98918
768.522	9836.661
768.712	9857.07108
768.903	10085.56404
769.093	9812.16695
769.284	10016.21923
769.474	9912.17088
769.665	9885.64269
769.855	10057.01228
770.046	9887.68341
770.236	9746.83888
770.426	10173.24154
770.617	10093.72118
770.807	9818.29066
770.998	9830.53769
771.188	9685.57969
771.378	9828.49656
771.569	9755.00574
771.759	9775.42181
771.949	9746.83888
772.139	10008.05993
772.33	9830.53769
772.52	9667.19924
772.71	9552.80368
772.9	9912.17088
773.09	9908.08978
773.281	9538.50077
773.471	9708.04299
773.661	9785.62928
773.851	9599.79351
774.041	9393.38407
774.231	9364.75987
774.421	9256.36752
774.611	9190.90035
774.802	9280.91327
774.992	9499.67466
775.182	9360.67043
775.372	9624.30665
775.562	9272.73162
775.752	9403.60622
775.942	9176.5771
776.131	9403.60622
776.321	9199.08469
776.511	9250.23071
776.701	9215.45257
776.891	9385.20605
777.081	9092.66697
777.271	9444.49077
777.461	9299.32101
777.651	9577.32115
777.84	9274.77706
778.03	9231.81935
778.22	9346.3569
778.41	9352.49137
778.599	9319.77247
778.789	9166.3457
778.979	9260.45865
779.169	9152.02102
779.358	9100.8546
779.548	9117.22902
779.738	8904.27454
779.927	9149.97457
780.117	8941.14566
780.307	8980.05894
780.496	8851.00604
780.686	8861.25092
780.875	8785.4281
781.065	8891.98288
781.254	8611.1457
781.444	8961.62713
781.633	8650.11454
781.823	8881.73934
782.012	8840.76071
782.202	8984.1547
782.391	8867.39764
782.581	8945.24209
782.77	8875.59301
782.96	9033.2984
783.149	8609.09452
783.338	8828.46571
783.528	8926.80757
783.717	9033.2984
783.906	8869.44651
784.096	9039.44066
784.285	8783.37849
784.474	8789.52727
784.663	8703.42945
784.853	8613.19686
785.042	8455.2024
785.231	8719.83153
785.42	8483.93704
785.61	8551.65391
785.799	8399.77501
785.988	8488.04168
786.177	8440.83368
786.366	8407.98736
786.555	8465.4652
786.744	8465.4652
786.933	8192.3098
787.122	8167.64711
787.312	8334.06504
787.501	8541.3951
787.69	8073.08012
787.879	8356.65508
788.068	8179.97881
788.257	8118.31311
788.445	8428.51689
788.634	8457.255
788.823	8498.30295
789.012	8405.9343
789.201	8381.29608
789.39	8334.06504
789.579	8253.95403
789.768	8334.06504
789.957	8342.27987
790.145	8262.17192
790.334	8042.23385
790.523	8091.5857
790.712	8184.08922
790.9	8290.93205
791.089	7980.52763
791.278	8325.8499
791.467	8001.0984
791.655	8025.78065
791.844	8023.72391
792.033	8155.31469
792.221	8073.08012
792.41	8054.57291
792.599	7943.49508
792.787	8036.06405
792.976	7982.5848
793.164	7844.70905
793.353	7939.37994
793.541	8058.68576
793.73	7984.64194
793.918	7918.80302
794.107	7457.33169
794.295	7558.36952
794.484	7778.82516
794.672	7671.71811
794.861	7628.44716
795.049	7694.38012
795.238	7717.03958
795.426	8017.55356
795.614	7776.76595
795.803	7723.21899
795.991	7731.4579
796.179	7688.19983
796.368	7822.06387
796.556	7984.64194
796.744	7842.6505
796.932	7745.8752
797.121	7614.02142
797.309	7682.01934
797.497	7449.08142
797.685	7607.83865
797.874	7424.32852
798.062	7585.16683
798.25	7211.73685
798.438	7399.5725
798.626	7572.79929
798.814	7554.24654
799.002	7494.45364
799.19	7541.87708
799.378	7589.28917
799.566	7564.55384
799.755	7244.77609
799.943	7411.9509
800.131	7381.00343
800.318	7500.63995
800.506	7416.07686
800.694	7539.81542
800.882	7409.88789
801.07	7546.00032
801.258	7597.53359
801.446	7655.23504
801.634	7145.64136
801.822	7444.95615
802.01	7135.31189
802.197	7399.5725
802.385	7449.08142
802.573	7393.383
802.761	7172.49539
802.949	7360.36905
803.136	7457.33169
803.324	7428.45422
803.512	7288.13152
803.699	7222.06222
803.887	7215.86706
804.075	7655.23504
804.262	7300.517
804.45	7250.97032
804.638	7374.81334
804.825	7500.63995
805.013	7250.97032
805.201	7279.87409
805.388	7366.55959
805.576	7560.43098
805.763	7246.84085
805.951	7539.81542
806.138	7438.76809
806.326	7614.02142
806.513	7186.9537
806.701	7622.26483
806.888	7337.66872
807.075	7651.11406
807.263	7432.57983
807.45	7731.4579
807.638	7484.14269
807.825	7589.28917
808.012	7488.26713
808.2	7370.68651
808.387	7494.45364
808.574	7506.82607
808.761	7440.8308
808.949	7599.59465
809.136	7362.43259
809.323	7638.75061
809.51	7519.19772
809.698	7572.79929
809.885	7589.28917
810.072	7614.02142
810.259	7603.71669
810.446	7644.93243
810.633	7519.19772
810.82	7675.83867
811.008	7578.98315
811.195	7515.07392
811.382	7597.53359
811.569	7500.63995
811.756	7391.31979
811.943	7694.38012
812.13	7416.07686
812.317	7339.73249
812.504	7564.55384
812.691	7731.4579
812.878	7795.29813
813.064	7756.17264
813.251	7607.83865
813.438	7780.88436
813.625	7459.39421
813.812	7457.33169
813.999	7341.79625
814.186	7358.30549
814.372	7267.48729
814.559	7717.03958
814.746	7189.01909
814.933	7209.67171
815.12	7486.20492
815.306	7350.05105
815.493	7492.39149
815.68	7302.58118
815.866	7286.0672
816.053	7496.51576
816.24	7360.36905
816.426	7616.08231
816.613	7475.89354
816.799	7684.07952
816.986	7552.18502
817.173	7797.35716
817.359	7304.64532
817.546	7290.19582
817.732	7259.22898
817.919	7296.3886
818.105	7031.98644
818.292	7300.517
818.478	7058.85644
818.665	7467.64405
818.851	7312.9017
819.037	7180.75742
819.224	7015.44918
819.41	7354.17831
819.597	7461.4567
819.783	7162.16737
819.969	7209.67171
820.156	7488.26713
820.342	7292.2601
820.528	7224.12723
820.714	7011.31463
820.901	7444.95615
821.087	7222.06222
821.273	7250.97032
821.459	7110.51888
821.646	7145.64136
821.832	7089.85558
822.018	7050.58915
822.204	6794.12424
822.39	7052.65601
822.576	7029.91936
822.762	6996.84303
822.948	6885.16778
823.134	6907.92179
823.32	6783.77559
823.507	7096.0548
823.693	6700.96582
823.879	6998.91047
824.065	6804.47232
824.25	6866.54882
824.436	6814.81982
824.622	6961.69311
824.808	6907.92179
824.994	7009.24733
825.18	6696.82437
825.366	7143.57551
825.552	6889.30508
825.738	7184.8883
825.923	7038.18755
826.109	7102.25382
826.295	6816.88926
826.481	7230.32212
826.667	6796.1939
826.852	6887.23644
827.038	6684.39947
827.224	6895.51085
827.409	6775.49626
827.595	7007.18
827.781	6996.84303
827.966	7085.72265
828.152	6678.18671
828.338	6862.41102
828.523	6769.28653
828.709	6767.21657
828.894	6878.96166
829.08	6860.34209
829.266	6597.40195
829.451	6487.56123
829.637	6483.41503
829.822	6674.04475
830.008	6444.02142
830.193	6725.8126
830.378	6543.52595
830.564	6642.97715
830.749	6481.34189
830.935	6560.10485
831.12	6524.87292
831.305	6398.39729
831.491	6217.86394
831.676	6398.39729
831.861	6321.64036
832.047	6481.34189
832.232	6475.12233
832.417	6275.98595
832.602	6458.53583
832.788	6495.85337
832.973	6481.34189
833.158	6566.32155
833.343	6663.68946
833.528	6616.0477
833.714	6358.98556
833.899	6491.70735
834.084	6251.07876
834.269	6255.2302
834.454	6199.17797
834.639	6300.88976
834.824	5816.73595
835.009	6010.13511
835.194	6190.87248
835.379	6288.43827
835.564	6084.94458
835.749	6261.45717
835.934	6307.11518
836.119	6269.75947
836.304	5974.79781
836.489	6350.68728
836.674	6190.87248
836.859	6383.87816
837.044	6109.87429
837.228	6219.94004
837.413	5899.94339
837.598	5949.84973
837.783	5750.14282
837.968	6134.80062
838.152	5743.89847
838.337	6190.87248
838.522	5972.71894
838.707	6151.41629
838.891	5958.16614
839.076	6028.84034
839.261	5812.57459
839.445	6141.03167
839.63	5691.854
839.815	6049.62169
839.999	5725.16416
840.184	6003.89961
840.368	6087.02218
840.553	6068.32289
840.737	5906.18243
840.922	5995.58528
841.106	5829.21948
841.291	5951.92887
841.475	5768.87458
841.66	5872.90511
841.844	5627.29837
842.029	5827.13895
842.213	5462.6832
842.397	5608.55216
842.582	5350.07695
842.766	5627.29837
842.951	5329.21643
843.135	5521.04463
843.319	5458.51382
843.504	5752.22422
843.688	5402.21799
843.872	5249.92511
844.056	5425.1554
844.241	5558.55295
844.425	5245.75094
844.609	5450.17478
844.793	5268.70768
844.977	5293.74818
845.161	5377.19212
845.346	5537.71594
845.53	5302.09426
845.714	5481.44424
845.898	5070.35192
846.082	5393.87641
846.266	5226.96605
846.45	5270.79452
846.634	5368.84942
846.818	5249.92511
847.002	5174.77588
847.186	5466.85249
847.37	5325.04405
847.554	5345.90504
847.738	5074.52999
847.922	5295.83473
848.106	5110.03987
848.29	5226.96605
848.473	5204.00417
848.657	5020.20783
848.841	5009.75947
849.025	5082.88586
849.209	5024.38701
849.392	5114.21706
849.576	4890.60746
849.76	5011.84919
849.944	4855.05647
850.127	5208.17927
850.311	4882.24312
850.495	5199.82898
850.678	4955.4187
850.862	5354.24878
851.046	4903.15329
851.229	5024.38701
851.413	4825.77422
851.596	4905.24418
851.78	4656.26821
851.964	4857.14788
852.147	4704.41461
852.331	4731.62253
852.514	4735.80802
852.698	4727.43694
852.881	4725.34412
853.065	4840.4159
853.248	4582.97917
853.431	4702.32154
853.615	4457.27747
853.798	4739.99343
853.982	4658.36178
854.165	4852.96503
854.348	4742.0861
854.532	4645.80002
854.715	4620.6741
854.898	4779.75025
855.081	4480.32873
855.265	4733.71529
855.448	4507.5677
855.631	4497.09162
855.814	4497.09162
855.997	4932.42369
856.181	4383.9149
856.364	4723.25127
856.547	4507.5677
856.73	4618.58012
856.913	4258.08863
857.096	4425.83965
857.279	4253.89308
857.462	4480.32873
857.645	4178.35876
857.828	4337.78762
858.011	4220.32567
858.194	4291.64988
858.377	4104.89638
858.56	4209.83474
858.743	4130.08637
858.926	4115.39257
859.109	4020.90809
859.292	4025.10829
859.475	4211.93297
859.658	4346.17518
859.841	4153.17456
860.023	4297.942
860.206	4039.80834
860.389	4161.56963
860.572	3863.34181
860.755	4044.00817
860.937	3823.40709
861.12	4027.20835
861.303	3760.33776
861.486	4044.00817
861.668	3783.46523
861.851	3848.62985
862.034	3749.82449
862.216	4077.60382
862.399	3882.25576
862.581	3812.89676
862.764	3703.56037
862.947	3775.05551
863.129	3829.71305
863.312	3737.20794
863.494	3598.38022
863.677	3911.67422
863.859	3701.45724
864.042	3754.02986
864.224	3812.89676
864.406	3888.56004
864.589	3522.62147
864.771	3787.66997
864.954	3507.88783
865.136	3821.30506
865.318	3446.83899
865.501	3535.24959
865.683	3556.29499
865.865	3648.87261
866.048	3579.44279
866.23	3699.35408
866.412	3566.81699
866.594	3598.38022
866.777	3459.47103
866.959	3602.58833
867.141	3312.05757
867.323	3339.44084
867.505	3166.66775
867.687	3324.69636
867.869	3371.03327
868.052	3421.57297
868.234	3455.26042
868.416	3505.78296
868.598	3446.83899
868.78	3446.83899
868.962	3356.29062
869.144	3480.52299
869.326	3413.15039
869.508	3606.79637
869.69	3535.24959
869.872	3505.78296
870.054	3387.88097
870.236	3592.06791
870.417	3204.60317
870.599	3383.66915
870.781	3198.28097
870.963	3592.06791
871.145	3050.72162
871.327	3196.17354
871.508	3069.6979
871.69	3328.90916
871.872	3185.63612
872.054	3379.45726
872.235	3223.56888
872.417	3128.72705
872.599	2976.91314
872.78	3347.86587
872.962	3223.56888
873.144	3326.80277
873.325	3124.5111
873.507	3383.66915
873.689	3255.1754
873.87	3379.45726
874.052	2751.1588
874.233	3040.1787
874.415	3021.20048
874.596	3349.97208
874.778	2983.24032
874.959	2960.04003
875.141	3084.45635
875.322	3394.19856
875.503	3094.99763
875.685	3354.18446
875.866	2934.72857
876.048	3356.29062
876.229	2888.31875
876.41	3160.34466
876.592	3137.15877
876.773	3120.29508
876.954	3033.85277
877.136	3312.05757
877.317	3101.3222
877.498	3360.5029
877.679	3067.58949
877.86	3387.88097
878.042	3213.03254
878.223	3585.75543
878.404	3280.45789
878.585	3379.45726
878.766	3050.72162
878.947	3316.27057
879.128	3094.99763
879.309	3206.71054
879.49	2903.08628
879.672	3375.2453
879.853	3194.06609
880.034	3389.98685
880.215	3162.45237
880.396	3497.36326
880.576	3187.74364
880.757	3432.10079
880.938	3198.28097
881.119	3539.45882
881.3	3269.92382
881.481	3396.30439
881.662	3135.05086
881.843	3206.71054
882.023	3124.5111
882.204	3309.95105
882.385	3008.54764
882.566	3472.10242
882.747	3113.97093
882.927	3347.86587
883.108	3238.31906
883.289	3415.25606
883.469	3126.61908
883.65	3383.66915
883.831	3179.31348
884.011	3267.81695
884.192	3227.7833
884.373	3438.41727
884.553	3227.7833
884.734	3429.99526
884.914	3328.90916
885.095	3381.56321
885.275	3307.8445
885.456	3516.30717
885.636	3267.81695
885.817	3650.97622
885.997	3194.06609
886.178	3516.30717
886.358	3061.26415
886.538	3328.90916
886.719	3286.77814
886.899	3419.46735
887.08	3341.54712
887.26	3314.16408
887.44	3139.26666
887.621	3465.78681
887.801	3181.42104
887.981	3396.30439
888.161	3257.28237
888.342	3568.92134
888.522	3375.2453
888.702	3472.10242
888.882	3160.34466
889.062	3396.30439
889.242	3322.58994
889.423	3383.66915
889.603	3248.8544
889.783	3476.31274
889.963	3128.72705
890.143	3526.83092
890.323	3333.12188
890.503	3316.27057
890.683	3113.97093
890.863	3267.81695
891.043	3253.06842
891.223	3448.94437
891.403	3278.35111
891.583	3453.15509
891.763	3170.88306
891.943	3185.63612
892.122	3139.26666
892.302	3341.54712
892.482	3092.8894
892.662	3118.18705
892.842	2983.24032
893.022	3126.61908
893.201	3094.99763
893.381	3101.3222
893.561	3042.28732
893.741	3305.73794
893.92	2890.42844
894.1	3229.89049
894.28	3120.29508
894.459	3124.5111
894.639	3078.13139
894.819	3234.10481
894.998	3027.52669
895.178	3221.46165
895.357	2953.71237
895.537	2979.02222
895.716	2873.55053
895.896	3177.2059
896.075	2867.22107
896.255	3054.93868
896.434	2892.53812
896.614	3035.96143
896.793	2677.2798
896.973	2932.61919
897.152	2658.27978
897.331	3052.83016
897.511	2890.42844
897.69	3231.99765
897.87	2740.60564
898.049	2839.79196
898.228	2548.48231
898.407	2746.93758
898.587	2561.15291
898.766	2628.72218
898.945	2546.3705
899.124	2592.82755
899.304	2540.035
899.483	2736.38429
899.662	2552.70589
899.841	2723.7199
900.02	2368.93869
900.199	2523.13984
900.378	2341.47234
900.557	2723.7199
900.737	2286.53469
900.916	2561.15291
901.095	2286.53469
901.274	2561.15291
901.453	2235.81739
901.632	2381.6149
901.811	2307.66532
901.989	2518.91593
902.168	2352.03652
902.347	2537.92315
902.526	2278.08217
902.705	2478.78656
902.884	2269.62951
903.063	2472.44998
903.242	2326.68208
903.42	2301.32623
903.599	2134.36775
903.778	2123.799
903.957	2104.77476
904.135	2151.27734
904.314	1916.61574
904.493	2316.11731
904.672	2049.81245
904.85	2064.61048
905.029	1838.37843
905.207	2117.45765
905.386	1870.0971
905.565	1961.01738
905.743	1965.24597
905.922	1876.4407
906.1	1829.91994
906.279	1910.27244
906.457	1728.41272
906.636	1931.41657
906.814	1667.08145
906.993	1709.37915
907.171	1607.86289
907.35	1662.85161
907.528	1351.94384
907.707	1677.65598
907.885	1499.99696
908.063	1698.80484
908.242	1504.22705
908.42	1620.55273
908.598	1447.12071
908.777	1686.11556
908.955	1631.12754
909.133	1726.29789
909.311	1506.3421
909.49	1580.368
909.668	1478.84648
909.846	1722.06823
910.024	1451.35081
910.202	1487.30668
910.38	1483.07658
910.559	1664.96653
910.737	1394.24449
910.915	1554.98786
911.093	1436.54545
911.271	1535.95263
911.449	1476.73143
911.627	1842.60765
911.805	1438.6605
911.983	1550.75782
912.161	1394.24449
912.339	1607.86289
912.517	1419.62504
912.695	1732.64236
912.872	1489.42173
913.05	1662.85161
913.228	1483.07658
913.406	1736.87199
913.584	1698.80484
913.762	1510.57218
913.939	1377.32418
914.117	1612.09285
914.295	1398.47458
914.473	1574.02299
914.65	1502.11201
914.828	1563.44793
915.006	1487.30668
915.184	1599.40296
915.361	1411.16485
915.539	1645.93217
915.716	1413.2799
915.894	1445.00565
916.072	1464.04112
916.249	1468.27123
916.427	1269.45932
916.604	1383.66929
916.782	1241.96523
916.959	1432.31534
917.137	1294.83886
917.314	1529.60753
917.492	1343.48377
917.669	1436.54545
917.847	1222.93113
918.024	1313.87371
918.201	1265.22943
918.379	1354.05887
918.556	1246.19506
918.733	1373.09412
918.911	1197.55274
919.088	1411.16485
919.265	1258.88462
919.442	1392.12945
919.62	1123.53545
919.797	1339.25374
919.974	1148.91225
920.151	1354.05887
920.328	1199.66758
920.506	1421.74009
920.683	1341.36876
920.86	1290.60891
921.037	1138.33851
921.214	1305.41376
921.391	1038.95115
921.568	1307.52874
921.745	1241.96523
921.922	1277.91913
922.099	1032.60768
922.276	1309.64373
922.453	1191.20821
922.63	1119.30605
922.807	969.17598
922.984	1182.7489
923.161	1015.692
923.338	1140.45325
923.514	867.69844
923.691	1100.27396
923.868	933.23403
924.045	1066.44013
924.222	931.11986
924.399	1030.4932
924.575	1074.89846
924.752	1064.32556
924.929	844.44577
925.105	1062.211
925.282	929.0057
925.459	1034.72216
925.635	975.51889
925.812	971.29028
925.989	924.77741
926.165	933.23403
926.342	895.18018
926.518	855.01504
926.695	878.26818
926.871	954.37611
927.048	810.62562
927.224	1005.11991
927.401	719.74618
927.577	888.83812
927.754	728.19928
927.93	713.40647
928.107	637.33786
928.283	791.60282
928.459	645.78918
928.636	850.78731
928.812	614.09776
928.988	857.12892
929.165	755.67302
929.341	890.95213
929.517	702.8405
929.693	781.03494
929.87	605.64718
930.046	709.18005
930.222	559.17274
930.398	620.43582
930.574	565.50978
930.751	616.21043
930.927	502.14492
931.103	624.66125
931.279	542.27454
931.455	569.73455
931.631	590.85917
931.807	645.78918
931.983	502.14492
932.159	645.78918
932.335	451.4624
932.511	616.21043
932.687	495.80913
932.863	650.01491
933.039	510.59283
933.215	527.48935
933.391	474.69081
933.566	641.5635
933.742	500.03297
933.918	525.37723
934.094	398.67758
934.27	430.34728
934.445	386.01073
934.621	413.45632
934.797	428.23586
934.973	424.01305
935.148	345.90302
935.324	341.68151
935.5	329.01742
935.675	417.67897
935.851	265.70668
936.027	348.0138
936.202	305.80158
936.378	375.45547
936.553	185.53762
936.729	269.92688
936.904	240.38709
937.08	257.26651
937.255	269.92688
937.431	223.5089
937.606	181.31899
937.782	215.07028
937.957	94.85568
938.133	166.55444
938.308	153.89993
938.483	177.10045
938.659	158.11802
938.834	134.91958
939.009	94.85568
939.185	128.59318
939.36	10.53718
939.535	99.07256
939.71	141.24617
939.886	181.31899
940.061	179.20971
940.236	88.53052
940.411	132.81075
940.586	109.61514
940.761	120.15828
940.937	84.31387
941.112	130.70195
941.287	84.31387
941.462	25.29023
941.637	69.55627
941.812	109.61514
941.987	94.85568
942.162	128.59318
942.337	94.85568
942.512	143.35507
942.687	75.88082
942.862	-16.85823
943.037	61.12386
943.212	143.35507
943.386	124.37568
943.561	109.61514
943.736	69.55627
943.911	151.79091
944.086	90.63889
944.26	-14.75104
944.435	88.53052
944.61	54.79979
944.785	18.96735
944.959	128.59318
945.134	42.15228
945.309	120.15828
945.483	73.77262
945.658	61.12386
945.833	80.0973
946.007	16.85977
946.182	105.39804
946.357	109.61514
946.531	46.36803
946.706	94.85568
946.88	118.04961
947.055	77.98905
947.229	118.04961
947.404	128.59318
947.578	137.02842
947.752	44.26014
947.927	126.48442
948.101	56.90779
948.276	94.85568
948.45	73.77262
948.624	35.82884
948.799	37.93663
948.973	126.48442
949.147	50.58386
949.321	75.88082
949.496	151.79091
949.67	118.04961
949.844	4.2148
950.018	84.31387
950.193	50.58386
950.367	27.39791
950.541	59.01582
950.715	63.23193
950.889	115.94096
951.063	109.61514
951.237	77.98905
951.411	86.42218
951.585	21.07496
951.759	84.31387
951.933	46.36803
952.107	111.72373
952.281	59.01582
952.455	54.79979
952.629	101.18103
952.803	75.88082
952.977	92.74727
953.151	10.53718
953.325	86.42218
953.499	82.20557
953.672	84.31387
953.846	31.61332
954.02	168.6636
954.194	172.88198
954.368	126.48442
954.541	48.47593
954.715	88.53052
954.889	109.61514
955.062	27.39791
955.236	59.01582
955.41	183.42829
955.583	120.15828
955.757	120.15828
955.93	92.74727
956.104	31.61332
956.278	109.61514
956.451	59.01582
956.625	54.79979
956.798	151.79091
956.972	118.04961
957.145	71.66443
957.319	86.42218
957.492	134.91958
957.665	65.34002
957.839	124.37568
958.012	113.83233
958.185	109.61514
958.359	134.91958
958.532	111.72373
958.705	-4.2147
958.879	130.70195
959.052	42.15228
959.225	0
959.398	21.07496
959.572	88.53052
959.745	134.91958
959.918	59.01582
960.091	80.0973
960.264	35.82884
960.438	80.0973
960.611	96.96411
960.784	113.83233
960.957	0
961.13	92.74727
961.303	134.91958
961.476	67.44814
961.649	179.20971
961.822	42.15228
961.995	118.04961
962.168	86.42218
962.341	16.85977
962.514	-10.53658
962.686	50.58386
962.859	177.10045
963.032	109.61514
963.205	29.5056
963.378	59.01582
963.551	63.23193
963.723	42.15228
963.896	126.48442
964.069	65.34002
964.242	120.15828
964.414	18.96735
964.587	52.69182
964.76	18.96735
964.932	56.90779
965.105	113.83233
965.278	80.0973
965.45	80.0973
965.623	80.0973
965.795	73.77262
965.968	84.31387
966.14	6.32224
966.313	94.85568
966.485	46.36803
966.658	50.58386
966.83	-6.32202
967.003	48.47593
967.175	103.28953
967.348	99.07256
967.52	99.07256
967.692	33.72107
967.865	96.96411
968.037	120.15828
968.209	50.58386
968.382	151.79091
968.554	105.39804
968.726	115.94096
968.898	109.61514
969.071	160.22709
969.243	124.37568
969.415	143.35507
969.587	50.58386
969.759	94.85568
969.932	50.58386
970.104	128.59318
970.276	42.15228
970.448	48.47593
970.62	120.15828
970.792	31.61332
970.964	50.58386
971.136	101.18103
971.308	33.72107
971.48	56.90779
971.652	25.29023
971.824	27.39791
971.996	101.18103
972.168	54.79979
972.339	80.0973
972.511	115.94096
972.683	84.31387
972.855	25.29023
973.027	59.01582
973.199	50.58386
973.37	8.4297
973.542	-35.82187
973.714	69.55627
973.886	-31.6079
974.057	25.29023
974.229	118.04961
974.401	69.55627
974.572	25.29023
974.744	67.44814
974.915	8.4297
975.087	134.91958
975.259	52.69182
975.43	88.53052
975.602	67.44814
975.773	63.23193
975.945	29.5056
976.116	44.26014
976.288	75.88082
976.459	16.85977
976.63	33.72107
976.802	77.98905
976.973	94.85568
977.145	37.93663
977.316	-16.85823
977.487	105.39804
977.659	42.15228
977.83	-42.14263
978.001	101.18103
978.172	71.66443
978.344	16.85977
978.515	2.10739
978.686	63.23193
978.857	77.98905
979.028	54.79979
979.2	61.12386
979.371	33.72107
979.542	33.72107
979.713	73.77262
979.884	80.0973
980.055	52.69182
980.226	-10.53658
980.397	29.5056
980.568	50.58386
980.739	-8.42931
980.91	42.15228
981.081	25.29023
981.252	88.53052
981.423	-14.75104
981.594	92.74727
981.765	42.15228
981.936	59.01582
982.106	21.07496
982.277	0
982.448	12.64469
982.619	4.2148
982.79	75.88082
982.96	69.55627
983.131	-14.75104
983.302	0
983.472	77.98905
983.643	67.44814
983.814	67.44814
983.984	67.44814
984.155	-8.42931
984.326	84.31387
984.496	35.82884
984.667	46.36803
984.837	84.31387
985.008	50.58386
985.178	16.85977
985.349	8.4297
985.519	0
985.69	92.74727
985.86	44.26014
986.031	75.88082
986.201	44.26014
986.371	48.47593
986.542	-58.9969
986.712	21.07496
986.882	92.74727
987.053	18.96735
987.223	29.5056
987.393	80.0973
987.563	33.72107
987.734	0
987.904	69.55627
988.074	52.69182
988.244	0
988.414	29.5056
988.585	-31.6079
988.755	80.0973
988.925	35.82884
989.095	25.29023
989.265	96.96411
989.435	-37.92881
989.605	2.10739
989.775	12.64469
989.945	21.07496
990.115	88.53052
990.285	8.4297
990.455	10.53718
990.625	8.4297
990.795	59.01582
990.965	18.96735
991.134	40.04444
991.304	29.5056
991.474	12.64469
991.644	8.4297
991.814	42.15228
991.984	-8.42931
992.153	54.79979
992.323	-10.53658
992.493	25.29023
992.662	44.26014
992.832	88.53052
993.002	94.85568
993.171	44.26014
993.341	59.01582
993.511	25.29023
993.68	-12.64382
993.85	-18.9654
994.019	-21.07254
994.189	61.12386
994.358	16.85977
994.528	-50.56997
994.697	86.42218
994.867	-37.92881
995.036	44.26014
995.206	27.39791
995.375	-33.71489
995.544	10.53718
995.714	27.39791
995.883	-56.89021
996.052	59.01582
996.222	0
996.391	63.23193
996.56	84.31387
996.73	54.79979
996.899	25.29023
997.068	25.29023
997.237	82.20557
997.406	21.07496
997.576	-8.42931
997.745	-8.42931
997.914	8.4297
998.083	27.39791
998.252	-75.84956
998.421	75.88082
998.59	18.96735
998.759	16.85977
998.928	-33.71489
999.097	54.79979
999.266	63.23193
999.435	75.88082
999.604	27.39791
999.773	84.31387
999.942	86.42218
1000.111	80.0973
1000.28	54.79979
1000.448	8.4297
1000.617	-33.71489
1000.786	4.2148
1000.955	-4.2147
1001.124	16.85977
1001.292	50.58386
1001.461	61.12386
1001.63	-8.42931
1001.798	-65.31684
1001.967	8.4297
1002.136	16.85977
1002.304	25.29023
1002.473	40.04444
1002.642	69.55627
1002.81	-23.17966
1002.979	16.85977
1003.147	-4.2147
1003.316	-6.32202
1003.484	16.85977
1003.653	-50.56997
1003.821	-37.92881
1003.99	61.12386
1004.158	8.4297
1004.327	0
1004.495	-25.28676
1004.663	-16.85823
1004.832	4.2148
1005	6.32224
1005.168	0
1005.337	-10.53658
1005.505	-33.71489
1005.673	-2.10736
1005.842	21.07496
1006.01	-2.10736
1006.178	25.29023
1006.346	-2.10736
1006.514	-16.85823
1006.683	44.26014
1006.851	-33.71489
1007.019	84.31387
1007.187	-21.07254
1007.355	-4.2147
1007.523	29.5056
1007.691	-37.92881
1007.859	-8.42931
1008.027	-42.14263
1008.195	33.72107
1008.363	25.29023
1008.531	35.82884
1008.699	37.93663
1008.867	8.4297
1009.035	42.15228
1009.203	-25.28676
1009.37	2.10739
1009.538	67.44814
1009.706	40.04444
1009.874	10.53718
1010.042	-33.71489
1010.209	8.4297
1010.377	69.55627
1010.545	42.15228
1010.713	12.64469
1010.88	-33.71489
1011.048	-4.2147
1011.216	16.85977
1011.383	29.5056
1011.551	-40.03573
1011.718	37.93663
1011.886	-4.2147
1012.054	-14.75104
1012.221	33.72107
1012.389	16.85977
1012.556	-16.85823
1012.724	14.75222
1012.891	4.2148
1013.058	-50.56997
1013.226	16.85977
1013.393	33.72107
1013.561	-29.50088
1013.728	4.2148
1013.895	8.4297
1014.063	-33.71489
1014.23	-14.75104
1014.397	42.15228
1014.565	4.2148
1014.732	-25.28676
1014.899	16.85977
1015.066	23.18258
1015.233	-2.10736
1015.401	31.61332
1015.568	42.15228
1015.735	-8.42931
1015.902	-44.2495
1016.069	44.26014
1016.236	12.64469
1016.403	75.88082
1016.57	6.32224
1016.737	50.58386
1016.904	12.64469
1017.071	-6.32202
1017.238	82.20557
1017.405	-12.64382
1017.572	63.23193
1017.739	0
1017.906	16.85977
1018.073	-25.28676
1018.24	25.29023
1018.407	-52.67674
1018.573	10.53718
1018.74	2.10739
1018.907	-4.2147
1019.074	-2.10736
1019.241	0
1019.407	14.75222
1019.574	35.82884
1019.741	16.85977
1019.907	-16.85823
1020.074	0
1020.241	29.5056
1020.407	29.5056
1020.574	-16.85823
1020.74	8.4297
1020.907	-16.85823
1021.073	27.39791
1021.24	2.10739
1021.406	67.44814
1021.573	35.82884
1021.739	-35.82187
1021.906	18.96735
1022.072	29.5056
1022.239	16.85977
1022.405	-27.39383
1022.571	4.2148
1022.738	-12.64382
1022.904	59.01582
1023.07	-12.64382
1023.237	-2.10736
1023.403	35.82884
1023.569	-4.2147
1023.735	-48.46317
1023.902	29.5056
1024.068	-29.50088
1024.234	-50.56997
1024.4	33.72107
1024.566	-12.64382
1024.732	-16.85823
1024.898	-50.56997
1025.065	-29.50088
1025.231	-23.17966
1025.397	71.66443
1025.563	25.29023
1025.729	18.96735
1025.895	8.4297
1026.061	2.10739
1026.227	4.2148
1026.392	-25.28676
1026.558	29.5056
1026.724	-25.28676
1026.89	-10.53658
1027.056	59.01582
1027.222	37.93663
1027.388	50.58386
1027.553	0
1027.719	25.29023
1027.885	0
1028.051	-25.28676
1028.216	-69.53
1028.382	14.75222
1028.548	0
1028.713	-48.46317
1028.879	-21.07254
1029.045	29.5056
1029.21	50.58386
1029.376	77.98905
1029.541	0
1029.707	-18.9654
1029.873	67.44814
1030.038	101.18103
1030.204	-25.28676
1030.369	73.77262
1030.534	8.4297
1030.7	46.36803
1030.865	-27.39383
1031.031	59.01582
1031.196	-21.07254
1031.361	-37.92881
1031.527	2.10739
1031.692	-21.07254
1031.857	44.26014
1032.023	-25.28676
1032.188	-29.50088
1032.353	42.15228
1032.518	-37.92881
1032.684	16.85977
1032.849	33.72107
1033.014	-21.07254
1033.179	-12.64382
1033.344	0
1033.509	0
1033.674	-14.75104
1033.839	-8.42931
1034.004	75.88082
1034.17	42.15228
1034.335	-65.31684
1034.5	-10.53658
1034.664	84.31387
1034.829	50.58386
1034.994	42.15228
1035.159	21.07496
1035.324	-33.71489
1035.489	-16.85823
1035.654	-40.03573
1035.819	4.2148
1035.984	-12.64382
1036.148	50.58386
1036.313	44.26014
1036.478	18.96735
1036.643	12.64469
1036.807	44.26014
1036.972	-40.03573
1037.137	2.10739
1037.301	12.64469
1037.466	37.93663
1037.631	0
1037.795	27.39791
1037.96	25.29023
1038.124	25.29023
1038.289	-10.53658
1038.454	59.01582
1038.618	-10.53658
1038.783	-16.85823
1038.947	-54.78349
1039.111	-6.32202
1039.276	12.64469
1039.44	-8.42931
1039.605	16.85977
1039.769	-80.06246
1039.933	25.29023
1040.098	16.85977
1040.262	12.64469
1040.426	37.93663
1040.591	69.55627
1040.755	0
1040.919	-2.10736
1041.083	12.64469
1041.248	35.82884
1041.412	46.36803
1041.576	33.72107
1041.74	-40.03573
1041.904	-14.75104
1042.068	-44.2495
1042.232	-16.85823
1042.397	21.07496
1042.561	-160.0877
1042.725	-25.28676
1042.889	0
1043.053	29.5056
1043.217	10.53718
1043.381	-61.10358
1043.544	8.4297
1043.708	-2.10736
1043.872	-8.42931
1044.036	0
1044.2	-50.56997
1044.364	16.85977
1044.528	75.88082
1044.691	-23.17966
1044.855	-82.16888
1045.019	8.4297
1045.183	77.98905
1045.346	21.07496
1045.51	-52.67674
1045.674	14.75222
1045.837	50.58386
1046.001	-8.42931
1046.165	4.2148
1046.328	-31.6079
1046.492	109.61514
1046.655	44.26014
1046.819	-52.67674
1046.983	42.15228
1047.146	0
1047.31	18.96735
1047.473	-25.28676
1047.636	-35.82187
1047.8	-31.6079
1047.963	-50.56997
1048.127	2.10739
1048.29	-14.75104
