Data from mixed_try1_USB4F045381__15__00240.txt Node

Date: Thu Apr 03 20:24:32 EDT 2025
User: mmckonesweet
Spectrometer: USB4F04538
Trigger mode: 4
Integration Time (sec): 2.700000E-3
Scans to average: 1
Electric dark correction enabled: true
Nonlinearity correction enabled: true
Boxcar width: 0
XAxis mode: Wavelengths
Number of Pixels in Spectrum: 3648
>>>>>Begin Spectral Data<<<<<
345.52	100.3025
345.736	100.3025
345.952	100.3025
346.168	-49.34101
346.384	-2.98542
346.6	26.51971
346.816	91.86877
347.032	24.41204
347.248	-17.73622
347.464	-49.34101
347.68	-26.16471
347.896	-24.05762
348.112	-45.12736
348.328	-2.98542
348.544	-51.44779
348.76	34.9506
348.975	39.16618
349.191	89.7604
349.407	68.67788
349.623	30.7351
349.839	26.51971
350.055	-36.69976
350.27	39.16618
350.486	22.3044
350.702	49.70556
350.918	22.3044
351.133	47.59764
351.349	-17.73622
351.565	51.8135
351.781	64.46165
351.996	-0.87807
352.212	26.51971
352.428	-32.48582
352.644	39.16618
352.859	56.02946
353.075	64.46165
353.291	-47.2342
353.506	-0.87807
353.722	18.08919
353.938	-57.768
354.153	43.38186
354.369	49.70556
354.584	75.0024
354.8	47.59764
355.016	-17.73622
355.231	-17.73622
355.447	81.32712
355.662	60.24551
355.878	56.02946
356.093	-19.84338
356.309	34.9506
356.524	56.02946
356.74	41.27401
356.955	-13.52183
357.171	22.3044
357.386	47.59764
357.602	-2.98542
357.817	-24.05762
358.033	58.13747
358.248	-17.73622
358.464	72.8942
358.679	15.98162
358.895	9.65906
359.11	-9.30734
359.325	62.35357
359.541	43.38186
359.756	47.59764
359.972	89.7604
360.187	26.51971
360.402	-21.95051
360.618	-15.62904
360.833	-11.4146
361.048	83.43541
361.264	39.16618
361.479	1.22931
361.694	-28.27177
361.909	1.22931
362.125	43.38186
362.34	39.16618
362.555	30.7351
362.77	-26.16471
362.986	30.7351
363.201	13.87408
363.416	-7.20006
363.631	-28.27177
363.847	-7.20006
364.062	13.87408
364.277	13.87408
364.492	83.43541
364.707	47.59764
364.922	-7.20006
365.138	70.78603
365.353	56.02946
365.568	5.44413
365.783	30.7351
365.998	7.55158
366.213	64.46165
366.428	58.13747
366.643	-70.40773
366.858	22.3044
367.073	7.55158
367.288	45.48974
367.503	22.3044
367.718	5.44413
367.933	22.3044
368.148	47.59764
368.363	26.51971
368.578	60.24551
368.793	-26.16471
369.008	-5.09275
369.223	28.62739
369.438	-24.05762
369.653	53.92147
369.868	106.62802
370.083	66.56975
370.298	-2.98542
370.513	-19.84338
370.728	3.33671
370.943	3.33671
371.157	9.65906
371.372	13.87408
371.587	9.65906
371.802	43.38186
372.017	11.76656
372.232	15.98162
372.446	5.44413
372.661	-2.98542
372.876	5.44413
373.091	41.27401
373.306	79.21886
373.52	43.38186
373.735	47.59764
373.95	51.8135
374.165	-2.98542
374.379	81.32712
374.594	56.02946
374.809	-59.87469
375.023	47.59764
375.238	72.8942
375.453	60.24551
375.667	26.51971
375.882	47.59764
376.097	56.02946
376.311	5.44413
376.526	15.98162
376.741	39.16618
376.955	15.98162
377.17	-17.73622
377.384	47.59764
377.599	7.55158
377.813	-0.87807
378.028	64.46165
378.242	49.70556
378.457	104.51949
378.672	47.59764
378.886	9.65906
379.101	13.87408
379.315	9.65906
379.53	43.38186
379.744	34.9506
379.958	-7.20006
380.173	45.48974
380.387	9.65906
380.602	-49.34101
380.816	-51.44779
381.031	75.0024
381.245	11.76656
381.459	24.41204
381.674	34.9506
381.888	13.87408
382.103	-2.98542
382.317	9.65906
382.531	30.7351
382.746	15.98162
382.96	39.16618
383.174	-9.30734
383.388	32.84284
383.603	5.44413
383.817	22.3044
384.031	62.35357
384.246	24.41204
384.46	53.92147
384.674	22.3044
384.888	13.87408
385.103	49.70556
385.317	85.54372
385.531	18.08919
385.745	-0.87807
385.959	58.13747
386.174	-2.98542
386.388	13.87408
386.602	30.7351
386.816	13.87408
387.03	-24.05762
387.244	64.46165
387.458	-24.05762
387.672	39.16618
387.887	-47.2342
388.101	34.9506
388.315	26.51971
388.529	64.46165
388.743	-45.12736
388.957	72.8942
389.171	18.08919
389.385	1.22931
389.599	-9.30734
389.813	115.06236
390.027	-11.4146
390.241	58.13747
390.455	47.59764
390.669	-7.20006
390.883	22.3044
391.097	56.02946
391.311	39.16618
391.525	-26.16471
391.738	64.46165
391.952	89.7604
392.166	-19.84338
392.38	-28.27177
392.594	70.78603
392.808	60.24551
393.022	64.46165
393.236	34.9506
393.449	41.27401
393.663	1.22931
393.877	41.27401
394.091	9.65906
394.305	98.19403
394.518	-47.2342
394.732	64.46165
394.946	85.54372
395.16	22.3044
395.373	75.0024
395.587	-17.73622
395.801	-11.4146
396.015	-21.95051
396.228	51.8135
396.442	-13.52183
396.656	-45.12736
396.869	91.86877
397.083	75.0024
397.297	5.44413
397.51	47.59764
397.724	47.59764
397.938	-19.84338
398.151	-40.91361
398.365	60.24551
398.578	5.44413
398.792	-28.27177
399.005	75.0024
399.219	32.84284
399.433	41.27401
399.646	32.84284
399.86	72.8942
400.073	22.3044
400.287	-53.55456
400.5	34.9506
400.714	-15.62904
400.927	-9.30734
401.141	7.55158
401.354	3.33671
401.567	24.41204
401.781	-9.30734
401.994	47.59764
402.208	30.7351
402.421	41.27401
402.635	-0.87807
402.848	51.8135
403.061	-11.4146
403.275	77.11062
403.488	72.8942
403.701	72.8942
403.915	-19.84338
404.128	13.87408
404.341	24.41204
404.555	58.13747
404.768	9.65906
404.981	-55.66129
405.195	-11.4146
405.408	-19.84338
405.621	-26.16471
405.834	-49.34101
406.048	-15.62904
406.261	-11.4146
406.474	123.49705
406.687	-0.87807
406.9	123.49705
407.114	-2.98542
407.327	41.27401
407.54	81.32712
407.753	64.46165
407.966	-7.20006
408.179	53.92147
408.392	43.38186
408.605	115.06236
408.819	-40.91361
409.032	131.93208
409.245	9.65906
409.458	34.9506
409.671	62.35357
409.884	-70.40773
410.097	30.7351
410.31	39.16618
410.523	-32.48582
410.736	-32.48582
410.949	-30.3788
411.162	66.56975
411.375	98.19403
411.588	39.16618
411.801	-36.69976
412.014	-19.84338
412.227	47.59764
412.44	72.8942
412.653	22.3044
412.865	-28.27177
413.078	-7.20006
413.291	81.32712
413.504	64.46165
413.717	13.87408
413.93	47.59764
414.143	5.44413
414.356	3.33671
414.568	37.05838
414.781	-11.4146
414.994	49.70556
415.207	7.55158
415.42	39.16618
415.632	68.67788
415.845	37.05838
416.058	39.16618
416.271	5.44413
416.483	30.7351
416.696	60.24551
416.909	22.3044
417.121	-11.4146
417.334	-28.27177
417.547	41.27401
417.759	47.59764
417.972	43.38186
418.185	-43.0205
418.397	53.92147
418.61	1.22931
418.823	81.32712
419.035	22.3044
419.248	-15.62904
419.46	20.19678
419.673	-9.30734
419.885	56.02946
420.098	7.55158
420.311	-40.91361
420.523	106.62802
420.736	22.3044
420.948	18.08919
421.161	-19.84338
421.373	77.11062
421.586	-70.40773
421.798	26.51971
422.01	43.38186
422.223	22.3044
422.435	5.44413
422.648	-26.16471
422.86	-11.4146
423.073	43.38186
423.285	13.87408
423.497	79.21886
423.71	-11.4146
423.922	-30.3788
424.134	-11.4146
424.347	34.9506
424.559	24.41204
424.771	18.08919
424.984	60.24551
425.196	41.27401
425.408	11.76656
425.621	9.65906
425.833	13.87408
426.045	87.65205
426.257	-5.09275
426.47	56.02946
426.682	-11.4146
426.894	75.0024
427.106	28.62739
427.318	45.48974
427.531	20.19678
427.743	30.7351
427.955	13.87408
428.167	89.7604
428.379	13.87408
428.591	83.43541
428.804	3.33671
429.016	58.13747
429.228	-9.30734
429.44	1.22931
429.652	-28.27177
429.864	30.7351
430.076	-53.55456
430.288	-32.48582
430.5	91.86877
430.712	22.3044
430.924	15.98162
431.136	5.44413
431.348	51.8135
431.56	87.65205
431.772	-2.98542
431.984	-11.4146
432.196	5.44413
432.408	-11.4146
432.62	-36.69976
432.832	-45.12736
433.044	26.51971
433.256	5.44413
433.468	72.8942
433.679	89.7604
433.891	72.8942
434.103	34.9506
434.315	77.11062
434.527	-24.05762
434.739	85.54372
434.95	72.8942
435.162	56.02946
435.374	45.48974
435.586	-11.4146
435.798	9.65906
436.009	13.87408
436.221	13.87408
436.433	68.67788
436.645	64.46165
436.856	64.46165
437.068	-21.95051
437.28	5.44413
437.491	75.0024
437.703	75.0024
437.915	43.38186
438.126	47.59764
438.338	56.02946
438.55	64.46165
438.761	-28.27177
438.973	-2.98542
439.184	100.3025
439.396	18.08919
439.608	47.59764
439.819	13.87408
440.031	-15.62904
440.242	-28.27177
440.454	30.7351
440.665	30.7351
440.877	15.98162
441.088	64.46165
441.3	-5.09275
441.511	77.11062
441.723	51.8135
441.934	13.87408
442.146	-2.98542
442.357	32.84284
442.569	47.59764
442.78	64.46165
442.991	-11.4146
443.203	18.08919
443.414	9.65906
443.626	41.27401
443.837	24.41204
444.048	-45.12736
444.26	5.44413
444.471	18.08919
444.682	60.24551
444.894	7.55158
445.105	96.08559
445.316	3.33671
445.528	83.43541
445.739	32.84284
445.95	47.59764
446.161	30.7351
446.373	56.02946
446.584	85.54372
446.795	56.02946
447.006	43.38186
447.217	-17.73622
447.429	-15.62904
447.64	102.41098
447.851	72.8942
448.062	98.19403
448.273	60.24551
448.484	-36.69976
448.695	102.41098
448.907	56.02946
449.118	96.08559
449.329	24.41204
449.54	34.9506
449.751	30.7351
449.962	30.7351
450.173	41.27401
450.384	41.27401
450.595	30.7351
450.806	47.59764
451.017	49.70556
451.228	75.0024
451.439	75.0024
451.65	13.87408
451.861	-11.4146
452.072	83.43541
452.283	72.8942
452.494	56.02946
452.705	5.44413
452.915	104.51949
453.126	56.02946
453.337	24.41204
453.548	53.92147
453.759	-45.12736
453.97	5.44413
454.181	100.3025
454.391	72.8942
454.602	7.55158
454.813	108.73657
455.024	-28.27177
455.235	-7.20006
455.445	7.55158
455.656	26.51971
455.867	89.7604
456.078	13.87408
456.288	26.51971
456.499	121.38835
456.71	72.8942
456.921	81.32712
457.131	49.70556
457.342	43.38186
457.553	30.7351
457.763	30.7351
457.974	41.27401
458.184	26.51971
458.395	1.22931
458.606	56.02946
458.816	85.54372
459.027	47.59764
459.237	60.24551
459.448	-7.20006
459.659	32.84284
459.869	49.70556
460.08	39.16618
460.29	75.0024
460.501	-17.73622
460.711	81.32712
460.922	15.98162
461.132	53.92147
461.343	47.59764
461.553	49.70556
461.764	41.27401
461.974	9.65906
462.184	-21.95051
462.395	22.3044
462.605	34.9506
462.816	64.46165
463.026	45.48974
463.236	5.44413
463.447	22.3044
463.657	75.0024
463.867	64.46165
464.078	110.84515
464.288	13.87408
464.498	79.21886
464.709	39.16618
464.919	45.48974
465.129	13.87408
465.339	58.13747
465.55	45.48974
465.76	64.46165
465.97	-7.20006
466.18	30.7351
466.391	77.11062
466.601	43.38186
466.811	87.65205
467.021	34.9506
467.231	45.48974
467.441	-15.62904
467.651	-5.09275
467.862	1.22931
468.072	41.27401
468.282	15.98162
468.492	49.70556
468.702	47.59764
468.912	7.55158
469.122	81.32712
469.332	89.7604
469.542	13.87408
469.752	22.3044
469.962	87.65205
470.172	1.22931
470.382	34.9506
470.592	43.38186
470.802	-17.73622
471.012	5.44413
471.222	72.8942
471.432	47.59764
471.642	22.3044
471.852	39.16618
472.062	89.7604
472.272	102.41098
472.482	75.0024
472.691	75.0024
472.901	75.0024
473.111	123.49705
473.321	41.27401
473.531	163.5665
473.741	93.97717
473.95	41.27401
474.16	72.8942
474.37	75.0024
474.58	85.54372
474.79	64.46165
474.999	49.70556
475.209	64.46165
475.419	60.24551
475.628	53.92147
475.838	49.70556
476.048	77.11062
476.258	49.70556
476.467	75.0024
476.677	18.08919
476.886	81.32712
477.096	39.16618
477.306	60.24551
477.515	39.16618
477.725	72.8942
477.935	83.43541
478.144	28.62739
478.354	53.92147
478.563	102.41098
478.773	15.98162
478.982	64.46165
479.192	77.11062
479.401	131.93208
479.611	87.65205
479.82	96.08559
480.03	72.8942
480.239	5.44413
480.449	100.3025
480.658	56.02946
480.868	138.25859
481.077	153.02117
481.287	131.93208
481.496	81.32712
481.705	148.80318
481.915	110.84515
482.124	104.51949
482.333	125.60578
482.543	43.38186
482.752	58.13747
482.961	87.65205
483.171	68.67788
483.38	121.38835
483.589	81.32712
483.799	60.24551
484.008	131.93208
484.217	108.73657
484.426	72.8942
484.636	93.97717
484.845	134.0409
485.054	81.32712
485.263	165.67563
485.472	77.11062
485.682	106.62802
485.891	172.00315
486.1	100.3025
486.309	146.69422
486.518	127.71452
486.727	77.11062
486.936	131.93208
487.146	161.45739
487.355	119.27966
487.564	148.80318
487.773	218.41053
487.982	172.00315
488.191	123.49705
488.4	129.82329
488.609	157.23924
488.818	140.36746
489.027	169.89395
489.236	239.50798
489.445	203.64348
489.654	150.91217
489.863	228.95901
490.072	66.56975
490.281	184.65873
490.49	195.20561
490.698	165.67563
490.907	231.06877
491.116	174.11236
491.325	195.20561
491.534	81.32712
491.743	218.41053
491.952	216.30089
492.16	256.38735
492.369	224.73956
492.578	233.17854
492.787	176.22159
492.996	247.94751
493.204	163.5665
493.413	144.58528
493.622	207.86254
493.831	207.86254
494.039	190.9868
494.248	233.17854
494.457	351.3559
494.665	220.52019
494.874	252.16739
495.083	241.61784
495.291	203.64348
495.5	351.3559
495.709	304.92223
495.917	326.02738
496.126	300.70142
496.335	140.36746
496.543	370.35392
496.752	326.02738
496.96	262.71742
497.169	338.69132
497.377	361.91018
497.586	336.58062
497.794	300.70142
498.003	207.86254
498.211	359.79929
498.42	245.8376
498.628	311.25359
498.837	262.71742
499.045	338.69132
499.254	342.91278
499.462	328.13799
499.671	309.14312
499.879	467.47573
500.087	342.91278
500.296	389.35331
500.504	440.02485
500.713	404.13155
500.921	416.79924
501.129	380.90897
501.338	328.13799
501.546	431.57895
501.754	435.80187
501.962	456.91739
502.171	372.4649
502.379	416.79924
502.587	304.92223
502.795	513.93686
503.004	370.35392
503.212	456.91739
503.42	389.35331
503.628	452.69416
503.837	342.91278
504.045	448.471
504.253	465.36403
504.461	427.3561
504.669	490.7054
504.877	604.76693
505.085	444.24789
505.294	547.73116
505.502	435.80187
505.71	494.92917
505.918	511.82484
506.126	564.62963
506.334	486.48169
506.542	577.30405
506.75	516.0489
506.958	558.2926
507.166	549.84342
507.374	608.99218
507.582	507.60084
507.79	581.52897
507.998	526.6093
508.206	640.68315
508.414	547.73116
508.622	655.47322
508.83	613.21748
509.037	685.05508
509.245	575.19162
509.453	714.63918
509.661	554.06798
509.869	706.18636
510.077	621.66823
510.285	706.18636
510.492	598.42915
510.7	632.23195
510.908	611.10482
511.116	657.58613
511.324	545.61891
511.531	630.11918
511.739	623.78095
511.947	651.24742
512.155	691.39435
512.362	672.37686
512.57	729.43204
512.778	670.26386
512.985	752.679
513.193	835.10977
513.401	657.58613
513.608	854.13426
513.816	754.79243
514.024	756.90586
514.231	809.74492
514.439	887.95728
514.646	824.54092
514.854	835.10977
515.061	792.83576
515.269	742.11204
515.477	778.04075
515.684	877.38736
515.892	926.01066
516.099	830.8822
516.307	765.35969
516.514	995.78135
516.722	866.81764
516.929	1021.15431
517.136	900.64146
517.344	959.83792
517.551	849.90653
517.759	1029.61216
517.966	1010.58214
518.173	892.18531
518.381	978.86656
518.588	961.95219
518.796	953.49517
519.003	964.06646
519.21	974.63792
519.418	1059.21537
519.625	1021.15431
519.832	1057.10082
520.039	1038.07011
520.247	1133.2279
520.454	1044.41363
520.661	1264.34821
520.868	997.89573
521.076	1226.27971
521.283	909.09773
521.49	1162.8345
521.697	1171.29367
521.904	1205.13096
522.112	1095.16356
522.319	1268.5781
522.526	1150.14586
522.733	1321.45245
522.94	1224.16482
523.147	1268.5781
523.354	1080.36118
523.561	1277.0379
523.768	1188.2122
523.975	1406.05349
524.183	1198.7864
524.39	1361.6377
524.597	1384.90307
524.804	1391.24818
525.011	1268.5781
525.218	1300.30255
525.425	1374.32789
525.632	1399.70835
525.838	1258.0034
526.045	1456.8147
526.252	1247.42876
526.459	1571.02672
526.666	1477.96521
526.873	1370.09782
527.08	1439.89428
527.287	1518.15108
527.494	1433.54912
527.701	1638.70612
527.907	1467.38996
528.114	1583.71675
528.321	1456.8147
528.528	1678.88967
528.735	1509.69092
528.941	1435.66417
529.148	1467.38996
529.355	1653.51069
529.562	1568.91171
529.768	1636.59117
529.975	1564.68169
530.182	1636.59117
530.388	1579.48675
530.595	1672.54496
530.802	1740.22044
531.008	1780.40108
531.215	1602.75169
531.422	1731.76119
531.628	1697.92364
531.835	1864.98694
532.042	1843.84117
532.248	1810.00694
532.455	1731.76119
532.661	1949.56482
532.868	1824.80956
533.074	1864.98694
533.281	1729.64637
533.487	1833.2681
533.694	1873.44512
533.9	2042.58948
534.107	1932.64996
534.313	2023.56274
534.52	1915.73473
534.726	2034.13322
534.933	1767.71261
535.139	2095.43856
535.345	1839.61195
535.552	2042.58948
535.758	2084.86911
535.965	2163.07853
536.171	2182.10079
536.377	2112.3493
536.584	2029.90505
536.79	2171.53295
536.996	2163.07853
537.203	2279.31484
537.409	1977.05066
537.615	2289.88043
537.821	2076.41341
538.028	2188.4414
538.234	2169.41936
538.44	2317.34988
538.646	2156.73762
538.853	2313.12392
539.059	2211.68964
539.265	2289.88043
539.471	2262.4094
539.677	2304.67187
539.883	2321.5758
540.09	2418.76107
540.296	2311.01092
540.502	2515.92397
540.708	2306.7849
540.914	2515.92397
541.12	2397.63568
541.326	2541.26691
541.532	2441.99778
541.738	2604.61686
541.944	2758.72169
542.15	2691.1773
542.356	2446.2225
542.562	2505.36393
542.768	2545.49057
542.974	2720.72963
543.18	2475.7943
543.386	2591.94773
543.592	2431.4358
543.798	2693.28827
544.004	2541.26691
544.21	2735.50483
544.415	2568.71987
544.621	2925.41202
544.827	2642.6216
545.033	2855.79256
545.239	2737.61552
545.445	2897.98805
545.651	2762.94277
545.856	3030.86547
546.062	2760.83224
546.268	2959.1612
546.474	2680.62229
546.679	2798.81971
546.885	2672.17804
547.091	2862.12225
547.297	2659.5113
547.502	3066.71098
547.708	2794.5991
547.914	3028.75677
548.119	2923.30257
548.325	3056.16865
548.531	2729.17268
548.736	3028.75677
548.942	2992.90656
549.147	3129.95669
549.353	2957.05198
549.559	3108.87637
549.764	2908.53602
549.97	3132.06464
550.175	3081.46958
550.381	3420.69563
550.586	2988.6886
550.792	3290.11376
550.997	3148.92761
551.203	3460.69911
551.408	3241.65529
551.614	3195.29543
551.819	3148.92761
552.025	3315.39287
552.23	3016.10426
552.435	3146.8198
552.641	3239.5482
552.846	3174.22013
553.052	3132.06464
553.257	3515.43017
553.462	3292.22044
553.668	3437.53999
553.873	3313.28637
554.078	3549.10469
554.283	3410.16733
554.489	3614.33558
554.694	3410.16733
554.899	3464.90962
555.105	3492.27622
555.31	3471.22526
555.515	3490.1712
555.72	3456.48852
555.925	3384.8976
556.131	3666.92801
556.336	3427.0124
556.541	3639.58142
556.746	3429.11795
556.951	3704.78719
557.156	3492.27622
557.361	3723.71445
557.567	3635.37397
557.772	3698.47776
557.977	3551.20919
558.182	3744.74291
558.387	3637.47771
558.592	3673.2383
558.797	3639.58142
559.002	4024.23325
559.207	3816.22508
559.412	3902.39382
559.617	3578.56602
559.822	3933.91056
560.027	3540.6865
560.232	3818.32716
560.437	3639.58142
560.642	3734.22892
560.847	3721.6115
561.051	3713.1995
561.256	3692.16815
561.461	4076.729
561.666	3957.01995
561.871	4001.13104
562.076	3816.22508
562.281	3891.88723
562.485	3904.49508
562.69	3919.20331
562.895	3841.44866
563.1	4059.93177
563.305	3879.27867
563.509	4068.33055
563.714	3999.03072
563.919	4181.68145
564.123	4122.91453
564.328	4322.23478
564.533	4087.2266
564.737	4200.56731
564.942	4135.50883
565.147	4345.30149
565.351	3965.42276
565.556	4395.61977
565.761	4068.33055
565.965	4160.69516
566.17	4118.71626
566.374	4330.62297
566.579	4225.74578
566.784	4355.7855
566.988	4202.66563
567.193	4368.36559
567.397	4267.70309
567.602	4502.50433
567.806	4125.01363
568.011	4385.13782
568.215	4192.17381
568.42	4458.49995
568.624	4351.59196
568.828	4552.78312
569.033	4368.36559
569.237	4517.1703
569.442	4424.9663
569.646	4362.07564
569.85	4464.78689
570.055	4703.5425
570.259	4376.75188
570.463	4770.50926
570.668	4399.81239
570.872	4544.40421
571.076	4525.55036
571.281	4638.64644
571.485	4460.59562
571.689	4757.95476
571.893	4307.5546
572.098	4705.63556
572.302	4542.30943
572.506	4707.7286
572.71	4395.61977
572.914	4695.17003
573.119	4586.29522
573.323	4741.21415
573.527	4657.48946
573.731	4845.8191
573.935	4745.39944
574.139	4912.73636
574.343	4506.69472
574.547	4778.87848
574.751	4676.33066
574.955	4797.70788
575.159	4665.86355
575.364	4923.19006
575.568	4699.35631
575.772	4862.55061
575.976	4632.36503
576.18	4739.12148
576.383	4638.64644
576.587	4816.53544
576.791	4889.73619
576.995	5079.92653
577.199	4801.89194
577.403	4900.19116
577.607	4854.18504
577.811	4839.54441
578.015	4862.55061
578.219	4954.54772
578.422	5031.87448
578.626	5215.65942
578.83	4946.18619
579.034	5092.45984
579.238	4981.72018
579.442	5288.70557
579.645	5155.11381
579.849	5282.44559
580.053	5238.61986
580.257	5205.22192
580.46	5130.05473
580.664	5280.35889
580.868	5153.02568
581.071	5138.40813
581.275	5054.85743
581.479	5345.03588
581.682	5067.3924
581.886	5370.06608
582.09	5190.60844
582.293	5378.40874
582.497	5263.6644
582.7	5355.46554
582.904	5363.80885
583.107	5365.89462
583.311	5305.39781
583.515	5497.25068
583.718	5422.2015
583.922	5538.9315
584.125	5384.66548
584.329	5503.5034
584.532	5586.85278
584.735	5449.30611
584.939	5647.2575
585.142	5743.03118
585.346	5447.22128
585.549	5680.57575
585.753	5624.3477
585.956	5851.23695
586.159	5463.89925
586.363	5853.31721
586.566	5665.99976
586.769	5924.03183
586.973	5684.74011
587.176	5865.79824
587.379	5755.51972
587.582	5932.3494
587.786	5688.90437
587.989	5745.11267
588.192	5774.25094
588.395	5971.85273
588.599	5705.56047
588.802	5907.39555
589.005	5597.26881
589.208	5930.27004
589.411	5905.31591
589.615	6077.84592
589.818	5759.68238
590.021	5921.95238
590.224	6038.36542
590.427	5909.47516
590.63	5826.27205
590.833	5788.81834
591.036	5851.23695
591.239	6088.23411
591.442	6046.67781
591.645	6115.24066
591.848	6243.98652
592.051	6208.69421
592.254	6082.00126
592.457	6262.66794
592.66	6038.36542
592.863	6212.8466
593.066	6140.16626
593.269	6173.39512
593.472	6152.62779
593.675	6308.32566
593.878	6150.55092
594.081	6212.8466
594.284	5994.71919
594.486	6395.45899
594.689	6302.10027
594.892	6109.00873
595.095	6200.38915
595.298	6436.9366
595.5	6295.87468
595.703	6436.9366
595.906	6362.27019
596.109	6461.8187
596.311	6387.16235
596.514	6295.87468
596.717	6277.19663
596.92	6532.29981
597.122	6250.21387
597.325	6521.93663
597.528	6335.2999
597.73	6706.31506
597.933	6449.37806
598.136	6546.80731
598.338	6511.57286
598.541	6685.60748
598.743	6654.5418
598.946	6731.16113
599.148	6602.75416
599.351	6428.64182
599.554	6722.87947
599.756	6671.11081
599.959	6579.96303
600.161	6629.68553
600.363	6768.42405
600.566	6789.12247
600.768	6776.70369
600.971	6921.53841
601.173	6662.82649
601.376	6942.22001
601.578	6793.26188
601.78	6745.65315
601.983	6739.44242
602.185	6962.89934
602.388	6737.37213
602.59	7004.25125
602.792	6919.47013
602.995	6803.61
603.197	6683.5366
603.399	6878.09969
603.601	6840.85853
603.804	7004.25125
604.006	6925.67491
604.208	7060.06206
604.41	6807.74909
604.613	7076.59545
604.815	6675.25283
605.017	7126.18705
605.219	6940.15195
605.421	6871.89334
605.623	6952.55996
605.826	7130.31911
606.028	6867.75566
606.23	7132.3851
606.432	6929.81132
606.634	7173.7003
606.836	6842.92768
607.038	7057.99528
607.24	6718.73851
607.442	7250.11002
607.644	6960.83151
607.846	7109.65795
608.048	7076.59545
608.25	7055.92848
608.452	7402.8391
608.654	7316.16975
608.856	7132.3851
609.058	7334.745
609.26	7117.92268
609.462	7119.98881
609.664	7184.02771
609.866	7301.72111
610.067	7239.78615
610.269	7206.74606
610.471	7128.25309
610.673	7334.745
610.875	7099.32653
611.077	7186.09312
611.278	7157.17529
611.48	7429.65753
611.682	7093.12742
611.884	7448.222
612.085	7324.42563
612.287	7470.90951
612.489	7144.78059
612.69	7514.21479
612.892	7037.3263
613.094	7431.72034
613.295	7285.20705
613.497	7305.8494
613.699	7248.04529
613.9	7635.83135
614.102	7188.15851
614.304	7460.59733
614.505	7318.23375
614.707	7326.48955
614.908	7227.39678
615.11	7464.72227
615.311	7233.59156
615.513	7367.76329
615.714	6958.76366
615.916	7495.65655
616.117	7175.76582
616.319	7268.6916
616.52	7204.68086
616.722	7489.47008
616.923	7215.00661
617.124	7753.25509
617.326	7446.15936
617.527	7561.63349
617.729	7402.8391
617.93	7586.36918
618.131	7439.97134
618.333	7555.44909
618.534	7303.78526
618.735	7685.28129
618.937	7553.38757
619.138	7664.67863
619.339	7503.90487
619.54	7825.32355
619.742	7561.63349
619.943	7718.24114
620.144	7615.22361
620.345	7913.82996
620.546	7594.61373
620.748	7508.0289
620.949	7574.00172
621.15	7753.25509
621.351	7604.91894
621.552	7670.85965
621.753	7588.43035
621.954	7773.84869
622.155	7520.40048
622.356	7695.58182
622.558	7611.1018
622.759	7808.85302
622.96	7330.61732
623.161	7635.83135
623.362	7615.22361
623.563	7617.28448
623.764	7701.76189
623.965	7874.72719
624.166	7623.46696
624.366	8018.75336
624.567	7578.1243
624.768	8057.82893
624.969	7827.38228
625.17	7837.67559
625.371	7812.97078
625.572	7946.75284
625.773	7701.76189
625.973	7940.5802
626.174	7794.4402
626.375	7701.76189
626.576	7971.44155
626.777	7893.25048
626.977	7747.0766
627.178	8105.12116
627.379	7512.15285
627.58	7903.54048
627.78	7825.32355
627.981	7821.20604
628.182	7683.22112
628.382	7874.72719
628.583	7829.44098
628.784	8018.75336
628.984	7866.49408
629.185	8049.6031
629.386	7767.67083
629.586	7989.95615
629.787	7926.17665
629.987	7942.63776
630.188	7963.21231
630.388	7860.31903
630.589	7784.14471
630.79	7926.17665
630.99	7782.08554
631.191	7973.49881
631.391	7804.73517
631.591	8041.37695
631.792	7761.49278
631.992	8053.71605
632.193	8039.32036
632.393	7920.0034
632.594	7940.5802
632.794	8072.22334
632.994	7936.465
633.195	8277.7508
633.395	8088.6729
633.595	8125.67968
633.796	8322.94029
633.996	8082.50446
634.196	8162.67997
634.397	8405.07885
634.597	8205.83881
634.797	8248.9889
634.997	7841.79276
635.198	8014.63972
635.398	8039.32036
635.598	8292.1303
635.798	8244.87975
635.998	8072.22334
636.199	8131.84685
636.399	8400.97266
636.599	8086.61677
636.799	8448.18922
636.999	7932.34972
637.199	8290.07615
637.399	8138.01383
637.599	8195.56369
637.799	8055.7725
637.999	8478.97716
638.199	8189.39838
638.399	8300.34673
638.599	8376.33388
638.799	8478.97716
638.999	8497.44786
639.199	8573.36682
639.399	8281.85933
639.599	8680.02028
639.799	8470.76746
639.999	8647.2092
640.199	8368.12034
640.399	8374.28053
640.599	7973.49881
640.799	8641.05659
640.998	8294.18444
641.198	8559.00576
641.398	8378.38722
641.598	8552.85074
641.798	8540.54018
641.997	8723.07763
642.197	8675.91915
642.397	8522.07307
642.597	8515.91702
642.796	8782.52448
642.996	8316.77865
643.196	8725.12778
643.395	8485.13423
643.595	8723.07763
643.795	8429.71438
643.994	8815.31618
644.194	8665.66601
644.394	9022.20782
644.593	8669.76732
644.793	8915.71203
644.992	8786.6237
645.192	8815.31618
645.392	8682.07081
645.591	8893.17793
645.791	8667.71668
645.99	8452.29453
646.19	8133.90253
646.389	8639.00568
646.589	8520.02107
646.788	8844.00511
646.987	8712.82662
647.187	8827.61187
647.386	8548.74729
647.586	8815.31618
647.785	8575.41833
647.984	9075.43794
648.184	8936.1957
648.383	8868.59281
648.582	8805.06927
648.782	9192.09392
648.981	8860.3972
649.18	9057.01346
649.38	8944.38867
649.579	8907.51806
649.778	8884.98318
649.977	9067.24946
650.177	8878.83693
650.376	8987.39713
650.575	8723.07763
650.774	9185.95552
650.973	8778.42519
651.173	8983.30143
651.372	8805.06927
651.571	9073.39085
651.77	9085.67316
651.969	9024.25535
652.168	8909.56658
652.367	9077.48502
652.566	9110.23591
652.765	9280.06103
652.964	8774.32583
653.163	9159.35399
653.362	9075.43794
653.561	8788.67328
653.76	9065.20229
653.959	9151.16833
654.158	8991.49277
654.357	9124.56304
654.556	8774.32583
654.755	9245.28705
654.954	9061.10791
655.153	9316.87528
655.352	8950.53322
655.551	9171.63198
655.749	9341.41513
655.948	9347.54972
656.147	9052.91894
656.346	9233.01272
656.545	9022.20782
656.743	9280.06103
656.942	9222.78366
657.141	9457.94718
657.34	9224.8295
657.538	9300.51406
657.737	9075.43794
657.936	9386.3987
658.135	8874.73934
658.333	9204.37027
658.532	9001.73156
658.731	9351.63937
658.929	9222.78366
659.128	9212.55417
659.326	9222.78366
659.525	9594.85656
659.724	9273.9248
659.922	9478.38596
660.121	9273.9248
660.319	9108.18911
660.518	9230.96694
660.716	9204.37027
660.915	9318.92036
661.113	9437.50678
661.312	9237.10423
661.51	9318.92036
661.709	9130.70298
661.907	9367.99729
662.105	9353.68417
662.304	9531.5193
662.502	9335.28039
662.701	9310.73995
662.899	9280.06103
663.097	9478.38596
663.296	9077.48502
663.494	9560.12511
663.692	9339.37024
663.891	9388.44322
664.089	9282.10641
664.287	9157.3076
664.485	9255.51519
664.684	9294.37832
664.882	9398.66557
665.08	9331.19048
665.278	9384.35416
665.476	9351.63937
665.675	9212.55417
665.873	9476.34216
666.071	9429.33017
666.269	9429.33017
666.467	9253.4696
666.665	9459.99113
666.863	9130.70298
667.061	9376.17586
667.259	9543.77931
667.457	9590.77074
667.655	9271.87935
667.853	9547.86586
668.051	9261.65188
668.249	9239.14996
668.447	9196.1861
668.645	9388.44322
668.843	9282.10641
669.041	9476.34216
669.239	9132.74959
669.437	9490.64846
669.635	9378.22046
669.833	9613.24197
670.031	9269.83389
670.229	9484.51729
670.426	9269.83389
670.624	9639.79643
670.822	9343.46001
671.02	9729.65366
671.218	9660.22115
671.415	9766.4049
671.613	9502.91038
671.811	9590.77074
672.009	9621.41285
672.206	9437.50678
672.404	9370.04196
672.602	9239.14996
672.799	9417.06477
672.997	9339.37024
673.195	9474.29834
673.392	9680.64432
673.59	9455.90321
673.788	9441.59499
673.985	9396.62113
674.183	9556.03875
674.38	9183.90935
674.578	9707.19215
674.775	9095.90794
674.973	9149.12187
675.17	9138.88933
675.368	9572.38379
675.565	9253.4696
675.763	9556.03875
675.96	9190.0478
676.158	9519.25872
676.355	9179.81696
676.553	9415.02048
676.75	9194.14002
676.947	9692.89749
677.145	9425.24177
677.342	9774.57117
677.539	9394.57668
677.737	9464.07898
677.934	9410.93185
678.131	9645.92401
678.329	9220.73779
678.526	9335.28039
678.723	9347.54972
678.92	9756.19672
679.118	9386.3987
679.315	9553.99555
679.512	9333.23545
679.709	9343.46001
679.906	9054.96621
680.104	9443.63907
680.301	9206.41627
680.498	9323.01047
680.695	9417.06477
680.892	9359.81846
681.089	9280.06103
681.286	9474.29834
681.483	8993.54057
681.68	9376.17586
681.877	9433.41851
682.075	9257.56077
682.272	9106.14229
682.469	9243.24137
682.665	9073.39085
682.862	9122.51636
683.059	9046.77703
683.256	9267.78841
683.453	9308.6948
683.65	9282.10641
683.847	9355.72895
684.044	9537.64938
684.241	9278.01564
684.438	9298.46883
684.635	9298.46883
684.831	9658.17875
685.028	9118.42294
685.225	9367.99729
685.422	9011.96991
685.619	9327.10051
685.815	9104.09545
686.012	9228.92115
686.209	9081.57912
686.405	9421.1533
686.602	9288.24244
686.799	9251.42399
686.996	9347.54972
687.192	9441.59499
687.389	9218.69191
687.586	9451.81523
687.782	9359.81846
687.979	9609.15643
688.175	9179.81696
688.372	9190.0478
688.568	9149.12187
688.765	9294.37832
688.962	9302.55927
689.158	9355.72895
689.355	9539.69271
689.551	9621.41285
689.748	9359.81846
689.944	9382.30961
690.14	9204.37027
690.337	9263.69741
690.533	8973.06185
690.73	9011.96991
690.926	9233.01272
691.123	9210.50822
691.319	9108.18911
691.515	9482.47353
691.712	9083.62615
691.908	9003.77927
692.104	9007.87462
692.301	9048.82435
692.497	8981.25354
692.693	9181.86316
692.889	8921.85732
693.086	9077.48502
693.282	9374.13124
693.478	9294.37832
693.674	9038.58757
693.87	9190.0478
694.067	9341.41513
694.263	9282.10641
694.459	9282.10641
694.655	9271.87935
694.851	9206.41627
695.047	9065.20229
695.243	9138.88933
695.439	8944.38867
695.635	8903.42097
695.831	9048.82435
696.027	9106.14229
696.224	9208.46225
696.42	8880.8857
696.615	9198.23217
696.811	9269.83389
697.007	9167.53938
697.203	9054.96621
697.399	9267.78841
697.595	9318.92036
697.791	9046.77703
697.987	8930.05079
698.183	9018.11271
698.379	9122.51636
698.575	9275.97022
698.77	8942.34046
698.966	9089.76712
699.162	8891.12927
699.358	9245.28705
699.554	8573.36682
699.749	8993.54057
699.945	8882.93445
700.141	9132.74959
700.337	8911.61508
700.532	9286.19711
700.728	8712.82662
700.924	8757.92765
701.119	8757.92765
701.315	8975.1098
701.511	8790.72284
701.706	8985.34929
701.902	9097.95484
702.097	9280.06103
702.293	9233.01272
702.489	9003.77927
702.684	9032.4453
702.88	9024.25535
703.075	8714.87686
703.271	8831.71029
703.466	8591.82969
703.662	8948.48505
703.857	8901.3724
704.053	9001.73156
704.248	8962.82182
704.443	8932.09911
704.639	8884.98318
704.834	8999.68384
705.03	8895.22658
705.225	8878.83693
705.42	8610.29104
705.616	8915.71203
705.811	8835.80864
706.006	9005.82695
706.202	8895.22658
706.397	9081.57912
706.592	8874.73934
706.787	8930.05079
706.983	8909.56658
707.178	9278.01564
707.373	9040.63497
707.568	9167.53938
707.763	8803.01984
707.959	9001.73156
708.154	8882.93445
708.349	8848.10324
708.544	8977.15773
708.739	9185.95552
708.934	8948.48505
709.129	9228.92115
709.324	8778.42519
709.519	9128.65635
709.714	9011.96991
709.909	9157.3076
710.104	8858.34825
710.299	9065.20229
710.494	8796.87142
710.689	8952.58136
710.884	8884.98318
711.079	8911.61508
711.274	8622.59776
711.469	9114.32946
711.664	8632.85285
711.859	8848.10324
712.054	8690.27277
712.249	8643.10748
712.443	8833.75947
712.638	8891.12927
712.833	8550.79902
713.028	8950.53322
713.223	8841.95602
713.417	8950.53322
713.612	9026.30287
713.807	9159.35399
714.002	8782.52448
714.196	8829.66109
714.391	8745.62825
714.586	8784.5741
714.78	8600.03492
714.975	8692.32321
715.17	8657.46317
715.364	8844.00511
715.559	8985.34929
715.754	8721.02747
715.948	8634.90382
716.143	8932.09911
716.337	8866.54394
716.532	9097.95484
716.726	8745.62825
716.921	8917.76048
717.115	8751.77803
717.31	8762.02731
717.504	8427.66153
717.699	8764.07711
717.893	8349.63873
718.088	8673.86856
718.282	8579.52128
718.476	8314.72472
718.671	8407.13192
718.865	8524.12504
719.059	8425.60865
719.254	8542.59199
719.448	8483.08189
719.642	8472.81991
719.837	8255.15249
720.031	8427.66153
720.225	8384.54712
720.419	8534.38464
720.614	8478.97716
720.808	9200.27822
721.002	8589.77834
721.196	8639.00568
721.39	8400.97266
721.585	8712.82662
721.779	8345.53149
721.973	8577.46981
722.167	8388.65362
722.361	8839.90691
722.555	8542.59199
722.749	8639.00568
722.943	8429.71438
723.137	8569.26376
723.331	8513.86497
723.525	8721.02747
723.719	8464.60999
723.913	8772.27612
724.107	8207.89377
724.301	8489.23885
724.495	8499.50007
724.689	8442.03111
724.883	8413.291
725.077	8764.07711
725.271	8581.57273
725.465	8501.55225
725.659	8263.37033
725.853	8444.08383
726.046	8230.49707
726.24	8331.15555
726.434	8154.45824
726.628	8690.27277
726.822	8419.44992
727.015	8507.7087
727.209	8175.01196
727.403	8312.67078
727.596	8394.81323
727.79	8444.08383
727.984	8421.50285
728.177	8634.90382
728.371	8526.177
728.565	8655.41241
728.758	8698.47443
728.952	8491.29113
729.146	8458.45234
729.339	8606.18865
729.533	8567.21219
729.726	8495.39564
729.92	8439.97837
730.113	8474.87235
730.307	8343.47785
730.5	8499.50007
730.694	8392.76004
730.887	8491.29113
731.081	8425.60865
731.274	8509.76081
731.468	8088.6729
731.661	8351.69232
731.854	8322.94029
732.048	8290.07615
732.241	8199.6738
732.435	8538.48835
732.628	8497.44786
732.821	8263.37033
733.014	8437.92561
733.208	8380.44054
733.401	8361.95998
733.594	8423.55576
733.788	8386.60038
733.981	8690.27277
734.174	8446.13654
734.367	8630.80187
734.56	8481.02953
734.754	8517.96906
734.947	8386.60038
735.14	8156.5137
735.333	8185.28807
735.526	8347.58512
735.719	8123.62392
735.912	8162.67997
736.105	8072.22334
736.298	8366.06691
736.491	8378.38722
736.684	8271.58786
736.877	8253.09798
737.07	8304.45483
737.263	8368.12034
737.456	8335.26306
737.649	8041.37695
737.842	8164.73535
738.035	8216.11343
738.228	8212.00364
738.421	8361.95998
738.614	8444.08383
738.807	8240.77051
739	8364.01345
739.192	7934.40737
739.385	8281.85933
739.578	8302.40079
739.771	8483.08189
739.964	8146.2362
740.156	8587.72696
740.349	8125.67968
740.542	8288.02197
740.735	8063.99808
740.927	8187.34324
741.12	7928.23436
741.313	8063.99808
741.505	8138.01383
741.698	8117.45651
741.891	8212.00364
742.083	8039.32036
742.276	8129.79114
742.468	8327.04796
742.661	8172.95668
742.854	8306.50885
743.046	8131.84685
743.239	8154.45824
743.431	8138.01383
743.624	8131.84685
743.816	8218.1683
744.009	8329.10176
744.201	8129.79114
744.393	8257.20698
744.586	7948.81034
744.778	8022.86693
744.971	7841.79276
745.163	8154.45824
745.355	8094.84115
745.548	8228.44233
745.74	8101.00921
745.932	8121.56814
746.125	8160.62457
746.317	8238.71586
746.509	7948.81034
746.702	8121.56814
746.894	8158.56915
747.086	8257.20698
747.278	8068.11075
747.471	8088.6729
747.663	8051.65959
747.855	8261.3159
748.047	7763.55215
748.239	8051.65959
748.431	7763.55215
748.623	7989.95615
748.815	7858.26064
749.008	8049.6031
749.2	8080.44828
749.392	8119.51233
749.584	7819.14726
749.776	8162.67997
749.968	7850.02687
750.16	8144.18063
750.352	7876.78542
750.544	8022.86693
750.736	7798.55825
750.928	7989.95615
751.12	7893.25048
751.311	7961.15494
751.503	7944.69531
751.695	7924.11892
751.887	7759.43339
752.079	8002.2983
752.271	7940.5802
752.463	8055.7725
752.654	7808.85302
752.846	7860.31903
753.038	7448.222
753.23	7928.23436
753.421	7736.77869
753.613	8115.40067
753.805	8092.78508
753.997	7876.78542
754.188	8026.98041
754.38	7899.42454
754.572	7903.54048
754.763	8039.32036
754.955	7821.20604
755.146	7777.96716
755.338	7899.42454
755.53	7903.54048
755.721	7695.58182
755.913	7895.30852
756.104	7784.14471
756.296	7854.1438
756.487	7707.94177
756.679	7981.72764
756.87	7611.1018
757.062	7755.31454
757.253	7734.71905
757.445	7516.27671
757.636	7745.01706
757.827	7551.32604
758.019	7730.5997
758.21	7338.87259
758.401	7373.95359
758.593	7569.87906
758.784	7580.18555
758.975	7627.58851
759.167	7258.36872
759.358	7606.97991
759.549	7528.64777
759.74	7487.40788
759.932	7489.47008
760.123	7367.76329
760.314	7332.68117
760.505	7596.67482
760.696	7093.12742
760.888	7398.71286
761.079	7196.41987
761.27	7512.15285
761.461	7487.40788
761.652	7351.25484
761.843	7128.25309
762.034	7388.39688
762.225	7134.45107
762.416	7382.20703
762.607	7190.22389
762.798	7256.30408
762.989	7421.4061
763.18	7396.64971
763.371	7035.25927
763.562	7250.11002
763.753	7008.38595
763.944	7264.56251
764.135	7192.28923
764.326	7386.33362
764.517	7390.46012
764.708	7528.64777
764.899	7307.91351
765.089	7241.85097
765.28	7130.31911
765.471	7388.39688
765.662	7128.25309
765.853	7367.76329
766.043	6803.61
766.234	7159.24099
766.425	6894.64895
766.615	7270.7561
766.806	7020.78949
766.997	7225.3318
767.187	7074.52886
767.378	7076.59545
767.569	6830.51246
767.759	7062.12881
767.95	6987.71157
768.141	6836.72017
768.331	6807.74909
768.522	6766.35408
768.712	6635.89991
768.903	6995.98159
769.093	6712.52689
769.284	6975.30586
769.474	6863.61789
769.665	6915.33349
769.855	7051.79482
770.046	6950.49201
770.236	6795.33155
770.426	6867.75566
770.617	7010.45326
770.807	6488.77053
770.998	6606.8977
771.188	6776.70369
771.378	6764.28409
771.569	6710.4563
771.759	6662.82649
771.949	6662.82649
772.139	6776.70369
772.33	6892.58037
772.52	6627.61403
772.71	6702.17373
772.9	6664.8976
773.09	6774.63381
773.281	6727.02035
773.471	6745.65315
773.661	6867.75566
773.851	6447.30455
774.041	6778.77354
774.231	6753.93379
774.421	6656.61301
774.611	6395.45899
774.802	6092.38922
774.992	6316.62585
775.182	6027.9744
775.372	6669.03976
775.562	6237.75896
775.752	6480.47807
775.942	6094.46674
776.131	6416.19896
776.321	6229.45521
776.511	6316.62585
776.701	6474.25849
776.891	6459.74532
777.081	6142.24324
777.271	6455.59848
777.461	6461.8187
777.651	6579.96303
777.84	6499.13557
778.03	6385.08813
778.22	6279.27206
778.41	6389.23655
778.599	6123.54957
778.789	6453.52503
778.979	6212.8466
779.169	6279.27206
779.358	6362.27019
779.548	6387.16235
779.738	6246.06233
779.927	6308.32566
780.117	6229.45521
780.307	6127.70388
780.496	5988.48316
780.686	6241.91069
780.875	5971.85273
781.065	6476.33171
781.254	5901.15655
781.444	6142.24324
781.633	6198.31283
781.823	6229.45521
782.012	6038.36542
782.202	6337.37468
782.391	6123.54957
782.581	6129.781
782.77	5990.56186
782.96	6273.04569
783.149	6013.42599
783.338	6032.13088
783.528	6007.1906
783.717	5884.5182
783.906	6054.98982
784.096	5930.27004
784.285	5988.48316
784.474	5934.42874
784.663	5948.98342
784.853	5915.71388
785.042	5842.9157
785.231	6100.69917
785.42	5859.55783
785.61	5834.59406
785.799	5695.15058
785.988	5676.4113
786.177	5538.9315
786.366	5699.31461
786.555	5774.25094
786.744	5643.0923
786.933	5680.57575
787.122	5605.6012
787.312	5817.94967
787.501	5726.37848
787.69	5572.26936
787.879	5982.24693
788.068	5541.01529
788.257	5797.14205
788.445	5663.91738
788.634	6100.69917
788.823	5857.47765
789.012	5863.71813
789.201	5641.00966
789.39	5915.71388
789.579	5641.00966
789.768	5813.78833
789.957	5490.99775
790.145	5663.91738
790.334	5582.68621
790.523	5630.59611
790.712	5541.01529
790.9	5636.84431
791.089	5555.60118
791.278	5647.2575
791.467	5443.05155
791.655	5776.33206
791.844	5597.26881
792.033	5474.32222
792.221	5497.25068
792.41	5605.6012
792.599	5307.48424
792.787	5653.50513
792.976	5651.42261
793.164	5524.34428
793.353	5407.60506
793.541	5495.16639
793.73	5422.2015
793.918	5541.01529
794.107	5263.6644
794.295	5524.34428
794.484	5198.95914
794.672	5232.3582
794.861	5234.44545
795.049	5455.56045
795.238	5217.74685
795.426	5313.74337
795.614	5203.13435
795.803	5334.60563
795.991	5384.66548
796.179	5332.51951
796.368	5330.43336
796.556	5534.76384
796.744	5171.81801
796.932	5388.83652
797.121	4971.2697
797.309	5292.87877
797.497	4971.2697
797.685	5365.89462
797.874	5084.10439
798.062	5313.74337
798.25	5109.16961
798.438	5104.9923
798.626	4925.28073
798.814	5136.31981
799.002	4885.55405
799.19	5290.79218
799.378	5000.5296
799.566	5276.18541
799.755	4967.08934
799.943	5104.9923
800.131	5123.78944
800.318	5075.74858
800.506	5221.92164
800.694	5048.58963
800.882	5163.46609
801.07	5280.35889
801.258	5221.92164
801.446	5079.92653
801.634	4906.46386
801.822	4900.19116
802.01	4728.65775
802.197	5029.78499
802.385	4862.55061
802.573	5000.5296
802.761	4772.6016
802.949	5000.5296
803.136	4806.07591
803.324	5173.90592
803.512	4964.99913
803.699	4958.72836
803.887	4975.44996
804.075	5257.40358
804.262	4870.91581
804.45	4956.63805
804.638	4808.16786
804.825	5054.85743
805.013	5031.87448
805.201	5004.70922
805.388	4958.72836
805.576	4964.99913
805.763	4912.73636
805.951	5150.93753
806.138	5056.94665
806.326	5088.28216
806.513	4772.6016
806.701	5050.67892
806.888	5008.88875
807.075	5146.76116
807.263	5230.27094
807.45	5180.16954
807.638	5046.50032
807.825	5167.6421
808.012	5146.76116
808.2	5301.22489
808.387	5192.69615
808.574	5138.40813
808.761	5013.06818
808.949	5013.06818
809.136	5023.51636
809.323	5211.48449
809.51	5063.21417
809.698	5140.49642
809.885	5075.74858
810.072	5198.95914
810.259	5138.40813
810.446	5188.52071
810.633	5196.8715
810.82	5272.01183
811.008	5104.9923
811.195	5109.16961
811.382	5125.87789
811.569	5236.53267
811.756	4929.46201
811.943	5192.69615
812.13	4975.44996
812.317	5219.83426
812.504	5038.14284
812.691	5505.5876
812.878	5288.70557
813.064	5472.23767
813.251	5455.56045
813.438	5630.59611
813.625	5155.11381
813.812	5221.92164
813.999	5063.21417
814.186	5347.12186
814.372	4783.06295
814.559	5255.3166
814.746	5021.42677
814.933	5320.00229
815.12	4979.63013
815.306	5010.97847
815.493	5065.30329
815.68	5180.16954
815.866	4889.73619
816.053	5173.90592
816.24	5036.05341
816.426	5004.70922
816.613	4948.2766
816.799	5205.22192
816.986	5031.87448
817.173	5044.41098
817.359	4939.91479
817.546	5036.05341
817.732	4829.08613
817.919	4870.91581
818.105	4791.43162
818.292	5025.60592
818.478	4881.37181
818.665	5148.84936
818.851	5015.15786
819.037	5153.02568
819.224	4996.34989
819.41	5121.70096
819.597	4958.72836
819.783	4948.2766
819.969	4925.28073
820.156	5006.79899
820.342	4912.73636
820.528	5198.95914
820.714	4684.70394
820.901	4803.98394
821.087	4651.20865
821.273	4971.2697
821.459	4745.39944
821.646	4929.46201
821.832	4789.33948
822.018	5249.0555
822.204	4655.39588
822.39	4780.97072
822.576	4690.98366
822.762	4829.08613
822.948	4563.25627
823.134	4937.82428
823.32	4657.48946
823.507	4877.18948
823.693	4657.48946
823.879	4753.76974
824.065	4797.70788
824.25	4743.30681
824.436	4766.32452
824.622	4764.23211
824.808	4611.42555
824.994	4724.4721
825.18	4554.8778
825.366	4950.367
825.552	4714.00758
825.738	4912.73636
825.923	4837.4528
826.109	4929.46201
826.295	4613.5196
826.481	4657.48946
826.667	4603.04913
826.852	4613.5196
827.038	4778.87848
827.224	4728.65775
827.409	4538.11979
827.595	4973.35984
827.781	4630.27118
827.966	4950.367
828.152	4515.07522
828.338	4647.02134
828.523	4483.6465
828.709	4803.98394
828.894	4473.16916
829.08	4688.89044
829.266	4502.50433
829.451	4496.21859
829.637	4548.59371
829.822	4778.87848
830.008	4481.55108
830.193	4567.44537
830.378	4259.31231
830.564	4529.74026
830.749	4282.38612
830.935	4286.58108
831.12	4208.96047
831.305	4485.7419
831.491	4192.17381
831.676	4221.54958
831.861	4315.9434
832.047	4527.64532
832.232	4485.7419
832.417	4460.59562
832.602	4242.52973
832.788	4437.54208
832.973	4238.33387
833.158	4330.62297
833.343	4401.90867
833.528	4609.33148
833.714	4320.13767
833.899	4435.44617
834.084	4334.81694
834.269	4341.10774
834.454	4238.33387
834.639	4311.74904
834.824	4284.48362
835.009	4339.01083
835.194	4211.05871
835.379	4385.13782
835.564	4227.84385
835.749	4485.7419
835.934	4146.0035
836.119	4150.20122
836.304	3858.26279
836.489	4032.63344
836.674	3957.01995
836.859	3996.93037
837.044	4078.82856
837.228	4202.66563
837.413	4087.2266
837.598	4206.86221
837.783	3898.19125
837.968	4240.43181
838.152	3994.83001
838.337	4133.40983
838.522	3959.12068
838.707	4066.23088
838.891	3925.50654
839.076	3864.56777
839.261	3845.65231
839.445	4024.23325
839.63	3812.02088
839.815	4049.43282
839.999	3933.91056
840.184	4141.80569
840.368	3879.27867
840.553	4043.13321
840.737	3830.93918
840.922	3969.62404
841.106	3982.22739
841.291	4074.62942
841.475	3721.6115
841.66	4059.93177
841.844	3957.01995
842.029	4049.43282
842.213	3595.39943
842.397	3776.28195
842.582	3767.87197
842.766	3986.42834
842.951	3561.73142
843.135	3938.11245
843.319	3578.56602
843.504	3782.58923
843.688	3669.03146
843.872	3515.43017
844.056	3475.4356
844.241	3656.41047
844.425	3740.53737
844.609	3883.4816
844.793	3561.73142
844.977	3723.71445
845.161	3565.94018
845.346	3767.87197
845.53	3549.10469
845.714	3763.66686
845.898	3469.12007
846.082	3717.40554
846.266	3294.32711
846.45	3523.84924
846.634	3319.60581
846.818	3589.08704
847.002	3405.95589
847.186	3605.9197
847.37	3412.27303
847.554	3580.67026
847.738	3437.53999
847.922	3186.86551
848.106	3448.06713
848.29	3488.06617
848.473	3300.64702
848.657	3340.66951
848.841	2980.2525
849.025	3292.22044
849.209	2995.01552
849.392	3258.51142
849.576	3075.14456
849.76	3153.14319
849.944	3132.06464
850.127	3279.58007
850.311	3254.29749
850.495	3357.51921
850.678	3144.71196
850.862	3441.7509
851.046	3035.08282
851.229	3165.78955
851.413	3081.46958
851.596	3353.30689
851.78	3144.71196
851.964	3330.13788
852.147	3148.92761
852.331	3115.20064
852.514	3056.16865
852.698	3100.4438
852.881	2900.09767
853.065	3132.06464
853.248	3064.60254
853.431	3151.03541
853.615	3016.10426
853.798	3315.39287
853.982	3043.51734
854.165	3174.22013
854.348	3005.56008
854.532	3132.06464
854.715	3079.36126
854.898	3077.25292
855.081	2900.09767
855.265	3089.90273
855.448	2921.19311
855.631	3064.60254
855.814	2760.83224
855.997	2988.6886
856.181	2819.92195
856.364	3085.68619
856.547	2982.36155
856.73	3117.30869
856.913	2788.26808
857.096	3035.08282
857.279	2739.7262
857.462	3037.19147
857.645	2686.95534
857.828	2822.0321
858.011	2805.15053
858.194	2904.31687
858.377	2608.8398
858.56	2822.0321
858.743	2731.28341
858.926	2735.50483
859.109	2560.27302
859.292	2765.05328
859.475	2463.12093
859.658	2811.48122
859.841	2562.38475
860.023	2752.38998
860.206	2355.3818
860.389	2712.28637
860.572	2437.77302
860.755	2577.16653
860.937	2372.28384
861.12	2541.26691
861.303	2465.23319
861.486	2524.3718
861.668	2376.50925
861.851	2718.61883
862.034	2549.71419
862.216	2695.39922
862.399	2515.92397
862.581	2634.17645
862.764	2520.14791
862.947	2558.16128
863.129	2458.89639
863.312	2553.93776
863.494	2363.8329
863.677	2558.16128
863.859	2431.4358
864.042	2401.86084
864.224	2203.23585
864.406	2511.69999
864.589	2351.15619
864.771	2420.87355
864.954	2110.23548
865.136	2279.31484
865.318	2184.21434
865.501	2258.18295
865.683	2224.37006
865.865	2425.09848
866.048	2306.7849
866.23	2456.7841
866.412	2266.63582
866.594	2220.14328
866.777	2046.81757
866.959	2203.23585
867.141	2084.86911
867.323	2247.61667
867.505	2093.32469
867.687	2160.9649
867.869	2025.67685
868.052	2245.50338
868.234	2228.59679
868.416	2220.14328
868.598	2125.03203
868.78	2524.3718
868.962	2266.63582
869.144	2249.72994
869.326	2106.00783
869.508	2253.95647
869.69	2036.2473
869.872	2055.27367
870.054	2101.78014
870.236	2091.2108
870.417	1981.27916
870.599	1867.10149
870.781	1949.56482
870.963	1974.9364
871.145	1949.56482
871.327	2203.23585
871.508	2000.30709
871.69	2177.87368
871.872	1932.64996
872.054	2260.29618
872.235	1989.73608
872.417	2203.23585
872.599	1858.64326
872.78	2101.78014
872.962	1831.15347
873.144	1993.96451
873.325	1909.39142
873.507	2110.23548
873.689	1907.27698
873.87	2034.13322
874.052	1738.10563
874.233	2125.03203
874.415	1850.18495
874.596	2082.7552
874.778	1822.69491
874.959	2042.58948
875.141	1873.44512
875.322	2097.55243
875.503	1748.67963
875.685	2101.78014
875.866	1977.05066
876.048	1998.1929
876.229	1873.44512
876.41	2059.50168
876.592	1771.94211
876.773	1979.16492
876.954	1714.84252
877.136	1996.07871
877.317	1915.73473
877.498	2008.76378
877.679	1871.33058
877.86	2154.62397
878.042	1873.44512
878.223	2135.60076
878.404	1892.4757
878.585	2042.58948
878.766	1797.31882
878.947	2042.58948
879.128	1890.36121
879.309	1951.67915
879.49	1949.56482
879.672	2144.0556
879.853	1966.47931
880.034	2114.4631
880.215	1958.02211
880.396	2239.16348
880.576	1949.56482
880.757	2237.05016
880.938	1674.65987
881.119	2044.70353
881.3	1996.07871
881.481	2226.48343
881.662	1858.64326
881.843	1958.02211
882.023	1822.69491
882.204	2012.99209
882.385	1953.79348
882.566	2059.50168
882.747	1864.98694
882.927	2004.53545
883.108	2000.30709
883.289	2027.79095
883.469	1983.3934
883.65	2000.30709
883.831	2034.13322
884.011	2114.4631
884.192	2169.41936
884.373	2091.2108
884.553	2002.42128
884.734	2160.9649
884.914	1848.07036
885.095	2118.6907
885.275	1858.64326
885.456	2186.32787
885.636	1996.07871
885.817	2285.65422
885.997	2034.13322
886.178	2384.95994
886.358	1985.50763
886.538	2089.09691
886.719	2034.13322
886.899	2160.9649
887.08	1977.05066
887.26	2038.36137
887.44	2017.22037
887.621	2199.00891
887.801	1962.25072
887.981	2228.59679
888.161	1993.96451
888.342	2063.72965
888.522	2188.4414
888.702	2251.84321
888.882	1936.87871
889.062	2076.41341
889.242	2017.22037
889.423	2023.56274
889.603	1960.13642
889.783	2114.4631
889.963	1996.07871
890.143	2160.9649
890.323	1871.33058
890.503	2137.71448
890.683	1991.8503
890.863	1941.10744
891.043	1729.64637
891.223	1936.87871
891.403	1898.81914
891.583	2182.10079
891.763	1795.20411
891.943	2025.67685
892.122	1835.38272
892.302	2097.55243
892.482	1991.8503
892.662	2019.3345
892.842	1704.26825
893.022	2072.18552
893.201	1780.40108
893.381	2167.30575
893.561	1824.80956
893.741	1900.93361
893.92	1729.64637
894.1	1958.02211
894.28	1797.31882
894.459	2122.91826
894.639	1873.44512
894.819	1951.67915
894.998	1936.87871
895.178	2027.79095
895.357	1661.9704
895.537	1613.32658
895.716	1746.56484
895.896	1966.47931
896.075	1723.30188
896.255	1875.55965
896.434	1706.38311
896.614	1746.56484
896.793	1604.86667
896.973	1776.1716
897.152	1769.82736
897.331	1934.76434
897.511	1814.23629
897.69	1746.56484
897.87	1590.06175
898.049	1664.08531
898.228	1590.06175
898.407	1649.28083
898.587	1697.92364
898.766	1712.72767
898.945	1403.93844
899.124	1602.75169
899.304	1547.76153
899.483	1733.87601
899.662	1640.82106
899.841	1585.83175
900.02	1454.69964
900.199	1560.45166
900.378	1429.31902
900.557	1450.46954
900.737	1376.44292
900.916	1509.69092
901.095	1370.09782
901.274	1442.00933
901.453	1332.02746
901.632	1437.77923
901.811	1378.55795
901.989	1560.45166
902.168	1374.32789
902.347	1657.74055
902.526	1482.19531
902.705	1501.23074
902.884	1374.32789
903.063	1437.77923
903.242	1425.08892
903.42	1410.28358
903.599	1154.37539
903.778	1312.99246
903.957	1222.04993
904.135	1226.27971
904.314	1234.73929
904.493	1200.90125
904.672	1148.0311
904.85	1289.72768
905.029	1078.24658
905.207	1268.5781
905.386	970.40932
905.565	1148.0311
905.743	1074.01738
905.922	1065.55906
906.1	993.66698
906.279	968.29503
906.457	881.6153
906.636	892.18531
906.814	822.42718
906.993	1027.49769
907.171	892.18531
907.35	904.86958
907.528	799.17662
907.707	917.55413
907.885	871.0455
908.063	947.15248
908.242	813.9723
908.42	868.93157
908.598	754.79243
908.777	974.63792
908.955	917.55413
909.133	860.47591
909.311	803.40391
909.49	985.20956
909.668	746.3388
909.846	1021.15431
910.024	892.18531
910.202	955.60942
910.38	879.50133
910.559	995.78135
910.737	917.55413
910.915	898.52741
911.093	896.41337
911.271	1050.7572
911.449	754.79243
911.627	911.21182
911.805	714.63918
911.983	816.086
912.161	697.73371
912.339	900.64146
912.517	930.23896
912.695	928.12481
912.872	841.45119
913.05	896.41337
913.228	811.8586
913.406	923.89651
913.584	750.56559
913.762	926.01066
913.939	824.54092
914.117	900.64146
914.295	799.17662
914.473	858.36202
914.65	773.81369
914.828	832.99598
915.006	892.18531
915.184	957.72367
915.361	871.0455
915.539	828.76843
915.716	841.45119
915.894	894.29933
916.072	835.10977
916.249	862.58981
916.427	697.73371
916.604	883.72929
916.782	638.57033
916.959	934.4673
917.137	794.94937
917.314	790.72215
917.492	725.20545
917.669	718.86566
917.847	735.77199
918.024	767.47318
918.201	642.79598
918.379	841.45119
918.556	680.82896
918.733	799.17662
918.911	632.23195
919.088	854.13426
919.265	685.05508
919.442	788.60856
919.62	562.51727
919.797	585.75393
919.974	587.86644
920.151	742.11204
920.328	585.75393
920.506	775.92721
920.683	655.47322
920.86	649.13455
921.037	712.52596
921.214	613.21748
921.391	655.47322
921.568	644.90883
921.745	623.78095
921.922	746.3388
922.099	697.73371
922.276	649.13455
922.453	617.44283
922.63	649.13455
922.807	568.85439
922.984	547.73116
923.161	530.83356
923.338	560.40493
923.514	545.61891
923.691	560.40493
923.868	592.09148
924.045	634.34474
924.222	575.19162
924.399	632.23195
924.575	473.81092
924.752	494.92917
924.929	564.62963
925.105	623.78095
925.282	539.28225
925.459	566.742
925.635	488.59354
925.812	642.79598
925.989	421.02194
926.165	501.26494
926.342	471.69917
926.518	456.91739
926.695	482.25804
926.871	444.24789
927.048	437.91335
927.224	461.14068
927.401	372.4649
927.577	469.58744
927.754	425.2447
927.93	499.153
928.107	402.02032
928.283	410.46532
928.459	385.13111
928.636	427.3561
928.812	361.91018
928.988	389.35331
929.165	364.02109
929.341	452.69416
929.517	444.24789
929.693	359.79929
929.87	410.46532
930.046	406.24279
930.222	429.46752
930.398	435.80187
930.574	288.03942
930.751	444.24789
930.927	328.13799
931.103	317.58511
931.279	397.79792
931.455	372.4649
931.631	271.15779
931.807	326.02738
931.983	292.26001
932.159	273.26793
932.335	307.03267
932.511	309.14312
932.687	402.02032
932.863	332.35927
933.039	258.49735
933.215	326.02738
933.391	277.48826
933.566	298.59104
933.742	199.42451
933.918	252.16739
934.094	258.49735
934.27	174.11236
934.445	233.17854
934.621	256.38735
934.797	260.60738
934.973	165.67563
935.148	256.38735
935.324	199.42451
935.5	172.00315
935.675	254.27736
935.851	129.82329
936.027	256.38735
936.202	241.61784
936.378	190.9868
936.553	207.86254
936.729	131.93208
936.904	127.71452
937.08	159.34831
937.255	119.27966
937.431	226.84928
937.606	144.58528
937.782	148.80318
937.957	119.27966
938.133	142.47636
938.308	51.8135
938.483	64.46165
938.659	68.67788
938.834	178.33085
939.009	66.56975
939.185	81.32712
939.36	131.93208
939.535	91.86877
939.71	79.21886
939.886	112.95374
940.061	161.45739
940.236	108.73657
940.411	72.8942
940.586	157.23924
940.761	125.60578
940.937	91.86877
941.112	144.58528
941.287	91.86877
941.462	68.67788
941.637	22.3044
941.812	104.51949
941.987	39.16618
942.162	64.46165
942.337	81.32712
942.512	47.59764
942.687	83.43541
942.862	26.51971
943.037	39.16618
943.212	91.86877
943.386	136.14973
943.561	58.13747
943.736	72.8942
943.911	34.9506
944.086	41.27401
944.26	96.08559
944.435	9.65906
944.61	24.41204
944.785	43.38186
944.959	72.8942
945.134	123.49705
945.309	11.76656
945.483	123.49705
945.658	87.65205
945.833	72.8942
946.007	47.59764
946.182	30.7351
946.357	102.41098
946.531	129.82329
946.706	157.23924
946.88	131.93208
947.055	81.32712
947.229	30.7351
947.404	47.59764
947.578	32.84284
947.752	64.46165
947.927	58.13747
948.101	58.13747
948.276	127.71452
948.45	49.70556
948.624	34.9506
948.799	85.54372
948.973	104.51949
949.147	96.08559
949.321	186.76807
949.496	93.97717
949.67	89.7604
949.844	22.3044
950.018	22.3044
950.193	83.43541
950.367	106.62802
950.541	68.67788
950.715	22.3044
950.889	131.93208
951.063	64.46165
951.237	89.7604
951.411	56.02946
951.585	157.23924
951.759	98.19403
951.933	-2.98542
952.107	39.16618
952.281	100.3025
952.455	72.8942
952.629	64.46165
952.803	56.02946
952.977	72.8942
953.151	93.97717
953.325	30.7351
953.499	98.19403
953.672	1.22931
953.846	98.19403
954.02	108.73657
954.194	72.8942
954.368	60.24551
954.541	102.41098
954.715	66.56975
954.889	24.41204
955.062	41.27401
955.236	47.59764
955.41	28.62739
955.583	83.43541
955.757	131.93208
955.93	110.84515
956.104	85.54372
956.278	148.80318
956.451	53.92147
956.625	119.27966
956.798	93.97717
956.972	117.171
957.145	106.62802
957.319	108.73657
957.492	98.19403
957.665	85.54372
957.839	102.41098
958.012	85.54372
958.185	85.54372
958.359	91.86877
958.532	41.27401
958.705	18.08919
958.879	72.8942
959.052	9.65906
959.225	85.54372
959.398	34.9506
959.572	108.73657
959.745	34.9506
959.918	106.62802
960.091	68.67788
960.264	75.0024
960.438	72.8942
960.611	53.92147
960.784	30.7351
960.957	100.3025
961.13	108.73657
961.303	142.47636
961.476	144.58528
961.649	89.7604
961.822	77.11062
961.995	62.35357
962.168	100.3025
962.341	131.93208
962.514	58.13747
962.686	108.73657
962.859	66.56975
963.032	68.67788
963.205	-59.87469
963.378	89.7604
963.551	117.171
963.723	15.98162
963.896	123.49705
964.069	47.59764
964.242	22.3044
964.414	22.3044
964.587	81.32712
964.76	77.11062
964.932	72.8942
965.105	89.7604
965.278	24.41204
965.45	85.54372
965.623	89.7604
965.795	32.84284
965.968	77.11062
966.14	-43.0205
966.313	30.7351
966.485	106.62802
966.658	72.8942
966.83	15.98162
967.003	98.19403
967.175	47.59764
967.348	140.36746
967.52	83.43541
967.692	123.49705
967.865	77.11062
968.037	66.56975
968.209	75.0024
968.382	77.11062
968.554	165.67563
968.726	64.46165
968.898	134.0409
969.071	115.06236
969.243	89.7604
969.415	98.19403
969.587	91.86877
969.759	41.27401
969.932	106.62802
970.104	72.8942
970.276	39.16618
970.448	100.3025
970.62	5.44413
970.792	91.86877
970.964	68.67788
971.136	18.08919
971.308	123.49705
971.48	22.3044
971.652	58.13747
971.824	56.02946
971.996	87.65205
972.168	64.46165
972.339	75.0024
972.511	142.47636
972.683	81.32712
972.855	72.8942
973.027	127.71452
973.199	37.05838
973.37	98.19403
973.542	62.35357
973.714	-45.12736
973.886	72.8942
974.057	32.84284
974.229	39.16618
974.401	60.24551
974.572	134.0409
974.744	108.73657
974.915	34.9506
975.087	37.05838
975.259	91.86877
975.43	56.02946
975.602	68.67788
975.773	58.13747
975.945	77.11062
976.116	15.98162
976.288	47.59764
976.459	89.7604
976.63	77.11062
976.802	22.3044
976.973	34.9506
977.145	106.62802
977.316	85.54372
977.487	47.59764
977.659	-45.12736
977.83	70.78603
978.001	58.13747
978.172	37.05838
978.344	-53.55456
978.515	131.93208
978.686	58.13747
978.857	110.84515
979.028	-24.05762
979.2	39.16618
979.371	30.7351
979.542	72.8942
979.713	58.13747
979.884	56.02946
980.055	30.7351
980.226	-2.98542
980.397	15.98162
980.568	62.35357
980.739	93.97717
980.91	106.62802
981.081	24.41204
981.252	22.3044
981.423	51.8135
981.594	102.41098
981.765	39.16618
981.936	26.51971
982.106	85.54372
982.277	28.62739
982.448	32.84284
982.619	-28.27177
982.79	64.46165
982.96	72.8942
983.131	9.65906
983.302	39.16618
983.472	108.73657
983.643	115.06236
983.814	72.8942
983.984	98.19403
984.155	37.05838
984.326	47.59764
984.496	136.14973
984.667	81.32712
984.837	-28.27177
985.008	83.43541
985.178	11.76656
985.349	22.3044
985.519	-13.52183
985.69	64.46165
985.86	70.78603
986.031	68.67788
986.201	37.05838
986.371	13.87408
986.542	13.87408
986.712	26.51971
986.882	28.62739
987.053	83.43541
987.223	72.8942
987.393	91.86877
987.563	53.92147
987.734	91.86877
987.904	39.16618
988.074	89.7604
988.244	85.54372
988.414	106.62802
988.585	100.3025
988.755	64.46165
988.925	34.9506
989.095	64.46165
989.265	39.16618
989.435	117.171
989.605	-2.98542
989.775	106.62802
989.945	75.0024
990.115	-11.4146
990.285	91.86877
990.455	39.16618
990.625	-24.05762
990.795	66.56975
990.965	98.19403
991.134	60.24551
991.304	58.13747
991.474	7.55158
991.644	49.70556
991.814	51.8135
991.984	39.16618
992.153	70.78603
992.323	89.7604
992.493	28.62739
992.662	34.9506
992.832	93.97717
993.002	60.24551
993.171	47.59764
993.341	-7.20006
993.511	110.84515
993.68	102.41098
993.85	7.55158
994.019	1.22931
994.189	5.44413
994.358	-30.3788
994.528	51.8135
994.697	-24.05762
994.867	18.08919
995.036	32.84284
995.206	-28.27177
995.375	47.59764
995.544	22.3044
995.714	-9.30734
995.883	81.32712
996.052	-11.4146
996.222	87.65205
996.391	13.87408
996.56	1.22931
996.73	41.27401
996.899	58.13747
997.068	-2.98542
997.237	39.16618
997.406	26.51971
997.576	56.02946
997.745	51.8135
997.914	32.84284
998.083	1.22931
998.252	1.22931
998.421	62.35357
998.59	51.8135
998.759	-2.98542
998.928	51.8135
999.097	15.98162
999.266	98.19403
999.435	64.46165
999.604	39.16618
999.773	13.87408
999.942	75.0024
1000.111	91.86877
1000.28	39.16618
1000.448	51.8135
1000.617	-17.73622
1000.786	22.3044
1000.955	58.13747
1001.124	49.70556
1001.292	123.49705
1001.461	9.65906
1001.63	56.02946
1001.798	13.87408
1001.967	47.59764
1002.136	51.8135
1002.304	9.65906
1002.473	-9.30734
1002.642	68.67788
1002.81	-7.20006
1002.979	-15.62904
1003.147	47.59764
1003.316	64.46165
1003.484	7.55158
1003.653	56.02946
1003.821	-57.768
1003.99	9.65906
1004.158	7.55158
1004.327	110.84515
1004.495	-40.91361
1004.663	9.65906
1004.832	66.56975
1005	51.8135
1005.168	39.16618
1005.337	9.65906
1005.505	64.46165
1005.673	64.46165
1005.842	30.7351
1006.01	83.43541
1006.178	22.3044
1006.346	-40.91361
1006.514	24.41204
1006.683	20.19678
1006.851	13.87408
1007.019	85.54372
1007.187	3.33671
1007.355	11.76656
1007.523	7.55158
1007.691	110.84515
1007.859	62.35357
1008.027	30.7351
1008.195	72.8942
1008.363	43.38186
1008.531	-36.69976
1008.699	-49.34101
1008.867	66.56975
1009.035	117.171
1009.203	49.70556
1009.37	-19.84338
1009.538	22.3044
1009.706	51.8135
1009.874	43.38186
1010.042	5.44413
1010.209	93.97717
1010.377	30.7351
1010.545	-0.87807
1010.713	39.16618
1010.88	30.7351
1011.048	13.87408
1011.216	62.35357
1011.383	58.13747
1011.551	-9.30734
1011.718	51.8135
1011.886	106.62802
1012.054	47.59764
1012.221	30.7351
1012.389	64.46165
1012.556	-55.66129
1012.724	18.08919
1012.891	64.46165
1013.058	32.84284
1013.226	75.0024
1013.393	18.08919
1013.561	-28.27177
1013.728	-49.34101
1013.895	-7.20006
1014.063	-2.98542
1014.23	7.55158
1014.397	75.0024
1014.565	89.7604
1014.732	13.87408
1014.899	-7.20006
1015.066	41.27401
1015.233	-9.30734
1015.401	-28.27177
1015.568	-2.98542
1015.735	-5.09275
1015.902	81.32712
1016.069	64.46165
1016.236	20.19678
1016.403	89.7604
1016.57	24.41204
1016.737	93.97717
1016.904	53.92147
1017.071	-2.98542
1017.238	26.51971
1017.405	56.02946
1017.572	41.27401
1017.739	83.43541
1017.906	-7.20006
1018.073	39.16618
1018.24	58.13747
1018.407	-15.62904
1018.573	32.84284
1018.74	32.84284
1018.907	-2.98542
1019.074	7.55158
1019.241	-40.91361
1019.407	34.9506
1019.574	70.78603
1019.741	-2.98542
1019.907	-19.84338
1020.074	75.0024
1020.241	30.7351
1020.407	64.46165
1020.574	-11.4146
1020.74	45.48974
1020.907	51.8135
1021.073	13.87408
1021.24	5.44413
1021.406	-32.48582
1021.573	26.51971
1021.739	-0.87807
1021.906	56.02946
1022.072	-7.20006
1022.239	37.05838
1022.405	56.02946
1022.571	-0.87807
1022.738	7.55158
1022.904	-9.30734
1023.07	47.59764
1023.237	47.59764
1023.403	-2.98542
1023.569	28.62739
1023.735	-19.84338
1023.902	47.59764
1024.068	-19.84338
1024.234	22.3044
1024.4	81.32712
1024.566	41.27401
1024.732	-15.62904
1024.898	-53.55456
1025.065	34.9506
1025.231	45.48974
1025.397	22.3044
1025.563	64.46165
1025.729	66.56975
1025.895	115.06236
1026.061	24.41204
1026.227	15.98162
1026.392	110.84515
1026.558	119.27966
1026.724	26.51971
1026.89	79.21886
1027.056	72.8942
1027.222	15.98162
1027.388	30.7351
1027.553	98.19403
1027.719	45.48974
1027.885	13.87408
1028.051	22.3044
1028.216	32.84284
1028.382	39.16618
1028.548	1.22931
1028.713	89.7604
1028.879	26.51971
1029.045	-7.20006
1029.21	47.59764
1029.376	-95.68442
1029.541	5.44413
1029.707	81.32712
1029.873	34.9506
1030.038	-17.73622
1030.204	89.7604
1030.369	56.02946
1030.534	18.08919
1030.7	20.19678
1030.865	58.13747
1031.031	60.24551
1031.196	28.62739
1031.361	39.16618
1031.527	30.7351
1031.692	41.27401
1031.857	53.92147
1032.023	161.45739
1032.188	146.69422
1032.353	89.7604
1032.518	20.19678
1032.684	13.87408
1032.849	-2.98542
1033.014	22.3044
1033.179	-19.84338
1033.344	51.8135
1033.509	56.02946
1033.674	24.41204
1033.839	-11.4146
1034.004	96.08559
1034.17	58.13747
1034.335	39.16618
1034.5	47.59764
1034.664	47.59764
1034.829	13.87408
1034.994	-0.87807
1035.159	56.02946
1035.324	41.27401
1035.489	66.56975
1035.654	81.32712
1035.819	83.43541
1035.984	30.7351
1036.148	-7.20006
1036.313	53.92147
1036.478	32.84284
1036.643	60.24551
1036.807	26.51971
1036.972	18.08919
1037.137	81.32712
1037.301	13.87408
1037.466	-45.12736
1037.631	43.38186
1037.795	-0.87807
1037.96	24.41204
1038.124	5.44413
1038.289	30.7351
1038.454	51.8135
1038.618	47.59764
1038.783	49.70556
1038.947	70.78603
1039.111	60.24551
1039.276	-11.4146
1039.44	24.41204
1039.605	-19.84338
1039.769	18.08919
1039.933	13.87408
1040.098	15.98162
1040.262	3.33671
1040.426	26.51971
1040.591	-19.84338
1040.755	5.44413
1040.919	-61.98135
1041.083	-19.84338
1041.248	28.62739
1041.412	79.21886
1041.576	41.27401
1041.74	15.98162
1041.904	106.62802
1042.068	-2.98542
1042.232	20.19678
1042.397	30.7351
1042.561	66.56975
1042.725	24.41204
1042.889	9.65906
1043.053	-40.91361
1043.217	-2.98542
1043.381	24.41204
1043.544	22.3044
1043.708	43.38186
1043.872	93.97717
1044.036	47.59764
1044.2	58.13747
1044.364	-2.98542
1044.528	129.82329
1044.691	-30.3788
1044.855	79.21886
1045.019	24.41204
1045.183	-11.4146
1045.346	-19.84338
1045.51	22.3044
1045.674	64.46165
1045.837	-7.20006
1046.001	39.16618
1046.165	9.65906
1046.328	81.32712
1046.492	102.41098
1046.655	-2.98542
1046.819	41.27401
1046.983	-45.12736
1047.146	22.3044
1047.31	77.11062
1047.473	119.27966
1047.636	-36.69976
1047.8	-19.84338
1047.963	-78.83371
1048.127	22.3044
1048.29	15.98162
