Data from mixed_try1_USB4F045381__20__00245.txt Node

Date: Thu Apr 03 20:25:19 EDT 2025
User: mmckonesweet
Spectrometer: USB4F04538
Trigger mode: 4
Integration Time (sec): 2.700000E-3
Scans to average: 1
Electric dark correction enabled: true
Nonlinearity correction enabled: true
Boxcar width: 0
XAxis mode: Wavelengths
Number of Pixels in Spectrum: 3648
>>>>>Begin Spectral Data<<<<<
345.52	-43.72279
345.736	-43.72279
345.952	-43.72279
346.168	-39.50901
346.384	-28.97412
346.6	49.00291
346.816	-14.22423
347.032	-5.79519
347.248	46.895
347.464	-5.79519
347.68	-47.93647
347.896	-39.50901
348.112	-22.65289
348.328	11.06405
348.544	11.06405
348.76	19.49425
348.975	-1.58052
349.191	-43.72279
349.407	-10.00976
349.623	11.06405
349.839	23.70949
350.055	-1.58052
350.27	80.62436
350.486	-31.08114
350.702	-24.75999
350.918	-12.11701
351.133	-5.79519
351.349	-54.2568
351.565	8.95656
351.781	-14.22423
351.996	-20.54576
352.212	-16.33143
352.428	-12.11701
352.644	-35.29512
352.859	2.63424
353.075	2.63424
353.291	-10.00976
353.506	0.52684
353.722	44.78711
353.938	-26.86706
354.153	-54.2568
354.369	-10.00976
354.584	15.2791
354.8	-1.58052
355.016	11.06405
355.231	32.14026
355.447	-60.57691
355.662	2.63424
355.878	19.49425
356.093	-39.50901
356.309	-1.58052
356.524	-37.40208
356.74	53.21881
356.955	13.17157
357.171	15.2791
357.386	19.49425
357.602	-31.08114
357.817	-35.29512
358.033	-60.57691
358.248	2.63424
358.464	-64.79019
358.679	36.35578
358.895	6.8491
359.11	-5.79519
359.325	30.03253
359.541	74.29967
359.756	63.75895
359.972	-3.68787
360.187	53.21881
360.402	40.5714
360.618	-18.43861
360.833	-58.47023
361.048	-75.32294
361.264	-31.08114
361.479	-31.08114
361.694	-26.86706
361.909	-20.54576
362.125	-106.91731
362.34	-18.43861
362.555	-37.40208
362.77	27.92483
362.986	46.895
363.201	-18.43861
363.416	2.63424
363.631	-37.40208
363.847	-96.3865
364.062	55.32679
364.277	-14.22423
364.492	-10.00976
364.707	40.5714
364.922	21.60186
365.138	-64.79019
365.353	4.74166
365.568	-62.68356
365.783	-22.65289
365.998	-5.79519
366.213	21.60186
366.428	-26.86706
366.643	36.35578
366.858	-1.58052
367.073	-10.00976
367.288	4.74166
367.503	-104.8112
367.718	-22.65289
367.933	-12.11701
368.148	34.24801
368.363	13.17157
368.578	38.46358
368.793	46.895
369.008	-64.79019
369.223	-5.79519
369.438	19.49425
369.653	-14.22423
369.868	-35.29512
370.083	6.8491
370.298	-50.04327
370.513	44.78711
370.728	30.03253
370.943	15.2791
371.157	8.95656
371.372	-1.58052
371.587	44.78711
371.802	27.92483
372.017	86.94927
372.232	-28.97412
372.446	-54.2568
372.661	-20.54576
372.876	-3.68787
373.091	32.14026
373.306	32.14026
373.52	-37.40208
373.735	13.17157
373.95	-58.47023
374.165	30.03253
374.379	27.92483
374.594	-22.65289
374.809	-7.90249
375.023	53.21881
375.238	-10.00976
375.453	-54.2568
375.667	19.49425
375.882	-31.08114
376.097	-35.29512
376.311	30.03253
376.526	-26.86706
376.741	-35.29512
376.955	61.65088
377.17	2.63424
377.384	38.46358
377.599	11.06405
377.813	-56.36353
378.028	-16.33143
378.242	-7.90249
378.457	-56.36353
378.672	-28.97412
378.886	57.4348
379.101	36.35578
379.315	11.06405
379.53	11.06405
379.744	-26.86706
379.958	-1.58052
380.173	-144.82271
380.387	27.92483
380.602	55.32679
380.816	-1.58052
381.031	23.70949
381.245	-28.97412
381.459	15.2791
381.674	30.03253
381.888	6.8491
382.103	19.49425
382.317	-16.33143
382.531	30.03253
382.746	19.49425
382.96	23.70949
383.174	72.19148
383.388	-31.08114
383.603	-54.2568
383.817	-3.68787
384.031	36.35578
384.246	-7.90249
384.46	-33.18815
384.674	-24.75999
384.888	19.49425
385.103	-66.89679
385.317	-71.10991
385.531	-14.22423
385.745	-73.21644
385.959	-43.72279
386.174	11.06405
386.388	-20.54576
386.602	-18.43861
386.816	-28.97412
387.03	32.14026
387.244	-54.2568
387.458	44.78711
387.672	2.63424
387.887	13.17157
388.101	2.63424
388.315	2.63424
388.529	11.06405
388.743	-14.22423
388.957	-64.79019
389.171	-54.2568
389.385	-3.68787
389.599	38.46358
389.813	-20.54576
390.027	36.35578
390.241	114.35949
390.455	2.63424
390.669	-47.93647
390.883	27.92483
391.097	34.24801
391.311	-60.57691
391.525	2.63424
391.738	40.5714
391.952	-71.10991
392.166	-16.33143
392.38	23.70949
392.594	25.81715
392.808	-20.54576
393.022	-14.22423
393.236	4.74166
393.449	-73.21644
393.663	2.63424
393.877	-75.32294
394.091	-73.21644
394.305	-85.85504
394.518	-14.22423
394.732	-104.8112
394.946	-98.49271
395.16	-56.36353
395.373	55.32679
395.587	40.5714
395.801	95.38278
396.015	-22.65289
396.228	19.49425
396.442	27.92483
396.656	19.49425
396.869	-77.42941
397.083	-35.29512
397.297	19.49425
397.51	15.2791
397.724	27.92483
397.938	11.06405
398.151	-22.65289
398.365	78.51611
398.578	36.35578
398.792	59.54283
399.005	-52.15005
399.219	53.21881
399.433	23.70949
399.646	-54.2568
399.86	-14.22423
400.073	-3.68787
400.287	-14.22423
400.5	-12.11701
400.714	-1.58052
400.927	63.75895
401.141	-56.36353
401.354	40.5714
401.567	-77.42941
401.781	-22.65289
401.994	38.46358
402.208	19.49425
402.421	13.17157
402.635	30.03253
402.848	17.38667
403.061	-79.53586
403.275	21.60186
403.488	112.25088
403.701	11.06405
403.915	40.5714
404.128	-12.11701
404.341	-7.90249
404.555	4.74166
404.768	46.895
404.981	-10.00976
405.195	-12.11701
405.408	-56.36353
405.621	-85.85504
405.834	-24.75999
406.048	13.17157
406.261	57.4348
406.474	11.06405
406.687	-71.10991
406.9	-47.93647
407.114	15.2791
407.327	2.63424
407.54	8.95656
407.753	-75.32294
407.966	17.38667
408.179	11.06405
408.392	-22.65289
408.605	13.17157
408.819	53.21881
409.032	57.4348
409.245	-31.08114
409.458	-22.65289
409.671	-18.43861
409.884	23.70949
410.097	30.03253
410.31	4.74166
410.523	72.19148
410.736	-3.68787
410.949	-115.34148
411.162	63.75895
411.375	-104.8112
411.588	80.62436
411.801	23.70949
412.014	-26.86706
412.227	-10.00976
412.44	-14.22423
412.653	-26.86706
412.865	11.06405
413.078	61.65088
413.291	-22.65289
413.504	27.92483
413.717	36.35578
413.93	-64.79019
414.143	11.06405
414.356	-81.64228
414.568	-56.36353
414.781	-12.11701
414.994	-39.50901
415.207	-39.50901
415.42	78.51611
415.632	-20.54576
415.845	-54.2568
416.058	-31.08114
416.271	-60.57691
416.483	-22.65289
416.696	2.63424
416.909	-33.18815
417.121	-28.97412
417.334	-87.96139
417.547	67.97517
417.759	15.2791
417.972	21.60186
418.185	23.70949
418.397	32.14026
418.61	59.54283
418.823	15.2791
419.035	-10.00976
419.248	27.92483
419.46	13.17157
419.673	19.49425
419.885	-12.11701
420.098	-10.00976
420.311	-22.65289
420.523	27.92483
420.736	-73.21644
420.948	-14.22423
421.161	-26.86706
421.373	34.24801
421.586	-5.79519
421.798	36.35578
422.01	13.17157
422.223	55.32679
422.435	-14.22423
422.648	51.11085
422.86	-58.47023
423.073	-31.08114
423.285	11.06405
423.497	46.895
423.71	44.78711
423.922	-5.79519
424.134	-31.08114
424.347	11.06405
424.559	15.2791
424.771	-7.90249
424.984	27.92483
425.196	-39.50901
425.408	2.63424
425.621	-28.97412
425.833	-39.50901
426.045	-12.11701
426.257	8.95656
426.47	30.03253
426.682	-14.22423
426.894	0.52684
427.106	-26.86706
427.318	2.63424
427.531	-5.79519
427.743	49.00291
427.955	0.52684
428.167	-35.29512
428.379	-52.15005
428.591	82.73264
428.804	-14.22423
429.016	23.70949
429.228	-20.54576
429.44	36.35578
429.652	2.63424
429.864	25.81715
430.076	-20.54576
430.288	-5.79519
430.5	80.62436
430.712	23.70949
430.924	2.63424
431.136	-28.97412
431.348	-5.79519
431.56	-73.21644
431.772	32.14026
431.984	95.38278
432.196	2.63424
432.408	-31.08114
432.62	-22.65289
432.832	-45.82964
433.044	6.8491
433.256	-58.47023
433.468	70.08331
433.679	42.67924
433.891	-14.22423
434.103	11.06405
434.315	55.32679
434.527	27.92483
434.739	80.62436
434.95	11.06405
435.162	61.65088
435.374	-5.79519
435.586	-31.08114
435.798	-31.08114
436.009	-98.49271
436.221	40.5714
436.433	-47.93647
436.645	17.38667
436.856	2.63424
437.068	-54.2568
437.28	-22.65289
437.491	72.19148
437.703	19.49425
437.915	44.78711
438.126	44.78711
438.338	46.895
438.55	46.895
438.761	-5.79519
438.973	4.74166
439.184	-12.11701
439.396	13.17157
439.608	57.4348
439.819	15.2791
440.031	-52.15005
440.242	-3.68787
440.454	23.70949
440.665	-14.22423
440.877	15.2791
441.088	11.06405
441.3	38.46358
441.511	-5.79519
441.723	-28.97412
441.934	6.8491
442.146	-28.97412
442.357	36.35578
442.569	17.38667
442.78	-20.54576
442.991	63.75895
443.203	19.49425
443.414	23.70949
443.626	55.32679
443.837	67.97517
444.048	36.35578
444.26	49.00291
444.471	-43.72279
444.682	44.78711
444.894	27.92483
445.105	-18.43861
445.316	-33.18815
445.528	21.60186
445.739	-3.68787
445.95	-14.22423
446.161	2.63424
446.373	120.68545
446.584	30.03253
446.795	63.75895
447.006	23.70949
447.217	49.00291
447.429	-79.53586
447.64	6.8491
447.851	-12.11701
448.062	53.21881
448.273	-14.22423
448.484	44.78711
448.695	-5.79519
448.907	-69.00336
449.118	21.60186
449.329	11.06405
449.54	-10.00976
449.751	36.35578
449.962	-22.65289
450.173	51.11085
450.384	-41.61591
450.595	-10.00976
450.806	-39.50901
451.017	11.06405
451.228	-10.00976
451.439	63.75895
451.65	-5.79519
451.861	4.74166
452.072	8.95656
452.283	21.60186
452.494	57.4348
452.705	46.895
452.915	13.17157
453.126	-39.50901
453.337	-5.79519
453.548	-3.68787
453.759	19.49425
453.97	27.92483
454.181	-22.65289
454.391	86.94927
454.602	74.29967
454.813	0.52684
455.024	2.63424
455.235	30.03253
455.445	30.03253
455.656	15.2791
455.867	-1.58052
456.078	78.51611
456.288	6.8491
456.499	23.70949
456.71	97.49122
456.921	27.92483
457.131	-26.86706
457.342	-1.58052
457.553	-69.00336
457.763	78.51611
457.974	-12.11701
458.184	59.54283
458.395	-12.11701
458.606	-1.58052
458.816	13.17157
459.027	-10.00976
459.237	30.03253
459.448	59.54283
459.659	-1.58052
459.869	-3.68787
460.08	67.97517
460.29	36.35578
460.501	19.49425
460.711	-12.11701
460.922	23.70949
461.132	11.06405
461.343	65.86705
461.553	17.38667
461.764	11.06405
461.974	55.32679
462.184	89.05761
462.395	-52.15005
462.605	27.92483
462.816	-18.43861
463.026	-1.58052
463.236	-10.00976
463.447	27.92483
463.657	36.35578
463.867	4.74166
464.078	40.5714
464.288	36.35578
464.498	2.63424
464.709	40.5714
464.919	-77.42941
465.129	-12.11701
465.339	40.5714
465.55	15.2791
465.76	23.70949
465.97	63.75895
466.18	-5.79519
466.391	97.49122
466.601	11.06405
466.811	-56.36353
467.021	30.03253
467.231	49.00291
467.441	105.92518
467.651	46.895
467.862	-45.82964
468.072	53.21881
468.282	55.32679
468.492	8.95656
468.702	-3.68787
468.912	53.21881
469.122	70.08331
469.332	11.06405
469.542	84.84094
469.752	53.21881
469.962	61.65088
470.172	86.94927
470.382	-5.79519
470.592	97.49122
470.802	36.35578
471.012	89.05761
471.222	36.35578
471.432	-16.33143
471.642	80.62436
471.852	110.14229
472.062	6.8491
472.272	114.35949
472.482	32.14026
472.691	44.78711
472.901	38.46358
473.111	129.12037
473.321	36.35578
473.531	-10.00976
473.741	74.29967
473.95	70.08331
474.16	-14.22423
474.37	13.17157
474.58	63.75895
474.79	2.63424
474.999	67.97517
475.209	11.06405
475.419	30.03253
475.628	53.21881
475.838	105.92518
476.048	80.62436
476.258	145.99124
476.467	112.25088
476.677	120.68545
476.886	36.35578
477.096	105.92518
477.306	154.42718
477.515	55.32679
477.725	133.33796
477.935	65.86705
478.144	57.4348
478.354	120.68545
478.563	103.81665
478.773	103.81665
478.982	120.68545
479.192	171.30008
479.401	137.55563
479.611	207.15936
479.82	145.99124
480.03	164.97259
480.239	173.40929
480.449	209.26891
480.658	213.48807
480.868	179.73703
481.077	93.27437
481.287	192.39306
481.496	131.22915
481.705	137.55563
481.915	131.22915
482.124	255.68401
482.333	160.75436
482.543	154.42718
482.752	162.86346
482.961	240.91455
483.171	306.32919
483.38	247.24421
483.589	217.70731
483.799	183.95562
484.008	207.15936
484.217	249.35413
484.426	209.26891
484.636	259.90403
484.845	289.44628
485.054	209.26891
485.263	274.6747
485.472	308.43963
485.682	314.77108
485.891	251.46407
486.1	226.14603
486.309	274.6747
486.518	348.54149
486.727	312.66058
486.936	333.76638
487.146	331.65572
487.355	460.4368
487.564	344.31995
487.773	399.20538
487.982	356.9848
488.191	430.87514
488.4	365.42837
488.609	327.43445
488.818	369.65026
489.027	428.76371
489.236	432.98659
489.445	432.98659
489.654	407.65029
489.863	458.32515
490.072	523.79316
490.281	386.5385
490.49	384.42741
490.698	502.6729
490.907	468.88354
491.116	553.36388
491.325	509.00883
491.534	597.72496
491.743	498.44903
491.952	528.01738
492.16	532.24166
492.369	593.49984
492.578	468.88354
492.787	525.90526
492.996	559.70082
493.204	673.78553
493.413	589.27478
493.622	652.65602
493.831	553.36388
494.039	732.95422
494.248	639.97888
494.457	745.63433
494.665	720.27449
494.874	804.81301
495.083	711.82155
495.291	863.99908
495.5	849.20191
495.709	770.99567
495.917	678.01157
496.126	737.18088
496.335	787.90403
496.543	866.113
496.752	785.79045
496.96	855.54351
497.169	741.40759
497.377	866.113
497.586	933.76257
497.794	927.42009
498.003	893.59466
498.211	935.87675
498.42	914.73532
498.628	1060.62508
498.837	982.39044
499.045	1088.11478
499.254	931.6484
499.462	1045.82331
499.671	959.13317
499.879	1168.47394
500.087	959.13317
500.296	1164.24435
500.504	1231.91943
500.713	1179.04797
500.921	1160.01479
501.129	1105.03195
501.338	1075.42711
501.546	1253.06856
501.754	1215.00033
501.962	1253.06856
502.171	1176.93315
502.379	1246.72379
502.587	1322.86244
502.795	1379.96798
503.004	1176.93315
503.212	1549.17155
503.42	1240.37905
503.628	1333.43747
503.837	1346.12754
504.045	1263.64323
504.253	1354.58762
504.461	1468.79999
504.669	1373.62287
504.877	1595.70173
505.085	1451.87957
505.294	1538.59641
505.502	1356.70265
505.71	1595.70173
505.918	1396.8883
506.126	1521.67614
506.334	1485.72039
506.542	1633.77123
506.75	1475.14515
506.958	1728.94142
507.166	1667.61017
507.374	1642.23103
507.582	1625.3114
507.79	1779.69617
507.998	1610.50661
508.206	1762.77816
508.414	1540.71144
508.622	1703.56329
508.83	1731.05625
509.037	1855.82383
509.245	1652.80572
509.453	1832.56322
509.661	1853.70926
509.869	1938.28829
510.077	1853.70926
510.285	1904.45771
510.492	1824.10468
510.7	1929.83078
510.908	1676.06981
511.116	1885.42739
511.324	1659.1505
511.531	1980.57441
511.739	1938.28829
511.947	2010.17322
512.155	2069.36691
512.362	1980.57441
512.57	2005.9449
512.778	2132.78245
512.985	2160.26036
513.193	2092.62006
513.401	1972.11738
513.608	2270.1578
513.816	2115.87231
514.024	2200.41789
514.231	2056.68301
514.439	2240.57235
514.646	2143.35103
514.854	2445.51838
515.061	1948.86004
515.269	2183.50982
515.477	2050.34096
515.684	2162.37399
515.892	2185.62336
516.099	2369.46688
516.307	2303.96753
516.514	2411.71939
516.722	2090.50617
516.929	2401.15665
517.136	2210.98516
517.344	2394.81888
517.551	2259.59177
517.759	2373.69231
517.966	2284.94985
518.173	2549.01026
518.381	2301.85449
518.588	2597.57851
518.796	2563.79256
519.003	2559.56911
519.21	2464.52911
519.418	2498.32374
519.625	2475.09023
519.832	2549.01026
520.039	2606.02451
520.247	2787.56462
520.454	2625.02731
520.661	2736.91196
520.868	2641.91784
521.076	2933.14654
521.283	2724.24759
521.49	2745.35461
521.697	2838.20944
521.904	2806.55736
522.112	2741.13331
522.319	2880.40729
522.526	2791.78533
522.733	2994.31254
522.94	2852.97933
523.147	2945.8026
523.354	2859.30907
523.561	3078.65848
523.768	2937.36528
523.975	2918.38047
524.183	2829.76919
524.39	3002.74824
524.597	2994.31254
524.804	3095.52468
525.011	2947.91189
525.218	3321.01011
525.425	3013.29252
525.632	3084.98342
525.838	3158.76387
526.045	3095.52468
526.252	2964.78569
526.459	3167.19466
526.666	3200.91524
526.873	3514.72856
527.08	3044.92307
527.287	3184.05548
527.494	3125.0381
527.701	3306.26459
527.907	3369.45375
528.114	3603.11434
528.321	3382.0897
528.528	3575.76033
528.735	3415.78248
528.941	3491.57455
529.148	3333.64847
529.355	3533.67112
529.562	3327.32937
529.768	3569.44742
529.975	3373.6658
530.182	3548.40318
530.388	3445.25993
530.595	3714.60152
530.802	3512.62374
531.008	3788.19556
531.215	3828.13657
531.422	3832.34048
531.628	3588.38565
531.835	3805.01369
532.042	3561.02995
532.248	3987.82864
532.455	3710.39543
532.661	3903.79466
532.868	3756.65817
533.074	3891.18678
533.281	3958.42044
533.487	3903.79466
533.694	3926.90723
533.9	4193.57275
534.107	3914.30068
534.313	4076.02914
534.52	3922.70513
534.726	4046.63302
534.933	4046.63302
535.139	4197.76951
535.345	4023.53322
535.552	4155.79805
535.758	4151.60044
535.965	4290.07682
536.171	4176.78484
536.377	4327.82695
536.584	4057.1321
536.79	4271.19914
536.996	4015.13268
537.203	4441.03521
537.409	4359.28004
537.615	4373.95649
537.821	4283.78445
538.028	4397.01732
538.234	4336.21492
538.44	4501.80592
538.646	4340.40877
538.853	4533.23178
539.059	4359.28004
539.265	4508.09149
539.471	4485.04344
539.677	4650.51077
539.883	4348.79622
540.09	4727.96015
540.296	4575.12515
540.502	4826.29716
540.708	4562.55807
540.914	4692.37913
541.12	4583.50276
541.326	4939.21796
541.532	4612.82158
541.738	4826.29716
541.944	4801.1946
542.15	5052.07176
542.356	4811.6544
542.562	4951.76059
542.768	4748.88711
542.974	4880.67476
543.18	4876.49242
543.386	4976.84336
543.592	4972.66313
543.798	5148.15329
544.004	5037.44636
544.21	5386.05584
544.415	4947.5798
544.621	5106.38475
544.827	5110.56202
545.033	5323.47938
545.239	5131.44699
545.445	5269.2294
545.651	5014.4613
545.856	5469.45824
546.062	5208.70115
546.268	5408.99525
546.474	5265.05566
546.679	5277.57658
546.885	5173.20995
547.091	5181.56143
547.297	5235.83693
547.502	5413.16574
547.708	5231.66245
547.914	5323.47938
548.119	5246.27272
548.325	5396.48319
548.531	5444.44147
548.736	5598.65756
548.942	5444.44147
549.147	5569.49144
549.353	5488.2186
549.559	5531.98535
549.764	5517.39759
549.97	5734.01116
550.175	5423.59157
550.381	5829.7396
550.586	5548.65566
550.792	5885.90478
550.997	5746.50031
551.203	5977.39638
551.408	5644.48071
551.614	5679.88168
551.819	5619.48768
552.025	5977.39638
552.23	5627.81907
552.435	6045.98512
552.641	5713.19402
552.846	5958.6859
553.052	5856.78425
553.257	6039.75084
553.462	5813.09477
553.668	6031.43814
553.873	5813.09477
554.078	6093.77424
554.283	6064.68669
554.489	6264.05168
554.694	6018.96838
554.899	6102.08412
555.105	6149.85863
555.31	6243.29458
555.515	6257.82479
555.72	6251.5977
555.925	6160.24275
556.131	6334.6083
556.336	6066.76453
556.541	6369.87649
556.746	6288.9571
556.951	6168.54962
557.156	6112.47094
557.361	6380.2482
557.567	6355.35511
557.772	6382.32247
557.977	6187.23871
558.182	6322.1591
558.387	6425.87681
558.592	6357.42966
558.797	6461.12757
559.002	6546.1165
559.207	6446.61337
559.412	6469.42089
559.617	6425.87681
559.822	6515.02751
560.027	6320.08415
560.232	6591.70427
560.437	6307.63396
560.642	6873.27255
560.847	6552.33367
561.051	6842.23796
561.256	6668.34941
561.461	6778.08359
561.666	6593.77617
561.871	6616.56561
562.076	6554.40602
562.281	6653.8514
562.485	6647.63762
562.69	6804.98971
562.895	6726.33021
563.1	6674.5625
563.305	6711.8367
563.509	6811.19826
563.714	6678.70445
563.919	7080.03973
564.123	7046.9721
564.328	7113.10163
564.533	6809.12877
564.737	6916.71238
564.942	7030.43614
565.147	7331.99322
565.351	6987.02238
565.556	6997.35989
565.761	6910.5073
565.965	7168.88065
566.17	6778.08359
566.374	6964.27789
566.579	6922.91725
566.784	7160.61811
566.988	7311.35365
567.193	7280.39019
567.397	7255.61586
567.602	7303.09721
567.806	7131.69644
568.011	7280.39019
568.215	7282.45458
568.42	7426.90709
568.624	7224.64348
568.828	7253.55119
569.033	7199.86199
569.237	7416.5926
569.442	7383.58257
569.646	7191.60079
569.85	7294.84042
570.055	7567.13058
570.259	7406.27756
570.463	7501.15547
570.668	7216.38333
570.872	7443.40916
571.076	7577.43721
571.281	7563.00778
571.485	7319.60974
571.689	7569.19195
571.893	7431.03274
572.098	7591.86559
572.302	7696.95519
572.506	7719.61435
572.71	7591.86559
572.914	7818.46099
573.119	7804.04886
573.323	7744.33054
573.527	7560.94634
573.731	7616.59752
573.935	7637.20513
574.139	7785.51747
574.343	7583.62093
574.547	7923.43301
574.751	7641.32639
574.955	7649.56867
575.159	7789.6357
575.364	7795.81289
575.568	7904.91244
575.772	7775.22152
575.976	7651.62919
576.18	7867.86629
576.383	7849.34071
576.587	8026.29483
576.791	7820.51979
576.995	8011.89725
577.199	7731.97282
577.403	8036.57821
577.607	7987.21335
577.811	8209.26374
578.015	8127.05018
578.219	8231.86689
578.422	8180.49262
578.626	8201.04382
578.83	8069.48163
579.034	8211.31867
579.238	8155.82855
579.442	8223.64784
579.645	8184.60302
579.849	8057.14345
580.053	8161.99484
580.257	8340.73962
580.46	8141.43985
580.664	8281.17458
580.868	8001.61265
581.071	8285.28304
581.275	8494.71156
581.479	8509.07677
581.682	8638.32205
581.886	8299.66204
582.09	8104.43584
582.293	8465.97833
582.497	8262.68552
582.7	8266.79434
582.904	8225.70263
583.107	8574.73449
583.311	8289.39142
583.515	8574.73449
583.718	8552.16683
583.922	8718.29388
584.125	8753.14463
584.329	8591.14591
584.532	8673.18503
584.735	8824.87955
584.939	8726.49454
585.142	8904.78668
585.346	8671.13441
585.549	8808.48496
585.753	8701.8917
585.956	8876.10521
586.159	8931.41634
586.363	8994.90575
586.566	8890.44638
586.769	8915.02921
586.973	8775.69229
587.176	9046.09459
587.379	9095.22563
587.582	9244.60516
587.786	8904.78668
587.989	9103.41317
588.192	8810.53435
588.395	8972.37919
588.599	8980.57091
588.802	9373.4497
589.005	8984.66667
589.208	9203.68827
589.411	9191.41188
589.615	9201.64225
589.818	9209.82623
590.021	9357.09213
590.224	8925.2713
590.427	9048.14191
590.63	9338.6886
590.833	9273.24298
591.036	9121.83413
591.239	9457.26586
591.442	9250.74211
591.645	9273.24298
591.848	9359.13688
592.051	9602.34707
592.254	9348.91295
592.457	9475.66089
592.66	9267.10658
592.863	9547.18477
593.066	9205.73427
593.269	9428.64878
593.472	9254.83333
593.675	9661.58274
593.878	9557.40088
594.081	10031.00737
594.284	9635.03044
594.486	9777.97372
594.689	9641.15812
594.892	9757.55783
595.095	9708.5535
595.298	9684.04804
595.5	9720.80541
595.703	9835.13019
595.906	9651.37063
596.109	9835.13019
596.311	9726.93115
596.514	9875.94907
596.717	9808.59472
596.92	10004.49017
597.122	9937.16633
597.325	9771.84911
597.528	9839.21234
597.73	10155.40227
597.933	9831.04797
598.136	10000.41038
598.338	9949.4082
598.541	10181.90594
598.743	9880.03063
598.946	10065.68008
599.148	9916.76205
599.351	10238.98287
599.554	10228.79134
599.756	10165.59627
599.959	10088.11317
600.161	10075.87715
600.363	10194.13761
600.566	10247.13584
600.768	10194.13761
600.971	10230.82968
601.173	10135.01324
601.376	10359.2174
601.578	10387.74083
601.78	10336.80431
601.983	10324.57832
602.185	10338.84193
602.388	10424.41003
602.59	10395.8899
602.792	10165.59627
602.995	10353.1049
603.197	10081.99523
603.399	10628.05231
603.601	10554.75563
603.804	10546.61056
604.006	10503.8456
604.208	10459.0382
604.41	10422.37297
604.613	10548.64685
604.815	10414.22457
605.017	10446.81692
605.219	10479.40597
605.421	10259.36489
605.623	10459.0382
605.826	10593.442
606.028	10471.25902
606.23	10672.83685
606.432	10585.29788
606.634	10715.58022
606.836	10430.52116
607.038	10560.86431
607.24	10662.65906
607.442	10577.15355
607.644	10623.9807
607.846	10792.91193
608.048	10613.80144
608.25	10544.57426
608.452	10646.37397
608.654	10801.05112
608.856	10910.91187
609.058	10904.80937
609.26	10973.96499
609.462	10776.633
609.664	10947.52468
609.866	10988.2013
610.067	10670.80131
610.269	10969.89738
610.471	10691.15609
610.673	10923.11655
610.875	10591.40599
611.077	10841.74422
611.278	10776.633
611.48	11049.20789
611.682	10727.79164
611.884	11057.34135
612.085	10884.46698
612.287	10929.21873
612.489	10640.26686
612.69	10827.50217
612.892	10691.15609
613.094	11189.48594
613.295	10585.29788
613.497	10851.91677
613.699	11073.60775
613.9	10884.46698
614.102	10794.94675
614.304	11122.4028
614.505	10888.53555
614.707	11041.07425
614.908	10721.68599
615.11	11006.50432
615.311	10827.50217
615.513	11000.40341
615.714	10719.65074
615.916	11012.60513
616.117	10630.0881
616.319	11112.23768
616.52	10737.96749
616.722	10933.2868
616.923	10975.99878
617.124	11226.0719
617.326	10927.18468
617.527	11144.76513
617.729	11030.90695
617.93	11258.58994
618.131	10998.36976
618.333	10912.94601
618.534	11037.00736
618.735	11372.38254
618.937	11413.01517
619.138	11469.89428
619.339	11396.76259
619.54	11250.46068
619.742	11341.90548
619.943	11396.76259
620.144	11002.43706
620.345	11482.08168
620.546	11161.02783
620.748	11459.73785
620.949	11120.3698
621.15	11559.2606
621.351	11205.74678
621.552	11384.57274
621.753	11175.25714
621.954	11230.1368
622.155	11118.33678
622.356	11280.94457
622.558	11132.56766
622.759	11400.82579
622.96	11366.28731
623.161	11376.44598
623.362	11219.97448
623.563	11628.30401
623.764	11333.77788
623.965	11677.0342
624.166	11276.88018
624.366	11498.33101
624.567	11207.77934
624.768	11607.99823
624.969	11396.76259
625.17	11404.88896
625.371	11419.10972
625.572	11500.36213
625.773	11549.10626
625.973	11725.75923
626.174	11494.26873
626.375	11488.17525
626.576	11327.68208
626.777	11171.19168
626.977	11382.54107
627.178	11632.36506
627.379	11362.22377
627.58	11449.58118
627.78	11482.08168
627.981	11752.14983
628.182	11656.73058
628.382	11512.54867
628.583	11780.56883
628.784	11559.2606
628.984	11421.14122
629.185	11786.6584
629.386	11289.07321
629.586	11630.33454
629.787	11573.47629
629.987	11618.15124
630.188	11662.82176
630.388	11817.10508
630.589	11559.2606
630.79	11323.61816
630.99	11343.93735
631.191	11646.57844
631.391	11451.61254
631.591	11664.85214
631.792	11297.2017
631.992	11790.71807
632.193	11703.42755
632.393	11746.05982
632.594	11607.99823
632.794	11811.01589
632.994	11540.98261
633.195	11713.57845
633.395	11825.22387
633.595	11786.6584
633.796	11739.96973
633.996	11804.92664
634.196	11707.48794
634.397	12113.35594
634.597	11737.93969
634.797	12172.1804
634.997	11922.63886
635.198	12089.01293
635.398	11784.62855
635.598	11959.16459
635.798	12074.81233
635.998	11985.54266
636.199	11983.51362
636.399	11898.28691
636.599	11693.27644
636.799	11918.58029
636.999	11656.73058
637.199	12093.07017
637.399	12078.86968
637.599	12269.53138
637.799	11524.73487
637.999	12456.07543
638.199	12052.49633
638.399	12312.11723
638.599	12166.09541
638.799	12419.5822
638.999	12289.81075
639.199	12445.93863
639.399	12164.06706
639.599	12228.97051
639.799	12003.8036
639.999	12180.29363
640.199	12192.46324
640.399	11983.51362
640.599	11514.57973
640.799	12224.91426
640.998	12230.99862
641.198	12285.75493
641.398	12198.54795
641.598	12320.22847
641.798	12447.96601
641.997	12776.31721
642.197	12381.05923
642.397	12346.58923
642.597	12348.61693
642.796	12652.69753
642.996	12395.25219
643.196	12324.28405
643.395	12332.39512
643.595	12504.72975
643.795	12279.67115
643.994	12802.65962
644.194	12520.94703
644.394	12875.60296
644.593	12456.07543
644.793	12701.33738
644.992	12492.56652
645.192	12772.26444
645.392	12549.32628
645.591	12802.65962
645.791	12604.05423
645.99	12474.32124
646.19	12281.69909
646.389	12372.94882
646.589	12472.29395
646.788	12782.39631
646.987	12569.59642
647.187	12539.19098
647.386	12462.15742
647.586	12901.94188
647.785	12484.45757
647.984	12632.42992
648.184	12776.31721
648.383	12936.38374
648.582	12889.78557
648.782	13070.08519
648.981	12806.71222
649.18	12695.25758
649.38	12936.38374
649.579	12891.81163
649.778	12709.44369
649.977	12835.07976
650.177	12648.64406
650.376	12709.44369
650.575	12539.19098
650.774	12810.76479
650.973	12806.71222
651.173	12960.69473
651.372	12697.28419
651.571	13195.66429
651.77	12628.37632
651.969	13167.30927
652.168	12741.86799
652.367	12914.09801
652.566	12679.04454
652.765	12908.01997
652.964	12972.84995
653.163	13078.18761
653.362	13157.18227
653.561	12786.44902
653.76	13029.57189
653.959	13076.16201
654.158	12867.49849
654.357	13027.54618
654.556	12855.34163
654.755	13224.01842
654.954	12618.24222
655.153	13090.3411
655.352	13074.13641
655.551	13355.65149
655.749	13232.11944
655.948	13325.27621
656.147	12978.92749
656.346	12912.072
656.545	12881.68125
656.743	12954.61706
656.942	13221.99315
657.141	13177.43617
657.34	12889.78557
657.538	13124.77507
657.737	12871.55074
657.936	13163.25849
658.135	12893.83769
658.333	13270.59833
658.532	13124.77507
658.731	13070.08519
658.929	13173.38542
659.128	13185.5376
659.326	13033.62331
659.525	13432.59814
659.724	13108.57102
659.922	12993.10824
660.121	12993.10824
660.319	13286.79951
660.518	13230.09419
660.716	13203.76556
660.915	13424.49876
661.113	13410.32469
661.312	13260.47246
661.51	13203.76556
661.709	13124.77507
661.907	13483.21787
662.105	13061.98268
662.304	13464.99504
662.502	13292.87488
662.701	13256.42208
662.899	13167.30927
663.097	13341.47647
663.296	13228.06894
663.494	13329.3263
663.692	13143.00426
663.891	13303.00041
664.089	13201.74025
664.287	13300.97531
664.485	13094.39223
664.684	13450.82151
664.882	13161.23308
665.08	13481.19312
665.278	13325.27621
665.476	13495.36625
665.675	13300.97531
665.873	13143.00426
666.071	13195.66429
666.269	13361.72643
666.467	12980.95333
666.665	13406.27493
666.863	13106.54549
667.061	13406.27493
667.259	13209.84146
667.457	13657.33237
667.655	13114.64757
667.853	13384.00092
668.051	12985.00499
668.249	13185.5376
668.447	13068.05957
668.645	13191.61363
668.843	13412.34957
669.041	13537.88455
669.239	13187.56295
669.437	13434.62297
669.635	13444.74709
669.833	13343.50149
670.031	13033.62331
670.229	13406.27493
670.426	13325.27621
670.624	13558.13079
670.822	13469.04458
671.02	13398.17534
671.218	13519.66262
671.415	13588.4995
671.613	13554.08157
671.811	13691.74736
672.009	13438.67263
672.206	13614.81841
672.404	13215.91733
672.602	13043.75177
672.799	13333.37637
672.997	13278.69895
673.195	12936.38374
673.392	13203.76556
673.59	13082.23879
673.788	13347.5515
673.985	13053.8801
674.183	13373.87621
674.38	13260.47246
674.578	13284.77438
674.775	13232.11944
674.973	13021.469
675.17	13303.00041
675.368	13282.74924
675.565	13100.46888
675.763	13252.37169
675.96	13049.82879
676.158	13422.4739
676.355	13074.13641
676.553	13598.62223
676.75	13193.63896
676.947	13390.0757
677.145	13217.94261
677.342	13509.53919
677.539	13381.97599
677.737	13675.55219
677.934	13430.5733
678.131	13705.91797
678.329	13185.5376
678.526	13381.97599
678.723	13321.2261
678.92	13448.79671
679.118	13311.10076
679.315	13171.36004
679.512	13311.10076
679.709	13288.82463
679.906	12962.72062
680.104	13187.56295
680.301	13213.89204
680.498	13303.00041
680.695	13126.80055
680.892	13357.67647
681.089	13114.64757
681.286	13264.52282
681.483	12980.95333
681.68	13400.20025
681.877	13171.36004
682.075	13187.56295
682.272	12729.70905
682.469	13039.7004
682.665	13003.2372
682.862	13086.28996
683.059	12950.56524
683.256	13367.80134
683.453	13163.25849
683.65	13074.13641
683.847	13138.95336
684.044	13268.57317
684.241	12974.8758
684.438	13246.29606
684.635	12814.81734
684.831	13264.52282
685.028	13015.39178
685.225	13072.1108
685.422	12968.79823
685.619	12928.27991
685.815	12770.23805
686.012	12762.13244
686.209	12636.48349
686.405	13112.62206
686.602	13043.75177
686.799	12897.8898
686.996	13007.28874
687.192	13234.14469
687.389	13009.31451
687.586	13327.30125
687.782	13163.25849
687.979	13019.44326
688.175	12731.73556
688.372	13039.7004
688.568	13033.62331
688.765	12938.40969
688.962	12831.02732
689.158	13173.38542
689.355	13361.72643
689.551	13560.1554
689.748	13098.44334
689.944	13284.77438
690.14	12822.92237
690.337	12863.44623
690.533	12703.36396
690.73	12899.91584
690.926	13187.56295
691.123	12950.56524
691.319	12920.176
691.515	13270.59833
691.712	12897.8898
691.908	13019.44326
692.104	12689.17774
692.301	12887.7595
692.497	12709.44369
692.693	12737.81504
692.889	12733.76206
693.086	12875.60296
693.282	12808.7385
693.478	13341.47647
693.674	12912.072
693.87	12930.30588
694.067	12687.15111
694.263	13128.82603
694.459	12768.21166
694.655	13098.44334
694.851	12810.76479
695.047	13035.64901
695.243	12804.68592
695.439	12922.20198
695.635	12871.55074
695.831	12774.29083
696.027	12754.02673
696.224	12867.49849
696.42	12670.93788
696.615	12930.30588
696.811	12595.94667
697.007	12918.15
697.203	12677.01788
697.399	12604.05423
697.595	12709.44369
697.791	12591.89286
697.987	12679.04454
698.183	12745.92093
698.379	12549.32628
698.575	13055.90576
698.77	12652.69753
698.966	12668.9112
699.162	12297.9223
699.358	12577.7043
699.554	12490.53929
699.749	12727.68254
699.945	12490.53929
700.141	12421.60966
700.337	12733.76206
700.532	13001.21142
700.728	12368.89357
700.924	12701.33738
701.119	12474.32124
701.315	12488.51205
701.511	12567.56944
701.706	12987.03081
701.902	12591.89286
702.097	12691.20436
702.293	12934.35779
702.489	12711.47025
702.684	12567.56944
702.88	12652.69753
703.075	12417.55474
703.271	12395.25219
703.466	12535.13681
703.662	12545.27218
703.857	12547.29923
704.053	12664.85782
704.248	12488.51205
704.443	12628.37632
704.639	12715.52336
704.834	12571.6234
705.03	12849.26313
705.225	12591.89286
705.42	12267.50341
705.616	12255.3354
705.811	12255.3354
706.006	12608.10797
706.202	12350.64463
706.397	12747.94739
706.592	12514.86559
706.787	12749.97384
706.983	12792.52804
707.178	12889.78557
707.373	12569.59642
707.568	12458.10276
707.763	12405.38981
707.959	12604.05423
708.154	12608.10797
708.349	12573.65038
708.544	12608.10797
708.739	12713.49681
708.934	12525.00128
709.129	12569.59642
709.324	12449.99337
709.519	12741.86799
709.714	12604.05423
709.909	13138.95336
710.104	12662.83112
710.299	12529.05551
710.494	12377.00404
710.689	12411.47231
710.884	12421.60966
711.079	12687.15111
711.274	12531.08262
711.469	12749.97384
711.664	12604.05423
711.859	12922.20198
712.054	12299.95016
712.249	12230.99862
712.443	12243.16714
712.638	12492.56652
712.833	12036.26592
713.028	12822.92237
713.223	12297.9223
713.417	12372.94882
713.612	12259.39143
713.807	12587.83902
714.002	12153.92521
714.196	12506.75693
714.391	11973.36833
714.586	12184.3502
714.78	12157.98197
714.975	12407.41732
715.17	12224.91426
715.364	12377.00404
715.559	12486.48481
715.754	12247.22326
715.948	12383.08682
716.143	12072.78364
716.337	12216.80168
716.532	12251.27935
716.726	12003.8036
716.921	12731.73556
717.115	12178.26533
717.31	12208.68899
717.504	11991.62971
717.699	12237.08291
717.893	12224.91426
718.088	12082.927
718.282	12060.61135
718.476	12176.23703
718.671	11817.10508
718.865	12032.20824
719.059	11760.26972
719.254	11910.46303
719.448	12046.40999
719.642	12042.35238
719.837	11565.3531
720.031	11946.98964
720.225	12117.41301
720.419	12060.61135
720.614	12239.111
720.808	12304.00588
721.002	11983.51362
721.196	12425.66456
721.39	11768.38947
721.585	12135.66941
721.779	11906.40436
721.973	12097.12739
722.167	11689.21593
722.361	11938.87285
722.555	12111.3274
722.749	12026.12166
722.943	11967.28106
723.137	11957.13545
723.331	12048.43877
723.525	12068.72624
723.719	11918.58029
723.913	11849.57942
724.107	11922.63886
724.301	11843.49064
724.495	11646.57844
724.689	11719.66888
724.883	11640.48705
725.077	11918.58029
725.271	11713.57845
725.465	11985.54266
725.659	11981.48458
725.853	11863.78627
726.046	11808.98615
726.24	11819.13479
726.434	11526.76587
726.628	12141.75475
726.822	11687.18567
727.015	12214.77352
727.209	11408.95208
727.403	11504.42435
727.596	11668.91286
727.79	12003.8036
727.984	11683.1251
728.177	12239.111
728.371	11825.22387
728.565	11955.10631
728.758	12082.927
728.952	12005.83256
729.146	11813.04563
729.339	11942.93126
729.533	11955.10631
729.726	11648.60889
729.92	11467.86302
730.113	11865.81578
730.307	11741.99977
730.5	11981.48458
730.694	11664.85214
730.887	11715.6086
731.081	11626.27348
731.274	11672.97355
731.468	11394.73097
731.661	11508.48653
731.854	11573.47629
732.048	11772.44929
732.241	11815.07536
732.435	12028.15053
732.628	11778.53896
732.821	11918.58029
733.014	11689.21593
733.208	11811.01589
733.401	11670.94321
733.594	11543.01354
733.788	11607.99823
733.981	11707.48794
734.174	11768.38947
734.367	11979.45553
734.56	11780.56883
734.754	11875.96324
734.947	11644.54799
735.14	11593.78364
735.333	11614.09006
735.526	11819.13479
735.719	11622.21238
735.912	11528.79686
736.105	11679.06451
736.298	11646.57844
736.491	11498.33101
736.684	11569.41471
736.877	11597.845
737.07	11632.36506
737.263	11516.61078
737.456	11583.63008
737.649	11494.26873
737.842	11723.72912
738.035	11752.14983
738.228	11764.32961
738.421	11837.40179
738.614	11614.09006
738.807	11782.5987
739	11557.22975
739.192	11524.73487
739.385	11648.60889
739.578	11500.36213
739.771	11528.79686
739.964	11453.64388
740.156	11632.36506
740.349	11563.32227
740.542	11478.01925
740.735	11518.64182
740.927	11398.7942
741.12	11421.14122
741.313	11179.32256
741.505	11406.92052
741.698	11382.54107
741.891	11126.46877
742.083	11435.36144
742.276	11500.36213
742.468	11406.92052
742.661	11534.88978
742.854	11510.51761
743.046	11321.58618
743.239	11603.93697
743.431	11494.26873
743.624	11187.45328
743.816	11352.06475
744.009	11614.09006
744.201	11234.20166
744.393	11280.94457
744.586	11490.20642
744.778	11276.88018
744.971	11441.45567
745.163	11528.79686
745.355	11272.81576
745.548	11368.31906
745.74	11085.8071
745.932	11350.03291
746.125	11467.86302
746.317	11408.95208
746.509	11339.87359
746.702	11557.22975
746.894	11289.07321
747.086	11209.81189
747.278	11386.60441
747.471	11120.3698
747.663	11333.77788
747.855	11158.99503
748.047	11065.47464
748.239	11065.47464
748.431	11327.68208
748.623	11453.64388
748.815	11380.50938
749.008	11358.16019
749.2	11345.96921
749.392	10969.89738
749.584	11012.60513
749.776	11150.86372
749.968	11073.60775
750.16	11167.12617
750.352	11039.04081
750.544	11138.66644
750.736	11016.67228
750.928	11175.25714
751.12	11195.58383
751.311	11282.97674
751.503	11030.90695
751.695	11124.43579
751.887	11130.53471
752.079	11350.03291
752.271	11039.04081
752.463	10937.35482
752.654	10953.62646
752.846	11089.87346
753.038	10744.07286
753.23	10963.79587
753.421	11161.02783
753.613	10931.25277
753.805	11372.38254
753.997	11175.25714
754.188	11000.40341
754.38	10874.29536
754.572	10890.56982
754.763	10994.30241
754.955	10975.99878
755.146	11130.53471
755.338	10878.36404
755.53	10766.45828
755.721	10835.64056
755.913	11037.00736
756.104	11049.20789
756.296	11016.67228
756.487	10943.45677
756.679	10984.13384
756.87	10890.56982
757.062	10746.10795
757.253	10760.35331
757.445	11177.28986
757.636	10805.12064
757.827	10697.26229
758.019	10768.49325
758.21	10514.02824
758.401	10212.4842
758.593	10672.83685
758.784	10564.93669
758.975	10465.14867
759.167	10304.2006
759.358	10697.26229
759.549	10709.47435
759.74	10621.94487
759.932	10707.43904
760.123	10554.75563
760.314	10532.35619
760.505	10487.55272
760.696	10459.0382
760.888	10298.08702
761.079	10507.9187
761.27	10475.33252
761.461	10312.35185
761.652	10422.37297
761.843	10120.74009
762.034	10473.29577
762.225	10296.04914
762.416	10471.25902
762.607	10120.74009
762.798	10346.99228
762.989	10483.47937
763.18	10267.51733
763.371	10163.5575
763.562	10206.36879
763.753	10143.16902
763.944	10422.37297
764.135	10285.85951
764.326	10391.81539
764.517	10241.02113
764.708	10581.22574
764.899	10190.06044
765.089	10575.11744
765.28	10175.78991
765.471	10454.96449
765.662	10096.27024
765.853	10263.44114
766.043	10259.36489
766.234	10273.63151
766.425	9788.18109
766.615	9910.64047
766.806	9782.05671
766.997	9888.19358
767.187	9843.29444
767.378	10108.50542
767.569	9749.39105
767.759	9824.92454
767.95	10071.79836
768.141	9814.71851
768.331	9453.1779
768.522	9702.42734
768.712	9581.91792
768.903	9782.05671
769.093	9438.86953
769.284	9594.1756
769.474	9469.52935
769.665	9977.97054
769.855	9867.78577
770.046	9914.72154
770.236	9635.03044
770.426	9720.80541
770.617	9733.05676
770.807	9741.22403
770.998	9489.96723
771.188	9794.30534
771.378	9252.78773
771.569	9622.77464
771.759	9506.31637
771.949	9492.01093
772.139	9675.87905
772.33	9279.37923
772.52	9547.18477
772.71	9291.65128
772.9	9463.39768
773.09	9355.04736
773.281	9496.09828
773.471	9520.62104
773.661	9492.01093
773.851	9508.35994
774.041	9389.80622
774.231	9430.69296
774.421	9500.18556
774.611	9238.46806
774.802	8900.68954
774.992	8769.54315
775.182	8972.37919
775.372	9238.46806
775.562	9029.71535
775.752	9041.99988
775.942	9164.81095
776.131	9168.90359
776.321	8896.59233
776.511	9062.47271
776.701	9193.45799
776.891	9062.47271
777.081	9021.52531
777.271	9037.90511
777.461	9326.41884
777.651	9391.85071
777.84	9097.27254
778.03	9168.90359
778.22	8927.31966
778.41	9017.43019
778.599	9080.89678
778.789	9033.81026
778.979	8996.95351
779.169	8966.23521
779.358	8697.79097
779.548	9113.64721
779.738	8990.81017
779.927	9242.55947
780.117	9048.14191
780.307	8833.07641
780.496	8880.20277
780.686	8925.2713
780.875	8615.76078
781.065	8644.47473
781.254	8630.11821
781.444	8763.39384
781.633	8890.44638
781.823	8794.13874
782.012	8578.83746
782.202	8835.12558
782.391	8587.04317
782.581	8783.8909
782.77	8671.13441
782.96	8816.6824
783.149	8357.16847
783.338	8859.71422
783.528	8525.49302
783.717	8652.67804
783.906	8607.55612
784.096	8759.29421
784.285	8804.38613
784.474	8673.18503
784.663	8531.6488
784.853	8404.39449
785.042	8351.00779
785.231	8490.60704
785.42	8509.07677
785.61	8546.01162
785.799	8289.39142
785.988	8176.38214
786.177	8050.97409
786.366	8381.80941
786.555	8186.65819
786.744	8077.70667
786.933	8118.82706
787.122	8447.50499
787.312	8157.884
787.501	8131.16161
787.69	7997.49866
787.879	8480.34541
788.068	8258.57663
788.257	8223.64784
788.445	8007.78347
788.634	8373.59607
788.823	8281.17458
789.012	8143.49544
789.201	8005.72655
789.39	8219.5382
789.579	8159.93943
789.768	8061.25626
789.957	7744.33054
790.145	8229.81216
790.334	8003.66961
790.523	7987.21335
790.712	8120.88287
790.9	8067.42531
791.089	7871.98286
791.278	8246.24947
791.467	7810.22561
791.655	8385.91596
791.844	7904.91244
792.033	7983.09908
792.221	7865.80798
792.41	7956.35435
792.599	7797.87192
792.787	7964.58387
792.976	8071.53792
793.164	7822.57856
793.353	7773.16227
793.541	7882.27392
793.73	7703.13521
793.918	7832.87211
794.107	7569.19195
794.295	7927.54846
794.484	7651.62919
794.672	7604.23194
794.861	7663.99184
795.049	7931.66384
795.238	7591.86559
795.426	7748.44961
795.614	7723.73393
795.803	7806.1078
795.991	7806.1078
796.179	7641.32639
796.368	7806.1078
796.556	7775.22152
796.744	7666.05221
796.932	7678.41397
797.121	7377.39257
797.309	7639.26577
797.497	7395.96198
797.685	7600.10991
797.874	7402.1514
798.062	7567.13058
798.25	7352.6306
798.438	7453.72224
798.626	7156.48671
798.814	7294.84042
799.002	7286.58328
799.19	7470.22205
799.378	7424.84424
799.566	7311.35365
799.755	7323.73766
799.943	7501.15547
800.131	7521.77505
800.318	7591.86559
800.506	7587.7433
800.694	7503.21752
800.882	7393.8988
801.07	7734.0325
801.258	7484.65825
801.446	7519.71319
801.634	7146.15782
801.822	7447.53445
802.01	7137.89431
802.197	7468.15965
802.385	6916.71238
802.573	7026.30192
802.761	6943.5987
802.949	7018.03322
803.136	7121.36621
803.324	7212.25313
803.512	7410.40364
803.699	7319.60974
803.887	7228.77341
804.075	7290.71189
804.262	7340.24843
804.45	7276.26136
804.638	7259.74513
804.825	7484.65825
805.013	7521.77505
805.201	7437.22104
805.388	7362.94847
805.576	7435.1583
805.763	7336.12087
805.951	7329.92936
806.138	7517.65131
806.326	7604.23194
806.513	7239.09787
806.701	7352.6306
806.888	7393.8988
807.075	7517.65131
807.263	7212.25313
807.45	7443.40916
807.638	7410.40364
807.825	7492.90703
808.012	7426.90709
808.2	7228.77341
808.387	7263.87432
808.574	7385.64586
808.761	7309.28958
808.949	7317.54576
809.136	7426.90709
809.323	7428.96993
809.51	7482.596
809.698	7472.28443
809.885	7092.43861
810.072	7468.15965
810.259	7280.39019
810.446	7649.56867
810.633	7226.70846
810.82	7470.22205
811.008	7560.94634
811.195	7641.32639
811.382	7511.46553
811.569	7525.89871
811.756	7247.35704
811.943	7651.62919
812.13	7437.22104
812.317	7690.77497
812.504	7482.596
812.691	7843.16514
812.878	7734.0325
813.064	7738.15178
813.251	7822.57856
813.438	7797.87192
813.625	7567.13058
813.812	7651.62919
813.999	7604.23194
814.186	7546.51572
814.372	7426.90709
814.559	7503.21752
814.746	7303.09721
814.933	7381.51926
815.12	7379.45592
815.306	7379.45592
815.493	7554.76192
815.68	7690.77497
815.866	7208.12284
816.053	7521.77505
816.24	7245.29228
816.426	7263.87432
816.613	7470.22205
816.799	7414.52964
816.986	7311.35365
817.173	7624.84082
817.359	7206.05766
817.546	7480.53373
817.732	7080.03973
817.919	7360.88494
818.105	6956.00648
818.292	7348.5033
818.478	7104.83669
818.665	7393.8988
818.851	7274.1969
819.037	7352.6306
819.224	7137.89431
819.41	7278.32578
819.597	7447.53445
819.783	7507.34157
819.969	7162.68378
820.156	7449.59707
820.342	7191.60079
820.528	7404.21449
820.714	6966.34568
820.901	7111.03543
821.087	7177.14283
821.273	7148.22364
821.459	7009.76416
821.646	7187.47005
821.832	7067.64004
822.018	7272.13243
822.204	6881.54757
822.39	7162.68378
822.576	7040.77128
822.762	7067.64004
822.948	6906.37047
823.134	7278.32578
823.32	6852.58339
823.507	7119.3001
823.693	6987.02238
823.879	7057.30635
824.065	6734.61171
824.25	7102.7704
824.436	6995.29244
824.622	7106.90296
824.808	6815.33719
824.994	7166.81505
825.18	6910.5073
825.366	7340.24843
825.552	7015.96599
825.738	7247.35704
825.923	6869.1349
826.109	7100.70409
826.295	7001.49474
826.481	7348.5033
826.667	6943.5987
826.852	7294.84042
827.038	6976.68431
827.224	7232.90326
827.409	7005.62949
827.595	6856.7214
827.781	6881.54757
827.966	7042.83824
828.152	6902.23355
828.338	7189.53543
828.523	6682.8463
828.709	6980.81961
828.894	6778.08359
829.08	6773.94385
829.266	6552.33367
829.451	6662.13611
829.637	6628.99503
829.822	6701.4835
830.008	6676.63348
830.193	6755.31387
830.378	6496.37161
830.564	6651.78016
830.749	6591.70427
830.935	6678.70445
831.12	6477.71384
831.305	6417.58154
831.491	6135.31988
831.676	6452.83388
831.861	6330.45866
832.047	6612.42228
832.232	6181.00923
832.417	6651.78016
832.602	6367.80207
832.788	6396.84173
832.973	6276.50481
833.158	6438.31902
833.343	6486.00642
833.528	6790.50228
833.714	6475.64064
833.899	6618.63724
834.084	6334.6083
834.269	6400.98988
834.454	6197.62072
834.639	6392.69349
834.824	6320.08415
835.009	6255.74912
835.194	6097.92923
835.379	6682.8463
835.564	6077.15335
835.749	6243.29458
835.934	6154.01235
836.119	6208.00214
836.304	6000.26214
836.489	6124.93435
836.674	5898.3836
836.859	6400.98988
837.044	6056.37512
837.228	6110.39362
837.413	5915.0207
837.598	6168.54962
837.783	6077.15335
837.968	5958.6859
838.152	6004.41925
838.337	6118.70275
838.522	6089.61916
838.707	6239.14288
838.891	5709.0303
839.076	5998.18355
839.261	5727.76626
839.445	5848.46324
839.63	5779.80056
839.815	5991.94765
839.999	5885.90478
840.184	5898.3836
840.368	5783.96266
840.553	6222.53514
840.737	5948.29037
840.922	6068.84234
841.106	5788.12468
841.291	5869.26504
841.475	5863.02475
841.66	5973.23866
841.844	5863.02475
842.029	5989.86896
842.213	5625.73626
842.397	5748.58175
842.582	5444.44147
842.766	5731.92955
842.951	5419.42131
843.135	5752.74457
843.319	5577.82509
843.504	5596.57442
843.688	5636.15008
843.872	5569.49144
844.056	5477.79641
844.241	5719.43941
844.425	5511.14533
844.609	5852.62379
844.793	5554.90664
844.977	5419.42131
845.161	5363.11359
845.346	5538.23689
845.53	5506.97705
845.714	5490.30296
845.898	5219.13846
846.082	5444.44147
846.266	5500.72444
846.45	5448.61117
846.634	5290.09665
846.818	5477.79641
847.002	5285.92338
847.186	5669.47034
847.37	5319.30687
847.554	5402.73933
847.738	5202.43849
847.922	5313.04792
848.106	5102.20738
848.29	5141.8886
848.473	5177.38574
848.657	5135.6237
848.841	5089.67473
849.025	5012.37161
849.209	4983.11354
849.392	5064.60692
849.576	4878.5836
849.76	4987.29354
849.944	4920.40246
850.127	5035.35693
850.311	5029.08848
850.495	5110.56202
850.678	4943.39892
850.862	5202.43849
851.046	4878.5836
851.229	5204.52607
851.413	4809.56249
851.596	4901.58511
851.78	4914.13022
851.964	5008.19216
852.147	4788.6421
852.331	4709.12395
852.514	4648.41712
852.698	4654.69801
852.881	4767.71944
853.065	4797.01053
853.248	4763.53464
853.431	5004.01262
853.615	4838.8472
853.798	5024.9094
853.982	4700.75172
854.165	5033.26747
854.348	4761.4422
854.532	5070.87419
854.715	4809.56249
854.898	4750.97968
855.081	4428.45965
855.265	4742.60926
855.448	4619.10362
855.631	4830.4806
855.814	4617.00963
855.997	4709.12395
856.181	4461.99272
856.364	4725.86733
856.547	4472.47065
856.73	4748.88711
856.913	4417.97942
857.096	4575.12515
857.279	4336.21492
857.462	4589.78574
857.645	4424.26763
857.828	4545.80072
858.011	4260.7108
858.194	4621.19759
858.377	4149.50161
858.56	4497.61543
858.743	4189.3759
858.926	4564.65264
859.109	4216.65391
859.292	4340.40877
859.475	4044.53314
859.658	4441.03521
859.841	4243.92833
860.023	4583.50276
860.206	4189.3759
860.389	4180.98194
860.572	4008.83205
860.755	4055.03232
860.937	4298.46634
861.12	4344.60254
861.303	4057.1321
861.486	4176.78484
861.668	4076.02914
861.851	4036.13342
862.034	3958.42044
862.216	4107.52047
862.399	3941.61396
862.581	4088.62624
862.764	4040.33332
862.947	4097.02388
863.129	3956.3197
863.312	4241.83042
863.494	3853.3588
863.677	3941.61396
863.859	3847.05351
864.042	3838.64618
864.224	3760.86341
864.406	3920.60405
864.589	3840.74805
864.771	3922.70513
864.954	3668.33031
865.136	4057.1321
865.318	3605.21836
865.501	3859.66391
865.683	3655.70928
865.865	3870.17203
866.048	3687.26056
866.23	3805.01369
866.412	3662.01988
866.594	3588.38565
866.777	3651.50212
866.959	3739.83644
867.141	3373.6658
867.323	3710.39543
867.505	3312.5842
867.687	3407.35971
867.869	3293.62489
868.052	3588.38565
868.234	3653.60571
868.416	3685.15728
868.598	3499.99444
868.78	3769.27365
868.962	3525.25239
869.144	3758.7608
869.326	3668.33031
869.508	3796.60478
869.69	3508.41405
869.872	3710.39543
870.054	3365.24162
870.236	3571.55174
870.417	3310.47768
870.599	3485.25943
870.781	3424.20497
870.963	3544.19411
871.145	3453.68142
871.327	3653.60571
871.508	3428.4161
871.69	3502.09937
871.872	3318.90366
872.054	3474.73388
872.235	3278.87781
872.417	3434.73267
872.599	3066.00817
872.78	3483.15436
872.962	3245.16708
873.144	3415.78248
873.325	3318.90366
873.507	3542.08955
873.689	3247.27412
873.87	3407.35971
874.052	3226.2029
874.233	3312.5842
874.415	3154.54837
874.596	3550.50769
874.778	3316.79719
874.959	3333.64847
875.141	3289.41153
875.322	3325.22297
875.503	3131.36199
875.685	3264.1299
875.866	3162.9793
876.048	3468.41833
876.229	3169.30232
876.41	3240.95293
876.592	3131.36199
876.773	3438.94363
876.954	3268.34367
877.136	3285.19809
877.317	3190.37801
877.498	3424.20497
877.679	3268.34367
877.86	3335.7548
878.042	3361.02943
878.223	3405.25397
878.404	3407.35971
878.585	3318.90366
878.766	3084.98342
878.947	3462.10262
879.128	3394.72502
879.309	3264.1299
879.49	3299.94482
879.672	3403.14822
879.853	3158.76387
880.034	3365.24162
880.215	3262.02298
880.396	3483.15436
880.576	3268.34367
880.757	3371.55978
880.938	3232.52444
881.119	3539.98497
881.3	3297.83819
881.481	3563.13434
881.662	3312.5842
881.843	3386.30154
882.023	3177.73279
882.204	3424.20497
882.385	3205.13001
882.566	3718.80754
882.747	3316.79719
882.927	3577.8646
883.108	3257.80911
883.289	3356.81716
883.469	3127.14608
883.65	3499.99444
883.831	3173.51759
884.011	3196.7004
884.192	3224.09569
884.373	3521.04291
884.553	3312.5842
884.734	3502.09937
884.914	3346.2862
885.095	3525.25239
885.275	3137.68574
885.456	3525.25239
885.636	3280.98459
885.817	3691.46708
885.997	3382.0897
886.178	3756.65817
886.358	3158.76387
886.538	3434.73267
886.719	3308.37114
886.899	3365.24162
887.08	3331.54212
887.26	3422.09937
887.44	3367.34769
887.621	3626.25757
887.801	3413.67681
887.981	3558.92553
888.161	3407.35971
888.342	3493.67955
888.522	3314.6907
888.702	3535.77575
888.882	3384.19563
889.062	3419.99376
889.242	3270.45053
889.423	3386.30154
889.603	3333.64847
889.783	3537.88037
889.963	3344.17995
890.143	3409.46543
890.323	3323.11655
890.503	3495.78453
890.683	3325.22297
890.863	3221.98846
891.043	3215.66666
891.223	3487.36449
891.403	3432.62717
891.583	3544.19411
891.763	3114.49795
891.943	3466.31311
892.122	3314.6907
892.302	3352.60483
892.482	3283.09135
892.662	3409.46543
892.842	3255.70214
893.022	3466.31311
893.201	2996.42148
893.381	3329.43575
893.561	3247.27412
893.741	3361.02943
893.92	3080.76681
894.1	3329.43575
894.28	3146.11719
894.459	3314.6907
894.639	3221.98846
894.819	3280.98459
894.998	3095.52468
895.178	3175.6252
895.357	2777.01263
895.537	3232.52444
895.716	2952.13043
895.896	3133.46992
896.075	2869.85836
896.255	2918.38047
896.434	2893.06554
896.614	3061.79127
896.793	2808.6676
896.973	3097.63288
897.152	2931.03714
897.331	3139.79363
897.511	2920.48995
897.69	2954.23968
897.87	2928.92773
898.049	2998.53042
898.228	2903.61368
898.407	2893.06554
898.587	2823.43886
898.766	3129.25404
898.945	2777.01263
899.124	2758.01818
899.304	2768.57078
899.483	3009.07485
899.662	2732.69056
899.841	2806.55736
900.02	2690.47365
900.199	2897.28484
900.378	2743.24396
900.557	2686.25167
900.737	2732.69056
900.916	2696.80651
901.095	2394.81888
901.274	2751.68645
901.453	2399.04407
901.632	2589.13231
901.811	2447.63073
901.989	2663.02988
902.168	2453.9677
902.347	2943.69329
902.526	2527.89168
902.705	2595.46698
902.884	2508.88397
903.063	2671.47435
903.242	2293.40225
903.42	2437.06889
903.599	2339.8877
903.778	2348.33909
903.957	2213.09859
904.135	2268.04461
904.314	2219.43882
904.493	2447.63073
904.672	2337.77482
904.85	2191.96393
905.029	1989.03134
905.207	2358.90311
905.386	2027.08625
905.565	2056.68301
905.743	1870.62573
905.922	1895.99984
906.1	1906.57216
906.279	1879.08385
906.457	1845.2509
906.636	1963.66025
906.814	1735.28588
906.993	1794.49921
907.171	1739.5155
907.35	1752.20428
907.528	1733.17107
907.707	1644.34597
907.885	1648.57585
908.063	1769.12244
908.242	1606.27666
908.42	1802.958
908.598	1680.29961
908.777	1815.64606
908.955	1756.43384
909.133	1904.45771
909.311	1589.35675
909.49	1915.02992
909.668	1707.79301
909.846	1906.57216
910.024	1838.90708
910.202	1813.5314
910.38	1627.42636
910.559	1739.5155
910.737	1614.73656
910.915	1868.51119
911.093	1735.28588
911.271	1940.40265
911.449	1667.61017
911.627	1779.69617
911.805	1549.17155
911.983	1625.3114
912.161	1593.58674
912.339	1881.19837
912.517	1570.32172
912.695	1853.70926
912.872	1616.85154
913.05	1752.20428
913.228	1773.35194
913.406	1891.77087
913.584	1802.958
913.762	1843.1363
913.939	1599.9317
914.117	1805.07269
914.295	1606.27666
914.473	1705.67815
914.65	1705.67815
914.828	1718.36726
915.006	1777.58143
915.184	1752.20428
915.361	1587.24175
915.539	1796.61392
915.716	1750.08949
915.894	1798.72862
916.072	1430.72906
916.249	1616.85154
916.427	1511.10094
916.604	1640.11608
916.782	1426.49895
916.959	1591.47174
917.137	1583.01175
917.314	1724.71177
917.492	1453.99463
917.669	1511.10094
917.847	1329.20745
918.024	1426.49895
918.201	1396.8883
918.379	1555.51661
918.556	1324.97745
918.733	1574.55174
918.911	1354.58762
919.088	1506.87086
919.265	1426.49895
919.442	1523.79118
919.62	1079.65631
919.797	1477.2602
919.974	1138.86719
920.151	1286.90772
920.328	1278.44787
920.506	1585.12675
920.683	1346.12754
920.86	1348.24256
921.037	1299.59756
921.214	1540.71144
921.391	1160.01479
921.568	1399.00334
921.745	1295.3676
921.922	1348.24256
922.099	1107.14661
922.276	1396.8883
922.453	1160.01479
922.63	1337.66748
922.807	1126.17884
922.984	1236.14923
923.161	1062.73964
923.338	1274.21796
923.514	1195.9666
923.691	1210.77059
923.868	1050.05236
924.045	1291.13766
924.222	1024.67841
924.399	1176.93315
924.575	1069.08335
924.752	1113.49065
924.929	1033.1363
925.105	1126.17884
925.282	1136.75245
925.459	1179.04797
925.635	969.70455
925.812	1016.22061
925.989	1022.56395
926.165	1052.16689
926.342	885.13862
926.518	1109.26129
926.695	965.47598
926.871	1121.94942
927.048	851.31577
927.224	952.79042
927.401	684.35073
927.577	1011.99175
927.754	790.01762
927.93	889.36662
928.107	790.01762
928.283	927.42009
928.459	815.38144
928.636	779.44977
928.812	766.76868
928.988	885.13862
929.165	792.13122
929.341	872.4548
929.517	745.63433
929.693	834.40517
929.87	686.4638
930.046	762.54173
930.222	631.5277
930.398	737.18088
930.574	593.49984
930.751	817.49515
930.927	618.85129
931.103	745.63433
931.279	711.82155
931.455	686.4638
931.631	582.93728
931.807	633.64047
931.983	534.35382
932.159	682.23766
932.335	538.57818
932.511	612.51326
932.687	551.2516
932.863	678.01157
933.039	485.77775
933.215	707.59515
933.391	517.45693
933.566	703.36879
933.742	492.11332
933.918	553.36388
934.094	449.87871
934.27	462.54846
934.445	365.42837
934.621	483.66592
934.797	390.76073
934.973	435.09805
935.148	384.42741
935.324	397.09419
935.5	331.65572
935.675	390.76073
935.851	342.2092
936.027	407.65029
936.202	340.09847
936.378	384.42741
936.553	255.68401
936.729	348.54149
936.904	272.56455
937.08	207.15936
937.255	196.6119
937.431	205.04983
937.606	175.51851
937.782	249.35413
937.957	162.86346
938.133	238.8047
938.308	131.22915
938.483	141.77339
938.659	224.03632
938.834	181.84631
939.009	192.39306
939.185	196.6119
939.36	120.68545
939.535	137.55563
939.71	53.21881
939.886	86.94927
940.061	139.6645
940.236	57.4348
940.411	112.25088
940.586	213.48807
940.761	116.46812
940.937	164.97259
941.112	95.38278
941.287	131.22915
941.462	120.68545
941.637	63.75895
941.812	99.59967
941.987	59.54283
942.162	141.77339
942.337	120.68545
942.512	67.97517
942.687	124.90287
942.862	46.895
943.037	120.68545
943.212	93.27437
943.386	86.94927
943.561	97.49122
943.736	101.70815
943.911	61.65088
944.086	120.68545
944.26	72.19148
944.435	120.68545
944.61	99.59967
944.785	124.90287
944.959	57.4348
945.134	46.895
945.309	112.25088
945.483	36.35578
945.658	63.75895
945.833	93.27437
946.007	55.32679
946.182	70.08331
946.357	51.11085
946.531	-1.58052
946.706	82.73264
946.88	53.21881
947.055	120.68545
947.229	67.97517
947.404	57.4348
947.578	76.40788
947.752	124.90287
947.927	188.1743
948.101	131.22915
948.276	91.16598
948.45	36.35578
948.624	61.65088
948.799	122.79415
948.973	89.05761
949.147	61.65088
949.321	21.60186
949.496	152.31817
949.67	78.51611
949.844	17.38667
950.018	86.94927
950.193	95.38278
950.367	76.40788
950.541	108.03372
950.715	114.35949
950.889	103.81665
951.063	156.53622
951.237	78.51611
951.411	78.51611
951.585	105.92518
951.759	162.86346
951.933	53.21881
952.107	120.68545
952.281	78.51611
952.455	188.1743
952.629	154.42718
952.803	105.92518
952.977	67.97517
953.151	86.94927
953.325	105.92518
953.499	74.29967
953.672	70.08331
953.846	162.86346
954.02	139.6645
954.194	91.16598
954.368	49.00291
954.541	97.49122
954.715	95.38278
954.889	70.08331
955.062	124.90287
955.236	118.57677
955.41	120.68545
955.583	103.81665
955.757	95.38278
955.93	78.51611
956.104	72.19148
956.278	63.75895
956.451	91.16598
956.625	61.65088
956.798	49.00291
956.972	91.16598
957.145	97.49122
957.319	93.27437
957.492	63.75895
957.665	91.16598
957.839	70.08331
958.012	145.99124
958.185	137.55563
958.359	89.05761
958.532	63.75895
958.705	120.68545
958.879	74.29967
959.052	70.08331
959.225	42.67924
959.398	32.14026
959.572	15.2791
959.745	27.92483
959.918	112.25088
960.091	93.27437
960.264	74.29967
960.438	162.86346
960.611	53.21881
960.784	131.22915
960.957	27.92483
961.13	82.73264
961.303	131.22915
961.476	55.32679
961.649	74.29967
961.822	-14.22423
961.995	70.08331
962.168	82.73264
962.341	99.59967
962.514	53.21881
962.686	25.81715
962.859	44.78711
963.032	25.81715
963.205	86.94927
963.378	46.895
963.551	89.05761
963.723	86.94927
963.896	114.35949
964.069	40.5714
964.242	55.32679
964.414	120.68545
964.587	124.90287
964.76	97.49122
964.932	124.90287
965.105	120.68545
965.278	91.16598
965.45	61.65088
965.623	120.68545
965.795	78.51611
965.968	51.11085
966.14	23.70949
966.313	40.5714
966.485	158.64528
966.658	65.86705
966.83	44.78711
967.003	30.03253
967.175	59.54283
967.348	91.16598
967.52	103.81665
967.692	21.60186
967.865	82.73264
968.037	95.38278
968.209	55.32679
968.382	65.86705
968.554	-12.11701
968.726	78.51611
968.898	11.06405
969.071	30.03253
969.243	36.35578
969.415	110.14229
969.587	80.62436
969.759	32.14026
969.932	46.895
970.104	120.68545
970.276	65.86705
970.448	156.53622
970.62	0.52684
970.792	61.65088
970.964	86.94927
971.136	55.32679
971.308	158.64528
971.48	23.70949
971.652	72.19148
971.824	78.51611
971.996	51.11085
972.168	67.97517
972.339	80.62436
972.511	76.40788
972.683	141.77339
972.855	101.70815
973.027	36.35578
973.199	53.21881
973.37	4.74166
973.542	145.99124
973.714	99.59967
973.886	-26.86706
974.057	82.73264
974.229	-3.68787
974.401	19.49425
974.572	95.38278
974.744	34.24801
974.915	76.40788
975.087	-3.68787
975.259	97.49122
975.43	49.00291
975.602	95.38278
975.773	57.4348
975.945	65.86705
976.116	4.74166
976.288	36.35578
976.459	46.895
976.63	74.29967
976.802	70.08331
976.973	15.2791
977.145	23.70949
977.316	78.51611
977.487	61.65088
977.659	95.38278
977.83	44.78711
978.001	78.51611
978.172	129.12037
978.344	40.5714
978.515	67.97517
978.686	13.17157
978.857	78.51611
979.028	11.06405
979.2	13.17157
979.371	11.06405
979.542	55.32679
979.713	27.92483
979.884	61.65088
980.055	30.03253
980.226	61.65088
980.397	-5.79519
980.568	72.19148
980.739	-26.86706
980.91	-47.93647
981.081	78.51611
981.252	-3.68787
981.423	13.17157
981.594	86.94927
981.765	8.95656
981.936	70.08331
982.106	97.49122
982.277	-7.90249
982.448	36.35578
982.619	82.73264
982.79	57.4348
982.96	44.78711
983.131	116.46812
983.302	46.895
983.472	25.81715
983.643	30.03253
983.814	97.49122
983.984	38.46358
984.155	36.35578
984.326	19.49425
984.496	2.63424
984.667	11.06405
984.837	-5.79519
985.008	23.70949
985.178	53.21881
985.349	-5.79519
985.519	-33.18815
985.69	112.25088
985.86	76.40788
986.031	70.08331
986.201	27.92483
986.371	-3.68787
986.542	6.8491
986.712	15.2791
986.882	40.5714
987.053	23.70949
987.223	30.03253
987.393	61.65088
987.563	53.21881
987.734	78.51611
987.904	-54.2568
988.074	32.14026
988.244	63.75895
988.414	42.67924
988.585	80.62436
988.755	61.65088
988.925	-45.82964
989.095	84.84094
989.265	2.63424
989.435	-20.54576
989.605	-12.11701
989.775	-22.65289
989.945	-20.54576
990.115	-12.11701
990.285	-35.29512
990.455	44.78711
990.625	70.08331
990.795	38.46358
990.965	11.06405
991.134	57.4348
991.304	61.65088
991.474	36.35578
991.644	6.8491
991.814	40.5714
991.984	61.65088
992.153	40.5714
992.323	-10.00976
992.493	2.63424
992.662	-28.97412
992.832	-14.22423
993.002	2.63424
993.171	61.65088
993.341	-5.79519
993.511	-12.11701
993.68	8.95656
993.85	61.65088
994.019	13.17157
994.189	-5.79519
994.358	13.17157
994.528	23.70949
994.697	40.5714
994.867	-37.40208
995.036	21.60186
995.206	21.60186
995.375	-16.33143
995.544	55.32679
995.714	-20.54576
995.883	4.74166
996.052	95.38278
996.222	-5.79519
996.391	114.35949
996.56	4.74166
996.73	-35.29512
996.899	-31.08114
997.068	32.14026
997.237	-20.54576
997.406	-45.82964
997.576	-1.58052
997.745	25.81715
997.914	53.21881
998.083	21.60186
998.252	17.38667
998.421	4.74166
998.59	27.92483
998.759	27.92483
998.928	-52.15005
999.097	44.78711
999.266	-7.90249
999.435	-20.54576
999.604	-31.08114
999.773	13.17157
999.942	-3.68787
1000.111	15.2791
1000.28	-7.90249
1000.448	4.74166
1000.617	44.78711
1000.786	38.46358
1000.955	112.25088
1001.124	11.06405
1001.292	-31.08114
1001.461	40.5714
1001.63	-47.93647
1001.798	44.78711
1001.967	97.49122
1002.136	-14.22423
1002.304	-20.54576
1002.473	-64.79019
1002.642	2.63424
1002.81	-47.93647
1002.979	-39.50901
1003.147	-12.11701
1003.316	-5.79519
1003.484	59.54283
1003.653	32.14026
1003.821	63.75895
1003.99	-56.36353
1004.158	44.78711
1004.327	19.49425
1004.495	-14.22423
1004.663	-10.00976
1004.832	23.70949
1005	44.78711
1005.168	34.24801
1005.337	27.92483
1005.505	17.38667
1005.673	-14.22423
1005.842	21.60186
1006.01	4.74166
1006.178	2.63424
1006.346	0.52684
1006.514	13.17157
1006.683	36.35578
1006.851	-121.65933
1007.019	-39.50901
1007.187	-37.40208
1007.355	-1.58052
1007.523	44.78711
1007.691	-22.65289
1007.859	-12.11701
1008.027	-22.65289
1008.195	-35.29512
1008.363	72.19148
1008.531	86.94927
1008.699	-43.72279
1008.867	32.14026
1009.035	-5.79519
1009.203	30.03253
1009.37	-12.11701
1009.538	-31.08114
1009.706	51.11085
1009.874	32.14026
1010.042	36.35578
1010.209	30.03253
1010.377	-47.93647
1010.545	36.35578
1010.713	36.35578
1010.88	-20.54576
1011.048	-45.82964
1011.216	-45.82964
1011.383	55.32679
1011.551	0.52684
1011.718	11.06405
1011.886	57.4348
1012.054	-35.29512
1012.221	15.2791
1012.389	30.03253
1012.556	0.52684
1012.724	11.06405
1012.891	-20.54576
1013.058	-10.00976
1013.226	-54.2568
1013.393	38.46358
1013.561	11.06405
1013.728	32.14026
1013.895	25.81715
1014.063	21.60186
1014.23	-16.33143
1014.397	-71.10991
1014.565	36.35578
1014.732	2.63424
1014.899	-35.29512
1015.066	-39.50901
1015.233	-5.79519
1015.401	32.14026
1015.568	4.74166
1015.735	-3.68787
1015.902	49.00291
1016.069	4.74166
1016.236	-31.08114
1016.403	-3.68787
1016.57	21.60186
1016.737	-26.86706
1016.904	27.92483
1017.071	-24.75999
1017.238	-14.22423
1017.405	-50.04327
1017.572	-12.11701
1017.739	49.00291
1017.906	-5.79519
1018.073	23.70949
1018.24	23.70949
1018.407	-12.11701
1018.573	2.63424
1018.74	-14.22423
1018.907	-3.68787
1019.074	4.74166
1019.241	-10.00976
1019.407	-28.97412
1019.574	-35.29512
1019.741	32.14026
1019.907	70.08331
1020.074	-10.00976
1020.241	61.65088
1020.407	-28.97412
1020.574	-1.58052
1020.74	44.78711
1020.907	-14.22423
1021.073	-26.86706
1021.24	-18.43861
1021.406	13.17157
1021.573	-50.04327
1021.739	36.35578
1021.906	-22.65289
1022.072	-69.00336
1022.239	13.17157
1022.405	15.2791
1022.571	2.63424
1022.738	-18.43861
1022.904	40.5714
1023.07	72.19148
1023.237	0.52684
1023.403	53.21881
1023.569	97.49122
1023.735	53.21881
1023.902	-22.65289
1024.068	34.24801
1024.234	44.78711
1024.4	-14.22423
1024.566	36.35578
1024.732	-5.79519
1024.898	80.62436
1025.065	57.4348
1025.231	2.63424
1025.397	23.70949
1025.563	-12.11701
1025.729	36.35578
1025.895	-62.68356
1026.061	-3.68787
1026.227	61.65088
1026.392	19.49425
1026.558	-12.11701
1026.724	61.65088
1026.89	11.06405
1027.056	-31.08114
1027.222	27.92483
1027.388	4.74166
1027.553	11.06405
1027.719	-31.08114
1027.885	-77.42941
1028.051	23.70949
1028.216	44.78711
1028.382	112.25088
1028.548	-58.47023
1028.713	-24.75999
1028.879	13.17157
1029.045	36.35578
1029.21	2.63424
1029.376	-12.11701
1029.541	40.5714
1029.707	-43.72279
1029.873	2.63424
1030.038	-73.21644
1030.204	65.86705
1030.369	49.00291
1030.534	11.06405
1030.7	-5.79519
1030.865	-5.79519
1031.031	72.19148
1031.196	19.49425
1031.361	11.06405
1031.527	70.08331
1031.692	-12.11701
1031.857	-5.79519
1032.023	21.60186
1032.188	36.35578
1032.353	-41.61591
1032.518	-22.65289
1032.684	-104.8112
1032.849	-14.22423
1033.014	15.2791
1033.179	-28.97412
1033.344	-31.08114
1033.509	-45.82964
1033.674	2.63424
1033.839	-12.11701
1034.004	49.00291
1034.17	4.74166
1034.335	2.63424
1034.5	30.03253
1034.664	-16.33143
1034.829	-1.58052
1034.994	13.17157
1035.159	-18.43861
1035.324	-12.11701
1035.489	-5.79519
1035.654	32.14026
1035.819	23.70949
1035.984	17.38667
1036.148	-12.11701
1036.313	-5.79519
1036.478	-14.22423
1036.643	53.21881
1036.807	38.46358
1036.972	11.06405
1037.137	-5.79519
1037.301	-1.58052
1037.466	2.63424
1037.631	-12.11701
1037.795	-14.22423
1037.96	-12.11701
1038.124	-94.28026
1038.289	36.35578
1038.454	67.97517
1038.618	-39.50901
1038.783	-10.00976
1038.947	15.2791
1039.111	23.70949
1039.276	-5.79519
1039.44	34.24801
1039.605	65.86705
1039.769	11.06405
1039.933	19.49425
1040.098	-39.50901
1040.262	30.03253
1040.426	-31.08114
1040.591	-47.93647
1040.755	-5.79519
1040.919	36.35578
1041.083	4.74166
1041.248	38.46358
1041.412	-81.64228
1041.576	0.52684
1041.74	23.70949
1041.904	78.51611
1042.068	-3.68787
1042.232	-62.68356
1042.397	40.5714
1042.561	-45.82964
1042.725	30.03253
1042.889	-14.22423
1043.053	-12.11701
1043.217	46.895
1043.381	11.06405
1043.544	-41.61591
1043.708	-47.93647
1043.872	-77.42941
1044.036	70.08331
1044.2	6.8491
1044.364	32.14026
1044.528	-10.00976
1044.691	-20.54576
1044.855	6.8491
1045.019	-41.61591
1045.183	-31.08114
1045.346	-31.08114
1045.51	-1.58052
1045.674	-31.08114
1045.837	30.03253
1046.001	-22.65289
1046.165	15.2791
1046.328	-18.43861
1046.492	-10.00976
1046.655	2.63424
1046.819	2.63424
1046.983	6.8491
1047.146	-3.68787
1047.31	25.81715
1047.473	21.60186
1047.636	-14.22423
1047.8	30.03253
1047.963	15.2791
1048.127	-3.68787
1048.29	-31.08114
