Data from mixed_try1_USB4F045381__25__00250.txt Node

Date: Thu Apr 03 20:25:53 EDT 2025
User: mmckonesweet
Spectrometer: USB4F04538
Trigger mode: 4
Integration Time (sec): 2.700000E-3
Scans to average: 1
Electric dark correction enabled: true
Nonlinearity correction enabled: true
Boxcar width: 0
XAxis mode: Wavelengths
Number of Pixels in Spectrum: 3648
>>>>>Begin Spectral Data<<<<<
345.52	8.95656
345.736	8.95656
345.952	8.95656
346.168	2.63424
346.384	8.95656
346.6	-54.2568
346.816	-1.58052
347.032	30.03253
347.248	15.2791
347.464	-45.82964
347.68	-5.79519
347.896	32.14026
348.112	42.67924
348.328	-5.79519
348.544	44.78711
348.76	-22.65289
348.975	-28.97412
349.191	-47.93647
349.407	-1.58052
349.623	11.06405
349.839	-7.90249
350.055	-33.18815
350.27	-69.00336
350.486	51.11085
350.702	23.70949
350.918	34.24801
351.133	-56.36353
351.349	-58.47023
351.565	0.52684
351.781	-35.29512
351.996	19.49425
352.212	-1.58052
352.428	-26.86706
352.644	46.895
352.859	44.78711
353.075	19.49425
353.291	8.95656
353.506	-7.90249
353.722	70.08331
353.938	15.2791
354.153	30.03253
354.369	23.70949
354.584	63.75895
354.8	27.92483
355.016	-5.79519
355.231	-69.00336
355.447	32.14026
355.662	-10.00976
355.878	-18.43861
356.093	0.52684
356.309	-35.29512
356.524	42.67924
356.74	67.97517
356.955	27.92483
357.171	-64.79019
357.386	-18.43861
357.602	-16.33143
357.817	-24.75999
358.033	76.40788
358.248	15.2791
358.464	-83.74867
358.679	19.49425
358.895	46.895
359.11	76.40788
359.325	23.70949
359.541	32.14026
359.756	-18.43861
359.972	32.14026
360.187	-24.75999
360.402	-7.90249
360.618	49.00291
360.833	65.86705
361.048	36.35578
361.264	46.895
361.479	-1.58052
361.694	49.00291
361.909	32.14026
362.125	4.74166
362.34	11.06405
362.555	4.74166
362.77	-37.40208
362.986	32.14026
363.201	2.63424
363.416	-18.43861
363.631	53.21881
363.847	-43.72279
364.062	-47.93647
364.277	38.46358
364.492	-18.43861
364.707	-26.86706
364.922	-3.68787
365.138	-7.90249
365.353	65.86705
365.568	-35.29512
365.783	40.5714
365.998	11.06405
366.213	17.38667
366.428	36.35578
366.643	-43.72279
366.858	91.16598
367.073	65.86705
367.288	11.06405
367.503	-5.79519
367.718	42.67924
367.933	-28.97412
368.148	32.14026
368.363	-33.18815
368.578	-39.50901
368.793	-1.58052
369.008	-16.33143
369.223	8.95656
369.438	-16.33143
369.653	-1.58052
369.868	11.06405
370.083	23.70949
370.298	-45.82964
370.513	-28.97412
370.728	11.06405
370.943	-26.86706
371.157	-7.90249
371.372	11.06405
371.587	-28.97412
371.802	6.8491
372.017	55.32679
372.232	32.14026
372.446	-85.85504
372.661	-24.75999
372.876	-43.72279
373.091	11.06405
373.306	15.2791
373.52	-12.11701
373.735	6.8491
373.95	4.74166
374.165	-26.86706
374.379	-7.90249
374.594	-31.08114
374.809	-14.22423
375.023	67.97517
375.238	84.84094
375.453	32.14026
375.667	19.49425
375.882	-16.33143
376.097	-22.65289
376.311	-1.58052
376.526	-35.29512
376.741	53.21881
376.955	23.70949
377.17	-18.43861
377.384	-14.22423
377.599	42.67924
377.813	-10.00976
378.028	-18.43861
378.242	17.38667
378.457	-24.75999
378.672	67.97517
378.886	-1.58052
379.101	42.67924
379.315	-5.79519
379.53	30.03253
379.744	19.49425
379.958	6.8491
380.173	-14.22423
380.387	2.63424
380.602	-56.36353
380.816	-43.72279
381.031	-10.00976
381.245	51.11085
381.459	13.17157
381.674	11.06405
381.888	-18.43861
382.103	2.63424
382.317	15.2791
382.531	-14.22423
382.746	-5.79519
382.96	78.51611
383.174	74.29967
383.388	-18.43861
383.603	-39.50901
383.817	-24.75999
384.031	32.14026
384.246	25.81715
384.46	-14.22423
384.674	8.95656
384.888	6.8491
385.103	-26.86706
385.317	15.2791
385.531	-16.33143
385.745	-31.08114
385.959	49.00291
386.174	19.49425
386.388	23.70949
386.602	-20.54576
386.816	40.5714
387.03	-39.50901
387.244	6.8491
387.458	27.92483
387.672	23.70949
387.887	74.29967
388.101	51.11085
388.315	-37.40208
388.529	-18.43861
388.743	-14.22423
388.957	36.35578
389.171	53.21881
389.385	-22.65289
389.599	-22.65289
389.813	57.4348
390.027	-1.58052
390.241	0.52684
390.455	53.21881
390.669	0.52684
390.883	32.14026
391.097	32.14026
391.311	0.52684
391.525	-52.15005
391.738	23.70949
391.952	17.38667
392.166	6.8491
392.38	4.74166
392.594	23.70949
392.808	44.78711
393.022	-16.33143
393.236	65.86705
393.449	101.70815
393.663	23.70949
393.877	-45.82964
394.091	-5.79519
394.305	23.70949
394.518	-31.08114
394.732	-33.18815
394.946	-26.86706
395.16	2.63424
395.373	25.81715
395.587	-10.00976
395.801	-14.22423
396.015	-1.58052
396.228	59.54283
396.442	6.8491
396.656	27.92483
396.869	15.2791
397.083	21.60186
397.297	-35.29512
397.51	-69.00336
397.724	32.14026
397.938	76.40788
398.151	8.95656
398.365	74.29967
398.578	2.63424
398.792	0.52684
399.005	57.4348
399.219	99.59967
399.433	-22.65289
399.646	63.75895
399.86	19.49425
400.073	40.5714
400.287	30.03253
400.5	-50.04327
400.714	32.14026
400.927	-47.93647
401.141	91.16598
401.354	67.97517
401.567	55.32679
401.781	-31.08114
401.994	-28.97412
402.208	19.49425
402.421	-1.58052
402.635	-47.93647
402.848	17.38667
403.061	36.35578
403.275	-7.90249
403.488	11.06405
403.701	-18.43861
403.915	23.70949
404.128	91.16598
404.341	67.97517
404.555	0.52684
404.768	25.81715
404.981	34.24801
405.195	-47.93647
405.408	6.8491
405.621	-5.79519
405.834	-14.22423
406.048	15.2791
406.261	-90.0677
406.474	0.52684
406.687	23.70949
406.9	32.14026
407.114	-47.93647
407.327	6.8491
407.54	65.86705
407.753	-5.79519
407.966	19.49425
408.179	23.70949
408.392	-10.00976
408.605	36.35578
408.819	116.46812
409.032	-31.08114
409.245	42.67924
409.458	49.00291
409.671	23.70949
409.884	-18.43861
410.097	74.29967
410.31	-26.86706
410.523	40.5714
410.736	0.52684
410.949	-64.79019
411.162	-18.43861
411.375	-14.22423
411.588	-1.58052
411.801	76.40788
412.014	8.95656
412.227	0.52684
412.44	-33.18815
412.653	-18.43861
412.865	-1.58052
413.078	-24.75999
413.291	-14.22423
413.504	-5.79519
413.717	53.21881
413.93	-31.08114
414.143	17.38667
414.356	59.54283
414.568	-18.43861
414.781	42.67924
414.994	-26.86706
415.207	27.92483
415.42	36.35578
415.632	2.63424
415.845	23.70949
416.058	-16.33143
416.271	67.97517
416.483	19.49425
416.696	70.08331
416.909	89.05761
417.121	116.46812
417.334	84.84094
417.547	49.00291
417.759	-56.36353
417.972	8.95656
418.185	-18.43861
418.397	-50.04327
418.61	2.63424
418.823	78.51611
419.035	15.2791
419.248	13.17157
419.46	34.24801
419.673	70.08331
419.885	51.11085
420.098	80.62436
420.311	95.38278
420.523	25.81715
420.736	118.57677
420.948	34.24801
421.161	38.46358
421.373	42.67924
421.586	17.38667
421.798	23.70949
422.01	82.73264
422.223	25.81715
422.435	57.4348
422.648	15.2791
422.86	2.63424
423.073	-50.04327
423.285	59.54283
423.497	40.5714
423.71	42.67924
423.922	-14.22423
424.134	-14.22423
424.347	23.70949
424.559	-18.43861
424.771	-43.72279
424.984	-56.36353
425.196	34.24801
425.408	-35.29512
425.621	82.73264
425.833	137.55563
426.045	0.52684
426.257	8.95656
426.47	-45.82964
426.682	-10.00976
426.894	27.92483
427.106	-47.93647
427.318	112.25088
427.531	-14.22423
427.743	-10.00976
427.955	-45.82964
428.167	-1.58052
428.379	25.81715
428.591	-35.29512
428.804	-31.08114
429.016	-20.54576
429.228	-14.22423
429.44	42.67924
429.652	36.35578
429.864	15.2791
430.076	-39.50901
430.288	74.29967
430.5	0.52684
430.712	2.63424
430.924	-5.79519
431.136	25.81715
431.348	-7.90249
431.56	15.2791
431.772	0.52684
431.984	-14.22423
432.196	23.70949
432.408	-18.43861
432.62	8.95656
432.832	8.95656
433.044	-22.65289
433.256	-26.86706
433.468	-18.43861
433.679	19.49425
433.891	4.74166
434.103	27.92483
434.315	40.5714
434.527	-35.29512
434.739	34.24801
434.95	13.17157
435.162	8.95656
435.374	80.62436
435.586	23.70949
435.798	34.24801
436.009	-18.43861
436.221	21.60186
436.433	40.5714
436.645	127.01161
436.856	-31.08114
437.068	-10.00976
437.28	36.35578
437.491	15.2791
437.703	34.24801
437.915	-1.58052
438.126	-1.58052
438.338	51.11085
438.55	40.5714
438.761	103.81665
438.973	32.14026
439.184	8.95656
439.396	4.74166
439.608	65.86705
439.819	59.54283
440.031	-1.58052
440.242	-69.00336
440.454	61.65088
440.665	74.29967
440.877	49.00291
441.088	70.08331
441.3	25.81715
441.511	65.86705
441.723	-69.00336
441.934	40.5714
442.146	30.03253
442.357	-26.86706
442.569	6.8491
442.78	93.27437
442.991	78.51611
443.203	2.63424
443.414	17.38667
443.626	11.06405
443.837	42.67924
444.048	30.03253
444.26	57.4348
444.471	40.5714
444.682	-1.58052
444.894	82.73264
445.105	65.86705
445.316	36.35578
445.528	34.24801
445.739	51.11085
445.95	0.52684
446.161	-14.22423
446.373	2.63424
446.584	-14.22423
446.795	32.14026
447.006	32.14026
447.217	80.62436
447.429	53.21881
447.64	4.74166
447.851	15.2791
448.062	21.60186
448.273	2.63424
448.484	6.8491
448.695	-5.79519
448.907	-16.33143
449.118	57.4348
449.329	86.94927
449.54	65.86705
449.751	6.8491
449.962	15.2791
450.173	57.4348
450.384	-1.58052
450.595	-10.00976
450.806	91.16598
451.017	67.97517
451.228	-5.79519
451.439	44.78711
451.65	70.08331
451.861	74.29967
452.072	-47.93647
452.283	65.86705
452.494	-12.11701
452.705	19.49425
452.915	30.03253
453.126	32.14026
453.337	74.29967
453.548	42.67924
453.759	-18.43861
453.97	-16.33143
454.181	99.59967
454.391	25.81715
454.602	15.2791
454.813	76.40788
455.024	46.895
455.235	65.86705
455.445	74.29967
455.656	0.52684
455.867	40.5714
456.078	82.73264
456.288	2.63424
456.499	57.4348
456.71	23.70949
456.921	38.46358
457.131	-1.58052
457.342	19.49425
457.553	-18.43861
457.763	34.24801
457.974	49.00291
458.184	8.95656
458.395	84.84094
458.606	57.4348
458.816	-31.08114
459.027	40.5714
459.237	67.97517
459.448	32.14026
459.659	51.11085
459.869	34.24801
460.08	-7.90249
460.29	86.94927
460.501	74.29967
460.711	32.14026
460.922	15.2791
461.132	82.73264
461.343	57.4348
461.553	34.24801
461.764	76.40788
461.974	103.81665
462.184	76.40788
462.395	74.29967
462.605	59.54283
462.816	114.35949
463.026	82.73264
463.236	30.03253
463.447	40.5714
463.657	4.74166
463.867	19.49425
464.078	74.29967
464.288	51.11085
464.498	74.29967
464.709	36.35578
464.919	36.35578
465.129	105.92518
465.339	49.00291
465.55	129.12037
465.76	53.21881
465.97	42.67924
466.18	25.81715
466.391	-41.61591
466.601	44.78711
466.811	118.57677
467.021	95.38278
467.231	25.81715
467.441	78.51611
467.651	8.95656
467.862	103.81665
468.072	23.70949
468.282	74.29967
468.492	23.70949
468.702	19.49425
468.912	152.31817
469.122	70.08331
469.332	25.81715
469.542	110.14229
469.752	99.59967
469.962	49.00291
470.172	160.75436
470.382	76.40788
470.592	76.40788
470.802	15.2791
471.012	103.81665
471.222	150.20917
471.432	120.68545
471.642	116.46812
471.852	122.79415
472.062	65.86705
472.272	110.14229
472.482	99.59967
472.691	137.55563
472.901	76.40788
473.111	103.81665
473.321	110.14229
473.531	152.31817
473.741	114.35949
473.95	186.06495
474.16	67.97517
474.37	82.73264
474.58	116.46812
474.79	114.35949
474.999	173.40929
475.209	84.84094
475.419	173.40929
475.628	103.81665
475.838	194.50247
476.048	152.31817
476.258	209.26891
476.467	200.83082
476.677	226.14603
476.886	186.06495
477.096	150.20917
477.306	150.20917
477.515	84.84094
477.725	238.8047
477.935	272.56455
478.144	221.92663
478.354	205.04983
478.563	299.99796
478.773	259.90403
478.982	224.03632
479.192	270.45441
479.401	228.25576
479.611	209.26891
479.82	337.98775
480.03	266.2342
480.239	285.22573
480.449	316.8816
480.658	352.76311
480.868	304.21876
481.077	337.98775
481.287	302.10835
481.496	348.54149
481.705	437.20952
481.915	506.89684
482.124	337.98775
482.333	445.65559
482.543	424.5409
482.752	403.4278
482.961	411.87285
483.171	538.57818
483.38	428.76371
483.589	475.21875
483.799	521.68107
484.008	557.58849
484.217	445.65559
484.426	608.28796
484.636	506.89684
484.845	589.27478
485.054	650.54313
485.263	542.8026
485.472	549.13933
485.682	644.20454
485.891	614.62592
486.1	688.57688
486.309	616.7386
486.518	741.40759
486.727	669.55954
486.936	790.01762
487.146	751.97453
487.355	836.51897
487.564	777.33623
487.773	878.79667
487.982	756.20138
488.191	796.35845
488.4	844.97423
488.609	931.6484
488.818	891.48064
489.027	923.1918
489.236	830.17761
489.445	1022.56395
489.654	935.87675
489.863	1105.03195
490.072	997.19094
490.281	1092.34404
490.49	1094.45868
490.698	1073.31252
490.907	1024.67841
491.116	1035.25078
491.325	1107.14661
491.534	1189.62209
491.743	1081.77092
491.952	1151.5557
492.16	1172.70354
492.369	1333.43747
492.578	1208.65573
492.787	1248.83871
492.996	1291.13766
493.204	1422.26885
493.413	1240.37905
493.622	1354.58762
493.831	1291.13766
494.039	1437.07421
494.248	1360.9327
494.457	1523.79118
494.665	1536.48138
494.874	1519.56111
495.083	1540.71144
495.291	1498.41068
495.5	1606.27666
495.709	1578.78175
495.917	1437.07421
496.126	1724.71177
496.335	1610.50661
496.543	1646.46091
496.752	1646.46091
496.96	1659.1505
497.169	1657.03557
497.377	1659.1505
497.586	1731.05625
497.794	1874.8548
498.003	1786.04035
498.211	1997.48817
498.42	1802.958
498.628	1989.03134
498.837	1811.41673
499.045	2012.28737
499.254	1847.3655
499.462	1942.51701
499.671	1997.48817
499.879	2128.55496
500.087	1925.60199
500.296	2111.64469
500.504	1986.91712
500.713	2082.05056
500.921	2010.17322
501.129	2175.05559
501.338	2003.83073
501.546	2079.93663
501.754	2094.73394
501.962	2255.3653
502.171	2113.7585
502.379	2299.74145
502.587	2113.7585
502.795	2394.81888
503.004	2287.06296
503.212	2314.53257
503.42	2297.62839
503.628	2380.03039
503.837	2337.77482
504.045	2500.43581
504.253	2544.78663
504.461	2559.56911
504.669	2439.18128
504.877	2703.13927
505.085	2510.99599
505.294	2593.35543
505.502	2536.33925
505.71	2698.91745
505.918	2420.16939
506.126	2652.47402
506.334	2745.35461
506.542	2829.76919
506.75	2593.35543
506.958	2789.67498
507.166	2720.02603
507.374	2806.55736
507.582	2669.36325
507.79	2928.92773
507.998	2717.91523
508.206	2956.34891
508.414	2755.90761
508.622	2952.13043
508.83	2882.51703
509.037	2836.0994
509.245	2859.30907
509.453	3074.44177
509.661	2947.91189
509.869	3133.46992
510.077	3133.46992
510.285	3099.74107
510.492	3129.25404
510.7	3177.73279
510.908	3116.60601
511.116	3268.34367
511.324	3110.28178
511.531	3175.6252
511.739	3167.19466
511.947	3160.87159
512.155	3154.54837
512.362	3270.45053
512.57	3152.4406
512.778	3268.34367
512.985	3377.87779
513.193	3373.6658
513.401	3323.11655
513.608	3335.7548
513.816	3327.32937
514.024	3428.4161
514.231	3148.22501
514.439	3405.25397
514.646	3384.19563
514.854	3466.31311
515.061	3276.77102
515.269	3525.25239
515.477	3497.8895
515.684	3605.21836
515.892	3367.34769
516.099	3802.91149
516.307	3537.88037
516.514	3823.93259
516.722	3411.57113
516.929	3750.35017
517.136	3754.55552
517.344	3836.5443
517.551	3714.60152
517.759	3870.17203
517.966	3672.53717
518.173	3859.66391
518.381	3643.08757
518.588	3798.70704
518.796	3840.74805
519.003	4055.03232
519.21	3819.72853
519.418	3983.62772
519.625	3874.37514
519.832	4000.43094
520.039	3870.17203
520.247	4036.13342
520.454	3752.45286
520.661	3996.23025
520.868	3979.42671
521.076	4243.92833
521.283	4199.86786
521.49	4145.30387
521.697	4174.68625
521.904	4338.31185
522.112	4099.12324
522.319	4311.04997
522.526	4243.92833
522.733	4327.82695
522.94	4086.52677
523.147	4308.95276
523.354	4302.66097
523.561	4430.55563
523.768	4441.03521
523.975	4505.99632
524.183	4168.39038
524.39	4470.37511
524.597	4499.71069
524.804	4637.94852
525.011	4420.07551
525.218	4512.28176
525.425	4642.13603
525.632	4627.47935
525.838	4564.65264
526.045	4585.59711
526.252	4361.37674
526.459	4684.00618
526.666	4648.41712
526.873	4629.57323
527.08	4480.8526
527.287	4922.49316
527.494	4813.74629
527.701	4930.85574
527.907	4704.93788
528.114	4803.28661
528.321	4932.94633
528.528	4920.40246
528.735	4995.65327
528.941	4955.94128
529.148	4805.37859
529.355	5083.40809
529.562	4899.49418
529.768	5041.62517
529.975	4759.34974
530.182	5202.43849
530.388	5129.3586
530.595	5256.70792
530.802	5081.31916
531.008	5461.11969
531.215	4999.83299
531.422	5310.96156
531.628	5277.57658
531.835	5394.39777
532.042	5281.75003
532.248	5427.76174
532.455	5227.48788
532.661	5244.18561
532.868	5214.9636
533.074	5581.99177
533.281	5200.35089
533.487	5210.78866
533.694	5350.59844
533.9	5627.81907
534.107	5500.72444
534.313	5773.55722
534.52	5677.79946
534.726	5731.92955
534.933	5538.23689
535.139	5490.30296
535.345	5650.72843
535.552	5763.15119
535.758	5619.48768
535.965	5659.05841
536.171	5650.72843
536.377	5846.38293
536.584	5892.1443
536.79	5702.78456
536.996	5756.90729
537.203	5883.8249
537.409	5848.46324
537.615	5860.94461
537.821	5939.97351
538.028	6052.21919
538.234	5885.90478
538.44	6014.8116
538.646	5819.33676
538.853	5939.97351
539.059	6060.53095
539.265	6033.51635
539.471	6023.12506
539.677	6106.23892
539.883	6191.39158
540.09	6195.54436
540.296	5998.18355
540.502	6376.09958
540.708	6081.30871
540.914	6291.0324
541.12	6222.53514
541.326	6423.80303
541.532	6280.65567
541.738	6498.44458
541.944	6342.90731
542.15	6490.15256
542.356	6268.20281
542.562	6587.56039
542.768	6400.98988
542.974	6595.84805
543.18	6330.45866
543.386	6529.53635
543.592	6471.49416
543.798	6660.06497
544.004	6432.09802
544.21	6649.7089
544.415	6554.40602
544.621	6620.70884
544.827	6597.91991
545.033	6848.44529
545.239	6622.78042
545.445	7150.28944
545.651	6728.40062
545.856	6978.75197
546.062	6660.06497
546.268	6693.20053
546.474	6885.68495
546.679	6918.78069
546.885	6668.34941
547.091	6864.99716
547.297	6614.49396
547.502	7040.77128
547.708	6755.31387
547.914	6978.75197
548.119	6827.75341
548.325	7135.82837
548.531	7046.9721
548.736	7342.31218
548.942	6887.7536
549.147	7022.16761
549.353	6978.75197
549.559	7257.68051
549.764	7063.50663
549.97	7218.4484
550.175	7111.03543
550.381	7336.12087
550.586	7195.73143
550.792	7270.06794
550.997	7162.68378
551.203	7228.77341
551.408	7146.15782
551.614	7439.28377
551.819	7461.97232
552.025	7317.54576
552.23	7276.26136
552.435	7270.06794
552.641	7571.25329
552.846	7389.77237
553.052	7587.7433
553.257	7855.51609
553.462	7449.59707
553.668	7777.28075
553.873	7680.47419
554.078	7857.57451
554.283	7647.50813
554.489	7711.37495
554.694	7707.25512
554.899	7927.54846
555.105	7628.96234
555.31	7682.53439
555.515	7752.5686
555.72	7762.86569
555.925	7571.25329
556.131	7993.3846
556.336	7855.51609
556.541	8048.9176
556.746	7703.13521
556.951	8016.01094
557.156	7925.49075
557.361	8159.93943
557.567	7976.92753
557.772	8069.48163
557.977	8108.54772
558.182	8122.93866
558.387	7958.41176
558.592	8108.54772
558.797	8094.15579
559.002	8262.68552
559.207	8145.55101
559.412	8211.31867
559.617	8127.05018
559.822	8059.19987
560.027	8057.14345
560.232	8166.1056
560.437	8314.04008
560.642	8392.07565
560.847	8106.49179
561.051	8535.75256
561.256	8279.12032
561.461	8468.03083
561.666	8435.18857
561.871	8307.87818
562.076	8447.50499
562.281	8254.46766
562.485	8094.15579
562.69	8488.55475
562.895	8297.60796
563.1	8574.73449
563.305	8422.87146
563.509	8513.18095
563.714	8353.06137
563.919	8746.99488
564.123	8344.84695
564.328	8572.68298
564.533	8634.22016
564.737	8445.4523
564.942	8420.81854
565.147	8777.74197
565.351	8634.22016
565.556	8642.42385
565.761	8443.3996
565.965	8527.54496
566.17	8461.87328
566.374	8504.97252
566.579	8578.83746
566.784	8757.24437
566.988	8773.6426
567.193	9082.94381
567.397	8607.55612
567.602	8863.81207
567.806	8589.09455
568.011	8800.28723
568.215	8915.02921
568.42	8939.60947
568.624	8673.18503
568.828	8894.5437
569.033	8736.74494
569.237	8816.6824
569.442	8921.17452
569.646	8992.85797
569.85	8872.00757
570.055	9009.23973
570.259	9037.90511
570.463	9074.75558
570.668	8796.18825
570.872	9072.70848
571.076	9093.17871
571.281	9201.64225
571.485	9191.41188
571.689	9009.23973
571.893	9140.25369
572.098	9175.04242
572.302	9099.31944
572.506	9242.55947
572.71	9017.43019
572.914	9455.22189
573.119	9082.94381
573.323	9377.53893
573.527	9195.50408
573.731	9391.85071
573.935	9449.08987
574.139	9273.24298
574.343	9265.06108
574.547	9496.09828
574.751	9328.46384
574.955	9471.57321
575.159	9447.04584
575.364	9608.4755
575.568	9459.30982
575.772	9673.83677
575.976	9575.78887
576.18	9500.18556
576.383	9393.89519
576.587	9561.48721
576.791	9539.0116
576.995	9804.51211
577.199	9845.33547
577.403	9731.01491
577.607	9583.96091
577.811	9747.34932
578.015	9371.40506
578.219	9867.78577
578.422	9716.7215
578.626	9802.47079
578.83	9651.37063
579.034	9771.84911
579.238	9798.38809
579.442	10000.41038
579.645	9641.15812
579.849	9998.37047
580.053	9829.00684
580.257	9865.74491
580.46	9929.00479
580.664	9843.29444
580.868	9808.59472
581.071	10322.54061
581.275	10122.77916
581.479	10057.52216
581.682	10143.16902
581.886	10024.88823
582.09	10122.77916
582.293	10137.05221
582.497	10137.05221
582.7	10132.97426
582.904	9992.25064
583.107	9973.89038
583.311	9892.27497
583.515	10128.89626
583.718	9918.80254
583.922	10377.55418
584.125	10071.79836
584.329	10304.2006
584.532	10155.40227
584.735	10357.17991
584.939	10218.59948
585.142	10471.25902
585.346	10279.74557
585.549	10619.90903
585.753	10416.26169
585.956	10552.71938
586.159	10528.2834
586.363	10898.70678
586.566	10654.51662
586.769	10481.44268
586.973	10241.02113
587.176	10454.96449
587.379	10540.50162
587.582	10731.86202
587.786	10338.84193
587.989	10542.53795
588.192	10520.13767
588.395	10646.37397
588.599	10666.73021
588.802	10792.91193
589.005	10711.50966
589.208	10766.45828
589.411	10477.36925
589.615	10721.68599
589.818	10776.633
590.021	10829.53678
590.224	10623.9807
590.427	10815.29424
590.63	10740.00262
590.833	10837.67512
591.036	10701.33302
591.239	11073.60775
591.442	10882.43268
591.645	11075.641
591.848	10872.261
592.051	11065.47464
592.254	10994.30241
592.457	11148.83087
592.66	10723.72122
592.863	11244.36363
593.066	11154.9294
593.269	11059.37469
593.472	11158.99503
593.675	11226.0719
593.878	11130.53471
594.081	11337.8417
594.284	11331.74595
594.486	11711.54829
594.689	11299.2338
594.892	11254.52533
595.095	11287.04107
595.298	11530.82785
595.5	11254.52533
595.703	11335.80979
595.906	11325.65012
596.109	11504.42435
596.311	11435.36144
596.514	11555.19889
596.717	11715.6086
596.92	11886.11049
597.122	11415.0467
597.325	11689.21593
597.528	11455.67521
597.73	11861.75674
597.933	11311.42616
598.136	11691.24619
598.338	11545.04445
598.541	11723.72912
598.743	11817.10508
598.946	11478.01925
599.148	11788.68824
599.351	11642.51752
599.554	11642.51752
599.756	11565.3531
599.959	11595.81432
600.161	11644.54799
600.363	11920.60958
600.566	11898.28691
600.768	11833.34252
600.971	11859.72721
601.173	11877.9927
601.376	12168.12375
601.578	11679.06451
601.78	11961.19372
601.983	11900.31628
602.185	12024.09279
602.388	11967.28106
602.59	12190.43499
602.792	11873.93376
602.995	11918.58029
603.197	11711.54829
603.399	12024.09279
603.601	12009.89044
603.804	11942.93126
604.006	12135.66941
604.208	12397.27973
604.41	12202.60439
604.613	12109.29885
604.815	11922.63886
605.017	12326.31183
605.219	12056.55385
605.421	11975.39741
605.623	12308.06157
605.826	12387.14197
606.028	12117.41301
606.23	11957.13545
606.432	11977.42647
606.634	12204.6326
606.836	12119.44153
607.038	12320.22847
607.24	12153.92521
607.442	12283.72701
607.644	12131.61249
607.846	12405.38981
608.048	12089.01293
608.25	12301.97803
608.452	12123.49854
608.654	12563.51545
608.856	12160.01034
609.058	12401.33478
609.26	12354.7
609.462	12204.6326
609.664	12658.7777
609.866	12510.81127
610.067	12514.86559
610.269	12399.30726
610.471	12299.95016
610.673	12522.97416
610.875	12271.55935
611.077	12405.38981
611.278	12267.50341
611.48	12539.19098
611.682	12397.27973
611.884	12877.62906
612.085	12403.3623
612.287	12488.51205
612.489	12364.8383
612.69	12539.19098
612.892	12644.59056
613.094	12681.07119
613.295	12425.66456
613.497	12800.63331
613.699	12421.60966
613.9	12600.00047
614.102	12504.72975
614.304	12602.02735
614.505	12516.89274
614.707	12697.28419
614.908	12403.3623
615.11	12573.65038
615.311	12340.50608
615.513	12366.86594
615.714	12541.21805
615.916	12407.41732
616.117	12490.53929
616.319	12656.75099
616.52	12531.08262
616.722	12624.3227
616.923	12518.91989
617.124	12851.2893
617.326	12697.28419
617.527	12583.78515
617.729	12606.08111
617.93	13064.00832
618.131	12591.89286
618.333	12496.62095
618.534	12699.31078
618.735	12812.79107
618.937	12533.10972
619.138	12614.18854
619.339	12683.09784
619.54	12814.81734
619.742	12648.64406
619.943	13025.52046
620.144	12490.53929
620.345	13013.36603
620.546	12835.07976
620.748	13009.31451
620.949	12758.07959
621.15	12713.49681
621.351	12383.08682
621.552	12506.75693
621.753	12531.08262
621.954	12715.52336
622.155	12642.5638
622.356	12926.25394
622.558	12934.35779
622.759	13029.57189
622.96	12972.84995
623.161	12893.83769
623.362	12814.81734
623.563	12672.96455
623.764	12810.76479
623.965	13108.57102
624.166	12976.90165
624.366	12928.27991
624.567	13003.2372
624.768	12999.18563
624.969	12806.71222
625.17	13116.67308
625.371	12721.60298
625.572	13126.80055
625.773	12942.46156
625.973	13381.97599
626.174	12948.53933
626.375	13147.05514
626.576	12749.97384
626.777	13027.54618
626.977	12559.46143
627.178	13076.16201
627.379	12737.81504
627.58	12887.7595
627.78	12980.95333
627.981	13015.39178
628.182	13009.31451
628.382	13134.90245
628.583	13124.77507
628.784	13001.21142
628.984	13025.52046
629.185	13138.95336
629.386	12800.63331
629.586	13236.16992
629.787	13126.80055
629.987	13252.37169
630.188	13167.30927
630.388	13074.13641
630.589	12857.36779
630.79	12893.83769
630.99	13167.30927
631.191	13232.11944
631.391	13078.18761
631.591	12867.49849
631.792	12869.52462
631.992	12950.56524
632.193	13116.67308
632.393	13096.41778
632.594	13055.90576
632.794	12991.08244
632.994	13047.80312
633.195	13325.27621
633.395	13226.04368
633.595	13219.96788
633.796	12997.15984
633.996	13628.9899
634.196	13349.5765
634.397	13677.5766
634.597	13487.26734
634.797	13303.00041
634.997	12924.22796
635.198	13217.94261
635.398	12806.71222
635.598	13450.82151
635.798	13586.47494
635.998	13469.04458
636.199	13256.42208
636.399	13444.74709
636.599	13104.51996
636.799	13511.56389
636.999	13341.47647
637.199	13290.84976
637.399	13169.33466
637.599	13286.79951
637.799	13367.80134
637.999	13673.52778
638.199	13661.38124
638.399	13788.91417
638.599	13475.11887
638.799	13539.90919
638.999	13726.16142
639.199	13910.3631
639.399	13950.84389
639.599	13813.20478
639.799	13450.82151
639.999	13653.28348
640.199	13580.40126
640.399	13637.08781
640.599	13086.28996
640.799	13962.98792
640.998	13584.45039
641.198	13450.82151
641.398	13608.74487
641.598	13722.11276
641.798	13794.98686
641.997	13930.60363
642.197	13564.2046
642.397	13665.4301
642.597	13746.40457
642.796	14058.11307
642.996	13620.89193
643.196	13995.37156
643.395	13458.92069
643.595	13770.69593
643.795	13669.47894
643.994	13900.24274
644.194	13780.8172
644.394	14110.73325
644.593	13770.69593
644.793	14126.92377
644.992	13641.13675
645.192	13770.69593
645.392	13586.47494
645.591	14050.01752
645.791	13754.50174
645.99	13794.98686
646.19	13671.50336
646.389	13920.4834
646.589	14035.85021
646.788	13835.4708
646.987	13829.39828
647.187	13942.74781
647.386	13774.74445
647.586	13928.57959
647.785	14098.59026
647.984	13962.98792
648.184	14074.30406
648.383	14015.61101
648.582	14052.04141
648.782	14254.41946
648.981	14064.1847
649.18	14278.70348
649.38	14262.51416
649.579	14041.92193
649.778	14060.13695
649.977	14462.84927
650.177	14082.39949
650.376	14094.54259
650.575	13841.54329
650.774	14147.16173
650.973	14147.16173
651.173	14260.49049
651.372	13936.67573
651.571	14274.65616
651.77	14171.44699
651.969	14098.59026
652.168	14052.04141
652.367	14254.41946
652.566	14199.77943
652.765	14292.86903
652.964	14025.73064
653.163	14262.51416
653.362	14244.30104
653.561	14080.37564
653.76	14058.11307
653.959	14222.04036
654.158	14292.86903
654.357	14361.67193
654.556	14244.30104
654.755	14691.49785
654.954	14155.25685
655.153	14448.68466
655.352	14521.53047
655.551	14541.76511
655.749	14626.74928
655.948	14355.60116
656.147	14276.67982
656.346	14280.72713
656.545	14359.64834
656.743	14240.25366
656.942	14268.58517
657.141	14525.5774
657.34	14491.17826
657.538	14396.07265
657.737	14398.09621
657.936	14622.70246
658.135	14220.01664
658.333	14418.3317
658.532	14343.45959
658.731	14464.87277
658.929	14305.01086
659.128	14349.53038
659.326	14339.41238
659.525	14535.69473
659.724	14325.24711
659.922	14519.507
660.121	14264.53783
660.319	14559.97618
660.518	14472.9668
660.716	14371.78983
660.915	14570.09339
661.113	14477.0138
661.312	14454.75522
661.51	14535.69473
661.709	14642.93652
661.907	14557.95273
662.105	14317.15263
662.304	14675.31081
662.502	14268.58517
662.701	14531.6478
662.899	14325.24711
663.097	14596.39802
663.296	14361.67193
663.494	14479.0373
663.692	14379.88413
663.891	14594.3746
664.089	14302.98723
664.287	14355.60116
664.485	14240.25366
664.684	14369.76626
664.882	14371.78983
665.08	14721.84841
665.278	14804.80564
665.476	14756.24547
665.675	14385.95484
665.873	14424.40232
666.071	14272.6325
666.269	14697.56798
666.467	14272.6325
666.665	14521.53047
666.863	14098.59026
667.061	14657.1003
667.259	14472.9668
667.457	14337.38878
667.655	14685.42772
667.853	14576.16371
668.051	14477.0138
668.249	14610.56198
668.447	14543.78856
668.645	14624.72587
668.843	14517.48352
669.041	14535.69473
669.239	14452.7317
669.437	14653.05351
669.635	14450.70818
669.833	14723.87177
670.031	14319.17625
670.229	14361.67193
670.426	14359.64834
670.624	14497.24873
670.822	14675.31081
671.02	14576.16371
671.218	14410.23753
671.415	14545.81202
671.613	14311.08176
671.811	14667.21726
672.009	14487.13128
672.206	14537.71819
672.404	14234.18258
672.602	14596.39802
672.799	14456.77873
672.997	14640.91312
673.195	14309.05813
673.392	14626.74928
673.59	14193.70823
673.788	14410.23753
673.985	14220.01664
674.183	14580.21058
674.38	14574.14027
674.578	14296.91631
674.775	14128.94757
674.973	14220.01664
675.17	14215.96922
675.368	14402.14332
675.565	14175.49451
675.763	14377.86056
675.96	14511.4131
676.158	14383.93127
676.355	14167.39947
676.553	14649.00672
676.75	14361.67193
676.947	14527.60087
677.145	14292.86903
677.342	14689.47448
677.539	14466.89628
677.737	14592.35117
677.934	14333.34156
678.131	14436.54352
678.329	14349.53038
678.526	14187.63701
678.723	14402.14332
678.92	14808.85231
679.118	14638.88972
679.315	14503.31918
679.512	14143.11415
679.709	14513.43657
679.906	14011.56314
680.104	14205.85062
680.301	14153.23307
680.498	14383.93127
680.695	14341.43598
680.892	14533.67127
681.089	14171.44699
681.286	14568.06995
681.483	14104.66177
681.68	14612.58539
681.877	14252.39578
682.075	14462.84927
682.272	14276.67982
682.469	14555.92928
682.665	14248.34842
682.862	13916.43529
683.059	13890.12231
683.256	14228.11148
683.453	13784.86569
683.65	14076.32792
683.847	14274.65616
684.044	14420.35525
684.241	13926.55554
684.438	14288.82174
684.635	13792.96263
684.831	14139.06657
685.028	14213.9455
685.225	14230.13518
685.422	13799.03531
685.619	14181.56577
685.815	13859.76061
686.012	14296.91631
686.209	13851.66405
686.405	14553.90583
686.602	14268.58517
686.799	14242.27735
686.996	13902.26682
687.192	14161.32817
687.389	13999.41946
687.586	14070.25632
687.782	14015.61101
687.979	14050.01752
688.175	13861.78475
688.372	14086.4472
688.568	13977.15584
688.765	13926.55554
688.962	13794.98686
689.158	13932.62766
689.355	14163.35194
689.551	14280.72713
689.748	13954.89191
689.944	13803.08374
690.14	13835.4708
690.337	14041.92193
690.533	13969.0599
690.73	13873.92948
690.926	13651.25904
691.123	13875.9536
691.319	13904.29089
691.515	13946.79585
691.712	13570.27837
691.908	13851.66405
692.104	13647.21013
692.301	13782.84145
692.497	13647.21013
692.693	13855.71234
692.889	13612.7939
693.086	13841.54329
693.282	13637.08781
693.478	14122.87615
693.674	13914.41123
693.87	14037.87412
694.067	14039.89803
694.263	13973.10787
694.459	13912.38717
694.655	14023.70672
694.851	14102.63793
695.047	13730.21008
695.243	13616.84292
695.439	13746.40457
695.635	13560.1554
695.831	13847.61576
696.027	13845.59161
696.224	13691.74736
696.42	13347.5515
696.615	13703.89361
696.811	13596.59769
697.007	13726.16142
697.203	13691.74736
697.399	13568.25378
697.595	13703.89361
697.791	13394.12553
697.987	13475.11887
698.183	13875.9536
698.379	13392.10062
698.575	13458.92069
698.77	13272.6235
698.966	13375.90116
699.162	13177.43617
699.358	13483.21787
699.554	13311.10076
699.749	13384.00092
699.945	13539.90919
700.141	13851.66405
700.337	13221.99315
700.532	13458.92069
700.728	13467.01981
700.924	13345.5265
701.119	13070.08519
701.315	13292.87488
701.511	13432.59814
701.706	13487.26734
701.902	13390.0757
702.097	13637.08781
702.293	13535.8599
702.489	13485.2426
702.684	13386.02585
702.88	13280.7241
703.075	13080.2132
703.271	13260.47246
703.466	13307.05059
703.662	13296.9251
703.857	13384.00092
704.053	13284.77438
704.248	13161.23308
704.443	13226.04368
704.639	13309.07568
704.834	13422.4739
705.03	13432.59814
705.225	13631.01438
705.42	13122.74958
705.616	13564.2046
705.811	13371.85126
706.006	13548.00771
706.202	13369.8263
706.397	13477.14362
706.592	13288.82463
706.787	13215.91733
706.983	13479.16837
707.178	13604.69582
707.373	13114.64757
707.568	13550.03234
707.763	13189.58829
707.959	13369.8263
708.154	13163.25849
708.349	13535.8599
708.544	13193.63896
708.739	13199.71493
708.934	13092.36667
709.129	13458.92069
709.324	13501.44039
709.519	13365.77638
709.714	13110.59654
709.909	13452.84631
710.104	13248.32127
710.299	13509.53919
710.494	13298.95021
710.689	13155.15685
710.884	13134.90245
711.079	13053.8801
711.274	13025.52046
711.469	13199.71493
711.664	13177.43617
711.859	13211.86676
712.054	12782.39631
712.249	13098.44334
712.443	12883.70734
712.638	13422.4739
712.833	12717.5499
713.028	13035.64901
713.223	13009.31451
713.417	13250.34648
713.612	13132.87698
713.807	13274.64865
714.002	13051.85445
714.196	13084.26438
714.391	12851.2893
714.586	13096.41778
714.78	12940.43562
714.975	13023.49473
715.17	12642.5638
715.364	12989.05662
715.559	13207.81617
715.754	12954.61706
715.948	12788.47536
716.143	13051.85445
716.337	12612.16169
716.532	13001.21142
716.726	13159.20768
716.921	13114.64757
717.115	13090.3411
717.31	12912.072
717.504	12857.36779
717.699	12899.91584
717.893	12415.52727
718.088	12754.02673
718.282	12944.48749
718.476	12672.96455
718.671	12634.45671
718.865	12756.05316
719.059	12563.51545
719.254	12668.9112
719.448	12466.21205
719.642	12602.02735
719.837	12324.28405
720.031	12484.45757
720.225	12324.28405
720.419	12587.83902
720.614	12413.49979
720.808	12962.72062
721.002	12589.86594
721.196	12749.97384
721.39	12614.18854
721.585	12754.02673
721.779	12626.34951
721.973	12472.29395
722.167	12506.75693
722.361	12790.5017
722.555	12719.57644
722.749	12235.05482
722.943	12407.41732
723.137	12407.41732
723.331	12539.19098
723.525	12502.70256
723.719	12510.81127
723.913	12547.29923
724.107	12435.80168
724.301	12551.35333
724.495	12551.35333
724.689	12604.05423
724.883	12186.37847
725.077	12567.56944
725.271	12589.86594
725.465	12413.49979
725.659	12239.111
725.853	12216.80168
726.046	12038.29475
726.24	12046.40999
726.434	11940.90206
726.628	12326.31183
726.822	12403.3623
727.015	12614.18854
727.209	12308.06157
727.403	12299.95016
727.596	12218.82984
727.79	12326.31183
727.984	12512.83844
728.177	12374.97643
728.371	12334.42287
728.565	12512.83844
728.758	12626.34951
728.952	12624.3227
729.146	12403.3623
729.339	12494.59374
729.533	12070.75494
729.726	12216.80168
729.92	12091.04155
730.113	12326.31183
730.307	12387.14197
730.5	12328.3396
730.694	12245.1952
730.887	12259.39143
731.081	12145.8116
731.274	12287.78284
731.468	12056.55385
731.661	12208.68899
731.854	12093.07017
732.048	12080.89834
732.241	12228.97051
732.435	12474.32124
732.628	12230.99862
732.821	12080.89834
733.014	12103.21315
733.208	12251.27935
733.401	12226.94239
733.594	12147.84001
733.788	12113.35594
733.981	12007.8615
734.174	12328.3396
734.367	12545.27218
734.56	12123.49854
734.754	12464.18474
734.947	12129.58401
735.14	12218.82984
735.333	12064.66881
735.526	12279.67115
735.719	11985.54266
735.912	12040.32357
736.105	11928.72667
736.298	12162.0387
736.491	12036.26592
736.684	11861.75674
736.877	12044.38119
737.07	12082.927
737.263	11934.8144
737.456	12174.20872
737.649	11817.10508
737.842	11780.56883
738.035	12052.49633
738.228	11991.62971
738.421	12245.1952
738.614	12080.89834
738.807	12271.55935
739	11833.34252
739.192	11536.92073
739.385	11882.05161
739.578	11855.66812
739.771	11936.84363
739.964	11873.93376
740.156	12186.37847
740.349	11839.43142
740.542	12151.89682
740.735	11776.50908
740.927	11821.16449
741.12	11484.11288
741.313	11644.54799
741.505	11784.62855
741.698	11827.25354
741.891	11752.14983
742.083	11577.53784
742.276	11825.22387
742.468	11808.98615
742.661	11788.68824
742.854	11819.13479
743.046	11837.40179
743.239	11774.47919
743.431	11963.22284
743.624	11626.27348
743.816	11869.87479
744.009	11914.52168
744.201	11603.93697
744.393	11719.66888
744.586	11752.14983
744.778	11737.93969
744.971	11577.53784
745.163	11413.01517
745.355	11569.41471
745.548	11729.81941
745.74	11788.68824
745.932	11654.70017
746.125	11815.07536
746.317	12074.81233
746.509	11500.36213
746.702	12336.45061
746.894	11585.66081
747.086	11638.45657
747.278	11358.16019
747.471	11415.0467
747.663	11435.36144
747.855	11675.00388
748.047	11364.25554
748.239	11638.45657
748.431	11508.48653
748.623	11579.56859
748.815	11504.42435
749.008	11561.29144
749.2	11634.39557
749.392	11626.27348
749.584	11380.50938
749.776	11660.79138
749.968	11772.44929
750.16	11715.6086
750.352	11630.33454
750.544	11670.94321
750.736	11607.99823
750.928	11760.26972
751.12	11526.76587
751.311	11538.95168
751.503	11567.38391
751.695	11549.10626
751.887	11457.70654
752.079	11573.47629
752.271	11071.57449
752.463	11287.04107
752.654	11406.92052
752.846	11303.29796
753.038	11063.44133
753.23	11341.90548
753.421	11278.91238
753.613	11114.27072
753.805	11374.41427
753.997	11370.35081
754.188	11610.02885
754.38	11276.88018
754.572	11364.25554
754.763	11697.33691
754.955	11278.91238
755.146	11709.51812
755.338	11366.28731
755.53	11398.7942
755.721	11423.17271
755.913	11244.36363
756.104	11370.35081
756.296	11362.22377
756.487	11152.89657
756.679	11250.46068
756.87	11343.93735
757.062	11268.75129
757.253	11089.87346
757.445	10886.50128
757.636	11122.4028
757.827	11073.60775
758.019	11079.70747
758.21	10644.33828
758.401	10894.63832
758.593	10821.39826
758.784	10939.38882
758.975	10792.91193
759.167	10691.15609
759.358	10693.1915
759.549	10937.35482
759.74	10758.31829
759.932	10858.02016
760.123	10980.06633
760.314	10788.84227
760.505	11049.20789
760.696	10717.61549
760.888	10894.63832
761.079	10562.90051
761.27	10882.43268
761.461	10674.87237
761.652	10733.89719
761.843	10516.06473
762.034	10573.08132
762.225	10151.32458
762.416	10463.11186
762.607	10499.77246
762.798	10475.33252
762.989	10597.51399
763.18	10870.22663
763.371	10762.38831
763.562	10562.90051
763.753	10514.02824
763.944	10609.72965
764.135	10385.70352
764.326	10805.12064
764.517	10666.73021
764.708	10611.76555
764.899	10442.74306
765.089	10414.22457
765.28	10418.29879
765.471	10489.58937
765.662	10369.40463
765.853	10275.66954
766.043	9945.32764
766.234	10391.81539
766.425	10220.63788
766.615	10259.36489
766.806	10175.78991
766.997	9992.25064
767.187	9963.68972
767.378	10169.67377
767.569	9949.4082
767.759	10120.74009
767.95	10020.80873
768.141	10147.24683
768.331	9859.62223
768.522	10081.99523
768.712	9816.75975
768.903	10259.36489
769.093	9747.34932
769.284	9839.21234
769.474	9969.81016
769.665	9908.59992
769.855	9855.54037
770.046	10212.4842
770.236	9673.83677
770.426	10008.56989
770.617	9806.55342
770.807	10165.59627
770.998	9731.01491
771.188	9918.80254
771.378	9837.17127
771.569	10014.68938
771.759	9861.66314
771.949	9728.97304
772.139	10006.53004
772.33	9845.33547
772.52	9575.78887
772.71	9608.4755
772.9	9906.55935
773.09	9545.1415
773.281	9749.39105
773.471	9941.24701
773.661	9606.43271
773.851	9553.31448
774.041	9469.52935
774.231	9381.62809
774.421	9021.52531
774.611	9385.71719
774.802	9070.66136
774.992	9213.91812
775.182	9512.44704
775.372	9363.22634
775.562	9426.60458
775.752	9408.20606
775.942	9385.71719
776.131	9385.71719
776.321	9070.66136
776.511	9285.51533
776.701	9279.37923
776.891	9175.04242
777.081	8771.59288
777.271	9363.22634
777.461	9197.55015
777.651	9373.4497
777.84	9532.88155
778.03	9422.51613
778.22	9250.74211
778.41	9314.14848
778.599	9260.97003
778.789	9148.43972
778.979	9172.99616
779.169	9074.75558
779.358	8906.83522
779.548	9119.78742
779.738	9009.23973
779.927	9193.45799
780.117	8960.09108
780.307	8904.78668
780.496	8771.59288
780.686	9025.62036
780.875	8876.10521
781.065	9066.56707
781.254	8720.34408
781.444	8759.29421
781.633	8634.22016
781.823	8744.94493
782.012	8765.44363
782.202	8929.36801
782.391	8800.28723
782.581	9027.66787
782.77	8853.5673
782.96	9140.25369
783.149	8740.84497
783.338	9132.06739
783.528	8876.10521
783.717	8886.34899
783.906	8888.39769
784.096	9101.36631
784.285	8755.19451
784.474	8636.27111
784.663	8642.42385
784.853	8642.42385
785.042	8433.13577
785.231	8611.65849
785.42	8463.92581
785.61	8496.76379
785.799	8537.80441
785.988	8363.32896
786.177	8213.37358
786.366	8685.48833
786.555	8691.63973
786.744	8574.73449
786.933	8137.32862
787.122	8422.87146
787.312	8203.09883
787.501	8377.70278
787.69	8159.93943
787.879	8519.33707
788.068	8071.53792
788.257	8326.36335
788.445	8233.92161
788.634	8353.06137
788.823	8543.95985
789.012	8406.44756
789.201	8147.60656
789.39	8196.93373
789.579	8186.65819
789.768	8435.18857
789.957	8297.60796
790.145	8166.1056
790.334	8061.25626
790.523	7985.15623
790.712	7886.3902
790.9	8016.01094
791.089	8122.93866
791.278	8260.63109
791.467	8164.05023
791.655	7991.32754
791.844	8116.77123
792.033	8034.52158
792.221	7937.83674
792.41	8233.92161
792.599	8075.65044
792.787	8161.99484
792.976	7750.50911
793.164	7878.15756
793.353	7818.46099
793.541	8075.65044
793.73	7884.33207
793.918	7933.72149
794.107	7657.81061
794.295	7758.74692
794.484	7620.71921
794.672	7589.80445
794.861	7707.25512
795.049	7647.50813
795.238	7684.59457
795.426	7847.2822
795.614	7616.59752
795.803	7608.35389
795.991	7736.09215
796.179	7919.31747
796.368	7808.16671
796.556	7754.62806
796.744	7711.37495
796.932	7777.28075
797.121	7358.82139
797.309	7661.93145
797.497	7727.85342
797.685	7663.99184
797.874	7428.96993
798.062	7523.83689
798.25	7216.38333
798.438	7393.8988
798.626	7507.34157
798.814	7497.03129
799.002	7381.51926
799.19	7799.93092
799.378	7663.99184
799.566	7746.39008
799.755	7369.13893
799.943	7439.28377
800.131	7377.39257
800.318	7525.89871
800.506	7457.84732
800.694	7620.71921
800.882	7530.02228
801.07	7517.65131
801.258	7447.53445
801.446	7418.65554
801.634	7139.96022
801.822	7435.1583
802.01	7241.1627
802.197	7521.77505
802.385	7455.78479
802.573	7431.03274
802.761	7315.48174
802.949	7546.51572
803.136	7472.28443
803.324	7410.40364
803.512	7437.22104
803.699	7356.75781
803.887	7334.05706
804.075	7563.00778
804.262	7369.13893
804.45	7513.52748
804.638	7253.55119
804.825	7550.63886
805.013	7265.93888
805.201	7494.96917
805.388	7284.51894
805.576	7484.65825
805.763	7369.13893
805.951	7587.7433
806.138	7464.03478
806.326	7575.37592
806.513	7490.84487
806.701	7497.03129
806.888	7406.27756
807.075	7439.28377
807.263	7499.09339
807.45	7661.93145
807.638	7303.09721
807.825	7416.5926
808.012	7593.9267
808.2	7478.47144
808.387	7331.99322
808.574	7435.1583
808.761	7464.03478
808.949	7519.71319
809.136	7152.35522
809.323	7478.47144
809.51	7513.52748
809.698	7552.7004
809.885	7468.15965
810.072	7705.19518
810.259	7497.03129
810.446	7701.07523
810.633	7501.15547
810.82	7550.63886
811.008	7480.53373
811.195	7620.71921
811.382	7567.13058
811.569	7499.09339
811.756	7348.5033
811.943	7775.22152
812.13	7521.77505
812.317	7633.08378
812.504	7499.09339
812.691	7707.25512
812.878	7752.5686
813.064	7703.13521
813.251	7705.19518
813.438	7888.44831
813.625	7265.93888
813.812	7602.17093
813.999	7257.68051
814.186	7494.96917
814.372	7317.54576
814.559	7431.03274
814.746	7261.80974
814.933	7406.27756
815.12	7655.75016
815.306	7437.22104
815.493	7367.07546
815.68	7563.00778
815.866	7451.65967
816.053	7546.51572
816.24	7303.09721
816.426	7587.7433
816.613	7509.40356
816.799	7752.5686
816.986	7476.40912
817.173	7447.53445
817.359	7472.28443
817.546	7542.39249
817.732	7319.60974
817.919	7354.69422
818.105	7278.32578
818.292	7490.84487
818.478	7210.188
818.665	7369.13893
818.851	7309.28958
819.037	7290.71189
819.224	7061.43989
819.41	7296.90465
819.597	7222.57847
819.783	7307.22548
819.969	7356.75781
820.156	7346.43962
820.342	7218.4484
820.528	7389.77237
820.714	7212.25313
820.901	7298.96886
821.087	7030.43614
821.273	7261.80974
821.459	7123.4323
821.646	7315.48174
821.832	6854.65241
822.018	7177.14283
822.204	6641.42363
822.39	7123.4323
822.576	6836.03043
822.762	6953.93858
822.948	6794.64166
823.134	7255.61586
823.32	6860.85933
823.507	7247.35704
823.693	6906.37047
823.879	6879.47885
824.065	6860.85933
824.25	7199.86199
824.436	6668.34941
824.622	7007.69684
824.808	6846.3762
824.994	7117.23397
825.18	6798.78095
825.366	7129.63044
825.552	7003.56213
825.738	7199.86199
825.923	6877.4101
826.109	7142.02611
826.295	6786.36281
826.481	7022.16761
826.667	6860.85933
826.852	6945.66672
827.038	6935.32639
827.224	6980.81961
827.409	6742.89285
827.595	6924.9855
827.781	6827.75341
827.966	6943.5987
828.152	6718.04834
828.338	6631.06652
828.523	6736.68203
828.709	6790.50228
828.894	6651.78016
829.08	6757.38396
829.266	6390.61933
829.451	6660.06497
829.637	6544.04406
829.822	6811.19826
830.008	6713.90727
830.193	6639.35225
830.378	6465.27428
830.564	6517.10027
830.749	6293.10768
830.935	6338.75785
831.12	6276.50481
831.305	6622.78042
831.491	6299.33337
831.676	6436.24538
831.861	6156.08917
832.047	6535.75408
832.232	6396.84173
832.417	6558.55064
832.602	6232.91515
832.788	6564.76739
832.973	6454.90734
833.158	6618.63724
833.343	6599.99175
833.528	6662.13611
833.714	6430.02431
833.899	6222.53514
834.084	6137.39691
834.269	6338.75785
834.454	5983.63278
834.639	6299.33337
834.824	6230.8392
835.009	6183.08574
835.194	6106.23892
835.379	6421.72922
835.564	6127.0115
835.749	6407.21192
835.934	6374.02524
836.119	6162.3195
836.304	5919.17974
836.489	6264.05168
836.674	6174.77953
836.859	6243.29458
837.044	6097.92923
837.228	6257.82479
837.413	5802.69098
837.598	6058.45305
837.783	5540.3207
837.968	6091.69671
838.152	6006.49776
838.337	5958.6859
838.522	5740.25584
838.707	6224.61119
838.891	5835.98103
839.076	6016.89
839.261	6016.89
839.445	6091.69671
839.63	5942.05276
839.815	5856.78425
839.999	5865.10487
840.184	6127.0115
840.368	5898.3836
840.553	6151.9355
840.737	5894.22409
840.922	5675.71722
841.106	5490.30296
841.291	5777.71947
841.475	5912.94114
841.66	5790.20565
841.844	5481.96536
842.029	5773.55722
842.213	5440.27168
842.397	5627.81907
842.582	5242.09847
842.766	5711.11217
842.951	5269.2294
843.135	5627.81907
843.319	5459.035
843.504	5513.22944
843.688	5527.81753
843.872	5556.99026
844.056	5448.61117
844.241	5609.07292
844.425	5279.66331
844.609	5348.5125
844.793	5444.44147
844.977	5394.39777
845.161	5206.61362
845.346	5256.70792
845.53	5392.31232
845.714	5609.07292
845.898	5206.61362
846.082	5448.61117
846.266	5173.20995
846.45	5344.34054
846.634	5219.13846
846.818	5114.7392
847.002	5125.18174
847.186	5383.97029
847.37	5298.44289
847.554	5411.08051
847.738	5166.9461
847.922	5181.56143
848.106	5244.18561
848.29	5214.9636
848.473	5175.29786
848.657	5070.87419
848.841	5029.08848
849.025	5310.96156
849.209	5058.33945
849.392	5070.87419
849.576	4794.91845
849.76	5041.62517
849.944	4836.75559
850.127	4941.30845
850.311	4824.2054
850.495	5202.43849
850.678	4930.85574
850.862	5383.97029
851.046	4953.85094
851.229	5043.71453
851.413	4646.32344
851.596	4878.5836
851.78	4723.77448
851.964	5110.56202
852.147	4711.21695
852.331	4828.38889
852.514	4744.7019
852.698	4826.29716
852.881	4730.05295
853.065	4903.67602
853.248	4604.44522
853.431	4684.00618
853.615	4554.17957
853.798	4535.32666
853.982	4656.7916
854.165	4723.77448
854.348	4535.32666
854.532	4709.12395
854.715	4621.19759
854.898	4667.25919
855.081	4520.66203
855.265	4824.2054
855.448	4612.82158
855.631	4698.65861
855.814	4399.11363
855.997	4738.42391
856.181	4399.11363
856.364	4591.88001
856.547	4363.47342
856.73	4583.50276
856.913	4317.3415
857.096	4426.36365
857.279	4267.00387
857.462	4503.90114
857.645	4329.92397
857.828	4476.66167
858.011	4180.98194
858.194	4384.43901
858.377	4252.31973
858.56	4235.53658
858.743	4088.62624
858.926	4147.40275
859.109	4027.73337
859.292	4235.53658
859.475	4124.31393
859.658	4277.4919
859.841	4111.71896
860.023	4371.85992
860.206	3933.21024
860.389	4388.63187
860.572	3807.11587
860.755	4120.11569
860.937	3844.95171
861.12	3880.67966
861.303	3893.28814
861.486	4055.03232
861.668	3815.52439
861.851	4097.02388
862.034	3958.42044
862.216	4038.23338
862.399	3882.78112
862.581	3910.09833
862.764	3756.65817
862.947	3809.21803
863.129	3781.88843
863.312	3994.12988
863.494	3735.63082
863.677	3983.62772
863.859	3765.06857
864.042	3973.12504
864.224	3687.26056
864.406	3884.88256
864.589	3430.52164
864.771	3674.64057
864.954	3487.36449
865.136	3851.25706
865.318	3457.89206
865.501	3765.06857
865.683	3462.10262
865.865	3815.52439
866.048	3489.46953
866.23	3861.76558
866.412	3379.98375
866.594	3533.67112
866.777	3358.9233
866.959	3455.78675
867.141	3302.05142
867.323	3470.52353
867.505	3306.26459
867.687	3613.63427
867.869	3268.34367
868.052	3487.36449
868.234	3478.94416
868.416	3596.80216
868.598	3354.711
868.78	3558.92553
868.962	3542.08955
869.144	3659.91637
869.326	3426.31054
869.508	3487.36449
869.69	3609.42635
869.872	3689.36383
870.054	3445.25993
870.236	3470.52353
870.417	3270.45053
870.599	3428.4161
870.781	3188.27051
870.963	3251.48817
871.145	3213.55937
871.327	3434.73267
871.508	3160.87159
871.69	3462.10262
871.872	3148.22501
872.054	3464.20788
872.235	3356.81716
872.417	3283.09135
872.599	3097.63288
872.78	3363.13553
872.962	3141.9015
873.144	3436.83816
873.325	3268.34367
873.507	3438.94363
873.689	3310.47768
873.87	3441.04908
874.052	2914.16146
874.233	3276.77102
874.415	2952.13043
874.596	3051.24876
874.778	2838.20944
874.959	3207.23738
875.141	2836.0994
875.322	3150.33281
875.503	2945.8026
875.685	3293.62489
875.866	3034.37993
876.048	3251.48817
876.229	2998.53042
876.41	3084.98342
876.592	3004.85712
876.773	3318.90366
876.954	3087.09171
877.136	3318.90366
877.317	3226.2029
877.498	3344.17995
877.679	3194.59295
877.86	3299.94482
878.042	3200.91524
878.223	3539.98497
878.404	3327.32937
878.585	3278.87781
878.766	3141.9015
878.947	3335.7548
879.128	3116.60601
879.309	3055.46581
879.49	3053.35729
879.672	3379.98375
879.853	3133.46992
880.034	3447.36533
880.215	3122.9301
880.396	3430.52164
880.576	3082.87512
880.757	3388.40744
880.938	3276.77102
881.119	3521.04291
881.3	3251.48817
881.481	3411.57113
881.662	3234.63159
881.843	3160.87159
882.023	3125.0381
882.204	3240.95293
882.385	3379.98375
882.566	3419.99376
882.747	3236.73872
882.927	3272.55738
883.108	3167.19466
883.289	3337.86111
883.469	3158.76387
883.65	3392.61918
883.831	3249.38115
884.011	3293.62489
884.192	3192.48549
884.373	3415.78248
884.553	3382.0897
884.734	3335.7548
884.914	3116.60601
885.095	3499.99444
885.275	3413.67681
885.456	3424.20497
885.636	3122.9301
885.817	3491.57455
885.997	3310.47768
886.178	3398.93665
886.358	3247.27412
886.538	3451.57608
886.719	3335.7548
886.899	3470.52353
887.08	3361.02943
887.26	3335.7548
887.44	2840.31946
887.621	3537.88037
887.801	3059.6828
887.981	3624.15373
888.161	3428.4161
888.342	3499.99444
888.522	3403.14822
888.702	3409.46543
888.882	3499.99444
889.062	3546.29866
889.242	3312.5842
889.423	3428.4161
889.603	3082.87512
889.783	3455.78675
889.963	3116.60601
890.143	3411.57113
890.323	3245.16708
890.503	3415.78248
890.683	3251.48817
890.863	3215.66666
891.043	2907.83283
891.223	3245.16708
891.403	3146.11719
891.583	3251.48817
891.763	3044.92307
891.943	3144.00935
892.122	2992.20357
892.302	3365.24162
892.482	2935.25592
892.662	3158.76387
892.842	2947.91189
893.022	3144.00935
893.201	3032.27126
893.381	3291.51822
893.561	2950.02117
893.741	3238.84584
893.92	3011.18369
894.1	3074.44177
894.28	2952.13043
894.459	3175.6252
894.639	3002.74824
894.819	3188.27051
894.998	3209.34472
895.178	3302.05142
895.357	3181.94793
895.537	3040.70586
895.716	2981.65854
895.896	3082.87512
896.075	2800.22657
896.255	2952.13043
896.434	2787.56462
896.614	3015.40133
896.793	2766.46029
896.973	3112.38987
897.152	2787.56462
897.331	2920.48995
897.511	2857.19917
897.69	2973.22223
897.87	2720.02603
898.049	2660.91874
898.228	2796.00598
898.407	2762.23926
898.587	2534.22737
898.766	2779.12305
898.945	2491.98746
899.124	2770.68126
899.304	2587.02073
899.483	2707.36104
899.662	2411.71939
899.841	2578.57429
900.02	2415.94441
900.199	2458.1923
900.378	2344.11341
900.557	2544.78663
900.737	2544.78663
900.916	2584.90914
901.095	2373.69231
901.274	2373.69231
901.453	2367.35414
901.632	2415.94441
901.811	2348.33909
901.989	2441.29366
902.168	2322.98444
902.347	2601.80153
902.526	2204.64483
902.705	2418.05691
902.884	2375.80501
903.063	2365.2414
903.242	2322.98444
903.42	2293.40225
903.599	2253.25205
903.778	2293.40225
903.957	2012.28737
904.135	2189.85041
904.314	2137.00991
904.493	2145.46473
904.672	1972.11738
904.85	2073.59482
905.029	1961.54596
905.207	2079.93663
905.386	1904.45771
905.565	2088.39228
905.743	1891.77087
905.922	1817.76072
906.1	1682.4145
906.279	2020.74392
906.457	1468.79999
906.636	2120.09989
906.814	1728.94142
906.993	1967.88883
907.171	1616.85154
907.35	1638.00113
907.528	1485.72039
907.707	1523.79118
907.885	1426.49895
908.063	1635.88618
908.242	1479.37525
908.42	1621.08147
908.598	1426.49895
908.777	1805.07269
908.955	1557.63163
909.133	1756.43384
909.311	1612.62159
909.49	1458.22473
909.668	1485.72039
909.846	1574.55174
910.024	1498.41068
910.202	1599.9317
910.38	1485.72039
910.559	1549.17155
910.737	1483.60535
910.915	1640.11608
911.093	1506.87086
911.271	1714.13757
911.449	1555.51661
911.627	1629.54132
911.805	1479.37525
911.983	1629.54132
912.161	1544.9415
912.339	1629.54132
912.517	1375.73791
912.695	1623.19644
912.872	1549.17155
913.05	1697.21869
913.228	1650.69078
913.406	1790.26979
913.584	1671.84
913.762	1705.67815
913.939	1460.33978
914.117	1680.29961
914.295	1466.68494
914.473	1585.12675
914.65	1384.19805
914.828	1555.51661
915.006	1312.28747
915.184	1525.90622
915.361	1413.80866
915.539	1640.11608
915.716	1458.22473
915.894	1614.73656
916.072	1369.39281
916.249	1418.03876
916.427	1231.91943
916.604	1451.87957
916.782	1293.25263
916.959	1504.75582
917.137	1265.75817
917.314	1578.78175
917.492	1344.01253
917.669	1341.89751
917.847	1394.77325
918.024	1375.73791
918.201	1217.11521
918.379	1384.19805
918.556	1206.54086
918.733	1341.89751
918.911	1179.04797
919.088	1354.58762
919.265	1299.59756
919.442	1475.14515
919.62	1195.9666
919.797	1310.17248
919.974	1088.11478
920.151	1409.57856
920.328	1269.98806
920.506	1470.91504
920.683	1341.89751
920.86	1295.3676
921.037	1147.32618
921.214	1341.89751
921.391	1157.90001
921.568	1324.97745
921.745	1140.98193
921.922	1286.90772
922.099	1047.93783
922.276	1208.65573
922.453	1109.26129
922.63	1388.42813
922.807	1185.39243
922.984	1117.72003
923.161	986.61912
923.338	1172.70354
923.514	855.54351
923.691	1105.03195
923.868	910.50712
924.045	906.27896
924.222	929.53424
924.399	1172.70354
924.575	997.19094
924.752	1041.59428
924.929	899.93677
925.105	1026.79287
925.282	834.40517
925.459	929.53424
925.635	961.24743
925.812	1047.93783
925.989	944.33353
926.165	946.44774
926.342	777.33623
926.518	937.99093
926.695	880.91064
926.871	954.90467
927.048	918.96355
927.224	914.73532
927.401	724.50103
927.577	842.8604
927.754	830.17761
927.93	870.34086
928.107	749.86112
928.283	794.24483
928.459	597.72496
928.636	775.2227
928.812	737.18088
928.988	844.97423
929.165	766.76868
929.341	830.17761
929.517	762.54173
929.693	800.58571
929.87	667.44655
930.046	692.80309
930.222	576.59991
930.398	652.65602
930.574	606.17534
930.751	576.59991
930.927	580.82481
931.103	675.89855
931.279	633.64047
931.455	593.49984
931.631	559.70082
931.807	487.88959
931.983	547.02707
932.159	656.88183
932.335	506.89684
932.511	582.93728
932.687	492.11332
932.863	458.32515
933.039	578.71235
933.215	585.04977
933.391	570.26265
933.566	479.44231
933.742	551.2516
933.918	523.79316
934.094	352.76311
934.27	454.1019
934.445	420.31815
934.621	464.66014
934.797	464.66014
934.973	405.53904
935.148	344.31995
935.324	473.107
935.5	365.42837
935.675	496.33711
935.851	323.21326
936.027	390.76073
936.202	287.336
936.378	407.65029
936.553	308.43963
936.729	219.81696
936.904	234.58507
937.08	217.70731
937.255	186.06495
937.431	200.83082
937.606	213.48807
937.782	192.39306
937.957	181.84631
938.133	209.26891
938.308	150.20917
938.483	226.14603
938.659	122.79415
938.834	266.2342
939.009	127.01161
939.185	116.46812
939.36	124.90287
939.535	175.51851
939.71	110.14229
939.886	84.84094
940.061	124.90287
940.236	150.20917
940.411	105.92518
940.586	23.70949
940.761	127.01161
940.937	112.25088
941.112	133.33796
941.287	108.03372
941.462	108.03372
941.637	141.77339
941.812	95.38278
941.987	91.16598
942.162	154.42718
942.337	158.64528
942.512	82.73264
942.687	156.53622
942.862	93.27437
943.037	65.86705
943.212	108.03372
943.386	95.38278
943.561	65.86705
943.736	40.5714
943.911	91.16598
944.086	72.19148
944.26	19.49425
944.435	46.895
944.61	169.1909
944.785	108.03372
944.959	46.895
945.134	148.10019
945.309	141.77339
945.483	99.59967
945.658	99.59967
945.833	108.03372
946.007	74.29967
946.182	76.40788
946.357	137.55563
946.531	78.51611
946.706	84.84094
946.88	129.12037
947.055	74.29967
947.229	49.00291
947.404	93.27437
947.578	124.90287
947.752	110.14229
947.927	177.62776
948.101	17.38667
948.276	74.29967
948.45	65.86705
948.624	110.14229
948.799	108.03372
948.973	67.97517
949.147	112.25088
949.321	15.2791
949.496	124.90287
949.67	108.03372
949.844	91.16598
950.018	108.03372
950.193	103.81665
950.367	114.35949
950.541	17.38667
950.715	150.20917
950.889	74.29967
951.063	133.33796
951.237	53.21881
951.411	139.6645
951.585	158.64528
951.759	97.49122
951.933	67.97517
952.107	91.16598
952.281	101.70815
952.455	101.70815
952.629	116.46812
952.803	99.59967
952.977	67.97517
953.151	152.31817
953.325	74.29967
953.499	124.90287
953.672	49.00291
953.846	40.5714
954.02	76.40788
954.194	137.55563
954.368	167.08173
954.541	150.20917
954.715	101.70815
954.889	135.44678
955.062	137.55563
955.236	82.73264
955.41	59.54283
955.583	89.05761
955.757	114.35949
955.93	127.01161
956.104	129.12037
956.278	40.5714
956.451	40.5714
956.625	65.86705
956.798	108.03372
956.972	80.62436
957.145	108.03372
957.319	158.64528
957.492	91.16598
957.665	91.16598
957.839	108.03372
958.012	89.05761
958.185	108.03372
958.359	133.33796
958.532	93.27437
958.705	38.46358
958.879	67.97517
959.052	101.70815
959.225	65.86705
959.398	99.59967
959.572	84.84094
959.745	103.81665
959.918	86.94927
960.091	65.86705
960.264	116.46812
960.438	127.01161
960.611	49.00291
960.784	120.68545
960.957	95.38278
961.13	108.03372
961.303	59.54283
961.476	74.29967
961.649	148.10019
961.822	150.20917
961.995	93.27437
962.168	101.70815
962.341	200.83082
962.514	84.84094
962.686	74.29967
962.859	82.73264
963.032	40.5714
963.205	19.49425
963.378	108.03372
963.551	49.00291
963.723	150.20917
963.896	158.64528
964.069	93.27437
964.242	99.59967
964.414	70.08331
964.587	65.86705
964.76	84.84094
964.932	110.14229
965.105	40.5714
965.278	53.21881
965.45	27.92483
965.623	164.97259
965.795	30.03253
965.968	108.03372
966.14	116.46812
966.313	99.59967
966.485	36.35578
966.658	129.12037
966.83	67.97517
967.003	49.00291
967.175	133.33796
967.348	8.95656
967.52	133.33796
967.692	145.99124
967.865	141.77339
968.037	51.11085
968.209	67.97517
968.382	97.49122
968.554	86.94927
968.726	112.25088
968.898	65.86705
969.071	49.00291
969.243	139.6645
969.415	105.92518
969.587	23.70949
969.759	158.64528
969.932	103.81665
970.104	23.70949
970.276	-5.79519
970.448	93.27437
970.62	65.86705
970.792	91.16598
970.964	51.11085
971.136	133.33796
971.308	55.32679
971.48	74.29967
971.652	-64.79019
971.824	116.46812
971.996	95.38278
972.168	34.24801
972.339	82.73264
972.511	49.00291
972.683	0.52684
972.855	23.70949
973.027	103.81665
973.199	72.19148
973.37	135.44678
973.542	44.78711
973.714	95.38278
973.886	61.65088
974.057	57.4348
974.229	65.86705
974.401	74.29967
974.572	112.25088
974.744	67.97517
974.915	-1.58052
975.087	30.03253
975.259	38.46358
975.43	23.70949
975.602	63.75895
975.773	55.32679
975.945	51.11085
976.116	57.4348
976.288	120.68545
976.459	67.97517
976.63	34.24801
976.802	116.46812
976.973	63.75895
977.145	53.21881
977.316	101.70815
977.487	15.2791
977.659	57.4348
977.83	57.4348
978.001	-7.90249
978.172	86.94927
978.344	61.65088
978.515	40.5714
978.686	55.32679
978.857	97.49122
979.028	11.06405
979.2	91.16598
979.371	42.67924
979.542	44.78711
979.713	34.24801
979.884	95.38278
980.055	17.38667
980.226	49.00291
980.397	86.94927
980.568	78.51611
980.739	-37.40208
980.91	108.03372
981.081	23.70949
981.252	67.97517
981.423	74.29967
981.594	57.4348
981.765	76.40788
981.936	51.11085
982.106	61.65088
982.277	65.86705
982.448	11.06405
982.619	44.78711
982.79	86.94927
982.96	72.19148
983.131	-5.79519
983.302	67.97517
983.472	-18.43861
983.643	23.70949
983.814	70.08331
983.984	67.97517
984.155	25.81715
984.326	23.70949
984.496	19.49425
984.667	70.08331
984.837	2.63424
985.008	-58.47023
985.178	82.73264
985.349	49.00291
985.519	74.29967
985.69	6.8491
985.86	17.38667
986.031	32.14026
986.201	19.49425
986.371	53.21881
986.542	51.11085
986.712	112.25088
986.882	-1.58052
987.053	95.38278
987.223	53.21881
987.393	84.84094
987.563	27.92483
987.734	51.11085
987.904	84.84094
988.074	42.67924
988.244	74.29967
988.414	6.8491
988.585	108.03372
988.755	-7.90249
988.925	84.84094
989.095	32.14026
989.265	97.49122
989.435	49.00291
989.605	0.52684
989.775	74.29967
989.945	-26.86706
990.115	40.5714
990.285	91.16598
990.455	11.06405
990.625	65.86705
990.795	124.90287
990.965	53.21881
991.134	78.51611
991.304	57.4348
991.474	116.46812
991.644	108.03372
991.814	11.06405
991.984	101.70815
992.153	21.60186
992.323	74.29967
992.493	67.97517
992.662	65.86705
992.832	78.51611
993.002	63.75895
993.171	-24.75999
993.341	38.46358
993.511	65.86705
993.68	-5.79519
993.85	42.67924
994.019	61.65088
994.189	-7.90249
994.358	-1.58052
994.528	55.32679
994.697	36.35578
994.867	11.06405
995.036	65.86705
995.206	86.94927
995.375	-16.33143
995.544	36.35578
995.714	-1.58052
995.883	32.14026
996.052	-37.40208
996.222	40.5714
996.391	74.29967
996.56	114.35949
996.73	-1.58052
996.899	44.78711
997.068	40.5714
997.237	59.54283
997.406	13.17157
997.576	-10.00976
997.745	93.27437
997.914	40.5714
998.083	-16.33143
998.252	78.51611
998.421	17.38667
998.59	51.11085
998.759	-43.72279
998.928	21.60186
999.097	-66.89679
999.266	13.17157
999.435	-1.58052
999.604	65.86705
999.773	82.73264
999.942	-18.43861
1000.111	6.8491
1000.28	19.49425
1000.448	44.78711
1000.617	51.11085
1000.786	84.84094
1000.955	11.06405
1001.124	15.2791
1001.292	-10.00976
1001.461	34.24801
1001.63	0.52684
1001.798	34.24801
1001.967	34.24801
1002.136	23.70949
1002.304	57.4348
1002.473	40.5714
1002.642	-18.43861
1002.81	-43.72279
1002.979	49.00291
1003.147	120.68545
1003.316	23.70949
1003.484	19.49425
1003.653	-5.79519
1003.821	93.27437
1003.99	2.63424
1004.158	46.895
1004.327	65.86705
1004.495	40.5714
1004.663	63.75895
1004.832	36.35578
1005	32.14026
1005.168	6.8491
1005.337	40.5714
1005.505	-20.54576
1005.673	59.54283
1005.842	-24.75999
1006.01	27.92483
1006.178	103.81665
1006.346	46.895
1006.514	23.70949
1006.683	76.40788
1006.851	23.70949
1007.019	40.5714
1007.187	-56.36353
1007.355	23.70949
1007.523	25.81715
1007.691	82.73264
1007.859	61.65088
1008.027	114.35949
1008.195	57.4348
1008.363	-5.79519
1008.531	-52.15005
1008.699	-1.58052
1008.867	65.86705
1009.035	34.24801
1009.203	25.81715
1009.37	32.14026
1009.538	11.06405
1009.706	84.84094
1009.874	23.70949
1010.042	15.2791
1010.209	-18.43861
1010.377	2.63424
1010.545	74.29967
1010.713	11.06405
1010.88	6.8491
1011.048	-18.43861
1011.216	2.63424
1011.383	21.60186
1011.551	6.8491
1011.718	101.70815
1011.886	-16.33143
1012.054	-71.10991
1012.221	-47.93647
1012.389	17.38667
1012.556	61.65088
1012.724	21.60186
1012.891	15.2791
1013.058	44.78711
1013.226	27.92483
1013.393	44.78711
1013.561	74.29967
1013.728	15.2791
1013.895	0.52684
1014.063	8.95656
1014.23	23.70949
1014.397	91.16598
1014.565	40.5714
1014.732	-24.75999
1014.899	110.14229
1015.066	6.8491
1015.233	99.59967
1015.401	78.51611
1015.568	32.14026
1015.735	27.92483
1015.902	-20.54576
1016.069	67.97517
1016.236	0.52684
1016.403	19.49425
1016.57	25.81715
1016.737	19.49425
1016.904	6.8491
1017.071	2.63424
1017.238	11.06405
1017.405	74.29967
1017.572	-47.93647
1017.739	57.4348
1017.906	-28.97412
1018.073	-22.65289
1018.24	-7.90249
1018.407	74.29967
1018.573	6.8491
1018.74	0.52684
1018.907	57.4348
1019.074	-52.15005
1019.241	67.97517
1019.407	-18.43861
1019.574	-47.93647
1019.741	11.06405
1019.907	-18.43861
1020.074	-1.58052
1020.241	17.38667
1020.407	15.2791
1020.574	25.81715
1020.74	19.49425
1020.907	-14.22423
1021.073	-14.22423
1021.24	6.8491
1021.406	-14.22423
1021.573	23.70949
1021.739	19.49425
1021.906	-16.33143
1022.072	74.29967
1022.239	-5.79519
1022.405	-3.68787
1022.571	15.2791
1022.738	-18.43861
1022.904	13.17157
1023.07	-7.90249
1023.237	15.2791
1023.403	49.00291
1023.569	13.17157
1023.735	15.2791
1023.902	-33.18815
1024.068	57.4348
1024.234	36.35578
1024.4	40.5714
1024.566	59.54283
1024.732	19.49425
1024.898	67.97517
1025.065	36.35578
1025.231	65.86705
1025.397	-26.86706
1025.563	13.17157
1025.729	34.24801
1025.895	-24.75999
1026.061	40.5714
1026.227	42.67924
1026.392	32.14026
1026.558	95.38278
1026.724	-81.64228
1026.89	2.63424
1027.056	-14.22423
1027.222	-16.33143
1027.388	-14.22423
1027.553	8.95656
1027.719	61.65088
1027.885	57.4348
1028.051	-7.90249
1028.216	-33.18815
1028.382	67.97517
1028.548	72.19148
1028.713	74.29967
1028.879	59.54283
1029.045	67.97517
1029.21	25.81715
1029.376	-41.61591
1029.541	21.60186
1029.707	11.06405
1029.873	15.2791
1030.038	-16.33143
1030.204	-14.22423
1030.369	34.24801
1030.534	-3.68787
1030.7	-26.86706
1030.865	-58.47023
1031.031	-26.86706
1031.196	21.60186
1031.361	15.2791
1031.527	11.06405
1031.692	-31.08114
1031.857	17.38667
1032.023	-47.93647
1032.188	-10.00976
1032.353	6.8491
1032.518	27.92483
1032.684	34.24801
1032.849	21.60186
1033.014	-10.00976
1033.179	-24.75999
1033.344	0.52684
1033.509	-14.22423
1033.674	-31.08114
1033.839	17.38667
1034.004	6.8491
1034.17	-1.58052
1034.335	-60.57691
1034.5	59.54283
1034.664	15.2791
1034.829	-1.58052
1034.994	23.70949
1035.159	70.08331
1035.324	57.4348
1035.489	36.35578
1035.654	32.14026
1035.819	40.5714
1035.984	-41.61591
1036.148	19.49425
1036.313	23.70949
1036.478	2.63424
1036.643	86.94927
1036.807	40.5714
1036.972	51.11085
1037.137	8.95656
1037.301	25.81715
1037.466	2.63424
1037.631	4.74166
1037.795	32.14026
1037.96	32.14026
1038.124	40.5714
1038.289	-1.58052
1038.454	27.92483
1038.618	6.8491
1038.783	19.49425
1038.947	-43.72279
1039.111	-14.22423
1039.276	42.67924
1039.44	84.84094
1039.605	70.08331
1039.769	-71.10991
1039.933	36.35578
1040.098	15.2791
1040.262	-64.79019
1040.426	-12.11701
1040.591	17.38667
1040.755	42.67924
1040.919	49.00291
1041.083	103.81665
1041.248	-3.68787
1041.412	-39.50901
1041.576	17.38667
1041.74	8.95656
1041.904	30.03253
1042.068	-10.00976
1042.232	23.70949
1042.397	-14.22423
1042.561	-18.43861
1042.725	15.2791
1042.889	59.54283
1043.053	101.70815
1043.217	32.14026
1043.381	25.81715
1043.544	-10.00976
1043.708	65.86705
1043.872	42.67924
1044.036	-33.18815
1044.2	0.52684
1044.364	74.29967
1044.528	40.5714
1044.691	0.52684
1044.855	44.78711
1045.019	63.75895
1045.183	-5.79519
1045.346	-5.79519
1045.51	-10.00976
1045.674	32.14026
1045.837	-7.90249
1046.001	30.03253
1046.165	6.8491
1046.328	-31.08114
1046.492	32.14026
1046.655	-7.90249
1046.819	-5.79519
1046.983	49.00291
1047.146	93.27437
1047.31	11.06405
1047.473	42.67924
1047.636	34.24801
1047.8	-1.58052
1047.963	32.14026
1048.127	11.06405
1048.29	32.14026
