Data from mixed_try1_USB4F045381__24__00249.txt Node

Date: Thu Apr 03 20:25:53 EDT 2025
User: mmckonesweet
Spectrometer: USB4F04538
Trigger mode: 4
Integration Time (sec): 2.700000E-3
Scans to average: 1
Electric dark correction enabled: true
Nonlinearity correction enabled: true
Boxcar width: 0
XAxis mode: Wavelengths
Number of Pixels in Spectrum: 3648
>>>>>Begin Spectral Data<<<<<
345.52	47.42198
345.736	47.42198
345.952	47.42198
346.168	24.2364
346.384	-53.73012
346.6	-102.17852
346.816	-85.32845
347.032	24.2364
347.248	74.82672
347.464	-9.48295
347.68	17.91356
347.896	5.26851
348.112	49.5299
348.328	28.45175
348.544	-5.26836
348.76	49.5299
348.975	-47.40976
349.191	-64.26353
349.407	38.99053
349.623	-9.48295
349.839	89.5847
350.055	62.17789
350.27	-36.87534
350.486	-22.12611
350.702	-20.01897
350.918	-26.3403
351.133	5.26851
351.349	-85.32845
351.565	-47.40976
351.781	1.05369
351.996	15.80599
352.212	-17.91182
352.428	-43.19607
352.644	-22.12611
352.859	34.77495
353.075	11.59093
353.291	-9.48295
353.506	-36.87534
353.722	-26.3403
353.938	-13.69743
354.153	36.88273
354.369	45.31408
354.584	49.5299
354.8	-47.40976
355.016	-28.44736
355.231	-47.40976
355.447	28.45175
355.662	30.55946
355.878	15.80599
356.093	20.02115
356.309	-38.98228
356.524	-5.26836
356.74	-5.26836
356.955	-97.96616
357.171	-5.26836
357.386	7.37596
357.602	-5.26836
357.817	-49.51657
358.033	41.09836
358.248	-51.62336
358.464	-3.16104
358.679	22.12877
358.895	66.39408
359.11	-53.73012
359.325	-24.23321
359.541	1.05369
359.756	-66.37014
359.972	-60.05024
360.187	95.90989
360.402	-9.48295
360.618	-1.05368
360.833	53.7458
361.048	-1.05368
361.264	45.31408
361.479	3.16109
361.694	-26.3403
361.909	-17.91182
362.125	-38.98228
362.34	-30.55439
362.555	32.66719
362.77	-1.05368
362.986	13.69845
363.201	-36.87534
363.416	-36.87534
363.631	20.02115
363.847	1.05369
364.062	-34.76838
364.277	5.26851
364.492	20.02115
364.707	15.80599
364.922	55.85379
365.138	-22.12611
365.353	-3.16104
365.568	57.9618
365.783	36.88273
365.998	-85.32845
366.213	-22.12611
366.428	36.88273
366.643	15.80599
366.858	-53.73012
367.073	7.37596
367.288	30.55946
367.503	9.48343
367.718	38.99053
367.933	-5.26836
368.148	-9.48295
368.363	-9.48295
368.578	-47.40976
368.793	22.12877
369.008	36.88273
369.223	-34.76838
369.438	47.42198
369.653	36.88273
369.868	-26.3403
370.083	-13.69743
370.298	36.88273
370.513	20.02115
370.728	-89.54113
370.943	-81.11567
371.157	72.71852
371.372	-76.90279
371.587	28.45175
371.802	-20.01897
372.017	26.34407
372.232	22.12877
372.446	-47.40976
372.661	-30.55439
372.876	26.34407
373.091	34.77495
373.306	22.12877
373.52	-51.62336
373.735	45.31408
373.95	-11.5902
374.165	30.55946
374.379	-9.48295
374.594	-57.94356
374.809	1.05369
375.023	66.39408
375.238	5.26851
375.453	-53.73012
375.667	20.02115
375.882	-13.69743
376.097	-9.48295
376.311	28.45175
376.526	-13.69743
376.741	3.16109
376.955	66.39408
377.17	32.66719
377.384	-32.6614
377.599	-55.83685
377.813	-5.26836
378.028	-36.87534
378.242	7.37596
378.457	-22.12611
378.672	-43.19607
378.886	-72.68981
379.101	-32.6614
379.315	45.31408
379.53	3.16109
379.744	-36.87534
379.958	36.88273
380.173	13.69845
380.387	53.7458
380.602	-36.87534
380.816	7.37596
381.031	-5.26836
381.245	5.26851
381.459	47.42198
381.674	13.69845
381.888	53.7458
382.103	89.5847
382.317	9.48343
382.531	3.16109
382.746	-36.87534
382.96	28.45175
383.174	-30.55439
383.388	32.66719
383.603	20.02115
383.817	43.20621
384.031	-55.83685
384.246	22.12877
384.46	20.02115
384.674	-5.26836
384.888	-47.40976
385.103	-22.12611
385.317	-36.87534
385.531	-5.26836
385.745	-30.55439
385.959	-9.48295
386.174	-38.98228
386.388	28.45175
386.602	-41.08919
386.816	-72.68981
387.03	11.59093
387.244	-93.7537
387.458	-3.16104
387.672	-28.44736
387.887	11.59093
388.101	51.63784
388.315	-30.55439
388.529	32.66719
388.743	49.5299
388.957	-20.01897
389.171	-24.23321
389.385	-36.87534
389.599	-13.69743
389.813	45.31408
390.027	22.12877
390.241	-34.76838
390.455	-1.05368
390.669	-49.51657
390.883	5.26851
391.097	11.59093
391.311	-11.5902
391.525	-53.73012
391.738	-60.05024
391.952	-5.26836
392.166	24.2364
392.38	57.9618
392.594	11.59093
392.808	-9.48295
393.022	-38.98228
393.236	-13.69743
393.449	66.39408
393.663	-51.62336
393.877	-64.26353
394.091	-47.40976
394.305	-5.26836
394.518	22.12877
394.732	53.7458
394.946	-47.40976
395.16	-1.05368
395.373	49.5299
395.587	11.59093
395.801	43.20621
396.015	-5.26836
396.228	5.26851
396.442	3.16109
396.656	-47.40976
396.869	3.16109
397.083	-20.01897
397.297	-43.19607
397.51	-1.05368
397.724	36.88273
397.938	28.45175
398.151	-30.55439
398.365	11.59093
398.578	34.77495
398.792	-28.44736
399.005	-3.16104
399.219	-24.23321
399.433	-13.69743
399.646	-62.1569
399.86	-20.01897
400.073	-3.16104
400.287	55.85379
400.5	32.66719
400.714	-62.1569
400.927	62.17789
401.141	-45.30293
401.354	-13.69743
401.567	13.69845
401.781	36.88273
401.994	-17.91182
402.208	62.17789
402.421	30.55946
402.635	79.04317
402.848	7.37596
403.061	11.59093
403.275	-38.98228
403.488	-5.26836
403.701	15.80599
403.915	-1.05368
404.128	-26.3403
404.341	36.88273
404.555	-5.26836
404.768	11.59093
404.981	-51.62336
405.195	-34.76838
405.408	-41.08919
405.621	11.59093
405.834	-13.69743
406.048	87.47635
406.261	-13.69743
406.474	22.12877
406.687	70.61035
406.9	9.48343
407.114	-20.01897
407.327	13.69845
407.54	-3.16104
407.753	3.16109
407.966	-47.40976
408.179	20.02115
408.392	-13.69743
408.605	-45.30293
408.819	-1.05368
409.032	51.63784
409.245	-68.47672
409.458	-15.80464
409.671	20.02115
409.884	22.12877
410.097	20.02115
410.31	-3.16104
410.523	26.34407
410.736	47.42198
410.949	-9.48295
411.162	53.7458
411.375	3.16109
411.588	74.82672
411.801	5.26851
412.014	-17.91182
412.227	-20.01897
412.44	15.80599
412.653	-1.05368
412.865	22.12877
413.078	72.71852
413.291	-7.37567
413.504	7.37596
413.717	3.16109
413.93	7.37596
414.143	-9.48295
414.356	22.12877
414.568	-47.40976
414.781	-51.62336
414.994	36.88273
415.207	3.16109
415.42	3.16109
415.632	-11.5902
415.845	-13.69743
416.058	41.09836
416.271	45.31408
416.483	-81.11567
416.696	15.80599
416.909	24.2364
417.121	36.88273
417.334	28.45175
417.547	-20.01897
417.759	55.85379
417.972	-60.05024
418.185	5.26851
418.397	-51.62336
418.61	-45.30293
418.823	-22.12611
419.035	11.59093
419.248	20.02115
419.46	-45.30293
419.673	17.91356
419.885	24.2364
420.098	-89.54113
420.311	22.12877
420.523	-1.05368
420.736	-15.80464
420.948	-9.48295
421.161	-9.48295
421.373	57.9618
421.586	-38.98228
421.798	7.37596
422.01	9.48343
422.223	-30.55439
422.435	-26.3403
422.648	-9.48295
422.86	3.16109
423.073	24.2364
423.285	45.31408
423.497	-9.48295
423.71	-5.26836
423.922	-1.05368
424.134	17.91356
424.347	-38.98228
424.559	-26.3403
424.771	15.80599
424.984	17.91356
425.196	24.2364
425.408	5.26851
425.621	-28.44736
425.833	87.47635
426.045	-13.69743
426.257	30.55946
426.47	-13.69743
426.682	-13.69743
426.894	104.34378
427.106	38.99053
427.318	3.16109
427.531	-55.83685
427.743	-26.3403
427.955	53.7458
428.167	-34.76838
428.379	20.02115
428.591	24.2364
428.804	-76.90279
429.016	57.9618
429.228	30.55946
429.44	-11.5902
429.652	-36.87534
429.864	7.37596
430.076	-45.30293
430.288	81.15143
430.5	20.02115
430.712	-11.5902
430.924	-17.91182
431.136	5.26851
431.348	-28.44736
431.56	36.88273
431.772	-47.40976
431.984	-13.69743
432.196	7.37596
432.408	-5.26836
432.62	-5.26836
432.832	-81.11567
433.044	-24.23321
433.256	72.71852
433.468	-13.69743
433.679	24.2364
433.891	-9.48295
434.103	55.85379
434.315	32.66719
434.527	-11.5902
434.739	-24.23321
434.95	3.16109
435.162	45.31408
435.374	-20.01897
435.586	-11.5902
435.798	-11.5902
436.009	28.45175
436.221	-28.44736
436.433	-20.01897
436.645	106.45231
436.856	43.20621
437.068	36.88273
437.28	34.77495
437.491	-13.69743
437.703	62.17789
437.915	60.06984
438.126	13.69845
438.338	-17.91182
438.55	-47.40976
438.761	-5.26836
438.973	-30.55439
439.184	-55.83685
439.396	-5.26836
439.608	49.5299
439.819	11.59093
440.031	-9.48295
440.242	45.31408
440.454	28.45175
440.665	47.42198
440.877	28.45175
441.088	-22.12611
441.3	7.37596
441.511	89.5847
441.723	68.5022
441.934	-20.01897
442.146	-28.44736
442.357	51.63784
442.569	26.34407
442.78	-3.16104
442.991	108.56086
443.203	45.31408
443.414	45.31408
443.626	20.02115
443.837	57.9618
444.048	51.63784
444.26	-1.05368
444.471	9.48343
444.682	11.59093
444.894	-13.69743
445.105	38.99053
445.316	-1.05368
445.528	49.5299
445.739	20.02115
445.95	43.20621
446.161	-51.62336
446.373	28.45175
446.584	-5.26836
446.795	45.31408
447.006	62.17789
447.217	-1.05368
447.429	95.90989
447.64	-47.40976
447.851	-26.3403
448.062	95.90989
448.273	-9.48295
448.484	-1.05368
448.695	28.45175
448.907	24.2364
449.118	-26.3403
449.329	-20.01897
449.54	-11.5902
449.751	49.5299
449.962	20.02115
450.173	22.12877
450.384	-45.30293
450.595	-28.44736
450.806	-45.30293
451.017	-5.26836
451.228	-20.01897
451.439	-26.3403
451.65	-3.16104
451.861	72.71852
452.072	3.16109
452.283	11.59093
452.494	13.69845
452.705	26.34407
452.915	-13.69743
453.126	20.02115
453.337	13.69845
453.548	32.66719
453.759	85.36802
453.97	53.7458
454.181	5.26851
454.391	22.12877
454.602	20.02115
454.813	11.59093
455.024	-30.55439
455.235	-9.48295
455.445	-60.05024
455.656	-47.40976
455.867	-22.12611
456.078	-36.87534
456.288	62.17789
456.499	3.16109
456.71	-5.26836
456.921	11.59093
457.131	-72.68981
457.342	34.77495
457.553	55.85379
457.763	70.61035
457.974	-26.3403
458.184	30.55946
458.395	72.71852
458.606	-79.00925
458.816	64.28597
459.027	68.5022
459.237	-3.16104
459.448	11.59093
459.659	-5.26836
459.869	28.45175
460.08	-22.12611
460.29	81.15143
460.501	-38.98228
460.711	13.69845
460.922	11.59093
461.132	45.31408
461.343	53.7458
461.553	87.47635
461.764	17.91356
461.974	13.69845
462.184	64.28597
462.395	11.59093
462.605	53.7458
462.816	108.56086
463.026	72.71852
463.236	51.63784
463.447	20.02115
463.657	28.45175
463.867	53.7458
464.078	32.66719
464.288	-41.08919
464.498	83.25972
464.709	36.88273
464.919	-5.26836
465.129	-38.98228
465.339	83.25972
465.55	3.16109
465.76	62.17789
465.97	112.77803
466.18	55.85379
466.391	104.34378
466.601	-34.76838
466.811	74.82672
467.021	79.04317
467.231	72.71852
467.441	-5.26836
467.651	-28.44736
467.862	83.25972
468.072	106.45231
468.282	79.04317
468.492	20.02115
468.702	53.7458
468.912	74.82672
469.122	110.66943
469.332	87.47635
469.542	79.04317
469.752	22.12877
469.962	5.26851
470.172	70.61035
470.382	83.25972
470.592	79.04317
470.802	32.66719
471.012	41.09836
471.222	173.93659
471.432	72.71852
471.642	47.42198
471.852	152.84542
472.062	24.2364
472.272	106.45231
472.482	161.28164
472.691	104.34378
472.901	89.5847
473.111	28.45175
473.321	138.08285
473.531	146.51847
473.741	89.5847
473.95	131.75635
474.16	45.31408
474.37	180.26435
474.58	176.04582
474.79	108.56086
474.999	169.71819
475.209	47.42198
475.419	81.15143
475.628	142.30062
475.838	205.57721
476.048	138.08285
476.258	190.81102
476.467	237.22233
476.677	233.00273
476.886	190.81102
477.096	247.77168
477.306	192.92041
477.515	146.51847
477.725	247.77168
477.935	247.77168
478.144	281.53282
478.354	197.13926
478.563	180.26435
478.773	224.56375
478.982	264.65165
479.192	197.13926
479.401	239.33216
479.611	233.00273
479.82	190.81102
480.03	273.09208
480.239	349.06919
480.449	323.7409
480.658	408.17811
480.868	340.62615
481.077	340.62615
481.287	292.08415
481.496	365.95611
481.705	340.62615
481.915	393.39965
482.124	357.51251
482.333	412.40067
482.543	471.52319
482.752	446.18347
482.961	431.403
483.171	458.85306
483.38	448.29503
483.589	437.73739
483.799	507.42484
484.008	450.40661
484.217	530.65755
484.426	621.49217
484.636	564.4536
484.845	539.10623
485.054	513.76086
485.263	536.99404
485.472	509.53683
485.682	714.46308
485.891	596.14053
486.1	646.84561
486.309	629.94312
486.518	779.97816
486.727	657.41006
486.936	689.10516
487.146	539.10623
487.355	773.63756
487.564	731.36923
487.773	834.93362
487.982	843.38886
488.191	887.78111
488.4	822.25103
488.609	885.66711
488.818	756.72974
489.027	847.61653
489.236	803.22777
489.445	978.69036
489.654	932.17695
489.863	999.83392
490.072	1067.49742
490.281	1004.06271
490.49	966.00455
490.698	999.83392
490.907	949.09052
491.116	1135.1664
491.325	1101.33129
491.534	1094.98734
491.743	1092.8727
491.952	1219.75881
492.16	1177.46186
492.369	1304.35626
492.578	1126.70752
492.787	1298.01132
492.996	1143.62536
493.204	1194.38047
493.413	1278.97661
493.622	1361.46145
493.831	1287.43646
494.039	1585.6555
494.248	1399.5321
494.457	1420.68257
494.665	1350.88633
494.874	1416.45247
495.083	1433.37287
495.291	1594.11548
495.5	1697.7474
495.709	1663.90907
495.917	1465.09865
496.126	1716.78113
496.335	1661.79415
496.543	1676.59853
496.752	1572.96548
496.96	1691.40277
497.169	1558.16039
497.377	1659.67923
497.586	1528.55001
497.794	1824.63334
498.003	1710.43658
498.211	1877.49796
498.42	1858.46705
498.628	1955.73161
498.837	1892.2995
499.045	1864.81073
499.254	1856.35248
499.462	1896.52846
499.671	1940.93124
499.879	2021.27245
500.087	1972.64595
500.296	2057.21151
500.504	2008.5876
500.713	2040.29926
500.921	1959.96023
501.129	2230.53403
501.338	1928.24498
501.546	2196.7193
501.754	2086.80686
501.962	2293.93052
502.171	2167.12962
502.379	2374.22049
502.587	2194.6058
502.795	2369.99506
503.004	2226.30731
503.212	2460.83265
503.42	2329.85146
503.628	2403.79736
503.837	2363.65683
504.045	2310.83484
504.253	2334.07727
504.461	2488.29126
504.669	2363.65683
504.877	2452.38347
505.085	2429.14734
505.294	2522.08387
505.502	2403.79736
505.71	2598.10639
505.918	2429.14734
506.126	2859.83655
506.334	2564.32049
506.542	2699.44518
506.75	2462.94491
506.958	2826.07651
507.166	2564.32049
507.374	2859.83655
507.582	2785.98185
507.79	2847.17695
507.998	2600.21791
508.206	3020.1461
508.414	2655.11302
508.622	3020.1461
508.83	2923.12678
509.037	2961.09463
509.245	2927.34567
509.453	3055.99294
509.661	2766.98791
509.869	3079.18556
510.077	3015.92853
510.285	3140.3206
510.492	3005.38434
510.7	3235.15838
510.908	3096.05173
511.116	3171.93687
511.324	2912.57931
511.531	3121.34909
511.739	3020.1461
511.947	3182.47482
512.155	2967.42214
512.362	3138.21272
512.57	3115.02497
512.778	3209.87156
512.985	3174.0445
513.193	3346.81276
513.401	3256.22889
513.608	3454.20776
513.816	3152.96754
514.024	3428.94249
514.231	3190.90488
514.439	3361.55596
514.646	3359.44984
514.854	3409.99185
515.061	3273.08409
515.269	3428.94249
515.477	3329.96234
515.684	3601.53631
515.892	3241.4797
516.099	3395.25148
516.307	3544.72025
516.514	3586.80752
516.722	3428.94249
516.929	3584.70334
517.136	3620.47197
517.344	3645.71715
517.551	3538.40652
517.759	3731.95083
517.966	3546.82479
518.173	3752.97853
518.381	3681.47648
518.588	3698.3025
518.796	3727.74506
519.003	3845.47716
519.21	3837.06977
519.418	4135.33391
519.625	3837.06977
519.832	3887.50934
520.039	3948.44175
520.247	3885.40792
520.454	3834.96788
520.661	4122.7396
520.868	4049.25784
521.076	4089.1511
521.283	4280.11382
521.49	4236.06108
521.697	4034.55843
521.904	4252.84418
522.112	4076.55404
522.319	4284.30883
522.526	4135.33391
522.733	4345.12675
522.94	4332.54522
523.147	4370.28748
523.354	4217.17845
523.561	4384.96312
523.768	4384.96312
523.975	4663.5956
524.183	4401.73398
524.39	4408.02269
524.597	4441.55917
524.804	4588.21501
525.011	4384.96312
525.218	4651.03418
525.425	4521.18579
525.632	4535.85037
525.838	4602.87462
526.045	4625.90893
526.252	4401.73398
526.459	4653.12781
526.666	4619.62711
526.873	4818.45296
527.08	4500.2345
527.287	4803.80961
527.494	4793.34938
527.701	5046.32621
527.907	4674.06283
528.114	4759.87286
528.321	4734.76166
528.528	4837.27849
528.735	4989.90599
528.941	5021.25263
529.148	4722.20484
529.355	4950.1928
529.562	4799.62559
529.768	5065.1292
529.975	4858.19358
530.182	5232.18427
530.388	4810.08547
530.595	5060.95092
530.802	4948.1024
531.008	5242.62026
531.215	5127.79229
531.422	5282.2717
531.628	5188.34673
531.835	5179.99556
532.042	5165.38011
532.248	5386.57722
532.455	5303.13749
532.661	5447.04754
532.868	5294.79146
533.074	5188.34673
533.281	5436.62303
533.487	5499.16126
533.694	5321.9147
533.9	5724.12331
534.107	5355.29172
534.313	5709.55077
534.52	5465.81017
534.726	5676.23778
534.933	5744.93921
535.139	5624.17413
535.345	5553.34392
535.552	5799.04951
535.758	5603.34455
535.965	5878.10509
536.171	5740.77622
536.377	5803.21118
536.584	5749.10211
536.79	5946.73098
536.996	6048.58268
537.203	5882.26497
537.409	5821.93752
537.615	5880.18504
537.821	5846.90301
538.028	6050.66069
538.234	5844.82268
538.44	5838.58156
538.646	5977.91608
538.853	5919.69961
539.059	6023.64464
539.265	6125.45364
539.471	5878.10509
539.677	6096.37112
539.883	6152.45472
540.09	6183.60487
540.296	6204.36871
540.502	6148.30096
540.708	6019.48797
540.914	6374.54383
541.12	6250.04089
541.326	6407.73042
541.532	6293.62649
541.738	6349.64997
541.944	6069.36179
542.15	6503.10868
542.356	6451.27877
542.562	6704.07185
542.768	6239.66185
542.974	6517.61846
543.18	6330.97737
543.386	6699.93047
543.592	6594.29414
543.798	6762.04157
544.004	6635.72729
544.21	6859.30762
544.415	6782.7407
544.621	6873.78975
544.827	6652.29797
545.033	7105.35326
545.239	6476.15894
545.445	6828.27073
545.651	6583.93441
545.856	6979.26888
546.062	6641.94147
546.268	7028.88582
546.474	6842.75525
546.679	6728.91822
546.885	6530.05451
547.091	6882.06475
547.297	6654.3692
547.502	7126.01488
547.708	6848.96256
547.914	6832.40928
548.119	6894.47657
548.325	6981.33652
548.531	6844.82437
548.736	7169.39704
548.942	7070.22338
549.147	7088.82235
549.353	7200.3783
549.559	7082.6229
549.764	7214.83452
549.97	7072.29002
550.175	7146.67428
550.381	7346.95554
550.586	7282.97067
550.792	7443.92482
550.997	7427.4228
551.203	7289.16367
551.408	7291.22797
551.614	7291.22797
551.819	7297.42071
552.025	7394.4146
552.23	7342.82812
552.435	7371.71823
552.641	7575.89125
552.846	7406.79333
553.052	7520.22866
553.257	7586.19742
553.462	7707.77011
553.668	7701.59022
553.873	7464.5504
554.078	7711.88992
554.283	7928.06289
554.489	7751.02399
554.694	7742.78587
554.899	7926.00518
555.105	7476.9247
555.31	7837.50403
555.515	7843.67977
555.72	7790.15047
555.925	7781.91395
556.131	8061.77035
556.336	7629.47753
556.541	8012.41146
556.746	7567.64592
556.951	7897.19504
557.156	7650.0838
557.361	8220.05191
557.567	8086.44543
557.772	8127.56411
557.977	7963.04086
558.182	7969.21283
558.387	8121.39682
558.592	8102.89387
558.797	8072.05199
559.002	8156.34242
559.207	8100.83788
559.412	8230.32585
559.617	7995.9559
559.822	8359.73536
560.027	8201.55757
560.232	8263.19913
560.437	8304.28366
560.642	8374.10941
560.847	8328.93061
561.051	8312.49962
561.256	8137.84253
561.461	8287.85079
561.666	8271.41666
561.871	8308.39168
562.076	8294.01326
562.281	8310.44566
562.485	8273.471
562.69	8569.09279
562.895	8296.06738
563.1	8741.35747
563.305	8382.32273
563.509	8480.8585
563.714	8365.89579
563.919	8620.37577
564.123	8534.21366
564.328	8661.39374
564.533	8390.53574
564.737	8493.17237
564.942	8499.32905
565.147	8653.19074
565.351	8626.52894
565.556	8448.01816
565.761	8694.20277
565.965	8564.98965
566.17	8394.64213
566.374	8778.25439
566.579	8649.08913
566.784	8800.79959
566.988	8948.31437
567.193	8862.27539
567.397	8727.00707
567.602	8948.31437
567.806	8608.06892
568.011	8768.00584
568.215	8931.92842
568.42	9024.08473
568.624	9005.65631
568.828	8796.70063
569.033	8620.37577
569.237	9144.85836
569.442	9079.36149
569.646	8901.20168
569.85	8829.49032
570.055	8983.13077
570.259	8983.13077
570.463	9071.17314
570.668	9326.93009
570.872	9009.75164
571.076	8976.98707
571.281	9116.20565
571.485	9079.36149
571.689	9163.27619
571.893	9056.84286
572.098	9185.785
572.302	9056.84286
572.506	9198.06167
572.71	8825.39186
572.914	9376.00547
573.119	9283.98132
573.323	9267.61796
573.527	9238.97949
573.731	9594.68632
573.935	9202.15375
574.139	9273.75434
574.343	9157.13707
574.547	9269.66343
574.751	9261.48142
574.955	9445.5128
575.159	9515.00144
575.364	9463.90866
575.568	9453.6889
575.772	9537.4791
575.976	9504.78368
576.18	9512.95792
576.383	9286.02667
576.587	9382.13923
576.791	9576.29963
576.995	9753.98489
577.199	9719.27395
577.403	9733.56722
577.607	9805.02244
577.811	9625.32798
578.015	9578.34266
578.219	9860.13246
578.422	9721.31589
578.626	9680.47414
578.83	9482.30321
579.034	9823.39366
579.238	9743.77625
579.442	9976.44048
579.645	9798.89843
579.849	9970.32019
580.053	9933.59569
580.257	9911.15061
580.46	9762.15154
580.664	9996.84052
580.868	10002.96025
581.071	10223.18586
581.275	10109.01521
581.479	10164.06719
581.682	9974.4004
581.886	10137.56195
582.09	10045.79476
582.293	10062.11102
582.497	9962.1596
582.7	9911.15061
582.904	10321.01232
583.107	10249.6836
583.311	10002.96025
583.515	10339.35134
583.718	9956.039
583.922	10341.38894
584.125	10194.64726
584.329	10013.15952
584.532	9864.21425
584.735	10412.69672
584.939	10078.42636
585.142	10614.31041
585.346	10321.01232
585.549	10512.50087
585.753	10345.4641
585.956	10608.20272
586.159	10496.20842
586.363	10614.31041
586.566	10632.63282
586.769	10628.56126
586.973	10445.28923
587.176	10459.54741
587.379	10494.1718
587.582	10703.87721
587.786	10500.2816
587.989	10569.51807
588.192	10369.91398
588.395	10457.51057
588.599	10504.35474
588.802	10868.70084
589.005	10732.37081
589.208	10703.87721
589.411	10591.91499
589.615	10718.1243
589.818	10801.55981
590.021	10876.83829
590.224	10598.02298
590.427	10866.66645
590.63	10646.8829
590.833	10673.34573
591.036	10813.76822
591.239	10834.11462
591.442	10679.45224
591.645	10982.60853
591.848	10836.1492
592.051	11126.97702
592.254	10744.58163
592.457	11244.87172
592.66	10842.25286
592.863	11192.02674
593.066	10954.13494
593.269	11145.27335
593.472	10986.67601
593.675	11389.14398
593.878	11110.71288
594.081	11366.79525
594.284	11265.19485
594.486	11192.02674
594.689	11297.70972
594.892	11151.37193
595.095	11336.31777
595.298	11618.65888
595.5	11370.85874
595.703	11494.77652
595.906	11265.19485
596.109	11515.08749
596.311	11433.83787
596.514	11543.52127
596.717	11267.2271
596.92	11793.25534
597.122	11795.28515
597.325	11557.73746
597.528	11614.59771
597.73	11655.20778
597.933	11395.23888
598.136	11488.68304
598.338	11537.42847
598.541	11829.79062
598.743	11764.8371
598.946	11632.87269
599.148	11744.53731
599.351	11724.23665
599.554	11437.90071
599.756	11645.0556
599.959	11472.43335
600.161	11949.52611
600.363	11817.6125
600.566	12097.63454
600.768	11673.48113
600.971	11979.9628
601.173	11598.35266
601.376	12059.08979
601.578	12028.65775
601.78	12188.9138
601.983	11939.38015
602.185	12083.43417
602.388	11866.32316
602.59	12111.83454
602.792	11890.67668
602.995	11793.25534
603.197	11722.20653
603.399	11919.08761
603.601	11772.95677
603.804	12130.09113
604.006	12069.23341
604.208	12040.83078
604.41	12233.53375
604.613	12385.62129
604.815	11870.38216
605.017	12136.17653
605.219	11939.38015
605.421	12164.57415
605.623	12034.7443
605.826	12371.42811
606.028	12126.03416
606.23	12306.54069
606.432	12105.74887
606.634	12620.77576
606.836	11744.53731
607.038	12061.11853
607.24	12016.48444
607.442	12028.65775
607.644	12101.69172
607.846	12347.09615
608.048	12119.94866
608.25	12227.44942
608.452	12087.49145
608.654	12608.61469
608.856	12276.12225
609.058	12460.63693
609.26	12148.34712
609.462	12146.3187
609.664	12361.28991
609.866	12614.69525
610.067	12434.28112
610.269	12732.24218
610.471	12280.17814
610.673	12511.31807
610.875	12121.97717
611.077	12426.17142
611.278	12393.73153
611.48	12549.83304
611.682	12407.92419
611.884	12641.04373
612.085	12422.11652
612.287	12499.15496
612.489	12428.19885
612.69	12608.61469
612.892	12320.73542
613.094	12555.91415
613.295	12391.70398
613.497	12547.806
613.699	12484.96438
613.9	12537.67067
614.102	12442.39072
614.304	12442.39072
614.505	12280.17814
614.707	12711.97689
614.908	12215.28056
615.11	12728.18917
615.311	12231.50565
615.513	12685.63113
615.714	12630.90982
615.916	12432.2537
616.117	12365.34521
616.319	12564.0222
616.52	12523.48094
616.722	12450.50021
616.923	12756.55977
617.124	12705.89719
617.326	12501.18216
617.527	12657.25766
617.729	12681.57785
617.93	12596.4534
618.131	12616.7221
618.333	12515.37238
618.534	12420.08907
618.735	12870.03115
618.937	12422.11652
619.138	12791.00829
619.339	12606.58782
619.54	12793.03462
619.742	12407.92419
619.943	12695.76423
620.144	12430.22628
620.345	13015.89821
620.546	12900.42235
620.748	12997.66629
620.949	12803.1662
621.15	12744.40108
621.351	12564.0222
621.552	12870.03115
621.753	12602.53407
621.954	12795.06094
622.155	12466.71888
622.356	13145.53607
622.558	12841.66493
622.759	12981.45979
622.96	12845.71731
623.161	12949.04581
623.362	12809.24508
623.563	12863.95276
623.764	12614.69525
623.965	13034.12974
624.166	12865.97889
624.366	12969.3047
624.567	12932.83833
624.768	13232.62575
624.969	12647.124
625.17	13013.87246
625.371	12740.34814
625.572	12910.55249
625.773	13015.89821
625.973	13212.37308
626.174	12997.66629
626.375	13003.74364
626.576	12762.63904
626.777	13017.92396
626.977	12653.20422
627.178	13171.86639
627.379	12928.7864
627.58	12947.01989
627.78	13082.74519
627.981	13151.61236
628.182	13177.94251
628.382	13003.74364
628.583	13013.87246
628.784	13135.40881
628.984	12868.00502
629.185	13299.45648
629.386	12639.01696
629.586	12898.39631
629.787	13072.6172
629.987	13179.96787
630.188	13277.18009
630.388	13098.94972
630.589	12874.08338
630.79	12991.58889
630.99	12957.14943
631.191	13143.51062
631.391	12906.50045
631.591	12863.95276
631.792	12957.14943
631.992	13088.82193
632.193	13171.86639
632.393	12922.70848
632.594	13293.38116
632.794	13376.4074
632.994	13100.97527
633.195	13443.22848
633.395	13309.58195
633.595	13337.93269
633.796	13344.00774
633.996	13325.78247
634.196	13425.00497
634.397	13572.8091
634.597	13451.32771
634.797	13179.96787
634.997	12920.68249
635.198	13315.65717
635.398	13068.56597
635.598	13489.79826
635.798	13305.53177
635.998	13524.21813
636.199	13455.37731
636.399	13465.50123
636.599	13305.53177
636.799	13368.30758
636.999	13315.65717
637.199	13356.15773
637.399	13477.64981
637.599	13392.60684
637.799	13090.8475
637.999	13706.42406
638.199	13947.30186
638.399	13712.49713
638.599	13752.98352
638.799	13536.36606
638.999	13868.36316
639.199	13850.14594
639.399	13842.04933
639.599	13589.00564
639.799	13558.63695
639.999	13471.57554
640.199	13872.4114
640.399	13718.57016
640.599	12971.33056
640.799	13870.38728
640.998	13601.1529
641.198	13755.00781
641.398	13305.53177
641.598	13811.68663
641.798	13829.90433
641.997	13536.36606
642.197	13805.61401
642.397	13872.4114
642.597	13722.61884
642.796	14103.14389
642.996	13672.00947
643.196	13852.17009
643.395	13597.10382
643.595	13615.32454
643.795	13617.34905
643.994	14014.09306
644.194	13730.71616
644.394	13718.57016
644.593	13702.37533
644.793	14121.35829
644.992	13678.0827
645.192	13736.78911
645.392	13631.5205
645.591	13819.78341
645.791	13939.20577
645.99	13649.7407
646.19	13700.35096
646.389	13910.86912
646.589	13803.58979
646.788	13971.58988
646.987	13771.202
647.187	13927.06155
647.386	14034.33228
647.586	14147.66767
647.785	14070.76229
647.984	13797.51714
648.184	13933.13367
648.383	14390.50786
648.582	13714.52148
648.782	14141.59631
648.981	14034.33228
649.18	14139.57252
649.38	14301.4695
649.579	14309.56403
649.778	14084.92931
649.977	14260.99641
650.177	14220.52257
650.376	14091.00086
650.575	14153.73902
650.774	14242.78328
650.973	13967.54191
651.173	13801.56558
651.372	13896.7006
651.571	14414.7905
651.77	14216.47515
651.969	14469.42566
652.168	14001.9494
652.367	14034.33228
652.566	14188.14294
652.765	14289.32765
652.964	14153.73902
653.163	14111.2392
653.362	14101.12006
653.561	14331.82385
653.76	14052.54738
653.959	14352.05987
654.158	14337.89468
654.357	14305.51677
654.556	14250.87802
654.755	14588.81017
654.954	14445.1435
655.153	14206.35655
655.352	14443.11998
655.551	14526.08327
655.749	14392.53142
655.948	14339.91828
656.147	14157.78657
656.346	14348.01268
656.545	14210.40399
656.743	14374.31931
656.942	14242.78328
657.141	14574.64613
657.34	14420.86113
657.538	14770.91474
657.737	14362.17782
657.936	14491.68414
658.135	14054.57127
658.333	14321.70578
658.532	14222.54628
658.731	14173.97669
658.929	14368.24857
659.128	13929.0856
659.326	14218.49886
659.525	14420.86113
659.724	14236.7122
659.922	14396.57854
660.121	14550.36479
660.319	14356.10706
660.518	14536.20059
660.716	14269.09109
660.915	14564.52893
661.113	14513.94244
661.312	14341.94188
661.51	14574.64613
661.709	14509.89549
661.907	14629.27854
662.105	14386.46073
662.304	14495.73111
662.502	14435.02587
662.701	14507.87201
662.899	14702.12057
663.097	14617.13808
663.296	14339.91828
663.494	14524.0598
663.692	14165.88165
663.891	14639.39557
664.089	14380.39003
664.287	14477.51967
664.485	14435.02587
664.684	14517.98939
664.882	14534.17713
665.08	14582.73987
665.278	14598.92731
665.476	14534.17713
665.675	14572.62269
665.873	14305.51677
666.071	14752.70461
666.269	14520.01286
666.467	14267.06742
666.665	14588.81017
666.863	14202.30909
667.061	14418.83759
667.259	14378.36645
667.457	14455.26109
667.655	14507.87201
667.853	14493.70762
668.051	14586.78674
668.249	14526.08327
668.447	14558.45859
668.645	14570.59925
668.843	14613.09125
669.041	14564.52893
669.239	14030.28445
669.437	14451.21406
669.635	14768.89139
669.833	14681.8868
670.031	14418.83759
670.229	14277.18573
670.426	14398.6021
670.624	14598.92731
670.822	14277.18573
671.02	14291.3513
671.218	14487.63715
671.415	14637.37217
671.613	14710.21406
671.811	14576.66957
672.009	14418.83759
672.206	14689.98032
672.404	14396.57854
672.602	14428.95528
672.799	14582.73987
672.997	14762.82136
673.195	14376.34288
673.392	14453.23758
673.59	14275.16207
673.788	14267.06742
673.985	14463.35514
674.183	14665.69972
674.38	14552.38824
674.578	14522.03633
674.775	14449.19054
674.973	14111.2392
675.17	14293.37494
675.368	14437.0494
675.565	14163.85788
675.763	14564.52893
675.96	14522.03633
676.158	14564.52893
676.355	14125.40591
676.553	14774.96142
676.75	14232.6648
676.947	14453.23758
677.145	14356.10706
677.342	14748.65791
677.539	14287.304
677.737	14556.43514
677.934	14497.7546
678.131	14580.71644
678.329	14232.6648
678.526	14552.38824
678.723	14600.95073
678.92	14568.57581
679.118	14327.77663
679.315	14248.85434
679.512	14226.5937
679.709	14475.49617
679.906	14218.49886
680.104	13981.70979
680.301	14064.69067
680.498	13989.80566
680.695	14091.00086
680.892	14558.45859
681.089	14333.84746
681.286	14503.82505
681.483	13987.7817
681.68	14305.51677
681.877	14433.00234
682.075	14507.87201
682.272	14121.35829
682.469	14497.7546
682.665	14133.50113
682.862	13831.9285
683.059	13983.73376
683.256	14396.57854
683.453	14068.73842
683.65	14107.19155
683.847	14182.0717
684.044	14192.19042
684.241	13878.48373
684.438	14341.94188
684.635	13900.74876
684.831	14303.49314
685.028	13977.66183
685.225	14424.90821
685.422	14030.28445
685.619	14171.95293
685.815	14003.97335
686.012	14380.39003
686.209	13955.39791
686.405	14250.87802
686.602	14119.33448
686.799	14137.54872
686.996	14062.6668
687.192	13904.79691
687.389	13647.71625
687.586	14095.04855
687.782	14135.52493
687.979	14307.5404
688.175	13955.39791
688.372	14149.69145
688.568	13870.38728
688.765	13811.68663
688.962	13894.67651
689.158	14005.9973
689.355	14171.95293
689.551	14099.09622
689.748	13868.36316
689.944	13973.61387
690.14	13752.98352
690.337	14052.54738
690.533	13605.20196
690.73	13455.37731
690.926	14030.28445
691.123	13852.17009
691.319	13819.78341
691.515	13840.02517
691.712	13566.73534
691.908	13499.92186
692.104	13416.90553
692.301	13702.37533
692.497	13690.22907
692.693	13878.48373
692.889	13742.86204
693.086	14099.09622
693.282	13797.51714
693.478	13617.34905
693.674	13730.71616
693.87	14076.83388
694.067	13949.32588
694.263	13876.45962
694.459	13912.89318
694.655	14028.26054
694.851	13698.32659
695.047	13530.29211
695.243	13755.00781
695.439	13858.24251
695.635	13586.98108
695.831	13945.27784
696.027	13852.17009
696.224	13750.95923
696.42	13572.8091
696.615	13955.39791
696.811	13647.71625
697.007	13854.19423
697.203	13497.89715
697.399	13566.73534
697.595	13410.83091
697.791	13755.00781
697.987	13586.98108
698.183	13767.15347
698.379	13578.88283
698.575	13625.44704
698.77	13410.83091
698.966	13447.2781
699.162	13416.90553
699.358	13376.4074
699.554	13133.38335
699.749	13475.62506
699.945	13161.73943
700.141	13568.75993
700.337	13483.72405
700.532	13483.72405
700.728	13325.78247
700.924	13589.00564
701.119	13113.12844
701.315	13408.80603
701.511	13667.96063
701.706	13629.49602
701.902	13416.90553
702.097	13422.98012
702.293	13366.28262
702.489	13473.6003
702.684	13382.48222
702.88	13103.00081
703.075	13082.74519
703.271	13115.15395
703.466	13117.17946
703.662	13625.44704
703.857	13151.61236
704.053	13356.15773
704.248	13228.57525
704.443	13473.6003
704.639	13406.78115
704.834	13443.22848
705.03	13451.32771
705.225	13414.88066
705.42	13348.05775
705.616	13536.36606
705.811	13212.37308
706.006	13145.53607
706.202	13552.56311
706.397	13327.80752
706.592	13267.05429
706.787	13323.75742
706.983	13350.08275
707.178	13512.07006
707.373	13335.90766
707.568	13570.78452
707.763	13293.38116
707.959	13566.73534
708.154	13173.89177
708.349	13295.40627
708.544	13163.76483
708.739	13510.04537
708.934	13220.4742
709.129	13275.15494
709.324	13194.14529
709.519	13530.29211
709.714	13058.43781
709.909	13431.07951
710.104	13344.00774
710.299	13098.94972
710.494	12959.17532
710.689	13202.24658
710.884	13147.5615
711.079	13303.50668
711.274	13151.61236
711.469	13420.95526
711.664	13036.15544
711.859	13358.18272
712.054	12825.45518
712.249	13038.18113
712.443	12926.76043
712.638	13113.12844
712.833	12691.71101
713.028	13042.23251
713.223	12928.7864
713.417	13133.38335
713.612	12825.45518
713.807	13463.47645
714.002	13252.87799
714.196	12938.91617
714.391	12641.04373
714.586	12920.68249
714.78	12689.68439
714.975	13038.18113
715.17	12649.15074
715.364	12916.63051
715.559	12955.12353
715.754	12799.11358
715.948	12762.63904
716.143	12657.25766
716.337	12760.61262
716.532	13137.43427
716.726	12977.40811
716.921	13115.15395
717.115	12906.50045
717.31	13123.25595
717.504	12825.45518
717.699	13028.05261
717.893	12440.36333
718.088	12791.00829
718.282	12726.16265
718.476	13009.82095
718.671	12523.48094
718.865	12584.29188
719.059	12497.12775
719.254	12809.24508
719.448	12470.77348
719.642	12667.39118
719.837	12598.4803
720.031	12474.82806
720.225	12302.48499
720.419	12661.31109
720.614	12604.56095
720.808	12709.95033
721.002	12531.58939
721.196	12758.5862
721.39	12647.124
721.585	12823.42893
721.779	12586.31882
721.973	12517.39953
722.167	12472.80077
722.361	12547.806
722.555	12720.08308
722.749	12610.64155
722.943	12430.22628
723.137	12693.73763
723.331	12446.44548
723.525	12420.08907
723.719	12288.28982
723.913	12768.71826
724.107	12363.31756
724.301	12507.26372
724.495	12393.73153
724.689	12351.15155
724.883	12128.06265
725.077	12197.02678
725.271	12194.99855
725.465	12689.68439
725.659	12466.71888
725.853	12237.58994
726.046	11990.10795
726.24	12065.17599
726.434	11959.67188
726.628	12061.11853
726.822	12124.00567
727.015	12825.45518
727.209	12194.99855
727.403	12460.63693
727.596	12373.45572
727.79	12499.15496
727.984	12357.23459
728.177	12711.97689
728.371	12278.1502
728.565	12705.89719
728.758	12673.47122
728.952	12726.16265
729.146	12395.75907
729.339	12430.22628
729.533	12268.0104
729.726	12146.3187
729.92	12166.60249
730.113	12028.65775
730.307	11965.75924
730.5	12308.56853
730.694	12053.00352
730.887	12211.22422
731.081	12111.83454
731.274	12152.40392
731.468	12188.9138
731.661	12079.37685
731.854	11923.14618
732.048	12004.31084
732.241	12324.79099
732.435	12308.56853
732.628	12345.06845
732.821	11988.07894
733.014	12095.60594
733.208	12190.94206
733.401	12314.65201
733.594	11925.17546
733.788	12065.17599
733.981	12061.11853
734.174	12318.70762
734.367	12369.40048
734.56	12365.34521
734.754	12207.16784
734.947	12336.95755
735.14	12130.09113
735.333	12091.54871
735.526	12069.23341
735.719	11943.43856
735.912	11921.1169
736.105	12146.3187
736.298	11939.38015
736.491	12221.36502
736.684	12150.37552
736.877	11908.94103
737.07	12239.61802
737.263	12077.34818
737.456	12087.49145
737.649	11841.96844
737.842	11874.44113
738.035	11846.02764
738.228	12057.06104
738.421	12028.65775
738.614	12000.25291
738.807	12241.64609
739	11801.37453
739.192	11689.7235
739.385	11720.17641
739.578	11955.6136
739.771	12107.77743
739.964	11935.32171
740.156	12101.69172
740.349	11712.05583
740.542	12142.26186
740.735	11809.49359
740.927	11937.35093
741.12	11610.5365
741.313	11582.10703
741.505	11898.79425
741.698	11521.1806
741.891	11506.96322
742.083	11874.44113
742.276	11714.08598
742.468	12180.8007
742.661	12150.37552
742.854	11795.28515
743.046	11683.63268
743.239	11620.68945
743.431	11821.67191
743.624	11701.9049
743.816	11821.67191
744.009	11959.67188
744.201	11679.57208
744.393	11685.66296
744.586	11638.96419
744.778	11602.41398
744.971	11484.62068
745.163	11598.35266
745.355	11549.61398
745.548	11517.11854
745.74	11689.7235
745.932	11839.93882
746.125	11687.69323
746.317	11712.05583
746.509	11793.25534
746.702	11829.79062
746.894	11825.73128
747.086	11634.9032
747.278	11285.51695
747.471	11624.75057
747.663	11214.38509
747.855	11354.60453
748.047	11289.58125
748.239	11508.9943
748.431	11657.23819
748.623	11744.53731
748.815	11370.85874
749.008	11803.40431
749.2	11724.23665
749.392	11567.89161
749.584	11263.16258
749.776	11722.20653
749.968	11464.30828
750.16	11578.04553
750.352	11411.49151
750.544	11502.90102
750.736	11460.24568
750.928	11606.47526
751.12	11330.222
751.311	11663.32936
751.503	11551.64486
751.695	11309.90213
751.887	11322.09418
752.079	11283.48479
752.271	11259.09802
752.463	11348.50903
752.654	11086.31539
752.846	11446.02629
753.038	11399.3021
753.23	11354.60453
753.421	11175.76532
753.613	11234.70977
753.805	11437.90071
753.997	11468.37083
754.188	11352.5727
754.38	11437.90071
754.572	11663.32936
754.763	11578.04553
754.955	11273.32381
755.146	11429.77498
755.338	11267.2271
755.53	11163.56882
755.721	11212.35256
755.913	11472.43335
756.104	11307.87009
756.296	11429.77498
756.487	11183.89611
756.679	11525.24262
756.87	11242.83935
757.062	11253.00109
757.253	11104.61366
757.445	11090.38175
757.636	10976.50723
757.827	11147.30622
758.019	10862.59764
758.21	10864.63205
758.401	11004.9791
758.593	10964.30433
758.784	10939.89731
758.975	10844.28739
759.167	10787.31613
759.358	11149.33908
759.549	10803.59457
759.74	10838.18376
759.932	11004.9791
760.123	10911.4204
760.314	10754.75699
760.505	10789.35098
760.696	10777.14173
760.888	10793.42064
761.079	10573.59035
761.27	10878.87263
761.461	10524.71967
761.652	10925.65914
761.843	10475.8417
762.034	10630.59705
762.225	10526.75609
762.416	10508.42783
762.607	10227.26259
762.798	10569.51807
762.989	10742.54652
763.18	10887.00985
763.371	10551.19219
763.562	10628.56126
763.753	10339.35134
763.944	10624.48965
764.135	10604.13086
764.326	10516.57385
764.517	10477.87843
764.708	10675.38125
764.899	10265.98876
765.089	10414.73385
765.28	10280.25507
765.471	10369.91398
765.662	10198.72436
765.853	10184.45424
766.043	10159.98961
766.234	10380.10087
766.425	10212.99381
766.615	10257.83629
766.806	10039.67593
766.997	9947.878
767.187	9892.78514
767.378	9968.28006
767.569	9858.09154
767.759	10060.07153
767.95	10092.70155
768.141	10139.60089
768.331	10019.27891
768.522	9951.95853
768.712	9921.35314
768.903	10092.70155
769.093	9729.48351
769.284	9907.0695
769.474	9817.27005
769.665	9937.67642
769.855	9788.69145
770.046	10074.34761
770.236	9715.19002
770.426	9911.15061
770.617	9872.37766
770.807	9884.62232
770.998	9968.28006
771.188	9725.39973
771.378	9768.27636
771.569	9974.4004
771.759	9782.56708
771.949	9815.22882
772.139	9729.48351
772.33	9635.54108
772.52	9664.13571
772.71	9725.39973
772.9	9766.23477
773.09	9831.55825
773.281	9772.3595
773.471	9884.62232
773.661	9490.47815
773.851	9555.86849
774.041	9337.15491
774.231	9517.04494
774.421	9324.88508
774.611	9373.96085
774.802	9226.70485
774.992	9414.85012
775.182	9412.80581
775.372	9611.02898
775.562	9328.97509
775.752	9494.56553
775.942	9328.97509
776.131	9247.16224
776.321	8950.36254
776.511	9320.795
776.701	9467.99645
776.891	9341.24472
777.081	8985.17863
777.271	9249.20789
777.461	9157.13707
777.651	9300.34362
777.84	9488.43444
778.03	9228.75066
778.22	9169.41516
778.41	9476.17184
778.599	9189.87729
778.789	9089.59654
778.979	9067.07886
779.169	9153.04424
779.358	9015.8945
779.548	9218.52142
779.738	9193.96951
779.927	8968.79522
780.117	9128.4858
780.307	8968.79522
780.496	8936.02501
780.686	8958.55502
780.875	8667.54579
781.065	8825.39186
781.254	8841.78526
781.444	9017.94208
781.633	8763.90629
781.823	8735.20741
782.012	8888.90987
782.202	9026.13224
782.391	8694.20277
782.581	9091.6435
782.77	8614.22243
782.96	9011.79928
783.149	8880.71497
783.338	8901.20168
783.528	8636.78385
783.717	8976.98707
783.906	8954.45881
784.096	8964.69919
784.285	8788.50248
784.474	8696.25317
784.663	8671.64707
784.853	8585.50462
785.042	8450.07083
785.231	8612.17128
785.42	8554.73146
785.61	8755.70697
785.799	8550.62805
785.988	8409.01388
786.177	8612.17128
786.366	8476.75373
786.555	8452.12347
786.744	8411.06691
786.933	8291.95912
787.122	8394.64213
787.312	8445.96548
787.501	8597.8127
787.69	8037.09237
787.879	8365.89579
788.068	8123.4526
788.257	8152.23147
788.445	8365.89579
788.634	8638.83477
788.823	8370.00264
789.012	8450.07083
789.201	8521.90207
789.39	8417.22588
789.579	8234.43528
789.768	8306.33768
789.957	7979.49903
790.145	8398.74844
790.334	8057.65756
790.523	8008.29769
790.712	8094.66981
790.9	8139.89815
791.089	8213.88731
791.278	8080.27693
791.467	8102.89387
791.655	8139.89815
791.844	8121.39682
792.033	7975.38461
792.221	8160.45328
792.41	8246.76312
792.599	8014.46832
792.787	7960.9835
792.976	7989.78473
793.164	7860.1475
793.353	7926.00518
793.541	8053.54468
793.73	7687.16976
793.918	8024.75228
794.107	7755.14292
794.295	7703.65021
794.484	7460.42545
794.672	7699.53022
794.861	7382.03509
795.049	8037.09237
795.238	7555.27729
795.426	7831.32811
795.614	7724.24887
795.803	7870.43916
795.991	7833.38677
796.179	7794.26861
796.368	7656.26527
796.556	7841.62122
796.744	7794.26861
796.932	7923.94744
797.121	7703.65021
797.309	7886.90473
797.497	7514.04296
797.685	7796.32765
797.874	7522.29051
798.062	7571.76863
798.25	7216.8996
798.438	7454.23788
798.626	7466.61283
798.814	7575.89125
799.002	7359.33728
799.19	7674.80853
799.378	7528.47595
799.566	7841.62122
799.755	7429.48563
799.943	7476.9247
800.131	7394.4146
800.318	7520.22866
800.506	7328.38146
800.694	7448.05011
800.882	7320.12574
801.07	7575.89125
801.258	7441.86215
801.446	7363.46435
801.634	7287.09936
801.822	7462.48794
802.01	7229.28965
802.197	7489.29823
802.385	7264.39046
802.573	7194.18245
802.761	7303.61325
802.949	7526.41416
803.136	7225.15972
803.324	7577.95252
803.512	7332.50918
803.699	7237.54924
803.887	7254.06736
804.075	7454.23788
804.262	7344.89184
804.45	7495.4847
804.638	7274.71302
804.825	7371.71823
805.013	7097.08799
805.201	7344.89184
805.388	7080.55637
805.576	7435.67399
805.763	7371.71823
805.951	7610.93006
806.138	7353.14651
806.326	7435.67399
806.513	7431.54844
806.701	7456.30043
806.888	7039.22105
807.075	7549.09269
807.263	7427.4228
807.45	7592.38087
807.638	7398.54093
807.825	7672.74826
808.012	7367.59133
808.2	7338.70061
808.387	7311.86967
808.574	7408.85637
808.761	7210.70428
808.949	7382.03509
809.136	7357.27371
809.323	7666.5673
809.51	7464.5504
809.698	7549.09269
809.885	7542.9079
810.072	7744.84543
810.259	7629.47753
810.446	7619.17359
810.633	7586.19742
810.82	7487.23603
811.008	7474.86237
811.195	7645.96272
811.382	7567.64592
811.569	7825.15199
811.756	7315.99775
811.943	7580.01378
812.13	7528.47595
812.317	7555.27729
812.504	7586.19742
812.691	7769.55853
812.878	7724.24887
813.064	7580.01378
813.251	7786.03225
813.438	7751.02399
813.625	7396.47778
813.812	7538.78459
813.999	7559.40026
814.186	7344.89184
814.372	7313.93372
814.559	7476.9247
814.746	7336.63682
814.933	7460.42545
815.12	7421.23419
815.306	7452.17531
815.493	7415.04538
815.68	7466.61283
815.866	7303.61325
816.053	7559.40026
816.24	7221.02971
816.426	7604.74719
816.613	7491.36041
816.799	7668.62764
816.986	7509.91905
817.173	7501.67098
817.359	7359.33728
817.546	7559.40026
817.732	7142.54258
817.919	7491.36041
818.105	6933.77529
818.292	7344.89184
818.478	7006.14633
818.665	7144.60844
818.851	7218.96467
819.037	7227.2247
819.224	7123.94882
819.41	7282.97067
819.597	7020.61723
819.783	7245.80847
819.969	7419.17127
820.156	7369.65479
820.342	7264.39046
820.528	7212.76941
820.714	7033.01998
820.901	7210.70428
821.087	7107.41952
821.273	7280.90629
821.459	6946.18372
821.646	7322.1897
821.832	6809.64614
822.018	7115.68435
822.204	6888.27076
822.39	7072.29002
822.576	6766.18158
822.762	6900.68218
822.948	6981.33652
823.134	7107.41952
823.32	6989.60681
823.507	7088.82235
823.693	6904.81913
823.879	6962.72703
824.065	6782.7407
824.25	6964.79484
824.436	6863.44548
824.622	6890.33939
824.808	7068.15671
824.994	7030.95291
825.18	6598.43787
825.366	7196.24776
825.552	6993.74183
825.738	7254.06736
825.923	6704.07185
826.109	7002.01159
826.295	6710.28375
826.481	7132.21294
826.667	6828.27073
826.852	6977.20123
827.038	6795.15907
827.224	6894.47657
827.409	6933.77529
827.595	6993.74183
827.781	6658.5116
827.966	7121.88274
828.152	6919.29777
828.338	6819.99336
828.523	6675.08025
828.709	7057.82305
828.894	6573.57411
829.08	6559.06871
829.266	6409.80438
829.451	6646.08414
829.637	6245.88934
829.822	6583.93441
830.008	6726.84781
830.193	6677.15123
830.378	6548.70701
830.564	6442.98464
830.749	6372.46947
830.935	6335.127
831.12	6110.91295
831.305	6492.74386
831.491	6447.13175
831.676	6366.24625
831.861	6123.37647
832.047	6351.72459
832.232	6409.80438
832.417	6476.15894
832.602	6196.06345
832.788	6204.36871
832.973	6401.50839
833.158	6822.06274
833.343	6494.81687
833.528	6550.7794
833.714	6297.77697
833.899	6662.6539
834.084	6139.99317
834.269	6561.14098
834.454	5873.94512
834.639	6343.42598
834.824	5938.41406
835.009	6098.44859
835.194	6061.05043
835.379	6395.28615
835.564	6152.45472
835.749	6416.02613
835.934	6459.57253
836.119	6206.44496
836.304	5911.38146
836.489	6318.52792
836.674	6152.45472
836.859	6208.52119
837.044	5955.04753
837.228	6169.06879
837.413	6009.09588
837.598	6206.44496
837.783	5878.10509
837.968	6002.86034
838.152	6069.36179
838.337	6173.22207
838.522	5826.09868
838.707	5936.33477
838.891	5869.78506
839.076	5846.90301
839.261	5688.73086
839.445	5886.42475
839.63	5938.41406
839.815	5784.48292
839.999	5672.07323
840.184	5969.60058
840.368	5694.97708
840.553	6036.11408
840.737	5761.59023
840.922	5977.91608
841.106	5638.75344
841.291	5715.79629
841.475	5667.90859
841.66	5861.46464
841.844	5682.48443
842.029	5747.02067
842.213	5465.81017
842.397	5613.75963
842.582	5444.96269
842.766	5647.08395
842.951	5328.17335
843.135	5715.79629
843.319	5378.23493
843.504	5515.83454
843.688	5255.14268
843.872	5476.23303
844.056	5472.06396
844.241	5461.64086
844.425	5340.69001
844.609	5388.66273
844.793	5294.79146
844.977	5536.67403
845.161	5488.73969
845.346	5403.26066
845.53	5455.38672
845.714	5628.33977
845.898	5098.55211
846.082	5447.04754
846.266	5255.14268
846.45	5334.43178
846.634	5303.13749
846.818	5330.25952
847.002	5117.34989
847.186	5324.00094
847.37	5390.74822
847.554	5371.97797
847.738	5115.26134
847.922	5244.70739
848.106	5219.66031
848.29	4952.28318
848.473	5129.8807
848.657	5152.85167
848.841	4987.81603
849.025	5250.96863
849.209	4906.28962
849.392	4891.65298
849.576	5021.25263
849.76	4958.55416
849.944	4962.73471
850.127	5033.78984
850.311	4933.46897
850.495	5088.10809
850.678	4874.92401
850.862	4985.72605
851.046	4927.19716
851.229	4960.64445
851.413	4784.9808
851.596	4895.83499
851.78	4726.39053
851.964	5025.43179
852.147	4609.15697
852.331	4678.24956
852.514	4634.28437
852.698	4870.74154
852.881	4512.80554
853.065	4906.28962
853.248	4636.37818
853.431	4835.18686
853.615	4726.39053
853.798	5012.89404
853.982	4642.65946
854.165	4625.90893
854.348	4697.08876
854.532	4962.73471
854.715	4584.02635
854.898	4734.76166
855.081	4351.41723
855.265	4638.47196
855.448	4353.51401
855.631	4588.21501
855.814	4628.00282
855.997	4667.78256
856.181	4581.93199
856.364	4663.5956
856.547	4502.32973
856.73	4617.53313
856.913	4152.12515
857.096	4579.8376
857.279	4275.91873
857.462	4210.88386
857.645	4147.92747
857.828	4246.55068
858.011	4221.37474
858.194	4460.42098
858.377	4275.91873
858.56	4343.02988
858.743	4183.60509
858.926	4298.99067
859.109	4120.64048
859.292	4219.2766
859.475	4206.68736
859.658	4370.28748
859.841	4057.65704
860.023	4210.88386
860.206	4038.75837
860.389	4246.55068
860.572	3990.45418
860.755	4084.95216
860.937	3921.12932
861.12	3986.25331
861.303	3906.42121
861.486	3895.91482
861.668	3851.7825
861.851	4024.05824
862.034	3988.35375
862.216	4122.7396
862.399	3805.53924
862.581	3946.34092
862.764	3668.85617
862.947	3874.90053
863.129	3845.47716
863.312	3858.08765
863.494	3658.33872
863.677	3963.14703
863.859	3567.86917
864.042	4032.45844
864.224	3677.26979
864.406	3971.5496
864.589	3559.45164
864.771	3662.54576
864.954	3397.3573
865.136	3628.88734
865.318	3536.30191
865.501	3652.02802
865.683	3523.67384
865.865	3635.19866
866.048	3555.24276
866.23	3820.25404
866.412	3618.36809
866.594	3504.73051
866.777	3540.51112
866.959	3729.84795
867.141	3445.78629
867.323	3492.1008
867.505	3186.68988
867.687	3325.74957
867.869	3294.15156
868.052	3555.24276
868.234	3266.76351
868.416	3548.92931
868.598	3492.1008
868.78	3449.99706
868.962	3281.51128
869.144	3407.88614
869.326	3382.61618
869.508	3567.86917
869.69	3298.36485
869.872	3668.85617
870.054	3502.6256
870.236	3511.04512
870.417	3361.55596
870.599	3306.79123
870.781	3264.65662
870.963	3447.89168
871.145	3180.36726
871.327	3357.3437
871.508	3138.21272
871.69	3393.14564
871.872	3277.29772
872.054	3519.46434
872.235	3155.07531
872.417	3011.7109
872.599	3041.23301
872.78	3249.90791
872.962	3022.25486
873.144	3140.3206
873.325	3230.94407
873.507	3401.56889
873.689	3239.37261
873.87	3298.36485
874.052	2971.6404
874.233	3306.79123
874.415	2973.74951
874.596	3161.39852
874.778	2912.57931
874.959	3034.9071
875.141	2999.05765
875.322	3340.49398
875.503	3121.34909
875.685	3178.25969
875.866	3018.03732
876.048	3235.15838
876.229	3058.10144
876.41	3171.93687
876.592	2933.67388
876.773	3098.15993
876.954	2988.51285
877.136	3252.01492
877.317	3087.61877
877.498	3306.79123
877.679	3039.12439
877.86	3441.57544
878.042	3123.4571
878.223	3218.30076
878.404	3323.64315
878.585	3391.03978
878.766	3121.34909
878.947	3298.36485
879.128	3182.47482
879.309	3100.26812
879.49	3089.72704
879.672	3433.15355
879.853	3136.10482
880.034	3292.04489
880.215	3157.18306
880.396	3323.64315
880.576	3407.88614
880.757	3308.89778
880.938	3060.20992
881.119	3369.98026
881.3	3180.36726
881.481	3336.28138
881.662	2918.90784
881.843	3287.8315
882.023	2948.43921
882.204	3336.28138
882.385	3062.31839
882.566	3409.99185
882.747	3197.22725
882.927	3399.4631
883.108	3104.48444
883.289	3369.98026
883.469	3138.21272
883.65	3277.29772
883.831	3131.88898
884.011	3264.65662
884.192	3188.79739
884.373	3348.91898
884.553	3199.33468
884.734	3287.8315
884.914	3110.8088
885.095	3521.5691
885.275	3325.74957
885.456	3546.82479
885.636	3247.80088
885.817	3487.89075
885.997	3287.8315
886.178	3378.40428
886.358	3186.68988
886.538	3218.30076
886.719	3266.76351
886.899	3258.33585
887.08	3070.7521
887.26	3458.41838
887.44	3256.22889
887.621	3559.45164
887.801	3256.22889
887.981	3513.14995
888.161	3502.6256
888.342	3542.61569
888.522	3315.21733
888.702	3546.82479
888.882	3258.33585
889.062	3418.41454
889.242	3258.33585
889.423	3348.91898
889.603	3237.2655
889.783	3424.73136
889.963	3121.34909
890.143	3626.78352
890.323	3304.68466
890.503	3504.73051
890.683	3241.4797
890.863	3332.06871
891.043	3140.3206
891.223	3424.73136
891.403	3186.68988
891.583	3190.90488
891.763	2937.89262
891.943	3319.43028
892.122	3180.36726
892.302	3386.82802
892.482	3060.20992
892.662	3146.64414
892.842	2994.83978
893.022	3129.78103
893.201	2910.46977
893.381	3011.7109
893.561	2904.14107
893.741	3062.31839
893.92	2973.74951
894.1	3193.01236
894.28	3079.18556
894.459	3275.19091
894.639	3022.25486
894.819	3283.61803
894.998	3102.37629
895.178	3348.91898
895.357	2864.0563
895.537	3222.51527
895.716	2847.17695
895.896	3178.25969
896.075	2750.1035
896.255	2779.65066
896.434	2861.94643
896.614	3104.48444
896.793	2809.19515
896.973	2893.59295
897.152	2716.33212
897.331	3041.23301
897.511	2902.03148
897.69	3032.79843
897.87	2657.2242
898.049	2891.48328
898.228	2737.43963
898.407	2851.39687
898.587	2513.63599
898.766	2838.73694
898.945	2517.85995
899.124	2663.55767
899.304	2541.09093
899.483	2693.11236
899.662	2515.74797
899.841	2608.66385
900.02	2293.93052
900.199	2621.3324
900.378	2393.23442
900.557	2659.33537
900.737	2389.00918
900.916	2541.09093
901.095	2386.89654
901.274	2429.14734
901.453	2355.20573
901.632	2336.19016
901.811	2369.99506
901.989	2481.95482
902.168	2304.49579
902.347	2481.95482
902.526	2391.12181
902.705	2372.10778
902.884	2238.98737
903.063	2496.73968
903.242	2238.98737
903.42	2412.24752
903.599	2107.94551
903.778	2270.6861
903.957	1981.10297
904.135	2059.32551
904.314	1875.38344
904.493	2141.76576
904.672	1983.21721
904.85	2243.21398
905.029	2017.04419
905.207	1959.96023
905.386	1748.5034
905.565	1904.98632
905.743	1900.7574
905.922	1964.18883
906.1	1763.30685
906.279	1805.60136
906.457	1805.60136
906.636	1919.78737
906.814	1830.97725
906.993	1704.09201
907.171	1670.25381
907.35	1619.49525
907.528	1433.37287
907.707	1646.98964
907.885	1507.39962
908.063	1685.05812
908.242	1448.17823
908.42	1670.25381
908.598	1439.71802
908.777	1672.36872
908.955	1583.5405
909.133	1733.69977
909.311	1587.7705
909.49	1606.8054
909.668	1435.48792
909.846	1615.26531
910.024	1460.86855
910.202	1712.55143
910.38	1441.83308
910.559	1566.62045
910.737	1543.35523
910.915	1646.98964
911.093	1482.01906
911.271	1797.14259
911.449	1342.42626
911.627	1634.29997
911.805	1380.49674
911.983	1475.67391
912.161	1596.23048
912.339	1687.173
912.517	1458.75349
912.695	1807.71604
912.872	1505.28458
913.05	1583.5405
913.228	1517.97483
913.406	1484.13411
913.584	1439.71802
913.762	1532.78008
913.939	1509.51466
914.117	1655.44938
914.295	1547.58528
914.473	1676.59853
914.65	1477.78896
914.828	1678.71343
915.006	1382.61177
915.184	1560.27541
915.361	1427.02772
915.539	1460.86855
915.716	1314.93121
915.894	1524.31994
916.072	1397.41706
916.249	1471.44381
916.427	1264.17196
916.604	1469.32875
916.782	1145.74011
916.959	1490.47925
917.137	1253.59729
917.314	1458.75349
917.492	1272.63175
917.669	1486.24916
917.847	1245.1376
918.024	1382.61177
918.201	1262.05702
918.379	1462.9836
918.556	1249.36744
918.733	1346.6563
918.911	1114.01932
919.088	1484.13411
919.265	1287.43646
919.442	1393.18697
919.62	1130.93695
919.797	1439.71802
919.974	1232.44815
920.151	1312.81621
920.328	1253.59729
920.506	1418.56752
920.683	1215.52905
920.86	1422.79762
921.037	1059.03916
921.214	1194.38047
921.391	991.37642
921.568	1278.97661
921.745	1088.64343
921.922	1230.33325
922.099	1067.49742
922.276	1340.31125
922.453	1020.97811
922.63	1181.69149
922.807	1135.1664
922.984	1137.28114
923.161	982.91902
923.338	1181.69149
923.514	875.09723
923.691	1099.21663
923.868	915.26385
924.045	1120.3634
924.222	911.03565
924.399	1118.2487
924.575	1020.97811
924.752	1084.41419
924.929	887.78111
925.105	1059.03916
925.282	934.29112
925.459	1016.74922
925.635	898.35124
925.812	1029.43596
925.989	911.03565
926.165	1004.06271
926.342	822.25103
926.518	940.63367
926.695	820.1373
926.871	944.86208
927.048	775.75109
927.224	934.29112
927.401	839.16122
927.577	822.25103
927.754	680.65288
927.93	796.88685
928.107	733.48255
928.283	729.25593
928.459	720.80281
928.636	917.37796
928.812	748.27607
928.988	720.80281
929.165	737.70922
929.341	773.63756
929.517	744.0493
929.693	703.89708
929.87	568.67835
930.046	699.67076
930.222	674.31378
930.398	731.36923
930.574	562.34125
930.751	678.53983
930.927	545.44289
931.103	653.18424
931.279	543.33065
931.455	587.69039
931.631	532.7697
931.807	570.79075
931.983	564.4536
932.159	604.59088
932.335	520.09701
932.511	501.08894
932.687	475.74669
932.863	484.19387
933.039	433.51445
933.215	589.80291
933.391	494.75318
933.566	543.33065
933.742	488.41755
933.918	486.30571
934.094	359.62338
934.27	572.90316
934.445	437.73739
934.621	382.84411
934.797	376.51098
934.973	403.95561
935.148	384.95518
935.324	403.95561
935.5	289.97385
935.675	359.62338
935.851	277.31241
936.027	342.73688
936.202	256.21151
936.378	433.51445
936.553	264.65165
936.729	317.40923
936.904	256.21151
937.08	256.21151
937.255	209.7963
937.431	201.3582
937.606	188.70164
937.782	154.95444
937.957	218.23472
938.133	171.82738
938.308	214.01547
938.483	152.84542
938.659	146.51847
938.834	180.26435
939.009	116.99528
939.185	176.04582
939.36	89.5847
939.535	108.56086
939.71	74.82672
939.886	167.60902
940.061	66.39408
940.236	108.56086
940.411	112.77803
940.586	112.77803
940.761	144.40954
940.937	79.04317
941.112	93.80147
941.287	138.08285
941.462	98.01833
941.637	66.39408
941.812	144.40954
941.987	87.47635
942.162	79.04317
942.337	32.66719
942.512	135.97399
942.687	89.5847
942.862	112.77803
943.037	53.7458
943.212	140.19172
943.386	87.47635
943.561	125.43005
943.736	64.28597
943.911	104.34378
944.086	110.66943
944.26	72.71852
944.435	43.20621
944.61	76.93493
944.785	123.32132
944.959	93.80147
945.134	64.28597
945.309	138.08285
945.483	89.5847
945.658	64.28597
945.833	114.88664
946.007	-5.26836
946.182	79.04317
946.357	15.80599
946.531	11.59093
946.706	36.88273
946.88	24.2364
947.055	53.7458
947.229	83.25972
947.404	95.90989
947.578	57.9618
947.752	57.9618
947.927	30.55946
948.101	1.05369
948.276	148.62743
948.45	38.99053
948.624	104.34378
948.799	112.77803
948.973	15.80599
949.147	102.23527
949.321	66.39408
949.496	89.5847
949.67	83.25972
949.844	95.90989
950.018	98.01833
950.193	20.02115
950.367	106.45231
950.541	53.7458
950.715	64.28597
950.889	112.77803
951.063	79.04317
951.237	66.39408
951.411	47.42198
951.585	123.32132
951.759	62.17789
951.933	62.17789
952.107	87.47635
952.281	81.15143
952.455	95.90989
952.629	64.28597
952.803	100.12679
952.977	89.5847
953.151	131.75635
953.325	129.64756
953.499	95.90989
953.672	100.12679
953.846	22.12877
954.02	112.77803
954.194	55.85379
954.368	146.51847
954.541	89.5847
954.715	121.21262
954.889	76.93493
955.062	57.9618
955.236	125.43005
955.41	87.47635
955.583	51.63784
955.757	108.56086
955.93	127.53879
956.104	79.04317
956.278	159.17255
956.451	98.01833
956.625	53.7458
956.798	95.90989
956.972	129.64756
957.145	45.31408
957.319	131.75635
957.492	104.34378
957.665	68.5022
957.839	41.09836
958.012	47.42198
958.185	79.04317
958.359	123.32132
958.532	24.2364
958.705	116.99528
958.879	64.28597
959.052	79.04317
959.225	83.25972
959.398	41.09836
959.572	24.2364
959.745	91.69308
959.918	138.08285
960.091	24.2364
960.264	106.45231
960.438	47.42198
960.611	154.95444
960.784	89.5847
960.957	38.99053
961.13	104.34378
961.303	45.31408
961.476	108.56086
961.649	121.21262
961.822	22.12877
961.995	53.7458
962.168	95.90989
962.341	91.69308
962.514	79.04317
962.686	76.93493
962.859	104.34378
963.032	102.23527
963.205	133.86516
963.378	98.01833
963.551	121.21262
963.723	70.61035
963.896	53.7458
964.069	53.7458
964.242	144.40954
964.414	62.17789
964.587	55.85379
964.76	83.25972
964.932	163.39074
965.105	47.42198
965.278	87.47635
965.45	74.82672
965.623	68.5022
965.795	125.43005
965.968	28.45175
966.14	24.2364
966.313	64.28597
966.485	89.5847
966.658	-1.05368
966.83	100.12679
967.003	15.80599
967.175	119.10394
967.348	41.09836
967.52	53.7458
967.692	93.80147
967.865	142.30062
968.037	53.7458
968.209	83.25972
968.382	72.71852
968.554	87.47635
968.726	-11.5902
968.898	34.77495
969.071	64.28597
969.243	-5.26836
969.415	81.15143
969.587	70.61035
969.759	87.47635
969.932	81.15143
970.104	60.06984
970.276	20.02115
970.448	72.71852
970.62	53.7458
970.792	76.93493
970.964	11.59093
971.136	95.90989
971.308	47.42198
971.48	49.5299
971.652	55.85379
971.824	64.28597
971.996	91.69308
972.168	55.85379
972.339	30.55946
972.511	104.34378
972.683	36.88273
972.855	51.63784
973.027	85.36802
973.199	125.43005
973.37	87.47635
973.542	30.55946
973.714	20.02115
973.886	68.5022
974.057	108.56086
974.229	17.91356
974.401	55.85379
974.572	53.7458
974.744	38.99053
974.915	7.37596
975.087	-55.83685
975.259	93.80147
975.43	62.17789
975.602	9.48343
975.773	62.17789
975.945	74.82672
976.116	121.21262
976.288	68.5022
976.459	47.42198
976.63	62.17789
976.802	70.61035
976.973	43.20621
977.145	72.71852
977.316	116.99528
977.487	74.82672
977.659	22.12877
977.83	32.66719
978.001	104.34378
978.172	123.32132
978.344	49.5299
978.515	70.61035
978.686	98.01833
978.857	-9.48295
979.028	36.88273
979.2	7.37596
979.371	66.39408
979.542	62.17789
979.713	45.31408
979.884	-15.80464
980.055	-74.79631
980.226	51.63784
980.397	57.9618
980.568	83.25972
980.739	-11.5902
980.91	30.55946
981.081	81.15143
981.252	81.15143
981.423	64.28597
981.594	-3.16104
981.765	-3.16104
981.936	53.7458
982.106	41.09836
982.277	68.5022
982.448	20.02115
982.619	24.2364
982.79	24.2364
982.96	57.9618
983.131	26.34407
983.302	-34.76838
983.472	24.2364
983.643	34.77495
983.814	47.42198
983.984	87.47635
984.155	-5.26836
984.326	72.71852
984.496	15.80599
984.667	-38.98228
984.837	34.77495
985.008	-17.91182
985.178	62.17789
985.349	68.5022
985.519	57.9618
985.69	53.7458
985.86	-9.48295
986.031	57.9618
986.201	64.28597
986.371	57.9618
986.542	11.59093
986.712	-32.6614
986.882	36.88273
987.053	-5.26836
987.223	-22.12611
987.393	72.71852
987.563	-64.26353
987.734	-24.23321
987.904	-15.80464
988.074	87.47635
988.244	-22.12611
988.414	-5.26836
988.585	-26.3403
988.755	-30.55439
988.925	47.42198
989.095	-26.3403
989.265	-13.69743
989.435	112.77803
989.605	-22.12611
989.775	3.16109
989.945	53.7458
990.115	74.82672
990.285	43.20621
990.455	26.34407
990.625	-1.05368
990.795	49.5299
990.965	11.59093
991.134	62.17789
991.304	28.45175
991.474	26.34407
991.644	76.93493
991.814	26.34407
991.984	70.61035
992.153	-3.16104
992.323	62.17789
992.493	15.80599
992.662	28.45175
992.832	91.69308
993.002	72.71852
993.171	-9.48295
993.341	-41.08919
993.511	49.5299
993.68	-26.3403
993.85	20.02115
994.019	-24.23321
994.189	36.88273
994.358	62.17789
994.528	11.59093
994.697	-9.48295
994.867	15.80599
995.036	49.5299
995.206	47.42198
995.375	36.88273
995.544	41.09836
995.714	47.42198
995.883	13.69845
996.052	28.45175
996.222	38.99053
996.391	-5.26836
996.56	13.69845
996.73	57.9618
996.899	81.15143
997.068	-17.91182
997.237	1.05369
997.406	-1.05368
997.576	-5.26836
997.745	-5.26836
997.914	11.59093
998.083	49.5299
998.252	-38.98228
998.421	-13.69743
998.59	81.15143
998.759	24.2364
998.928	-3.16104
999.097	3.16109
999.266	26.34407
999.435	28.45175
999.604	62.17789
999.773	-1.05368
999.942	-55.83685
1000.111	81.15143
1000.28	70.61035
1000.448	26.34407
1000.617	62.17789
1000.786	-22.12611
1000.955	11.59093
1001.124	-5.26836
1001.292	146.51847
1001.461	28.45175
1001.63	91.69308
1001.798	13.69845
1001.967	60.06984
1002.136	-5.26836
1002.304	-38.98228
1002.473	64.28597
1002.642	-15.80464
1002.81	43.20621
1002.979	-11.5902
1003.147	-49.51657
1003.316	47.42198
1003.484	-79.00925
1003.653	-22.12611
1003.821	11.59093
1003.99	-20.01897
1004.158	49.5299
1004.327	11.59093
1004.495	5.26851
1004.663	47.42198
1004.832	41.09836
1005	53.7458
1005.168	-55.83685
1005.337	64.28597
1005.505	20.02115
1005.673	-104.28467
1005.842	3.16109
1006.01	7.37596
1006.178	32.66719
1006.346	38.99053
1006.514	-11.5902
1006.683	-38.98228
1006.851	11.59093
1007.019	-64.26353
1007.187	62.17789
1007.355	38.99053
1007.523	-22.12611
1007.691	38.99053
1007.859	32.66719
1008.027	-17.91182
1008.195	41.09836
1008.363	47.42198
1008.531	-1.05368
1008.699	-45.30293
1008.867	36.88273
1009.035	-17.91182
1009.203	-9.48295
1009.37	-13.69743
1009.538	-47.40976
1009.706	-62.1569
1009.874	38.99053
1010.042	55.85379
1010.209	-36.87534
1010.377	45.31408
1010.545	51.63784
1010.713	-53.73012
1010.88	-57.94356
1011.048	64.28597
1011.216	-3.16104
1011.383	-3.16104
1011.551	28.45175
1011.718	-41.08919
1011.886	91.69308
1012.054	1.05369
1012.221	45.31408
1012.389	79.04317
1012.556	53.7458
1012.724	-57.94356
1012.891	62.17789
1013.058	38.99053
1013.226	22.12877
1013.393	15.80599
1013.561	87.47635
1013.728	-30.55439
1013.895	20.02115
1014.063	-13.69743
1014.23	55.85379
1014.397	-97.96616
1014.565	-17.91182
1014.732	5.26851
1014.899	28.45175
1015.066	11.59093
1015.233	-30.55439
1015.401	-9.48295
1015.568	-28.44736
1015.735	-1.05368
1015.902	70.61035
1016.069	24.2364
1016.236	-30.55439
1016.403	3.16109
1016.57	7.37596
1016.737	-11.5902
1016.904	36.88273
1017.071	-13.69743
1017.238	13.69845
1017.405	3.16109
1017.572	5.26851
1017.739	45.31408
1017.906	-30.55439
1018.073	28.45175
1018.24	-60.05024
1018.407	-13.69743
1018.573	11.59093
1018.74	-70.58328
1018.907	22.12877
1019.074	32.66719
1019.241	57.9618
1019.407	-5.26836
1019.574	11.59093
1019.741	-1.05368
1019.907	-3.16104
1020.074	24.2364
1020.241	-36.87534
1020.407	13.69845
1020.574	-45.30293
1020.74	53.7458
1020.907	-22.12611
1021.073	-22.12611
1021.24	11.59093
1021.406	-9.48295
1021.573	-5.26836
1021.739	-55.83685
1021.906	-85.32845
1022.072	32.66719
1022.239	11.59093
1022.405	5.26851
1022.571	-17.91182
1022.738	-17.91182
1022.904	-5.26836
1023.07	15.80599
1023.237	-36.87534
1023.403	-30.55439
1023.569	1.05369
1023.735	-5.26836
1023.902	-45.30293
1024.068	-32.6614
1024.234	-20.01897
1024.4	-20.01897
1024.566	9.48343
1024.732	43.20621
1024.898	-5.26836
1025.065	-3.16104
1025.231	11.59093
1025.397	-1.05368
1025.563	17.91356
1025.729	24.2364
1025.895	-17.91182
1026.061	30.55946
1026.227	20.02115
1026.392	127.53879
1026.558	20.02115
1026.724	15.80599
1026.89	-62.1569
1027.056	-22.12611
1027.222	45.31408
1027.388	-30.55439
1027.553	45.31408
1027.719	-36.87534
1027.885	-30.55439
1028.051	-32.6614
1028.216	26.34407
1028.382	87.47635
1028.548	-34.76838
1028.713	-30.55439
1028.879	51.63784
1029.045	9.48343
1029.21	38.99053
1029.376	-26.3403
1029.541	3.16109
1029.707	-1.05368
1029.873	49.5299
1030.038	11.59093
1030.204	7.37596
1030.369	11.59093
1030.534	-26.3403
1030.7	-20.01897
1030.865	45.31408
1031.031	-28.44736
1031.196	-11.5902
1031.361	36.88273
1031.527	-22.12611
1031.692	-13.69743
1031.857	-5.26836
1032.023	-28.44736
1032.188	-13.69743
1032.353	-34.76838
1032.518	-5.26836
1032.684	55.85379
1032.849	30.55946
1033.014	15.80599
1033.179	-26.3403
1033.344	87.47635
1033.509	32.66719
1033.674	-38.98228
1033.839	-49.51657
1034.004	-55.83685
1034.17	-3.16104
1034.335	43.20621
1034.5	5.26851
1034.664	47.42198
1034.829	-13.69743
1034.994	-7.37567
1035.159	26.34407
1035.324	5.26851
1035.489	-7.37567
1035.654	-34.76838
1035.819	24.2364
1035.984	-76.90279
1036.148	57.9618
1036.313	-47.40976
1036.478	-38.98228
1036.643	24.2364
1036.807	-5.26836
1036.972	-26.3403
1037.137	-13.69743
1037.301	62.17789
1037.466	-1.05368
1037.631	30.55946
1037.795	36.88273
1037.96	5.26851
1038.124	30.55946
1038.289	-22.12611
1038.454	-15.80464
1038.618	-28.44736
1038.783	62.17789
1038.947	-26.3403
1039.111	22.12877
1039.276	-17.91182
1039.44	45.31408
1039.605	-22.12611
1039.769	83.25972
1039.933	-36.87534
1040.098	5.26851
1040.262	-38.98228
1040.426	22.12877
1040.591	-28.44736
1040.755	36.88273
1040.919	-3.16104
1041.083	-9.48295
1041.248	28.45175
1041.412	-17.91182
1041.576	79.04317
1041.74	-49.51657
1041.904	-22.12611
1042.068	-89.54113
1042.232	43.20621
1042.397	-30.55439
1042.561	72.71852
1042.725	-5.26836
1042.889	41.09836
1043.053	-30.55439
1043.217	-47.40976
1043.381	11.59093
1043.544	45.31408
1043.708	-13.69743
1043.872	11.59093
1044.036	-9.48295
1044.2	-34.76838
1044.364	9.48343
1044.528	11.59093
1044.691	68.5022
1044.855	-3.16104
1045.019	-9.48295
1045.183	-13.69743
1045.346	-43.19607
1045.51	-5.26836
1045.674	-62.1569
1045.837	-13.69743
1046.001	5.26851
1046.165	7.37596
1046.328	-22.12611
1046.492	-13.69743
1046.655	-9.48295
1046.819	3.16109
1046.983	-43.19607
1047.146	-13.69743
1047.31	-47.40976
1047.473	57.9618
1047.636	-30.55439
1047.8	20.02115
1047.963	-13.69743
1048.127	-38.98228
1048.29	-13.69743
