Data from mixed_try1_USB4F045381__36__00261.txt Node

Date: Thu Apr 03 20:27:16 EDT 2025
User: mmckonesweet
Spectrometer: USB4F04538
Trigger mode: 4
Integration Time (sec): 2.700000E-3
Scans to average: 1
Electric dark correction enabled: true
Nonlinearity correction enabled: true
Boxcar width: 0
XAxis mode: Wavelengths
Number of Pixels in Spectrum: 3648
>>>>>Begin Spectral Data<<<<<
345.52	-31.78348
345.736	-31.78348
345.952	-31.78348
346.168	-65.49239
346.384	-12.81942
346.6	-10.71218
346.816	12.46906
347.032	-65.49239
347.248	4.03918
347.464	-33.89048
347.68	-25.46235
347.896	-19.141
348.112	-2.28298
348.328	10.36155
348.544	29.32996
348.76	18.79172
348.975	82.02988
349.191	-2.28298
349.407	4.03918
349.623	65.16435
349.839	-90.7698
350.055	-99.19478
350.27	44.08449
350.486	-71.81209
350.702	-12.81942
350.918	-14.92664
351.133	-6.49763
351.349	10.36155
351.565	-27.56942
351.781	33.54542
351.996	46.19237
352.212	-0.17561
352.428	48.30027
352.644	-46.53192
352.859	-38.10439
353.075	8.25407
353.291	-10.71218
353.506	-35.99745
353.722	-54.95905
353.938	-31.78348
354.153	-65.49239
354.369	-80.238
354.584	-19.141
354.8	-116.04347
355.016	-40.21131
355.231	35.65319
355.447	39.86879
355.662	-29.67646
355.878	-4.39031
356.093	-31.78348
356.309	-78.13156
356.524	6.14661
356.74	23.00695
356.955	-4.39031
357.171	-8.60492
357.386	12.46906
357.602	-52.8523
357.817	-82.34441
358.033	39.86879
358.248	29.32996
358.464	-25.46235
358.679	-48.63874
358.895	-40.21131
359.11	-48.63874
359.325	41.97663
359.541	75.70514
359.756	-2.28298
359.972	-42.31821
360.187	-38.10439
360.402	-10.71218
360.618	-6.49763
360.833	4.03918
361.048	27.22227
361.264	-4.39031
361.479	16.68414
361.694	-4.39031
361.909	-44.42508
362.125	-59.17246
362.34	-23.35526
362.555	-2.28298
362.77	-6.49763
362.986	52.51615
363.201	-0.17561
363.416	-25.46235
363.631	-4.39031
363.847	12.46906
364.062	-73.91861
364.277	-27.56942
364.492	-14.92664
364.707	1.93177
364.922	-23.35526
365.138	27.22227
365.353	-6.49763
365.568	-54.95905
365.783	12.46906
365.998	-21.24814
366.213	-6.49763
366.428	10.36155
366.643	12.46906
366.858	44.08449
367.073	18.79172
367.288	-29.67646
367.503	-65.49239
367.718	35.65319
367.933	-17.03383
368.148	-40.21131
368.363	-73.91861
368.578	18.79172
368.793	-40.21131
369.008	-10.71218
369.223	1.93177
369.438	-6.49763
369.653	27.22227
369.868	-8.60492
370.083	-21.24814
370.298	-63.38577
370.513	-19.141
370.728	-14.92664
370.943	-80.238
371.157	-57.06577
371.372	27.22227
371.587	27.22227
371.802	35.65319
372.017	-35.99745
372.232	-35.99745
372.446	-14.92664
372.661	6.14661
372.876	-31.78348
373.091	-6.49763
373.306	-0.17561
373.52	48.30027
373.735	-10.71218
373.95	-12.81942
374.165	4.03918
374.379	52.51615
374.594	-4.39031
374.809	-21.24814
375.023	69.38059
375.238	-10.71218
375.453	-80.238
375.667	-25.46235
375.882	-23.35526
376.097	-0.17561
376.311	23.00695
376.526	35.65319
376.741	-27.56942
376.955	4.03918
377.17	-48.63874
377.384	-14.92664
377.599	29.32996
377.813	-23.35526
378.028	18.79172
378.242	44.08449
378.457	-6.49763
378.672	-12.81942
378.886	52.51615
379.101	44.08449
379.315	-31.78348
379.53	44.08449
379.744	-14.92664
379.958	-12.81942
380.173	-4.39031
380.387	-4.39031
380.602	6.14661
380.816	10.36155
381.031	-31.78348
381.245	71.48875
381.459	-17.03383
381.674	14.57659
381.888	18.79172
382.103	69.38059
382.317	10.36155
382.531	-14.92664
382.746	-82.34441
382.96	18.79172
383.174	12.46906
383.388	75.70514
383.603	50.4082
383.817	-12.81942
384.031	-25.46235
384.246	-99.19478
384.46	-46.53192
384.674	-33.89048
384.888	44.08449
385.103	-48.63874
385.317	31.43768
385.531	-50.74553
385.745	37.76098
385.959	31.43768
386.174	33.54542
386.388	69.38059
386.602	-10.71218
386.816	44.08449
387.03	39.86879
387.244	-6.49763
387.458	-6.49763
387.672	63.05626
387.887	37.76098
388.101	39.86879
388.315	10.36155
388.529	4.03918
388.743	39.86879
388.957	44.08449
389.171	20.89932
389.385	46.19237
389.599	37.76098
389.813	-8.60492
390.027	-4.39031
390.241	44.08449
390.455	-54.95905
390.669	-27.56942
390.883	-14.92664
391.097	52.51615
391.311	6.14661
391.525	27.22227
391.738	29.32996
391.952	-65.49239
392.166	-8.60492
392.38	69.38059
392.594	88.35483
392.808	-0.17561
393.022	-40.21131
393.236	-19.141
393.449	4.03918
393.663	1.93177
393.877	10.36155
394.091	-46.53192
394.305	37.76098
394.518	-46.53192
394.732	6.14661
394.946	18.79172
395.16	-23.35526
395.373	60.94819
395.587	-27.56942
395.801	23.00695
396.015	-48.63874
396.228	-38.10439
396.442	-27.56942
396.656	-6.49763
396.869	1.93177
397.083	-6.49763
397.297	-82.34441
397.51	14.57659
397.724	-6.49763
397.938	77.81336
398.151	18.79172
398.365	20.89932
398.578	-12.81942
398.792	10.36155
399.005	-6.49763
399.219	1.93177
399.433	23.00695
399.646	-14.92664
399.86	-4.39031
400.073	-12.81942
400.287	-103.40711
400.5	69.38059
400.714	16.68414
400.927	-19.141
401.141	6.14661
401.354	60.94819
401.567	-23.35526
401.781	52.51615
401.994	52.51615
402.208	-6.49763
402.421	1.93177
402.635	-33.89048
402.848	60.94819
403.061	29.32996
403.275	44.08449
403.488	10.36155
403.701	52.51615
403.915	-31.78348
404.128	-42.31821
404.341	35.65319
404.555	-2.28298
404.768	-14.92664
404.981	58.84015
405.195	10.36155
405.408	4.03918
405.621	-17.03383
405.834	-12.81942
406.048	27.22227
406.261	-54.95905
406.474	-44.42508
406.687	-27.56942
406.9	-0.17561
407.114	-6.49763
407.327	65.16435
407.54	1.93177
407.753	-14.92664
407.966	6.14661
408.179	101.00532
408.392	1.93177
408.605	12.46906
408.819	4.03918
409.032	27.22227
409.245	-10.71218
409.458	23.00695
409.671	-61.27913
409.884	23.00695
410.097	-19.141
410.31	54.62413
410.523	44.08449
410.736	23.00695
410.949	-6.49763
411.162	35.65319
411.375	1.93177
411.588	-44.42508
411.801	6.14661
412.014	50.4082
412.227	-40.21131
412.44	88.35483
412.653	14.57659
412.865	63.05626
413.078	-10.71218
413.291	-27.56942
413.504	-46.53192
413.717	18.79172
413.93	48.30027
414.143	-44.42508
414.356	10.36155
414.568	44.08449
414.781	31.43768
414.994	-57.06577
415.207	-4.39031
415.42	23.00695
415.632	-2.28298
415.845	18.79172
416.058	-82.34441
416.271	73.59693
416.483	52.51615
416.696	46.19237
416.909	-4.39031
417.121	54.62413
417.334	18.79172
417.547	-12.81942
417.759	56.73213
417.972	-6.49763
418.185	-61.27913
418.397	63.05626
418.61	1.93177
418.823	18.79172
419.035	-19.141
419.248	1.93177
419.46	18.79172
419.673	48.30027
419.885	44.08449
420.098	6.14661
420.311	-65.49239
420.523	-40.21131
420.736	14.57659
420.948	54.62413
421.161	-29.67646
421.373	-2.28298
421.586	-4.39031
421.798	25.11459
422.01	-2.28298
422.223	37.76098
422.435	27.22227
422.648	-23.35526
422.86	-27.56942
423.073	-31.78348
423.285	56.73213
423.497	18.79172
423.71	-52.8523
423.922	27.22227
424.134	52.51615
424.347	14.57659
424.559	29.32996
424.771	73.59693
424.984	-44.42508
425.196	71.48875
425.408	-44.42508
425.621	29.32996
425.833	-10.71218
426.045	-21.24814
426.257	-14.92664
426.47	44.08449
426.682	20.89932
426.894	-82.34441
427.106	77.81336
427.318	10.36155
427.531	-50.74553
427.743	-38.10439
427.955	88.35483
428.167	-8.60492
428.379	1.93177
428.591	35.65319
428.804	23.00695
429.016	-6.49763
429.228	6.14661
429.44	-27.56942
429.652	27.22227
429.864	60.94819
430.076	-63.38577
430.288	-65.49239
430.5	12.46906
430.712	20.89932
430.924	52.51615
431.136	50.4082
431.348	-97.08857
431.56	-65.49239
431.772	10.36155
431.984	25.11459
432.196	-12.81942
432.408	98.89685
432.62	25.11459
432.832	20.89932
433.044	6.14661
433.256	23.00695
433.468	27.22227
433.679	-19.141
433.891	67.27246
434.103	29.32996
434.315	35.65319
434.527	18.79172
434.739	-10.71218
434.95	14.57659
435.162	29.32996
435.374	18.79172
435.586	54.62413
435.798	-40.21131
436.009	56.73213
436.221	18.79172
436.433	-2.28298
436.645	4.03918
436.856	60.94819
437.068	41.97663
437.28	-10.71218
437.491	35.65319
437.703	18.79172
437.915	35.65319
438.126	-23.35526
438.338	39.86879
438.55	-6.49763
438.761	-0.17561
438.973	94.67998
439.184	6.14661
439.396	41.97663
439.608	90.46319
439.819	73.59693
440.031	37.76098
440.242	23.00695
440.454	20.89932
440.665	-27.56942
440.877	94.67998
441.088	37.76098
441.3	18.79172
441.511	-42.31821
441.723	-10.71218
441.934	31.43768
442.146	69.38059
442.357	23.00695
442.569	60.94819
442.78	-10.71218
442.991	50.4082
443.203	29.32996
443.414	77.81336
443.626	16.68414
443.837	-21.24814
444.048	71.48875
444.26	-19.141
444.471	29.32996
444.682	52.51615
444.894	46.19237
445.105	23.00695
445.316	-23.35526
445.528	94.67998
445.739	23.00695
445.95	63.05626
446.161	6.14661
446.373	10.36155
446.584	77.81336
446.795	44.08449
447.006	96.7884
447.217	58.84015
447.429	52.51615
447.64	27.22227
447.851	39.86879
448.062	18.79172
448.273	77.81336
448.484	82.02988
448.695	-19.141
448.907	107.33087
449.118	75.70514
449.329	71.48875
449.54	-71.81209
449.751	82.02988
449.962	31.43768
450.173	73.59693
450.384	27.22227
450.595	14.57659
450.806	18.79172
451.017	39.86879
451.228	-8.60492
451.439	44.08449
451.65	27.22227
451.861	37.76098
452.072	58.84015
452.283	75.70514
452.494	35.65319
452.705	73.59693
452.915	113.65661
453.126	48.30027
453.337	39.86879
453.548	107.33087
453.759	107.33087
453.97	103.11382
454.181	126.30869
454.391	65.16435
454.602	79.92161
454.813	130.52622
455.024	60.94819
455.235	56.73213
455.445	153.72418
455.656	84.13817
455.867	27.22227
456.078	29.32996
456.288	48.30027
456.499	119.98255
456.71	141.07043
456.921	115.76524
457.131	92.57157
457.342	86.24649
457.553	107.33087
457.763	88.35483
457.974	60.94819
458.184	69.38059
458.395	187.47118
458.606	136.85268
458.816	101.00532
459.027	103.11382
459.237	126.30869
459.448	132.63502
459.659	92.57157
459.869	88.35483
460.08	187.47118
460.29	107.33087
460.501	86.24649
460.711	141.07043
460.922	98.89685
461.132	20.89932
461.343	90.46319
461.553	96.7884
461.764	60.94819
461.974	90.46319
462.184	48.30027
462.395	217.0041
462.605	153.72418
462.816	119.98255
463.026	79.92161
463.236	103.11382
463.447	122.09124
463.657	132.63502
463.867	147.39721
464.078	208.56572
464.288	147.39721
464.498	206.45618
464.709	113.65661
464.919	170.59702
465.129	136.85268
465.339	157.94226
465.55	227.55252
465.76	219.11374
465.97	155.83321
466.18	187.47118
466.391	195.90876
466.601	233.8818
466.811	240.21127
467.021	187.47118
467.231	179.03394
467.441	191.68993
467.651	153.72418
467.862	170.59702
468.072	221.22341
468.282	282.41208
468.492	259.20069
468.702	314.06758
468.912	301.40489
469.122	358.39204
469.332	330.95217
469.542	307.73615
469.752	297.18413
469.962	341.50562
470.172	371.05758
470.382	305.62571
470.592	392.16815
470.802	392.16815
471.012	455.50964
471.222	415.39169
471.432	415.39169
471.642	461.84457
471.852	520.97704
472.062	436.5057
472.272	476.6266
472.482	499.85698
472.691	601.24592
472.901	533.64976
473.111	466.06793
473.321	624.48519
473.531	673.0812
473.741	508.30483
473.95	616.03437
474.16	580.12066
474.37	721.68333
474.58	628.71068
474.79	711.11715
474.999	723.7966
475.209	749.15665
475.419	791.42669
475.628	833.70058
475.838	875.97805
476.048	837.92817
476.258	897.11805
476.467	1000.71491
476.677	958.42842
476.886	1210.06564
477.096	933.05785
477.306	1015.5158
477.515	1009.17253
477.725	985.91434
477.935	1078.95145
478.144	1066.26392
478.354	1133.93281
478.563	1258.70837
478.773	1383.49304
478.982	1305.23751
479.192	1296.77759
479.401	1362.34271
479.611	1573.84674
479.82	1523.08617
480.03	1398.29832
480.239	1523.08617
480.449	1410.9886
480.658	1734.58094
480.868	1753.61414
481.077	1734.58094
481.287	1700.74347
481.496	1764.188
481.705	1785.33545
481.915	2108.82627
482.124	1897.40949
482.333	1922.78278
482.543	2022.15333
482.752	1956.61257
482.961	2081.34592
483.171	2100.37091
483.38	2106.71244
483.589	2203.94034
483.799	2176.46464
484.008	2334.95764
484.217	2313.82825
484.426	2368.76263
484.636	2353.97326
484.845	2476.49836
485.054	2351.86046
485.263	2567.31208
485.472	2385.66416
485.682	2613.76651
485.891	2503.9559
486.1	2734.0977
486.309	2812.18462
486.518	2841.72614
486.727	2810.07441
486.936	2892.36231
487.146	2955.64583
487.355	2947.2088
487.564	3069.5222
487.773	3115.90332
487.982	2860.71566
488.191	3061.08845
488.4	3187.56801
488.609	3193.89046
488.818	3099.03835
489.027	3286.60258
489.236	3092.71372
489.445	3549.80619
489.654	3410.86923
489.863	3526.65553
490.072	3412.97492
490.281	3575.05891
490.49	3644.49002
490.698	3642.38635
490.907	3602.413
491.116	3903.09424
491.325	3789.59712
491.534	3781.18763
491.743	3667.62916
491.952	3787.49477
492.16	3785.39241
492.369	4039.63334
492.578	3919.90368
492.787	4003.93144
492.996	4003.93144
493.204	4264.20697
493.413	4205.46336
493.622	4413.08846
493.831	4197.07006
494.039	4255.81605
494.248	4377.45072
494.457	4618.40563
494.665	4670.74827
494.874	4511.58339
495.083	4484.34497
495.291	4526.24868
495.5	4543.00769
495.709	4559.76528
495.917	4559.76528
496.126	4823.50815
496.335	4612.12357
496.543	4917.61482
496.752	4687.49495
496.96	4777.48363
497.169	4783.76035
497.377	5141.19251
497.586	4905.06994
497.794	5059.73224
498.003	4850.69927
498.211	5220.53005
498.42	5015.85442
498.628	5059.73224
498.837	5122.39712
499.045	5195.47973
499.254	5197.56738
499.462	5289.40111
499.671	5335.30099
499.879	5479.18607
500.087	5435.4068
500.296	5510.45063
500.504	5372.84701
500.713	5687.51629
500.921	5627.1248
501.129	5416.64108
501.338	5268.53378
501.546	5870.65174
501.754	5722.90898
501.962	5689.5984
502.171	5677.10538
502.379	5924.72497
502.587	5710.41822
502.795	5754.13215
503.004	5677.10538
503.212	6001.64785
503.42	5887.29136
503.628	6001.64785
503.837	5856.09084
504.045	6003.7264
504.253	5881.05168
504.461	6348.43977
504.669	6288.26533
504.877	6313.16748
505.085	6267.51096
505.294	6180.31705
505.502	6176.16392
505.71	6464.58317
505.918	6201.08126
506.126	6240.52679
506.334	6250.90579
506.542	6593.08554
506.75	6344.29044
506.958	6609.66001
507.166	6327.69218
507.374	6630.37603
507.582	6574.43749
507.79	6824.99432
507.998	6551.64289
508.206	6690.43946
508.414	6369.18502
508.622	6752.55371
508.83	6752.55371
509.037	6899.47555
509.245	6620.01831
509.453	7116.54525
509.661	6818.78622
509.869	7044.21621
510.077	6849.82467
510.285	6947.04539
510.492	6800.16069
510.7	7066.95115
510.908	6843.61739
511.116	6920.15956
511.324	7085.55044
511.531	6928.43253
511.739	7120.67751
511.947	7349.87907
512.155	7166.12651
512.362	7176.45433
512.57	6916.02294
512.778	7172.32327
512.985	7166.12651
513.193	7145.46921
513.401	7279.70206
513.608	7384.9581
513.816	7242.53924
514.024	7271.44427
514.231	7415.90495
514.439	7541.70527
514.646	7387.02137
514.854	7409.71597
515.061	7244.60402
515.269	7636.51824
515.477	7339.56051
515.684	7539.64362
515.892	7710.68832
516.099	7690.08827
516.307	7702.44855
516.514	7733.34594
516.722	7527.27324
516.929	7708.62841
517.136	7698.32854
517.344	7920.68932
517.551	7716.86792
517.759	7856.88837
517.966	8278.43556
518.173	7906.28439
518.381	7805.42149
518.588	7937.15087
518.796	8095.5265
519.003	7994.75596
519.21	8159.25429
519.418	8068.79619
519.625	8091.41436
519.832	8175.69705
520.039	7980.35619
520.247	8148.97691
520.454	8035.89267
520.661	8438.60987
520.868	8358.53748
521.076	8270.21829
521.283	8319.51718
521.49	8643.7911
521.697	8592.51347
521.904	8627.38353
522.112	8385.23154
522.319	8746.31157
522.526	8524.80903
522.733	8543.27592
522.94	8465.29416
523.147	8826.24571
523.354	8594.5648
523.561	8721.71086
523.768	8775.00906
523.975	8945.07141
524.183	8649.94364
524.39	9127.29192
524.597	8848.78626
524.804	8924.58851
525.011	8801.65354
525.218	8904.10382
525.425	8910.24942
525.632	9094.54333
525.838	9155.94334
526.045	9170.26779
526.252	9053.60137
526.459	9117.05846
526.666	9153.89692
526.873	9248.0146
527.08	9170.26779
527.287	9260.28818
527.494	9072.02611
527.701	9626.17908
527.907	9231.64887
528.114	9769.12702
528.321	9536.28715
528.528	9577.1509
528.735	9376.85739
528.941	9830.3676
529.148	9493.37338
529.355	9750.7522
529.562	9241.87758
529.768	9885.47263
529.975	9691.53605
530.182	9642.51981
530.388	9718.08281
530.595	9709.91485
530.802	9787.50061
531.008	10142.48938
531.215	9867.10548
531.422	10069.07914
531.628	10067.03971
531.835	10040.52578
532.042	9903.83857
532.248	10130.2556
532.455	10317.7859
532.661	10215.88159
532.868	10075.19736
533.074	10191.41951
533.281	10103.74735
533.487	10185.30368
533.694	10101.70816
533.9	10332.04982
534.107	10482.80047
534.313	10788.16399
534.52	10440.02712
534.726	10437.99015
534.933	10562.22178
535.139	10688.44219
535.345	10527.6046
535.552	10513.34941
535.758	10637.55256
535.965	10944.81274
536.171	10407.43407
536.377	10637.55256
536.584	10670.1228
536.79	10794.26848
536.996	10655.8737
537.203	10680.30036
537.409	10556.11313
537.615	10786.12914
537.821	10706.7606
538.028	11241.65379
538.234	10895.99448
538.44	11024.1286
538.646	10883.78889
538.853	10948.88064
539.059	10871.58288
539.265	11394.05377
539.471	10857.34201
539.677	11119.69213
539.883	11117.65911
540.09	11227.42688
540.296	11294.49222
540.502	11507.8095
540.708	11247.75089
540.914	11544.36748
541.12	11359.51472
541.326	11418.43255
541.532	11347.32378
541.738	11621.53552
541.944	11485.46701
542.15	11767.71283
542.356	11511.87165
542.562	11688.53918
542.768	11725.08252
542.974	12001.09832
543.18	11639.81022
543.386	11865.13928
543.592	11974.72105
543.798	11802.22028
544.004	11763.65296
544.21	11832.66597
544.415	11844.84371
544.621	12084.27944
544.827	11844.84371
545.033	12222.21008
545.239	12059.9351
545.445	12066.02129
545.651	11995.01138
545.856	12147.16388
546.062	11919.93315
546.268	12053.84884
546.474	11731.1728
546.679	12112.67976
546.885	11873.25727
547.091	12169.47597
547.297	12068.05
547.502	12441.20808
547.708	11956.45907
547.914	12307.38563
548.119	12380.38337
548.325	12364.16242
548.531	12285.07896
548.736	12416.87892
548.942	12327.66368
549.147	12724.98052
549.353	12577.02865
549.559	12528.37981
549.764	12445.26284
549.97	12534.46111
550.175	12605.40548
550.381	12777.66812
550.586	12418.90638
550.792	12806.03678
550.997	12575.00169
551.203	12727.00704
551.408	12587.16337
551.614	12870.87536
551.819	12828.32568
552.025	13089.66591
552.23	12872.90148
552.435	13020.79376
552.641	13140.30367
552.846	13065.35874
553.052	13010.66502
553.257	13016.74228
553.462	13018.76802
553.668	12980.27805
553.873	12889.11021
554.078	13273.9736
554.283	12931.65652
554.489	13330.67632
554.694	13194.98918
554.899	13322.57614
555.105	13180.81177
555.31	13478.49346
555.515	13207.14107
555.72	13448.12177
555.925	13440.02251
556.131	13342.82648
556.336	13423.82381
556.541	13867.18242
556.746	13636.41299
556.951	13508.8643
557.156	13308.40065
557.361	13816.57844
557.567	13802.409
557.772	13917.78466
557.977	13739.65689
558.182	13889.44761
558.387	13743.7055
558.592	13909.68841
558.797	13707.26754
559.002	13711.31625
559.207	13826.69938
559.412	13723.46231
559.617	13940.04911
559.822	13917.78466
560.027	13498.74078
560.232	14055.41455
560.437	13996.72086
560.642	13980.52913
560.847	13853.01348
561.051	13903.6162
561.256	14112.08246
561.461	14191.00991
561.666	13933.97702
561.871	14029.10384
562.076	13905.64028
562.281	14360.9974
562.485	13931.95298
562.69	14085.77258
562.895	13842.89273
563.1	14103.98716
563.305	13988.62502
563.509	14103.98716
563.714	13919.80871
563.919	14541.09062
564.123	14273.98161
564.328	14122.20155
564.533	14476.3393
564.737	14182.91493
564.942	14375.16246
565.147	14587.62984
565.351	14468.24529
565.556	14375.16246
565.761	14201.12858
565.965	14547.16099
566.17	14263.86328
566.374	14620.00458
566.579	14304.33632
566.784	14636.19185
566.988	14654.40244
567.193	14569.41891
567.397	14642.26206
567.602	14854.71429
567.806	14456.10423
568.011	14704.98702
568.215	14755.57102
568.42	14883.04065
568.624	15061.09008
568.828	14866.85417
569.033	14688.80002
569.237	14864.83086
569.442	14816.27118
569.646	14769.73445
569.85	14761.64107
570.055	14923.5067
570.259	14613.93434
570.463	15065.13663
570.668	14834.4811
570.872	15133.9279
571.076	15026.69437
571.281	15267.46384
571.485	14848.64434
571.689	15105.6021
571.893	15067.15991
572.098	15336.25534
572.302	15245.20782
572.506	14984.20544
572.71	15109.64865
572.914	15277.58022
573.119	15415.16369
573.323	14899.2271
573.527	15251.27764
573.731	15439.44331
573.935	15196.64929
574.139	15356.48819
574.343	14953.85612
574.547	15316.02251
574.751	15674.1509
574.955	15558.81927
575.159	15526.44592
575.364	15868.40053
575.568	15546.67924
575.772	15520.37593
575.976	15409.09379
576.18	15793.53232
576.383	15684.26784
576.587	15597.26286
576.791	15526.44592
576.995	15680.22106
577.199	15662.01061
577.403	15641.77685
577.607	15623.56653
577.811	15925.05863
578.015	15542.63257
578.219	15714.6188
578.422	15566.91264
578.626	15918.98807
578.83	15765.20421
579.034	16010.04771
579.238	15882.56496
579.442	16060.63762
579.645	16289.31635
579.849	16271.1022
580.053	16030.28356
580.257	15971.59997
580.46	16224.55559
580.664	15995.88269
580.868	16291.34015
581.071	16190.15216
581.275	16192.17588
581.479	16437.05895
581.682	16321.69742
581.886	16139.55976
582.09	15951.36452
582.293	16408.72395
582.497	16143.60712
582.7	16352.05511
582.904	16392.5327
583.107	16556.47516
583.311	16157.77291
583.515	16683.99574
583.718	16471.46626
583.922	16663.75378
584.125	16343.95968
584.329	16481.58618
584.532	16198.24704
584.735	16619.22226
584.939	16368.24605
585.142	16627.31882
585.346	16683.99574
585.549	16655.65706
585.753	16744.72303
585.956	16556.47516
586.159	16706.26217
586.363	16985.62985
586.566	16706.26217
586.769	16779.13612
586.973	16475.51422
587.176	16586.8364
587.379	16939.0652
587.582	17194.17623
587.786	16963.35963
587.989	16827.72051
588.192	16870.23302
588.395	17052.44249
588.599	17056.49183
588.802	17414.9043
589.005	17180.00223
589.208	17659.97584
589.411	17315.67351
589.615	17368.32567
589.818	17329.84889
590.021	17279.22321
590.224	17163.80354
590.427	17149.62984
590.63	17218.47484
590.833	17252.89859
591.036	17263.02339
591.239	17641.74575
591.442	17109.13433
591.645	17313.64847
591.848	17339.97426
592.051	17811.90377
592.254	17568.82805
592.457	17609.33736
592.66	17805.82629
592.863	17783.54245
593.066	17621.49041
593.269	17518.19321
593.472	17457.43404
593.675	17518.19321
593.878	17258.97346
594.081	17937.51202
594.284	17730.87319
594.486	17896.99177
594.689	17836.21401
594.892	17783.54245
595.095	17965.87703
595.298	17846.34342
595.5	17992.21658
595.703	18217.14057
595.906	17992.21658
596.109	18095.5545
596.311	18042.87126
596.514	18063.13376
596.717	17931.43389
596.92	18318.47243
597.122	18016.53055
597.325	18158.37233
597.528	17870.65436
597.73	18239.43278
597.933	18200.92833
598.136	18395.4909
598.338	18304.28541
598.541	18354.95418
598.743	18063.13376
598.946	18073.26514
599.148	18567.78895
599.351	18456.29882
599.554	18304.28541
599.756	18462.3798
599.959	18304.28541
600.161	18762.41807
600.363	18738.08745
600.566	18450.21787
600.768	18640.77064
600.971	18843.52426
601.173	18456.29882
601.376	18624.55205
601.578	18506.97471
601.78	18882.05193
601.983	18928.69262
602.185	18683.34563
602.388	18365.08822
602.59	18502.92055
602.792	18237.4062
602.995	18729.97737
603.197	18636.71597
603.399	18800.94271
603.601	18934.77635
603.804	18815.13637
604.006	18732.00488
604.208	18630.63399
604.41	18703.62004
604.613	18650.90739
604.815	18484.67702
605.017	18880.02412
605.219	18612.38827
605.421	18474.54186
605.623	18592.11562
605.826	19074.71206
606.028	19044.28961
606.23	19107.16368
606.432	18981.41945
606.634	19086.88129
606.836	18809.05335
607.038	19241.03765
607.24	18957.08365
607.442	19216.6956
607.644	19352.61296
607.846	19017.92423
608.048	18723.89485
608.25	18778.6388
608.452	18948.97185
608.654	19573.77195
608.856	19044.28961
609.058	19228.86655
609.26	19082.82486
609.462	19086.88129
609.664	18965.19552
609.866	18892.19103
610.067	18912.46953
610.269	18967.2235
610.471	18843.52426
610.673	19303.92402
610.875	19155.84306
611.077	19352.61296
611.278	19131.50307
611.48	19275.52323
611.682	19204.5248
611.884	18997.64363
612.085	19084.85308
612.287	19131.50307
612.489	18959.11161
612.69	19070.65568
612.892	18896.2467
613.094	19429.70866
613.295	19226.83805
613.497	19295.80942
613.699	19007.78388
613.9	19137.58801
614.102	19312.03868
614.304	19261.32314
614.505	19330.2969
614.707	19571.74275
614.908	19214.66712
615.11	19555.50925
615.311	19468.25875
615.513	19312.03868
615.714	19285.66628
615.916	19245.09471
616.117	18910.44166
616.319	19222.78106
616.52	19068.6275
616.722	19334.35433
616.923	19431.73757
617.124	18829.33021
617.326	19076.74025
617.527	19622.47416
617.729	19316.09603
617.93	19807.15857
618.131	19673.20818
618.333	19518.98485
618.534	19760.47682
618.735	19703.64985
618.937	19415.50637
619.138	19618.41555
619.339	19464.20078
619.54	19803.0992
619.742	19466.22976
619.943	19413.47749
620.144	19480.43278
620.345	19563.62596
620.546	19307.98134
620.748	19561.59678
620.949	19172.07004
621.15	19592.035
621.351	19123.38987
621.552	19257.26601
621.753	19533.18862
621.954	19490.57791
622.155	19151.78635
622.356	19318.12471
622.558	19236.9806
622.759	19385.07358
622.96	19210.61018
623.161	19287.6949
623.362	19360.72801
623.563	19366.81435
623.764	19859.93193
623.965	19803.0992
624.166	19790.92119
624.366	19474.34575
624.567	19470.28775
624.768	19590.00575
624.969	19539.27601
625.17	19756.41764
625.371	20008.11846
625.572	19190.32571
625.773	19316.09603
625.973	19535.21775
626.174	19766.56562
626.375	19900.52875
626.576	19543.3343
626.777	19677.26701
626.977	19618.41555
627.178	19819.33679
627.379	19403.33314
627.58	19409.41974
627.78	19486.51985
627.981	19616.38625
628.182	19464.20078
628.382	19945.18719
628.583	19762.50641
628.784	19768.59523
628.984	19291.75215
629.185	19624.50347
629.386	19439.85327
629.586	20109.62901
629.787	19829.48542
629.987	19746.26977
630.188	19872.1108
630.388	19922.85772
630.589	19928.94752
630.79	19900.52875
630.99	19594.06425
631.191	19620.44485
631.391	19701.62037
631.591	19780.77296
631.792	19638.70876
631.992	19888.34953
632.193	19587.97652
632.393	20073.084
632.594	19813.24766
632.794	19831.51515
632.994	19983.75749
633.195	20107.59869
633.395	19675.2376
633.595	19807.15857
633.796	19967.51718
633.996	20247.70024
634.196	19868.05116
634.397	20308.62019
634.597	19803.0992
634.797	20133.99311
634.997	19685.38473
635.198	19823.39623
635.398	19961.42713
635.598	20243.63904
635.798	20050.75161
635.998	20136.02348
636.199	19805.12889
636.399	19981.72743
636.599	20111.65933
636.799	19941.12725
636.999	20083.23525
637.199	20087.29578
637.399	19961.42713
637.599	20170.54039
637.799	19746.26977
637.999	20083.23525
638.199	20154.29698
638.399	20194.906
638.599	19965.48716
638.799	20081.20499
638.999	20180.69265
639.199	20424.37852
639.399	20194.906
639.599	20627.49618
639.799	19975.6373
639.999	20296.4359
640.199	19831.51515
640.399	20296.4359
640.599	19610.29838
640.799	20353.29723
640.998	20213.18061
641.198	20525.93213
641.398	20462.96766
641.598	20558.43149
641.798	20473.12295
641.997	20168.50995
642.197	20111.65933
642.397	20296.4359
642.597	20345.17398
642.796	20221.30276
642.996	20576.71285
643.196	20495.46495
643.395	20704.69184
643.595	20592.96323
643.795	20495.46495
643.994	20619.37068
644.194	20800.17897
644.394	20830.65552
644.593	20651.87311
644.793	20812.36948
644.992	20383.76001
645.192	20657.96743
645.392	20832.68732
645.591	20936.31474
645.791	20481.24725
645.99	20373.60565
646.19	20383.76001
646.389	20572.6503
646.589	20460.93661
646.788	20812.36948
646.987	20422.34756
647.187	20418.28564
647.386	20133.99311
647.586	20458.90557
647.785	20320.80464
647.984	20686.40811
648.184	20623.43342
648.383	20824.56014
648.582	20765.64002
648.782	21153.76385
648.981	20672.18767
649.18	20643.7474
649.38	20562.49399
649.579	21015.56646
649.778	20655.93599
649.977	20790.02033
650.177	20424.37852
650.376	20857.06928
650.575	20617.33931
650.774	20694.53417
650.973	20655.93599
651.173	20519.83862
651.372	20615.30795
651.571	20954.60305
651.77	20637.65316
651.969	20558.43149
652.168	20499.52718
652.367	21119.21273
652.566	20647.81025
652.765	21086.69511
652.964	20911.93085
653.163	20875.35614
653.362	20507.65171
653.561	20653.90455
653.76	20759.54503
653.959	20783.9252
654.158	20926.15472
654.357	20475.15402
654.556	20400.00722
654.755	21017.59864
654.954	20999.30919
655.153	21210.67412
655.352	21336.70103
655.551	21003.37348
655.749	21226.93479
655.948	21320.43862
656.147	21196.44626
656.346	21098.8891
656.545	21031.824
656.743	21291.98003
656.942	21363.12799
657.141	21243.19571
657.34	20737.19707
657.538	20853.00558
657.737	20881.45183
657.936	21239.13046
658.135	20897.70719
658.333	21352.96369
658.532	21592.86765
658.731	21385.48979
658.929	21151.73139
659.128	21137.50435
659.326	20930.21871
659.525	21668.10313
659.724	21202.54389
659.922	21460.71031
660.121	20970.8596
660.319	20775.79841
660.518	20974.92377
660.716	21367.19373
660.915	21277.75103
661.113	21359.06226
661.312	20830.65552
661.51	21165.95864
661.709	21050.11404
661.907	21285.88186
662.105	20944.44284
662.304	20899.73913
662.502	20810.33772
662.701	21224.90219
662.899	20934.28273
663.097	20905.83498
663.296	21332.6354
663.494	21371.2595
663.692	21192.38119
663.891	21300.11098
664.089	21115.14797
664.287	21334.66821
664.485	21432.24785
664.684	21853.16444
664.882	21141.5692
665.08	21151.73139
665.278	21369.22661
665.476	21487.14044
665.675	21450.54506
665.873	21320.43862
666.071	21611.16768
666.269	21348.898
666.467	20865.19673
666.665	21192.38119
666.863	21096.85676
667.061	21176.12108
667.259	21363.12799
667.457	21188.31614
667.655	21157.82876
667.853	21163.92616
668.051	20676.25063
668.249	20968.82751
668.447	20940.37878
668.645	21100.92144
668.843	21086.69511
669.041	21344.83233
669.239	21027.75959
669.437	21080.59817
669.635	21448.51202
669.833	21228.96739
670.031	21165.95864
670.229	20970.8596
670.426	20974.92377
670.624	20930.21871
670.822	20800.17897
671.02	21271.65295
671.218	21369.22661
671.415	21241.16308
671.613	21113.1156
671.811	20804.24246
672.009	21041.98509
672.206	21035.88842
672.404	20747.35517
672.602	20594.99455
672.799	21100.92144
672.997	20974.92377
673.195	20562.49399
673.392	20909.89889
673.59	21044.01732
673.788	20820.49657
673.985	20907.86693
674.183	20806.27421
674.38	21190.34866
674.578	21235.06522
674.775	20950.53895
674.973	20310.65092
675.17	20617.33931
675.368	20920.05875
675.565	20690.47113
675.763	20649.84168
675.96	20676.25063
676.158	20487.34052
676.355	20560.46274
676.553	21332.6354
676.75	20722.9759
676.947	20964.76336
677.145	20668.12473
677.342	20970.8596
677.539	20865.19673
677.737	21019.63082
677.934	20769.70336
678.131	20274.09842
678.329	20422.34756
678.526	20625.4648
678.723	21056.21079
678.92	20915.99479
679.118	20775.79841
679.315	20725.00748
679.512	20824.56014
679.709	20968.82751
679.906	20450.78145
680.104	20509.68285
680.301	20385.7909
680.498	20164.44908
680.695	20010.14856
680.892	20586.86931
681.089	20542.18167
681.286	20737.19707
681.483	20542.18167
681.68	20700.62876
681.877	20448.75043
682.075	20550.30655
682.272	20211.15008
682.469	20631.55896
682.665	20464.99871
682.862	20282.22108
683.059	20042.63086
683.256	20475.15402
683.453	20529.99449
683.65	19792.95085
683.847	20503.58944
684.044	20229.42499
684.241	20016.23891
684.438	20623.43342
684.635	20119.78064
684.831	20355.32805
685.028	19943.15722
685.225	20020.29917
685.422	19957.36712
685.619	20357.35888
685.815	20211.15008
686.012	20213.18061
686.209	19943.15722
686.405	20158.35781
686.602	20113.68965
686.799	20101.50778
686.996	19930.97747
687.192	19516.95575
687.389	19504.78128
687.586	19900.52875
687.782	20048.72141
687.979	20365.48223
688.175	19829.48542
688.372	20324.86615
688.568	20276.12908
688.765	19894.43912
688.962	19815.27737
689.158	19939.09729
689.355	20064.96307
689.551	20300.49731
689.748	19604.21055
689.944	20133.99311
690.14	20168.50995
690.337	19845.72344
690.533	19663.06117
690.73	19305.95268
690.926	19896.46899
691.123	19937.06733
691.319	20209.11955
691.515	20089.32606
691.712	19801.06952
691.908	19918.79787
692.104	19823.39623
692.301	19878.20029
692.497	19711.76779
692.693	19518.98485
692.889	19606.23982
693.086	19618.41555
693.282	19681.32587
693.478	19628.5621
693.674	19565.65515
693.87	19774.68407
694.067	19553.48008
694.263	19872.1108
694.459	19709.7383
694.655	20006.08835
694.851	19774.68407
695.047	20028.41972
695.243	19612.32767
695.439	19654.94363
695.635	19754.38806
695.831	19445.94009
696.027	19314.06735
696.224	19480.43278
696.42	19241.03765
696.615	19533.18862
696.811	19401.30428
697.007	19626.53278
697.203	19492.60695
697.399	19604.21055
697.595	19512.89758
697.791	19545.36345
697.987	19322.18209
698.183	19587.97652
698.379	19413.47749
698.575	19632.62075
698.77	19208.58171
698.966	19334.35433
699.162	19040.23335
699.358	19192.35414
699.554	19042.26148
699.749	19411.44861
699.945	19194.38257
700.141	19654.94363
700.337	19314.06735
700.532	19539.27601
700.728	19320.1534
700.924	19305.95268
701.119	19048.34589
701.315	19109.19194
701.511	18987.50349
701.706	19675.2376
701.902	19163.95652
702.097	19563.62596
702.293	19409.41974
702.489	19498.6941
702.684	19220.75257
702.88	19157.87142
703.075	19243.06618
703.271	18957.08365
703.466	18914.4974
703.662	18829.33021
703.857	19040.23335
704.053	19078.76845
704.248	18924.63683
704.443	19121.36159
704.639	19151.78635
704.834	18882.05193
705.03	18719.83986
705.225	18734.0324
705.42	19107.16368
705.616	19336.38305
705.811	18971.27946
706.006	19068.6275
706.202	19090.93774
706.397	18963.16755
706.592	19131.50307
706.787	19263.35171
706.983	18942.88804
707.178	19305.95268
707.373	18995.6156
707.568	18841.49652
707.763	18425.89443
707.959	18711.72992
708.154	18484.67702
708.349	18685.37305
708.544	18606.30643
708.739	19052.40217
708.934	18845.55199
709.129	18774.58359
709.324	18742.14251
709.519	19125.41817
709.714	18575.89778
709.909	18652.93475
710.104	18762.41807
710.299	18776.61119
710.494	18673.20857
710.689	18721.86735
710.884	18671.18117
711.079	18506.97471
711.274	18565.76175
711.469	18792.83214
711.664	18525.21861
711.859	18596.17012
712.054	18579.95221
712.249	18506.97471
712.443	18229.2999
712.638	18071.23886
712.833	18166.47811
713.028	18577.92499
713.223	18391.43716
713.417	18389.4103
713.612	18192.8223
713.807	18705.64751
714.002	18340.76669
714.196	18200.92833
714.391	18061.10749
714.586	18371.16869
714.78	18300.23201
714.975	18460.3528
715.17	18383.32973
715.364	18336.71316
715.559	18174.58395
715.754	18290.09857
715.948	18024.63532
716.143	18377.24919
716.337	17850.39521
716.532	18075.29143
716.726	18466.4338
716.921	18176.61042
717.115	18385.35658
717.31	18231.32647
717.504	17609.33736
717.699	17860.52474
717.893	17627.56698
718.088	18101.63349
718.282	17862.55066
718.476	17609.33736
718.671	17506.04115
718.865	17799.74884
719.059	17830.1364
719.254	18018.55674
719.448	17678.2062
719.642	17949.66837
719.837	17779.49089
720.031	18115.81793
720.225	17542.49768
720.419	18022.60912
720.614	17738.97601
720.808	18069.21258
721.002	17528.32002
721.196	17793.67142
721.39	17593.13348
721.585	17580.9807
721.779	17882.81002
721.973	17986.13817
722.167	17785.56824
722.361	17971.95533
722.555	17919.27774
722.749	17402.7532
722.943	17376.42619
723.137	17712.64205
723.331	17639.7202
723.525	18044.89749
723.719	17265.04835
723.913	17495.91452
724.107	17680.23181
724.301	17700.48811
724.495	17447.30779
724.689	17544.52308
724.883	17275.17324
725.077	17601.23539
725.271	17499.96516
725.465	17465.5351
725.659	16910.72218
725.853	17366.30055
726.046	17275.17324
726.24	17208.35037
726.434	17171.90286
726.628	17493.8892
726.822	17372.37592
727.015	17583.00616
727.209	17090.91171
727.403	17451.35828
727.596	17275.17324
727.79	17121.28287
727.984	17485.78797
728.177	17850.39521
728.371	17487.81327
728.565	17664.02701
728.758	17242.77387
728.952	17252.89859
729.146	17076.73872
729.339	17366.30055
729.533	17048.39315
729.726	17279.22321
729.92	17064.59056
730.113	17568.82805
730.307	17358.2001
730.5	17204.3006
730.694	16973.48242
730.887	16935.01616
731.081	16983.60527
731.274	17380.47646
731.468	16886.42856
731.661	16967.40874
731.854	16870.23302
732.048	17121.28287
732.241	17145.58024
732.435	17329.84889
732.628	17240.74893
732.821	17040.29451
733.014	17133.4315
733.208	16957.28598
733.401	17009.92502
733.594	17121.28287
733.788	17368.32567
733.981	17400.72802
734.174	17311.62343
734.367	17471.61093
734.56	17408.82873
734.754	17465.5351
734.947	17216.44994
735.14	17052.44249
735.333	16872.25746
735.526	17111.15908
735.719	16945.13877
735.912	16588.8605
736.105	17129.38195
736.298	16959.31053
736.491	17018.02349
736.684	17050.41782
736.877	16771.03886
737.07	16841.89122
737.263	16807.47684
737.456	16937.04068
737.649	17062.56587
737.842	17429.08073
738.035	17309.5984
738.228	17088.88699
738.421	16922.86912
738.614	17210.37525
738.807	17001.82659
739	17038.26986
739.192	16750.79588
739.385	16817.59864
739.578	16647.56037
739.771	16613.14987
739.964	16408.72395
740.156	16615.174
740.349	16398.6044
740.542	16594.93281
740.735	16601.00514
740.927	16524.09038
741.12	16505.87418
741.313	16305.50682
741.505	16607.0775
741.698	16348.00739
741.891	16524.09038
742.083	16400.62831
742.276	16773.06317
742.468	16576.71593
742.661	16546.35486
742.854	16493.73014
743.046	16392.5327
743.239	16443.13078
743.431	16459.32244
743.624	16204.31822
743.816	16234.67434
744.009	16382.41323
744.201	16386.46101
744.393	16345.98354
744.586	16513.97025
744.778	16708.2864
744.971	16362.17443
745.163	16175.98619
745.355	16097.06293
745.548	16252.8882
745.74	16445.15473
745.932	16505.87418
746.125	16542.30675
746.317	16410.74786
746.509	16528.13844
746.702	16696.14103
746.894	16522.06635
747.086	16560.5233
747.278	16184.08102
747.471	16394.5566
747.663	16400.62831
747.855	16400.62831
748.047	16339.91198
748.239	16271.1022
748.431	16350.03125
748.623	16012.07129
748.815	15939.22331
749.008	16453.25055
749.2	16447.17869
749.392	16736.62594
749.584	16303.48301
749.776	16337.88813
749.968	16133.48875
750.16	16086.94474
750.352	16076.82659
750.544	16052.54317
750.736	15943.27038
750.928	16188.12844
751.12	16220.5081
751.311	16003.97698
751.503	16066.70847
751.695	16086.94474
751.887	15931.1292
752.079	15945.29391
752.271	15744.96997
752.463	16327.76892
752.654	15933.15273
752.846	16052.54317
753.038	15823.88411
753.23	16117.29943
753.421	16202.29449
753.613	15817.81373
753.805	15850.1892
753.997	15817.81373
754.188	15975.64708
754.38	15821.86065
754.572	15951.36452
754.763	15864.35355
754.955	15655.94047
755.146	15716.6422
755.338	15611.42636
755.53	15350.41833
755.721	15759.13393
755.913	15759.13393
756.104	15639.75347
756.296	15749.01681
756.487	15809.71991
756.679	15825.90757
756.87	15287.69661
757.062	15152.13734
757.253	15425.28019
757.445	15483.95614
757.636	15146.06753
757.827	15392.90743
758.019	15318.04579
758.21	15417.18699
758.401	15293.76644
758.593	15405.0472
758.784	14913.39021
758.975	14947.78624
759.167	15000.39172
759.358	15336.25534
759.549	15403.0239
759.74	15336.25534
759.932	14953.85612
760.123	15012.53141
760.314	15107.62538
760.505	15030.74093
760.696	15002.415
760.888	15259.37074
761.079	15008.48485
761.27	15099.53229
761.461	14549.18444
761.652	14787.94452
761.843	14816.27118
762.034	15067.15991
762.225	14474.3158
762.416	14846.62102
762.607	14854.71429
762.798	14828.41113
762.989	15097.50901
763.18	14858.76092
763.371	14581.55954
763.562	14532.99678
763.753	14551.2079
763.944	14834.4811
764.135	14848.64434
764.326	14816.27118
764.517	14496.57423
764.708	14520.85598
764.899	14209.22349
765.089	14630.12163
765.28	14468.24529
765.471	14822.34116
765.662	14755.57102
765.853	14974.08901
766.043	14620.00458
766.234	14834.4811
766.425	14170.77241
766.615	14221.36579
766.806	14037.19949
766.997	14324.57257
767.187	14312.43084
767.378	14352.90304
767.569	14114.10628
767.759	14450.03368
767.95	14215.29465
768.141	14358.97381
768.331	14120.17774
768.522	14004.81666
768.712	14122.20155
768.903	13925.88086
769.093	13814.55424
769.284	13844.91689
769.474	13806.45743
769.665	13666.77972
769.855	13695.12133
770.046	14063.51008
770.236	13658.68199
770.426	13585.80009
770.617	13786.21518
770.807	13577.70183
770.998	13332.70136
771.188	13774.0697
771.378	13486.59243
771.569	13541.25895
771.759	13075.48681
771.949	13401.55018
772.139	13567.57892
772.33	13300.30028
772.52	13846.94104
772.71	13666.77972
772.9	13514.93836
773.09	13749.77839
773.281	13395.47547
773.471	13666.77972
773.661	13573.65268
773.851	13622.24159
774.041	13537.20967
774.231	13537.20967
774.421	13067.38436
774.611	13047.12789
774.802	12962.04532
774.992	13081.5636
775.182	13375.22618
775.372	13334.72639
775.562	13446.09696
775.752	13444.07215
775.942	12962.04532
776.131	13059.28183
776.321	12911.39666
776.511	12832.37813
776.701	13107.89584
776.891	13184.86248
777.081	13028.89666
777.271	12968.12294
777.461	13059.28183
777.651	12941.78625
777.84	12935.70842
778.03	13259.7974
778.22	13059.28183
778.41	12889.11021
778.599	12591.21722
778.789	12745.24544
778.979	12581.08256
779.169	12947.86402
779.358	12836.43057
779.548	12749.29836
779.738	12619.59345
779.927	12810.08936
780.117	12688.50219
780.307	12424.98874
780.496	12558.78576
780.686	12635.80789
780.875	12585.13644
781.065	12668.23563
781.254	12262.77144
781.444	12497.97243
781.633	12510.13555
781.823	12528.37981
782.012	12548.6506
782.202	12647.96848
782.391	12437.15328
782.581	12386.46611
782.77	12270.88336
782.96	12617.56661
783.149	12252.63137
783.338	12159.33422
783.528	12368.2177
783.717	12313.46911
783.906	12019.35872
784.096	12173.53262
784.285	12100.50838
784.474	12246.54724
784.663	12059.9351
784.853	12149.19228
785.042	11887.46344
785.231	11901.6692
785.42	11999.06935
785.61	12201.92832
785.799	11716.96203
785.988	12082.25078
786.177	11418.43255
786.366	11668.23607
786.555	11706.81121
786.744	11574.83015
786.933	11593.10674
787.122	11881.37513
787.312	11554.52194
787.501	11779.89221
787.69	11217.26448
787.879	11923.99172
788.068	11296.52433
788.257	11507.8095
788.445	11184.74306
788.634	11627.62717
788.823	11627.62717
789.012	11436.71572
789.201	11542.33656
789.39	11444.84132
789.579	11461.09206
789.768	11690.56944
789.957	11477.34218
790.145	11629.6577
790.334	11491.56053
790.523	11690.56944
790.712	11436.71572
790.9	11595.13743
791.089	11461.09206
791.278	11615.44379
791.467	11221.32947
791.655	11261.97709
791.844	11052.59685
792.033	11182.71038
792.221	10869.5485
792.41	11064.79687
792.599	10942.77878
792.787	11444.84132
792.976	11266.04162
793.164	11249.78324
793.353	11337.1644
793.541	11540.30564
793.73	11298.55643
793.918	11089.19573
794.107	11079.02973
794.295	10944.81274
794.484	10926.50666
794.672	10871.58288
794.861	11013.96085
795.049	11142.05461
795.238	10771.88483
795.426	11022.09507
795.614	10468.54332
795.803	10775.95469
795.991	10928.54072
796.179	10906.16549
796.368	10822.75469
796.556	10600.90727
796.744	10490.94714
796.932	10700.65457
797.121	10403.35971
797.309	10525.56818
797.497	10623.30209
797.685	10820.72004
797.874	10867.51412
798.062	10611.08692
798.25	10405.3969
798.438	10558.14936
798.626	10525.56818
798.814	10596.83533
799.002	10336.12511
799.19	10492.98377
799.378	10543.89549
799.566	10413.54552
799.755	10413.54552
799.943	10621.26626
800.131	10476.69034
800.318	10446.13795
800.506	10107.8257
800.694	10348.35065
800.882	10336.12511
801.07	10323.89909
801.258	10181.22639
801.446	10609.05102
801.634	10054.80281
801.822	10268.87604
802.01	10160.83911
802.197	10142.48938
802.385	10252.57104
802.573	10197.53521
802.761	10277.02822
802.949	10476.69034
803.136	10346.31309
803.324	10564.25797
803.512	10274.9902
803.699	10592.76333
803.887	10321.86137
804.075	10395.21082
804.262	10142.48938
804.45	10340.20034
804.638	10034.40684
804.825	10270.91411
805.013	9985.45068
805.201	10158.80031
805.388	10050.72373
805.576	10207.72778
805.763	10332.04982
805.951	10405.3969
806.138	10525.56818
806.326	10590.72731
806.513	10421.69394
806.701	10550.00436
806.888	10429.84215
807.075	10653.83807
807.263	10501.13018
807.45	10672.15834
807.638	10421.69394
807.825	10586.65524
808.012	10360.57571
808.2	10344.27552
808.387	10199.57375
808.574	10193.45809
808.761	10336.12511
808.949	10488.91049
809.136	10115.98222
809.323	10460.39609
809.51	10197.53521
809.698	10759.67497
809.885	10411.50839
810.072	10619.23042
810.259	10260.72365
810.446	10340.20034
810.633	10228.1119
810.82	10362.61318
811.008	10295.36984
811.195	10788.16399
811.382	10537.7865
811.569	10570.36646
811.756	10395.21082
811.943	10525.56818
812.13	10307.59698
812.317	10417.61976
812.504	10564.25797
812.691	10621.26626
812.878	10537.7865
813.064	10716.93707
813.251	10714.9018
813.438	10751.53482
813.625	10376.87506
813.812	10588.69129
813.999	10466.50653
814.186	10391.1363
814.372	10403.35971
814.559	10421.69394
814.746	10065.00026
814.933	10209.76626
815.12	10211.80472
815.306	10262.76177
815.493	10205.6893
815.68	10391.1363
815.866	10285.18019
816.053	10378.91242
816.24	10215.88159
816.426	10623.30209
816.613	10199.57375
816.799	10718.97233
816.986	10058.88183
817.173	10185.30368
817.359	10058.88183
817.546	10136.37255
817.732	9869.14634
817.919	10389.09902
818.105	9875.26881
818.292	9809.95557
818.478	9850.77813
818.665	9932.40546
818.851	9854.86006
819.037	9934.44584
819.224	10011.96962
819.41	10146.5672
819.597	9856.901
819.783	10075.19736
819.969	9985.45068
820.156	10062.9608
820.342	10195.49666
820.528	10152.68381
820.714	9683.3673
820.901	10038.48615
821.087	10046.64459
821.273	10309.63479
821.459	10054.80281
821.646	10062.9608
821.832	10152.68381
822.018	10120.0604
822.204	9573.06481
822.39	9838.53199
822.576	9699.70456
822.762	9807.91429
822.948	9395.25816
823.134	10018.08904
823.32	9601.66612
823.507	9912.00083
823.693	9444.32043
823.879	9703.78872
824.065	9581.23692
824.25	9805.87299
824.436	9609.83736
824.622	9865.06462
824.808	9472.93578
824.994	9568.97865
825.18	9209.14424
825.366	9405.48024
825.552	9284.83355
825.738	9499.50435
825.923	9483.15478
826.109	9593.49463
826.295	9622.09375
826.481	9538.33049
826.667	9577.1509
826.852	9754.8356
827.038	9728.29241
827.224	9765.04383
827.409	9280.74282
827.595	9605.75177
827.781	9532.20043
827.966	9691.53605
828.152	9297.10533
828.338	9385.03568
828.523	9100.68402
828.709	9401.39146
828.894	9176.40658
829.08	9203.00626
829.266	9012.65245
829.451	8949.16778
829.637	8975.79244
829.822	9037.22264
830.008	8818.04861
830.193	9043.36479
830.378	8742.21163
830.564	9078.16737
830.749	8842.63905
830.935	9094.54333
831.12	9180.49903
831.305	9254.15147
831.491	9053.60137
831.676	9176.40658
831.861	8693.00669
832.047	9213.23615
832.232	9053.60137
832.417	9143.66457
832.602	8949.16778
832.788	9065.88468
832.973	8945.07141
833.158	8961.45645
833.343	8932.78188
833.528	9063.83751
833.714	9190.72984
833.899	9119.10518
834.084	8992.17537
834.269	9170.26779
834.454	8526.86098
834.639	8662.2482
834.824	8481.71366
835.009	8703.25859
835.194	8463.24164
835.379	8891.81216
835.564	8325.67875
835.749	8752.46133
835.934	8512.49692
836.119	8695.0571
836.304	8676.60268
836.489	8807.80183
836.674	8547.37946
836.859	8627.38353
837.044	8547.37946
837.228	8830.34416
837.413	8613.02593
837.598	8865.17801
837.783	8596.61611
837.968	8842.63905
838.152	8625.3325
838.337	8350.32326
838.522	8416.02832
838.707	8109.91833
838.891	8111.97422
839.076	8325.67875
839.261	8072.90877
839.445	8409.86931
839.63	8222.96291
839.815	8313.35543
839.999	7902.16851
840.184	8237.34609
840.368	8120.1976
840.553	8430.39867
840.737	8111.97422
840.922	7961.84073
841.106	8210.6337
841.291	8177.75231
841.475	7961.84073
841.66	8134.58775
841.844	7646.82128
842.029	8087.30215
842.213	7949.49617
842.397	7965.95542
842.582	7576.75011
842.766	7972.1273
842.951	7793.0675
843.135	7729.22656
843.319	7605.60593
843.504	8005.0409
843.688	7840.42038
843.872	7945.38115
844.056	8037.94929
844.241	8093.47044
844.425	7879.52969
844.609	7867.18019
844.793	7657.12379
844.977	7920.68932
845.161	7436.53347
845.346	7704.50853
845.53	7747.7631
845.714	7885.70416
845.898	7516.96401
846.082	7432.40794
846.266	7279.70206
846.45	7351.94272
846.634	7207.43445
846.818	7360.19709
847.002	7442.7216
847.186	7516.96401
847.37	7195.043
847.554	7405.58988
847.738	7294.15234
847.922	7516.96401
848.106	7333.36911
848.29	7335.43294
848.473	7329.24141
848.657	7314.79373
848.841	6947.04539
849.025	7287.95949
849.209	7108.28046
849.392	7164.06088
849.576	6996.67074
849.76	7083.48394
849.944	7228.0851
850.127	7327.17752
850.311	7015.27691
850.495	7347.81541
850.678	7209.49961
850.862	7450.97214
851.046	7403.5268
851.229	7304.47331
851.413	6996.67074
851.596	7095.8826
851.78	6733.9216
851.964	6967.7242
852.147	7161.99523
852.331	6781.53331
852.514	6700.79327
852.698	6620.01831
852.881	6423.11176
853.065	6816.71681
853.248	6717.35817
853.431	6951.18133
853.615	6524.7002
853.798	6752.55371
853.982	6532.99067
854.165	6849.82467
854.348	6479.09596
854.532	7038.0153
854.715	6524.7002
854.898	6880.858
855.081	6543.35324
855.265	6789.81237
855.448	6653.16099
855.631	6553.71524
855.814	6429.33307
855.997	6709.0759
856.181	6530.91809
856.364	6387.85375
856.547	6342.21574
856.73	6447.99572
856.913	6138.78159
857.096	6410.66853
857.279	6199.00494
857.462	6142.93556
857.645	6142.93556
857.828	6149.16634
858.011	6217.69093
858.194	6497.7536
858.377	6279.96386
858.56	6350.5144
858.743	6387.85375
858.926	6408.59457
859.109	5960.07193
859.292	6082.69381
859.475	6001.64785
859.658	6236.37503
859.841	6051.52653
860.023	6088.92664
860.206	5895.6106
860.389	5870.65174
860.572	5835.28755
860.755	5903.92947
860.937	5777.02577
861.12	5912.24795
861.303	5724.99069
861.486	5810.32048
861.668	5772.8635
861.851	5847.76981
862.034	5685.43416
862.216	6026.58889
862.399	5672.94085
862.581	5854.01062
862.764	5562.54644
862.947	5806.15897
863.129	5743.72501
863.312	5760.37615
863.494	5495.86116
863.677	5664.61151
863.859	5568.79695
864.042	5364.50411
864.224	5205.91777
864.406	5420.81141
864.589	5452.08584
864.771	5472.93253
864.954	5072.26688
865.136	5331.12875
865.318	5247.66411
865.501	5435.4068
865.683	5218.44265
865.865	5406.21486
866.048	5195.47973
866.23	5460.4248
866.412	5208.00531
866.594	5180.86549
866.777	5301.92038
866.959	5416.64108
867.141	5151.63358
867.323	5222.61743
867.505	5159.98602
867.687	5283.14116
867.869	5003.31602
868.052	5193.39205
868.234	5028.39198
868.416	5105.68853
868.598	5155.80985
868.78	5301.92038
868.962	5105.68853
869.144	5293.57429
869.326	4978.23675
869.508	5402.04421
869.69	4969.87626
869.872	5114.04301
870.054	5038.83931
870.236	5026.30244
870.417	4988.68685
870.599	5168.33809
870.781	4951.06379
870.963	5128.66246
871.145	4942.7021
871.327	5003.31602
871.508	4737.72635
871.69	5105.68853
871.872	4823.50815
872.054	5180.86549
872.235	4731.44813
872.417	4861.15637
872.599	4758.65225
872.78	5080.62285
872.962	4783.76035
873.144	4932.24947
873.325	4959.42512
873.507	4842.33318
873.689	4582.80464
873.87	4800.49726
874.052	4603.74718
874.233	4771.20671
874.415	4658.18731
874.596	4980.32682
874.778	4708.42628
874.959	4854.88218
875.141	4687.49495
875.322	5093.15611
875.503	4942.7021
875.685	4951.06379
875.866	4767.02198
876.048	4902.97905
876.229	4651.90653
876.41	4630.96914
876.592	4507.39311
876.773	4752.37472
876.954	4576.52145
877.136	4852.79074
877.317	4817.23273
877.498	5043.01808
877.679	4744.00435
877.86	4971.96641
878.042	4737.72635
878.223	4831.87506
878.404	4781.66813
878.585	4969.87626
878.766	4710.51929
878.947	4825.59991
879.128	4645.62555
879.309	4754.46725
879.49	4543.00769
879.672	5024.21288
879.853	4595.37043
880.034	4823.50815
880.215	4649.81289
880.396	4892.52424
880.576	4685.40169
880.757	4867.43036
880.938	4450.81565
881.119	4969.87626
881.3	4731.44813
881.481	4833.96673
881.662	4668.65483
881.843	4685.40169
882.023	4484.34497
882.204	4762.83716
882.385	4616.31163
882.566	4771.20671
882.747	4448.71988
882.927	5034.66044
883.108	4490.63109
883.289	4752.37472
883.469	4833.96673
883.65	4827.69165
883.831	4936.43059
884.011	4833.96673
884.192	4741.91171
884.373	4969.87626
884.553	4660.28086
884.734	4823.50815
884.914	4450.81565
885.095	4850.69927
885.275	4641.43811
885.456	4951.06379
885.636	4457.10283
885.817	4890.43321
885.997	4607.93542
886.178	4921.79626
886.358	4775.39135
886.538	5105.68853
886.719	4792.12899
886.899	5153.72173
887.08	4913.43329
887.26	4988.68685
887.44	4848.60778
887.621	4971.96641
887.801	4677.02844
887.981	4946.88299
888.161	4817.23273
888.342	4992.86673
888.522	4756.55976
888.702	4882.06885
888.882	4976.14666
889.062	5185.0411
889.242	4957.33482
889.423	4976.14666
889.603	4907.16081
889.783	5226.79211
889.963	4777.48363
890.143	5130.75086
890.323	4965.69587
890.503	4930.15888
890.683	4894.61525
890.863	4796.31317
891.043	4741.91171
891.223	5063.91054
891.403	4930.15888
891.583	5351.98905
891.763	4875.79535
891.943	5166.25011
892.122	4762.83716
892.302	4911.34249
892.482	4624.68748
892.662	4706.33325
892.842	4473.86766
893.022	4775.39135
893.201	4543.00769
893.381	4685.40169
893.561	4410.99229
893.741	4689.58818
893.92	4503.20273
894.1	4708.42628
894.28	4612.12357
894.459	4737.72635
894.639	4318.73959
894.819	4612.12357
894.998	4369.06446
895.178	4681.21511
895.357	4431.95294
895.537	4547.19722
895.716	4490.63109
895.896	4624.68748
896.075	4226.44514
896.255	4532.53348
896.434	4045.93306
896.614	4528.34364
896.793	4241.13112
896.973	4375.35419
897.152	4230.64124
897.331	4505.29793
897.511	4375.35419
897.69	4515.77358
897.87	4343.90358
898.049	4276.79271
898.228	4127.8124
898.407	4243.22903
898.587	4155.09846
898.766	4199.16842
898.945	3928.30792
899.124	4090.02587
899.304	4054.33239
899.483	4266.30465
899.662	4201.26675
899.841	4343.90358
900.02	3882.08063
900.199	4144.60424
900.378	3959.82092
900.557	4054.33239
900.737	3871.57308
900.916	3871.57308
901.095	3690.766
901.274	3718.10654
901.453	3829.53788
901.632	3793.80174
901.811	3507.71243
901.989	3844.25111
902.168	3768.57281
902.347	3896.79037
902.526	3488.76785
902.705	3800.10853
902.884	3459.29559
903.063	3604.51702
903.242	3492.97788
903.42	3598.20488
903.599	3554.01516
903.778	3570.85031
903.957	3383.49366
904.135	3377.17579
904.314	3299.24261
904.493	3511.92213
904.672	3145.41458
904.85	3271.8551
905.029	3162.27673
905.207	3309.7755
905.386	3200.21277
905.565	3303.45582
905.743	3103.25469
905.922	3212.85693
906.1	3071.6306
906.279	3096.93015
906.457	2888.14295
906.636	3037.89435
906.814	2598.98619
906.993	3004.15416
907.171	2826.95572
907.35	2953.5366
907.528	2605.32069
907.707	2753.09351
907.885	2784.75079
908.063	2875.4845
908.242	2765.75679
908.42	2845.94613
908.598	2655.99268
908.777	2803.74369
908.955	2522.96385
909.133	2744.65106
909.311	2478.61055
909.49	2759.42521
909.668	2689.76999
909.846	2860.71566
910.024	2609.54362
910.202	2917.6773
910.38	2459.60048
910.559	2738.31908
910.737	2478.61055
910.915	2643.32535
911.093	2603.2092
911.271	2864.9354
911.449	2499.73179
911.627	2816.40501
911.805	2370.87536
911.983	2700.32472
912.161	2470.16174
912.339	2698.2138
912.517	2565.20037
912.695	2734.0977
912.872	2596.87467
913.05	2875.4845
913.228	2685.548
913.406	2761.53575
913.584	2539.85902
913.762	2655.99268
913.939	2499.73179
914.117	2622.21214
914.295	2539.85902
914.473	2719.32243
914.65	2520.8519
914.828	2799.52314
915.006	2628.54623
915.184	2677.10388
915.361	2537.74716
915.539	2862.82554
915.716	2588.42845
915.894	2765.75679
916.072	2719.32243
916.249	2541.97086
916.427	2525.07578
916.604	2592.65158
916.782	2514.51598
916.959	2463.82502
917.137	2269.45341
917.314	2571.53545
917.492	2353.97326
917.669	2465.93727
917.847	2318.0542
918.024	2404.67759
918.201	2227.18788
918.379	2408.90269
918.556	2089.80154
918.733	2098.25705
918.911	2053.86433
919.088	2191.25942
919.265	2125.73662
919.442	2301.15014
919.62	1979.86966
919.797	2356.08606
919.974	2178.5782
920.151	2326.506
920.328	2157.44217
920.506	2301.15014
920.683	2216.62095
920.86	2210.28068
921.037	2127.85038
921.214	2233.52794
921.391	1990.44082
921.568	2121.50908
921.745	2176.46464
921.922	2231.4146
922.099	2034.83791
922.276	2212.39411
922.453	1840.31682
922.63	2136.30533
922.807	1943.92658
922.984	1912.21067
923.161	1802.25311
923.338	2024.26744
923.514	1859.34812
923.691	2091.91543
923.868	1838.20221
924.045	1960.84119
924.222	1713.43262
924.399	1920.66837
924.575	1700.74347
924.752	2013.69681
924.929	1700.74347
925.105	2039.06605
925.282	1768.41752
925.459	1759.95847
925.635	1709.20292
925.812	1905.86734
925.989	1702.85834
926.165	1903.75289
926.342	1717.66231
926.518	1679.59464
926.695	1540.00643
926.871	1664.79029
927.048	1523.08617
927.224	1620.37648
927.401	1459.63477
927.577	1569.61672
927.754	1432.13909
927.93	1506.16584
928.107	1358.11266
928.283	1463.86487
928.459	1438.48424
928.636	1499.82071
928.812	1150.85078
928.988	1400.41337
929.165	1051.46204
929.341	1355.99764
929.517	1311.58247
929.693	1474.44013
929.87	1112.78575
930.046	1313.69746
930.222	1068.37849
930.398	1296.77759
930.574	1271.39803
930.751	1383.49304
930.927	1184.68748
931.103	1262.93825
931.279	1034.54595
931.455	1252.36358
931.631	1106.44172
931.807	1248.13374
931.983	1017.63024
932.159	1222.75489
932.335	1000.71491
932.511	1144.50651
932.687	952.08568
932.863	1068.37849
933.039	1034.54595
933.215	1087.4099
933.391	812.56317
933.566	1019.74468
933.742	871.75015
933.918	958.42842
934.094	723.7966
934.27	916.14472
934.445	681.53331
934.621	738.58978
934.797	787.19951
934.973	823.13176
935.148	704.77757
935.324	728.02317
935.5	575.89576
935.675	683.64637
935.851	468.17963
936.027	616.03437
936.202	497.74505
936.378	673.0812
936.553	449.17485
936.729	474.51483
936.904	457.62127
937.08	504.08088
937.255	404.83529
937.431	442.8402
937.606	307.73615
937.782	339.39489
937.957	362.61382
938.133	250.76076
938.308	259.20069
938.483	305.62571
938.659	259.20069
938.834	208.56572
939.009	202.23715
939.185	242.32113
939.36	223.33309
939.535	229.66226
939.71	240.21127
939.886	227.55252
940.061	231.77202
940.236	204.34665
940.411	198.0182
940.586	181.14322
940.761	149.50617
940.937	117.87389
941.112	113.65661
941.287	179.03394
941.462	212.78487
941.637	147.39721
941.812	166.37868
941.987	130.52622
942.162	126.30869
942.337	183.25252
942.512	200.12766
942.687	105.22233
942.862	124.19996
943.037	103.11382
943.212	181.14322
943.386	208.56572
943.561	147.39721
943.736	94.67998
943.911	109.43943
944.086	155.83321
944.26	86.24649
944.435	103.11382
944.61	98.89685
944.785	113.65661
944.959	75.70514
945.134	101.00532
945.309	86.24649
945.483	141.07043
945.658	105.22233
945.833	109.43943
946.007	86.24649
946.182	94.67998
946.357	168.48784
946.531	117.87389
946.706	183.25252
946.88	164.26954
947.055	153.72418
947.229	79.92161
947.404	128.41744
947.578	65.16435
947.752	147.39721
947.927	187.47118
948.101	195.90876
948.276	119.98255
948.45	166.37868
948.624	130.52622
948.799	113.65661
948.973	172.70621
949.147	126.30869
949.321	145.28826
949.496	128.41744
949.67	136.85268
949.844	119.98255
950.018	191.68993
950.193	73.59693
950.367	94.67998
950.541	132.63502
950.715	126.30869
950.889	132.63502
951.063	134.74384
951.237	128.41744
951.411	187.47118
951.585	141.07043
951.759	210.67529
951.933	136.85268
952.107	172.70621
952.281	119.98255
952.455	136.85268
952.629	111.54801
952.803	122.09124
952.977	141.07043
953.151	94.67998
953.325	103.11382
953.499	124.19996
953.672	128.41744
953.846	94.67998
954.02	160.05133
954.194	65.16435
954.368	103.11382
954.541	124.19996
954.715	75.70514
954.889	204.34665
955.062	183.25252
955.236	115.76524
955.41	189.58055
955.583	164.26954
955.757	128.41744
955.93	107.33087
956.104	143.17933
956.278	162.16043
956.451	132.63502
956.625	122.09124
956.798	193.79933
956.972	138.96154
957.145	141.07043
957.319	210.67529
957.492	103.11382
957.665	195.90876
957.839	52.51615
958.012	115.76524
958.185	103.11382
958.359	105.22233
958.532	179.03394
958.705	145.28826
958.879	94.67998
959.052	195.90876
959.225	79.92161
959.398	172.70621
959.572	153.72418
959.745	77.81336
959.918	115.76524
960.091	122.09124
960.264	153.72418
960.438	122.09124
960.611	111.54801
960.784	130.52622
960.957	88.35483
961.13	204.34665
961.303	174.81543
961.476	181.14322
961.649	115.76524
961.822	124.19996
961.995	162.16043
962.168	166.37868
962.341	147.39721
962.514	119.98255
962.686	183.25252
962.859	153.72418
963.032	73.59693
963.205	157.94226
963.378	128.41744
963.551	98.89685
963.723	138.96154
963.896	88.35483
964.069	166.37868
964.242	254.98069
964.414	138.96154
964.587	153.72418
964.76	94.67998
964.932	136.85268
965.105	96.7884
965.278	162.16043
965.45	77.81336
965.623	63.05626
965.795	107.33087
965.968	88.35483
966.14	52.51615
966.313	94.67998
966.485	122.09124
966.658	164.26954
966.83	124.19996
967.003	132.63502
967.175	157.94226
967.348	77.81336
967.52	96.7884
967.692	170.59702
967.865	147.39721
968.037	69.38059
968.209	71.48875
968.382	132.63502
968.554	147.39721
968.726	153.72418
968.898	115.76524
969.071	117.87389
969.243	119.98255
969.415	82.02988
969.587	122.09124
969.759	113.65661
969.932	94.67998
970.104	122.09124
970.276	164.26954
970.448	141.07043
970.62	155.83321
970.792	8.25407
970.964	10.36155
971.136	170.59702
971.308	149.50617
971.48	96.7884
971.652	90.46319
971.824	56.73213
971.996	77.81336
972.168	44.08449
972.339	63.05626
972.511	174.81543
972.683	52.51615
972.855	84.13817
973.027	86.24649
973.199	119.98255
973.37	-2.28298
973.542	122.09124
973.714	117.87389
973.886	92.57157
974.057	138.96154
974.229	119.98255
974.401	60.94819
974.572	149.50617
974.744	50.4082
974.915	119.98255
975.087	52.51615
975.259	79.92161
975.43	73.59693
975.602	63.05626
975.773	10.36155
975.945	52.51615
976.116	86.24649
976.288	136.85268
976.459	20.89932
976.63	44.08449
976.802	94.67998
976.973	73.59693
977.145	39.86879
977.316	73.59693
977.487	124.19996
977.659	52.51615
977.83	35.65319
978.001	60.94819
978.172	44.08449
978.344	41.97663
978.515	86.24649
978.686	86.24649
978.857	77.81336
979.028	111.54801
979.2	132.63502
979.371	69.38059
979.542	136.85268
979.713	44.08449
979.884	23.00695
980.055	86.24649
980.226	103.11382
980.397	75.70514
980.568	33.54542
980.739	105.22233
980.91	88.35483
981.081	27.22227
981.252	145.28826
981.423	44.08449
981.594	111.54801
981.765	75.70514
981.936	103.11382
982.106	77.81336
982.277	29.32996
982.448	27.22227
982.619	-23.35526
982.79	37.76098
982.96	90.46319
983.131	113.65661
983.302	35.65319
983.472	60.94819
983.643	18.79172
983.814	73.59693
983.984	-67.59898
984.155	1.93177
984.326	67.27246
984.496	35.65319
984.667	111.54801
984.837	-2.28298
985.008	86.24649
985.178	39.86879
985.349	50.4082
985.519	58.84015
985.69	77.81336
985.86	103.11382
986.031	88.35483
986.201	27.22227
986.371	94.67998
986.542	20.89932
986.712	-33.89048
986.882	31.43768
987.053	27.22227
987.223	86.24649
987.393	-29.67646
987.563	111.54801
987.734	39.86879
987.904	60.94819
988.074	18.79172
988.244	77.81336
988.414	54.62413
988.585	31.43768
988.755	86.24649
988.925	35.65319
989.095	48.30027
989.265	96.7884
989.435	79.92161
989.605	71.48875
989.775	1.93177
989.945	86.24649
990.115	44.08449
990.285	145.28826
990.455	41.97663
990.625	-27.56942
990.795	98.89685
990.965	-23.35526
991.134	37.76098
991.304	12.46906
991.474	14.57659
991.644	-35.99745
991.814	54.62413
991.984	29.32996
992.153	-61.27913
992.323	63.05626
992.493	73.59693
992.662	71.48875
992.832	39.86879
993.002	14.57659
993.171	84.13817
993.341	46.19237
993.511	20.89932
993.68	90.46319
993.85	82.02988
994.019	-6.49763
994.189	103.11382
994.358	33.54542
994.528	-42.31821
994.697	63.05626
994.867	92.57157
995.036	8.25407
995.206	37.76098
995.375	56.73213
995.544	77.81336
995.714	44.08449
995.883	23.00695
996.052	-10.71218
996.222	52.51615
996.391	-4.39031
996.56	77.81336
996.73	60.94819
996.899	65.16435
997.068	31.43768
997.237	-2.28298
997.406	-4.39031
997.576	23.00695
997.745	29.32996
997.914	10.36155
998.083	-6.49763
998.252	4.03918
998.421	44.08449
998.59	18.79172
998.759	60.94819
998.928	33.54542
999.097	14.57659
999.266	25.11459
999.435	-6.49763
999.604	6.14661
999.773	-6.49763
999.942	4.03918
1000.111	-6.49763
1000.28	10.36155
1000.448	-21.24814
1000.617	-48.63874
1000.786	46.19237
1000.955	20.89932
1001.124	-35.99745
1001.292	-46.53192
1001.461	-10.71218
1001.63	-31.78348
1001.798	20.89932
1001.967	4.03918
1002.136	-19.141
1002.304	44.08449
1002.473	-4.39031
1002.642	27.22227
1002.81	1.93177
1002.979	-29.67646
1003.147	35.65319
1003.316	31.43768
1003.484	-10.71218
1003.653	65.16435
1003.821	-31.78348
1003.99	54.62413
1004.158	79.92161
1004.327	18.79172
1004.495	94.67998
1004.663	63.05626
1004.832	63.05626
1005	-31.78348
1005.168	-0.17561
1005.337	10.36155
1005.505	39.86879
1005.673	41.97663
1005.842	25.11459
1006.01	79.92161
1006.178	16.68414
1006.346	-38.10439
1006.514	-23.35526
1006.683	73.59693
1006.851	12.46906
1007.019	-63.38577
1007.187	4.03918
1007.355	63.05626
1007.523	63.05626
1007.691	82.02988
1007.859	23.00695
1008.027	35.65319
1008.195	29.32996
1008.363	-21.24814
1008.531	35.65319
1008.699	14.57659
1008.867	10.36155
1009.035	-19.141
1009.203	-40.21131
1009.37	-14.92664
1009.538	23.00695
1009.706	52.51615
1009.874	16.68414
1010.042	29.32996
1010.209	10.36155
1010.377	-6.49763
1010.545	-46.53192
1010.713	12.46906
1010.88	12.46906
1011.048	-31.78348
1011.216	10.36155
1011.383	39.86879
1011.551	-38.10439
1011.718	18.79172
1011.886	-6.49763
1012.054	41.97663
1012.221	-14.92664
1012.389	69.38059
1012.556	-33.89048
1012.724	-23.35526
1012.891	-8.60492
1013.058	-17.03383
1013.226	44.08449
1013.393	65.16435
1013.561	35.65319
1013.728	37.76098
1013.895	27.22227
1014.063	37.76098
1014.23	-2.28298
1014.397	-14.92664
1014.565	37.76098
1014.732	20.89932
1014.899	20.89932
1015.066	-6.49763
1015.233	-29.67646
1015.401	20.89932
1015.568	-65.49239
1015.735	44.08449
1015.902	71.48875
1016.069	-63.38577
1016.236	71.48875
1016.403	-14.92664
1016.57	-10.71218
1016.737	27.22227
1016.904	27.22227
1017.071	25.11459
1017.238	-12.81942
1017.405	-54.95905
1017.572	-0.17561
1017.739	12.46906
1017.906	-10.71218
1018.073	79.92161
1018.24	6.14661
1018.407	-2.28298
1018.573	44.08449
1018.74	35.65319
1018.907	94.67998
1019.074	-27.56942
1019.241	-48.63874
1019.407	-23.35526
1019.574	-14.92664
1019.741	6.14661
1019.907	-12.81942
1020.074	10.36155
1020.241	-23.35526
1020.407	48.30027
1020.574	-46.53192
1020.74	-31.78348
1020.907	-35.99745
1021.073	-40.21131
1021.24	1.93177
1021.406	52.51615
1021.573	-23.35526
1021.739	-14.92664
1021.906	-82.34441
1022.072	44.08449
1022.239	-33.89048
1022.405	35.65319
1022.571	-4.39031
1022.738	-12.81942
1022.904	-2.28298
1023.07	-35.99745
1023.237	-27.56942
1023.403	-73.91861
1023.569	56.73213
1023.735	-35.99745
1023.902	52.51615
1024.068	18.79172
1024.234	-54.95905
1024.4	-4.39031
1024.566	-31.78348
1024.732	-40.21131
1024.898	96.7884
1025.065	-90.7698
1025.231	-23.35526
1025.397	31.43768
1025.563	31.43768
1025.729	12.46906
1025.895	6.14661
1026.061	-12.81942
1026.227	37.76098
1026.392	-46.53192
1026.558	-17.03383
1026.724	-65.49239
1026.89	-23.35526
1027.056	1.93177
1027.222	20.89932
1027.388	10.36155
1027.553	-10.71218
1027.719	12.46906
1027.885	10.36155
1028.051	-8.60492
1028.216	-2.28298
1028.382	117.87389
1028.548	4.03918
1028.713	48.30027
1028.879	69.38059
1029.045	4.03918
1029.21	16.68414
1029.376	52.51615
1029.541	31.43768
1029.707	52.51615
1029.873	-12.81942
1030.038	18.79172
1030.204	-54.95905
1030.369	-12.81942
1030.534	41.97663
1030.7	10.36155
1030.865	6.14661
1031.031	-10.71218
1031.196	14.57659
1031.361	-6.49763
1031.527	-59.17246
1031.692	10.36155
1031.857	-6.49763
1032.023	-2.28298
1032.188	35.65319
1032.353	-10.71218
1032.518	-27.56942
1032.684	-29.67646
1032.849	-52.8523
1033.014	60.94819
1033.179	-17.03383
1033.344	-17.03383
1033.509	14.57659
1033.674	-4.39031
1033.839	14.57659
1034.004	-10.71218
1034.17	35.65319
1034.335	-31.78348
1034.5	6.14661
1034.664	44.08449
1034.829	-44.42508
1034.994	-23.35526
1035.159	31.43768
1035.324	27.22227
1035.489	8.25407
1035.654	10.36155
1035.819	-12.81942
1035.984	-4.39031
1036.148	14.57659
1036.313	-10.71218
1036.478	12.46906
1036.643	-17.03383
1036.807	-29.67646
1036.972	-10.71218
1037.137	54.62413
1037.301	-63.38577
1037.466	-57.06577
1037.631	4.03918
1037.795	6.14661
1037.96	27.22227
1038.124	52.51615
1038.289	12.46906
1038.454	33.54542
1038.618	-17.03383
1038.783	-35.99745
1038.947	18.79172
1039.111	27.22227
1039.276	-14.92664
1039.44	29.32996
1039.605	-40.21131
1039.769	27.22227
1039.933	-21.24814
1040.098	-10.71218
1040.262	25.11459
1040.426	37.76098
1040.591	1.93177
1040.755	4.03918
1040.919	-71.81209
1041.083	1.93177
1041.248	12.46906
1041.412	27.22227
1041.576	-14.92664
1041.74	-23.35526
1041.904	35.65319
1042.068	58.84015
1042.232	-67.59898
1042.397	-0.17561
1042.561	-10.71218
1042.725	-4.39031
1042.889	56.73213
1043.053	44.08449
1043.217	12.46906
1043.381	12.46906
1043.544	54.62413
1043.708	6.14661
1043.872	20.89932
1044.036	35.65319
1044.2	44.08449
1044.364	-6.49763
1044.528	-2.28298
1044.691	-2.28298
1044.855	14.57659
1045.019	52.51615
1045.183	-19.141
1045.346	-23.35526
1045.51	1.93177
1045.674	-23.35526
1045.837	-38.10439
1046.001	-54.95905
1046.165	56.73213
1046.328	35.65319
1046.492	-6.49763
1046.655	20.89932
1046.819	-14.92664
1046.983	46.19237
1047.146	-17.03383
1047.31	-42.31821
1047.473	71.48875
1047.636	31.43768
1047.8	35.65319
1047.963	-14.92664
1048.127	-38.10439
1048.29	-2.28298
