Data from mixed_try1_USB4F045381__28__00253.txt Node

Date: Thu Apr 03 20:26:16 EDT 2025
User: mmckonesweet
Spectrometer: USB4F04538
Trigger mode: 4
Integration Time (sec): 2.700000E-3
Scans to average: 1
Electric dark correction enabled: true
Nonlinearity correction enabled: true
Boxcar width: 0
XAxis mode: Wavelengths
Number of Pixels in Spectrum: 3648
>>>>>Begin Spectral Data<<<<<
345.52	-50.74553
345.736	-50.74553
345.952	-50.74553
346.168	20.89932
346.384	-40.21131
346.6	-10.71218
346.816	6.14661
347.032	-65.49239
347.248	35.65319
347.464	14.57659
347.68	31.43768
347.896	35.65319
348.112	-71.81209
348.328	29.32996
348.544	-35.99745
348.76	16.68414
348.975	14.57659
349.191	23.00695
349.407	31.43768
349.623	-12.81942
349.839	63.05626
350.055	18.79172
350.27	-10.71218
350.486	-4.39031
350.702	-14.92664
350.918	48.30027
351.133	46.19237
351.349	-61.27913
351.565	27.22227
351.781	35.65319
351.996	-17.03383
352.212	86.24649
352.428	-23.35526
352.644	75.70514
352.859	52.51615
353.075	20.89932
353.291	16.68414
353.506	-23.35526
353.722	-46.53192
353.938	23.00695
354.153	31.43768
354.369	-4.39031
354.584	-35.99745
354.8	77.81336
355.016	50.4082
355.231	16.68414
355.447	56.73213
355.662	35.65319
355.878	46.19237
356.093	29.32996
356.309	6.14661
356.524	-44.42508
356.74	35.65319
356.955	18.79172
357.171	-0.17561
357.386	6.14661
357.602	-6.49763
357.817	86.24649
358.033	-4.39031
358.248	27.22227
358.464	12.46906
358.679	-38.10439
358.895	12.46906
359.11	-33.89048
359.325	92.57157
359.541	-61.27913
359.756	-25.46235
359.972	-46.53192
360.187	20.89932
360.402	-57.06577
360.618	14.57659
360.833	31.43768
361.048	18.79172
361.264	23.00695
361.479	10.36155
361.694	-4.39031
361.909	54.62413
362.125	46.19237
362.34	12.46906
362.555	10.36155
362.77	44.08449
362.986	-52.8523
363.201	-31.78348
363.416	-14.92664
363.631	79.92161
363.847	-12.81942
364.062	-40.21131
364.277	60.94819
364.492	44.08449
364.707	12.46906
364.922	-46.53192
365.138	-8.60492
365.353	63.05626
365.568	35.65319
365.783	44.08449
365.998	-27.56942
366.213	-6.49763
366.428	-12.81942
366.643	14.57659
366.858	10.36155
367.073	18.79172
367.288	-73.91861
367.503	6.14661
367.718	60.94819
367.933	-0.17561
368.148	10.36155
368.363	77.81336
368.578	4.03918
368.793	-12.81942
369.008	18.79172
369.223	4.03918
369.438	35.65319
369.653	136.85268
369.868	-14.92664
370.083	31.43768
370.298	-14.92664
370.513	10.36155
370.728	-109.72541
370.943	44.08449
371.157	23.00695
371.372	29.32996
371.587	63.05626
371.802	-6.49763
372.017	44.08449
372.232	37.76098
372.446	27.22227
372.661	-0.17561
372.876	35.65319
373.091	-23.35526
373.306	39.86879
373.52	-25.46235
373.735	1.93177
373.95	48.30027
374.165	29.32996
374.379	-46.53192
374.594	14.57659
374.809	-4.39031
375.023	8.25407
375.238	63.05626
375.453	-23.35526
375.667	77.81336
375.882	-8.60492
376.097	8.25407
376.311	-10.71218
376.526	14.57659
376.741	31.43768
376.955	20.89932
377.17	-69.70555
377.384	4.03918
377.599	65.16435
377.813	44.08449
378.028	63.05626
378.242	14.57659
378.457	10.36155
378.672	86.24649
378.886	63.05626
379.101	37.76098
379.315	67.27246
379.53	54.62413
379.744	-19.141
379.958	31.43768
380.173	8.25407
380.387	14.57659
380.602	-4.39031
380.816	84.13817
381.031	20.89932
381.245	-40.21131
381.459	73.59693
381.674	20.89932
381.888	-19.141
382.103	10.36155
382.317	25.11459
382.531	-40.21131
382.746	-4.39031
382.96	-2.28298
383.174	8.25407
383.388	79.92161
383.603	39.86879
383.817	18.79172
384.031	6.14661
384.246	8.25407
384.46	1.93177
384.674	4.03918
384.888	54.62413
385.103	48.30027
385.317	29.32996
385.531	103.11382
385.745	54.62413
385.959	65.16435
386.174	46.19237
386.388	-14.92664
386.602	-23.35526
386.816	84.13817
387.03	-23.35526
387.244	-57.06577
387.458	23.00695
387.672	18.79172
387.887	-19.141
388.101	79.92161
388.315	-35.99745
388.529	23.00695
388.743	73.59693
388.957	4.03918
389.171	88.35483
389.385	54.62413
389.599	56.73213
389.813	71.48875
390.027	-29.67646
390.241	29.32996
390.455	35.65319
390.669	4.03918
390.883	18.79172
391.097	18.79172
391.311	-10.71218
391.525	44.08449
391.738	23.00695
391.952	48.30027
392.166	18.79172
392.38	50.4082
392.594	37.76098
392.808	41.97663
393.022	31.43768
393.236	52.51615
393.449	-65.49239
393.663	4.03918
393.877	-4.39031
394.091	20.89932
394.305	35.65319
394.518	27.22227
394.732	10.36155
394.946	60.94819
395.16	44.08449
395.373	10.36155
395.587	14.57659
395.801	-17.03383
396.015	46.19237
396.228	48.30027
396.442	54.62413
396.656	31.43768
396.869	63.05626
397.083	60.94819
397.297	41.97663
397.51	54.62413
397.724	-12.81942
397.938	-21.24814
398.151	27.22227
398.365	71.48875
398.578	90.46319
398.792	18.79172
399.005	69.38059
399.219	14.57659
399.433	-4.39031
399.646	-4.39031
399.86	-23.35526
400.073	27.22227
400.287	18.79172
400.5	46.19237
400.714	-14.92664
400.927	-31.78348
401.141	-31.78348
401.354	52.51615
401.567	1.93177
401.781	20.89932
401.994	-10.71218
402.208	4.03918
402.421	63.05626
402.635	-21.24814
402.848	77.81336
403.061	77.81336
403.275	35.65319
403.488	23.00695
403.701	-27.56942
403.915	10.36155
404.128	-6.49763
404.341	1.93177
404.555	27.22227
404.768	122.09124
404.981	44.08449
405.195	12.46906
405.408	44.08449
405.621	138.96154
405.834	54.62413
406.048	8.25407
406.261	-63.38577
406.474	86.24649
406.687	8.25407
406.9	18.79172
407.114	-21.24814
407.327	-21.24814
407.54	73.59693
407.753	10.36155
407.966	98.89685
408.179	105.22233
408.392	35.65319
408.605	-12.81942
408.819	41.97663
409.032	-31.78348
409.245	46.19237
409.458	23.00695
409.671	23.00695
409.884	-10.71218
410.097	23.00695
410.31	-4.39031
410.523	12.46906
410.736	-0.17561
410.949	-17.03383
411.162	-29.67646
411.375	86.24649
411.588	56.73213
411.801	84.13817
412.014	37.76098
412.227	54.62413
412.44	10.36155
412.653	98.89685
412.865	31.43768
413.078	60.94819
413.291	-6.49763
413.504	14.57659
413.717	1.93177
413.93	4.03918
414.143	50.4082
414.356	69.38059
414.568	33.54542
414.781	54.62413
414.994	-14.92664
415.207	-6.49763
415.42	63.05626
415.632	69.38059
415.845	84.13817
416.058	18.79172
416.271	12.46906
416.483	103.11382
416.696	79.92161
416.909	6.14661
417.121	6.14661
417.334	-69.70555
417.547	20.89932
417.759	56.73213
417.972	-21.24814
418.185	60.94819
418.397	37.76098
418.61	-23.35526
418.823	6.14661
419.035	54.62413
419.248	33.54542
419.46	20.89932
419.673	60.94819
419.885	35.65319
420.098	90.46319
420.311	56.73213
420.523	18.79172
420.736	90.46319
420.948	-2.28298
421.161	27.22227
421.373	35.65319
421.586	-10.71218
421.798	-8.60492
422.01	37.76098
422.223	-21.24814
422.435	18.79172
422.648	46.19237
422.86	-4.39031
423.073	52.51615
423.285	27.22227
423.497	27.22227
423.71	52.51615
423.922	39.86879
424.134	14.57659
424.347	10.36155
424.559	31.43768
424.771	71.48875
424.984	41.97663
425.196	12.46906
425.408	18.79172
425.621	94.67998
425.833	60.94819
426.045	75.70514
426.257	10.36155
426.47	35.65319
426.682	44.08449
426.894	37.76098
427.106	60.94819
427.318	35.65319
427.531	-23.35526
427.743	105.22233
427.955	86.24649
428.167	4.03918
428.379	39.86879
428.591	1.93177
428.804	73.59693
429.016	50.4082
429.228	35.65319
429.44	35.65319
429.652	-27.56942
429.864	29.32996
430.076	-4.39031
430.288	-52.8523
430.5	-8.60492
430.712	73.59693
430.924	10.36155
431.136	10.36155
431.348	23.00695
431.56	46.19237
431.772	23.00695
431.984	-23.35526
432.196	6.14661
432.408	92.57157
432.62	4.03918
432.832	10.36155
433.044	35.65319
433.256	79.92161
433.468	35.65319
433.679	71.48875
433.891	-21.24814
434.103	-12.81942
434.315	52.51615
434.527	111.54801
434.739	73.59693
434.95	10.36155
435.162	48.30027
435.374	60.94819
435.586	10.36155
435.798	79.92161
436.009	-14.92664
436.221	39.86879
436.433	1.93177
436.645	44.08449
436.856	157.94226
437.068	4.03918
437.28	35.65319
437.491	60.94819
437.703	35.65319
437.915	-6.49763
438.126	71.48875
438.338	35.65319
438.55	-59.17246
438.761	128.41744
438.973	18.79172
439.184	6.14661
439.396	-2.28298
439.608	84.13817
439.819	35.65319
440.031	54.62413
440.242	41.97663
440.454	44.08449
440.665	35.65319
440.877	-23.35526
441.088	14.57659
441.3	41.97663
441.511	-4.39031
441.723	27.22227
441.934	6.14661
442.146	77.81336
442.357	18.79172
442.569	115.76524
442.78	44.08449
442.991	90.46319
443.203	58.84015
443.414	60.94819
443.626	1.93177
443.837	41.97663
444.048	60.94819
444.26	48.30027
444.471	27.22227
444.682	65.16435
444.894	23.00695
445.105	60.94819
445.316	60.94819
445.528	14.57659
445.739	20.89932
445.95	105.22233
446.161	54.62413
446.373	63.05626
446.584	107.33087
446.795	54.62413
447.006	-4.39031
447.217	79.92161
447.429	90.46319
447.64	75.70514
447.851	63.05626
448.062	79.92161
448.273	46.19237
448.484	105.22233
448.695	27.22227
448.907	75.70514
449.118	86.24649
449.329	37.76098
449.54	77.81336
449.751	101.00532
449.962	103.11382
450.173	52.51615
450.384	103.11382
450.595	107.33087
450.806	77.81336
451.017	94.67998
451.228	60.94819
451.439	48.30027
451.65	63.05626
451.861	113.65661
452.072	29.32996
452.283	44.08449
452.494	113.65661
452.705	39.86879
452.915	31.43768
453.126	98.89685
453.337	58.84015
453.548	35.65319
453.759	52.51615
453.97	103.11382
454.181	-0.17561
454.391	27.22227
454.602	132.63502
454.813	60.94819
455.024	6.14661
455.235	107.33087
455.445	52.51615
455.656	-2.28298
455.867	79.92161
456.078	98.89685
456.288	77.81336
456.499	124.19996
456.71	52.51615
456.921	145.28826
457.131	92.57157
457.342	160.05133
457.553	27.22227
457.763	109.43943
457.974	23.00695
458.184	86.24649
458.395	82.02988
458.606	77.81336
458.816	149.50617
459.027	130.52622
459.237	124.19996
459.448	90.46319
459.659	77.81336
459.869	71.48875
460.08	111.54801
460.29	77.81336
460.501	101.00532
460.711	111.54801
460.922	162.16043
461.132	71.48875
461.343	90.46319
461.553	136.85268
461.764	124.19996
461.974	172.70621
462.184	33.54542
462.395	128.41744
462.605	136.85268
462.816	86.24649
463.026	145.28826
463.236	181.14322
463.447	117.87389
463.657	132.63502
463.867	52.51615
464.078	138.96154
464.288	187.47118
464.498	198.0182
464.709	98.89685
464.919	155.83321
465.129	174.81543
465.339	204.34665
465.55	195.90876
465.76	170.59702
465.97	170.59702
466.18	198.0182
466.391	242.32113
466.601	179.03394
466.811	200.12766
467.021	217.0041
467.231	259.20069
467.441	242.32113
467.651	309.84661
467.862	280.30186
468.072	271.86117
468.282	290.85314
468.492	318.28862
468.702	238.10143
468.912	314.06758
469.122	246.5409
469.332	303.51529
469.542	364.72473
469.752	377.39057
469.962	406.94654
470.172	417.50302
470.382	366.83566
470.592	396.39047
470.802	381.61266
471.012	305.62571
471.222	320.39917
471.432	411.16909
471.642	415.39169
471.852	476.6266
472.062	368.94661
472.272	457.62127
472.482	449.17485
472.691	529.42547
472.901	406.94654
473.111	514.64087
473.321	561.10904
473.531	554.77208
473.741	485.0738
473.95	482.96198
474.16	622.37247
474.37	605.47113
474.58	685.75944
474.79	664.62926
474.999	603.35852
475.209	668.85521
475.419	702.6644
475.628	664.62926
475.838	753.38348
476.048	789.31309
476.258	816.79058
476.467	812.56317
476.677	918.25884
476.886	1023.97359
477.096	988.02869
477.306	939.40039
477.515	956.31416
477.725	996.48615
477.935	994.37177
478.144	1019.74468
478.354	1125.47393
478.563	1087.4099
478.773	1095.86844
478.982	1218.52513
479.192	1174.11341
479.401	1237.55917
479.611	1248.13374
479.82	1396.18328
480.03	1398.29832
480.239	1430.02404
480.449	1381.378
480.658	1474.44013
480.868	1487.13043
481.077	1626.72138
481.287	1588.65175
481.496	1669.02012
481.705	1753.61414
481.915	1825.51444
482.124	1776.87652
482.333	1874.14996
482.543	1743.04018
482.752	1863.57724
482.961	1907.98179
483.171	2119.39529
483.38	1954.49825
483.589	2003.126
483.799	2051.75031
484.008	2301.15014
484.217	2060.20634
484.426	2330.73184
484.636	2157.44217
484.845	2347.63481
485.054	2277.90607
485.263	2351.86046
485.472	2370.87536
485.682	2531.41152
485.891	2324.39307
486.1	2554.64168
486.309	2459.60048
486.518	2748.87231
486.727	2660.21502
486.936	2689.76999
487.146	2573.64711
487.355	2702.43563
487.564	2744.65106
487.773	2976.73739
487.982	2810.07441
488.191	3054.76297
488.4	2985.17359
488.609	3195.99792
488.818	2793.19222
489.027	3025.24224
489.236	3151.73801
489.445	3402.44629
489.654	3198.10535
489.863	3360.32739
490.072	3164.38443
490.281	3547.70168
490.49	3343.47787
490.698	3566.64163
490.907	3364.53959
491.116	3680.24954
491.325	3524.55081
491.534	3694.97244
491.743	3499.2928
491.952	3751.75196
492.16	3711.79747
492.369	3873.67463
492.578	3606.62104
492.787	3869.47151
492.996	3739.13551
493.204	4087.92642
493.413	3999.73083
493.622	4163.49345
493.831	3999.73083
494.039	4333.41896
494.248	4037.53339
494.457	4322.93381
494.665	4364.87119
494.874	4371.16106
495.083	4373.25763
495.291	4362.77453
495.5	4436.14481
495.709	4475.96317
495.917	4293.57249
496.126	4463.38981
496.335	4591.18192
496.543	4679.12179
496.752	4507.39311
496.96	4624.68748
497.169	4557.67066
497.377	4666.56137
497.586	4710.51929
497.794	4909.25166
498.003	4643.53184
498.211	4823.50815
498.42	4670.74827
498.628	4976.14666
498.837	4925.97762
499.045	5072.26688
499.254	4980.32682
499.462	5059.73224
499.671	4967.78607
499.879	5205.91777
500.087	5345.73121
500.296	5464.59413
500.504	5320.69772
500.713	5472.93253
500.921	5349.90313
501.129	5347.81718
501.338	5297.74739
501.546	5389.53169
501.754	5285.22783
501.962	5731.23567
502.171	5577.13063
502.379	5700.00861
502.587	5539.6261
502.795	5777.02577
503.004	5545.87738
503.212	5887.29136
503.42	5606.29555
503.628	5847.76981
503.837	5781.18794
504.045	5791.59295
504.253	5724.99069
504.461	6161.62725
504.669	6078.53848
504.877	5812.4012
505.085	5999.56928
505.294	6070.22753
505.502	6039.05813
505.71	6236.37503
505.918	5989.17607
506.126	6329.76704
506.334	6003.7264
506.542	6400.29852
506.75	6093.08173
506.958	6296.56642
507.166	6178.2405
507.374	6460.43644
507.582	6153.32007
507.79	6309.01736
507.998	6362.96169
508.206	6675.94316
508.414	6588.94169
508.622	6443.84863
508.83	6551.64289
509.037	6727.71048
509.245	6495.68062
509.453	6764.97409
509.661	6535.06323
509.869	6659.37458
510.077	6568.22106
510.285	6659.37458
510.492	6777.39364
510.7	6818.78622
510.908	6452.14272
511.116	6783.60311
511.324	7079.35088
511.531	6849.82467
511.739	6731.85125
511.947	6874.65174
512.155	7064.88444
512.362	7102.08163
512.57	6750.48357
512.778	7087.61692
512.985	6994.60328
513.193	7128.94177
513.401	7031.81419
513.608	7240.47442
513.816	7279.70206
514.024	7496.34392
514.231	7104.14793
514.439	7331.30527
514.646	7124.80968
514.854	7190.91234
515.061	7236.34474
515.269	7356.06995
515.477	7246.66879
515.684	7453.03472
515.892	7376.70478
516.099	7502.53017
516.307	7382.8948
516.514	7815.7159
516.722	7611.78878
516.929	7665.36542
517.136	7545.82852
517.344	7772.47585
517.551	7543.76691
517.759	7869.23849
517.966	7821.8923
518.173	7968.01274
518.381	7819.83352
518.588	8035.89267
518.796	7854.82994
519.003	7978.299
519.21	7939.20847
519.418	7994.75596
519.625	7797.18558
519.832	8079.07748
520.039	8013.26849
520.247	8440.66262
520.454	8142.81025
520.661	8426.29295
520.868	8218.85325
521.076	8315.40937
521.283	8309.24751
521.49	8344.1624
521.697	8331.84014
521.904	8450.9261
522.112	8342.10874
522.319	8372.91161
522.526	8342.10874
522.733	8555.58632
522.94	8504.28847
523.147	8463.24164
523.354	8463.24164
523.561	8787.30689
523.768	8477.6089
523.975	8881.56861
524.183	8436.5571
524.39	8926.63688
524.597	8828.29494
524.804	8713.51004
525.011	8986.03191
525.218	8957.3603
525.425	8807.80183
525.632	8699.15788
525.838	9069.97898
526.045	8838.54083
526.252	9041.31742
526.459	9333.9171
526.666	9041.31742
526.873	9080.21443
527.08	9155.94334
527.287	9309.37652
527.494	9178.45281
527.701	9528.11364
527.907	9258.24263
528.114	9513.80939
528.321	9307.33136
528.528	9648.64733
528.735	9728.29241
528.941	9732.37615
529.148	9456.58454
529.355	9568.97865
529.562	9358.4553
529.768	9703.78872
529.975	9423.87895
530.182	9709.91485
530.388	9801.79034
530.595	9724.20862
530.802	9579.19392
531.008	10101.70816
531.215	9756.87727
531.422	10118.02132
531.628	9960.96949
531.835	10052.76327
532.042	9987.49068
532.248	10254.60921
532.455	9740.54343
532.661	10138.41151
532.868	10154.72266
533.074	10340.20034
533.281	9912.00083
533.487	10150.64496
533.694	10128.21659
533.9	10437.99015
534.107	10254.60921
534.313	10499.0936
534.52	10376.87506
534.726	10592.76333
534.933	10395.21082
535.139	10490.94714
535.345	10704.72527
535.552	10639.58829
535.758	10820.72004
535.965	10767.81493
536.171	10556.11313
536.377	10747.46468
536.584	10735.25396
536.79	10743.39449
536.996	10857.34201
537.203	10670.1228
537.409	10900.06292
537.615	10865.47972
537.821	10721.00757
538.028	11223.36195
538.234	10723.04281
538.44	10987.52339
538.646	10841.06604
538.853	11036.32954
539.059	10733.2188
539.265	11052.59685
539.471	10857.34201
539.677	11154.25179
539.883	11207.10182
540.09	11426.5585
540.296	11331.06864
540.502	11666.20572
540.708	11253.84789
540.914	11666.20572
541.12	11564.67616
541.326	11385.92719
541.532	11704.78102
541.738	11625.59663
541.944	11394.05377
542.15	11769.74275
542.356	11645.90162
542.562	11875.28675
542.768	11635.74924
542.974	11966.6047
543.18	11743.35313
543.386	11867.16879
543.592	11643.87117
543.798	11995.01138
544.004	12041.67611
544.21	11990.95338
544.415	11956.45907
544.621	11901.6692
544.827	12005.15624
545.033	12293.19057
545.239	12374.30056
545.445	12250.60333
545.651	12303.32993
545.856	12575.00169
546.062	12183.6741
546.268	12214.09746
546.474	11990.95338
546.679	12100.50838
546.885	11946.31325
547.091	12053.84884
547.297	12100.50838
547.502	12429.04362
547.708	12173.53262
547.914	12416.87892
548.119	12437.15328
548.325	12548.6506
548.531	12351.99642
548.736	12451.34494
548.942	12455.39964
549.147	12597.29794
549.353	12427.01618
549.559	12767.53619
549.764	12844.53537
549.97	13032.94808
550.175	12735.11305
550.381	12729.03355
550.586	12860.7447
550.792	13215.24223
550.997	12915.44867
551.203	12917.47467
551.408	12757.40412
551.614	12931.65652
551.819	13028.89666
552.025	13273.9736
552.23	13081.5636
552.435	13344.85149
552.641	13251.69662
552.846	13150.43087
553.052	13188.91317
553.257	13235.49485
553.462	13284.09933
553.668	13328.65128
553.873	13397.50038
554.078	13753.82697
554.283	13369.15132
554.489	13490.64189
554.694	13367.12635
554.899	13601.99645
555.105	13308.40065
555.31	13798.36057
555.515	13533.16037
555.72	13786.21518
555.925	13583.77553
556.131	13830.74773
556.336	13440.02251
556.541	13755.85126
556.746	13693.09695
556.951	13646.53531
557.156	13589.8492
557.361	13893.4958
557.567	14081.72488
557.772	14235.53171
557.977	13940.04911
558.182	13940.04911
558.387	13931.95298
558.592	14041.24729
558.797	14037.19949
559.002	14377.18604
559.207	13958.26525
559.412	14330.64341
559.617	14071.60557
559.822	14209.22349
560.027	13759.89982
560.232	14008.86455
560.437	13820.62682
560.642	14225.4132
560.847	14182.91493
561.051	14168.74864
561.256	14338.73785
561.461	13950.16921
561.666	14039.22339
561.871	13990.64898
562.076	14223.38949
562.281	14373.13889
562.485	14340.76145
562.69	14415.63365
562.895	14097.91565
563.1	14644.28546
563.305	14164.70112
563.509	14749.50097
563.714	14211.24721
563.919	14725.22068
564.123	14547.16099
564.328	14535.02024
564.533	14565.37203
564.737	14763.66442
564.942	14702.96364
565.147	14933.62319
565.351	14883.04065
565.556	14654.40244
565.761	14387.30388
565.965	14868.87748
566.17	14571.44235
566.374	14970.04243
566.579	14522.87945
566.784	14834.4811
566.988	14749.50097
567.193	15320.06908
567.397	15123.81155
567.602	15097.50901
567.806	14713.08049
568.011	15194.62602
568.215	15295.78972
568.42	15245.20782
568.624	15186.53294
568.828	15030.74093
569.033	14988.25201
569.237	15560.84261
569.442	15305.90611
569.646	14913.39021
569.85	14891.13388
570.055	15299.83627
570.259	15447.53653
570.463	15202.71911
570.668	15204.74238
570.872	15318.04579
571.076	15176.41659
571.281	15239.138
571.485	15364.58135
571.689	15581.07606
571.893	15508.23598
572.098	15619.51981
572.302	15664.03399
572.506	15866.37704
572.71	15552.74925
572.914	15823.88411
573.119	15641.77685
573.323	15556.79593
573.527	15376.72109
573.731	16046.47235
573.935	15759.13393
574.139	15858.28311
574.343	15469.79294
574.547	15659.98723
574.751	15498.11937
574.955	15615.47308
575.159	15726.75924
575.364	15738.89972
575.568	16048.49596
575.772	15862.33007
575.976	15704.50179
576.18	15882.56496
576.383	16048.49596
576.587	15923.03511
576.791	15795.55577
576.995	16580.76411
577.199	15993.85913
577.403	16258.95951
577.607	16254.91197
577.811	16392.5327
578.015	15906.84699
578.219	16103.13387
578.422	15931.1292
578.626	16281.22115
578.83	15957.43514
579.034	15985.76487
579.238	16283.24495
579.442	16601.00514
579.645	16522.06635
579.849	16657.68123
580.053	16384.43712
580.257	16238.72185
580.46	16623.27054
580.664	16714.35912
580.868	16578.74002
581.071	16611.12574
581.275	16872.25746
581.479	16977.53155
581.682	16823.67175
581.886	16935.01616
582.09	16592.9087
582.293	16811.52555
582.497	16692.09259
582.7	16789.25775
582.904	16718.40761
583.107	16696.14103
583.311	16665.77796
583.515	16815.57428
583.718	16787.23342
583.922	16995.75279
584.125	16939.0652
584.329	17234.67415
584.532	16843.91562
584.735	17437.18161
584.939	16939.0652
585.142	17265.04835
585.346	16935.01616
585.549	17356.17499
585.753	17206.32548
585.956	17250.87364
586.159	17269.0983
586.363	17291.3732
586.566	17526.29465
586.769	17534.39614
586.973	17159.7539
587.176	17461.48456
587.379	17676.18059
587.582	17755.1818
587.786	17337.94918
587.989	17532.37076
588.192	17601.23539
588.395	17797.72303
588.599	17655.92469
588.802	17965.87703
589.005	17674.15499
589.208	17664.02701
589.411	17915.22571
589.615	17226.57447
589.818	17712.64205
590.021	17862.55066
590.224	17682.25743
590.427	18002.34734
590.63	17945.61624
590.833	17923.32977
591.036	17722.77043
591.239	17736.9503
591.442	17957.77267
591.645	17996.26888
591.848	17931.43389
592.051	18140.13453
592.254	18063.13376
592.457	18257.6722
592.66	18308.33882
592.863	18219.16712
593.066	18127.97617
593.269	18184.71633
593.472	18334.68639
593.675	18577.92499
593.878	18259.69882
594.081	18434.00218
594.284	18294.15193
594.486	18549.54431
594.689	18723.89485
594.892	18265.7787
595.095	18695.51023
595.298	18517.11017
595.5	18675.23597
595.703	18930.72053
595.906	18581.97944
596.109	18906.38594
596.311	18727.94986
596.514	18652.93475
596.717	18460.3528
596.92	19088.90951
597.122	18478.59591
597.325	19044.28961
597.528	18573.87056
597.73	18953.02774
597.933	18835.41335
598.136	19024.00849
598.338	18646.85268
598.541	19030.09278
598.743	18756.33536
598.946	18829.33021
599.148	18867.85735
599.351	18906.38594
599.554	18896.2467
599.756	18863.8018
599.959	19040.23335
600.161	18888.13538
600.363	18963.16755
600.566	18740.11498
600.768	19299.86671
600.971	19157.87142
601.173	19040.23335
601.376	19397.24658
601.578	19115.27674
601.78	19555.50925
601.983	19494.636
602.185	19581.88882
602.388	19374.92952
602.59	19423.62194
602.792	19553.48008
602.995	19283.63766
603.197	19445.94009
603.399	19539.27601
603.601	19287.6949
603.804	19208.58171
604.006	19413.47749
604.208	19533.18862
604.41	19107.16368
604.613	19545.36345
604.815	19352.61296
605.017	19545.36345
605.219	19372.90072
605.421	19324.21079
605.623	19425.65084
605.826	19764.53601
606.028	19648.85552
606.23	19590.00575
606.432	19472.31674
606.634	19762.50641
606.836	19752.35848
607.038	19638.70876
607.24	19654.94363
607.442	19792.95085
607.644	19652.91426
607.846	19736.122
608.048	19454.05591
608.25	19636.67942
608.452	19813.24766
608.654	20125.87167
608.856	19557.53842
609.058	19849.78299
609.26	19728.00386
609.462	20111.65933
609.664	20095.4169
609.866	20186.78406
610.067	19821.36651
610.269	20062.93285
610.471	19811.21796
610.673	20123.84133
610.875	19825.42595
611.077	19794.98051
611.278	19878.20029
611.48	19999.99807
611.682	19837.60439
611.884	20527.96331
612.085	19953.30713
612.287	20268.00647
612.489	20178.66219
612.69	20203.02801
612.892	20032.48003
613.094	20239.57786
613.295	20245.66964
613.497	20249.73084
613.699	20268.00647
613.9	20032.48003
614.102	20006.08835
614.304	20194.906
614.505	19943.15722
614.707	20227.39443
614.908	20111.65933
615.11	20270.03712
615.311	20073.084
615.513	19922.85772
615.714	19861.96173
615.916	19959.39713
616.117	20069.02353
616.319	20270.03712
616.52	20367.51308
616.722	20290.34381
616.923	20249.73084
617.124	20044.66104
617.326	19989.84767
617.527	20312.68166
617.729	20328.92769
617.93	20079.17474
618.131	20558.43149
618.333	20456.87454
618.534	20657.96743
618.735	20570.61903
618.937	20308.62019
619.138	20257.8533
619.339	20515.7763
619.54	20393.91448
619.742	20290.34381
619.943	20351.26641
620.144	20637.65316
620.345	20568.58776
620.546	20270.03712
620.748	20885.51565
620.949	20371.57479
621.15	20186.78406
621.351	20071.05376
621.552	20391.88358
621.753	20069.02353
621.954	20597.02587
622.155	20416.25469
622.356	20215.21114
622.558	20471.09188
622.759	20495.46495
622.96	20276.12908
623.161	20286.28244
623.362	20379.69825
623.563	20601.08853
623.764	20903.80302
623.965	20700.62876
624.166	20436.5644
624.366	20601.08853
624.567	20621.40205
624.768	20911.93085
624.969	20505.62057
625.17	20542.18167
625.371	20576.71285
625.572	20341.11238
625.773	20564.52524
625.973	20918.02677
626.174	20499.52718
626.375	21033.85621
626.576	20678.28212
626.777	20962.73129
626.977	20651.87311
627.178	20615.30795
627.379	20395.94539
627.58	20361.42055
627.78	20534.05687
627.981	20546.2441
628.182	20850.97373
628.382	20830.65552
628.583	20777.8301
628.784	20479.21617
628.984	20430.47144
629.185	21115.14797
629.386	20727.03907
629.586	21415.98394
629.787	21076.53357
629.987	21245.22834
630.188	21090.75976
630.388	21350.93085
630.589	20834.71913
630.79	20968.82751
630.99	20544.21289
631.191	20668.12473
631.391	20940.37878
631.591	20775.79841
631.792	20790.02033
631.992	21237.09783
632.193	20978.98797
632.393	20907.86693
632.594	20853.00558
632.794	20536.08806
632.994	20820.49657
633.195	20889.57948
633.395	20678.28212
633.595	21111.08323
633.796	21161.89369
633.996	21332.6354
634.196	21019.63082
634.397	21432.24785
634.597	20950.53895
634.797	21411.918
634.997	20676.25063
635.198	21082.63048
635.398	20928.18671
635.598	21462.74338
635.798	21515.60441
635.998	21332.6354
636.199	21178.15358
636.399	21200.51134
636.599	21411.918
636.799	21359.06226
636.999	21249.29362
637.199	21476.97493
637.399	21080.59817
637.599	20899.73913
637.799	20759.54503
637.999	21476.97493
638.199	21332.6354
638.399	21466.80951
638.599	21210.67412
638.799	21466.80951
638.999	21283.84915
639.199	21643.70184
639.399	21320.43862
639.599	21326.53699
639.799	20985.08429
639.999	21361.09512
640.199	21125.3099
640.399	21011.50212
640.599	20519.83862
640.799	21704.7061
640.998	21643.70184
641.198	21601.00096
641.398	21357.0294
641.598	21511.53808
641.798	21491.20668
641.997	21816.55636
642.197	21668.10313
642.397	21747.41118
642.597	21603.0343
642.796	21706.73964
642.996	21479.00802
643.196	21814.52261
643.395	21688.43796
643.595	21830.79268
643.795	21828.75891
643.994	22264.07292
644.194	21786.05058
644.394	22068.77051
644.593	21873.5028
644.793	22174.55505
644.992	22300.69592
645.192	22347.49372
645.392	22040.29179
645.591	22048.42849
645.791	21507.47177
645.99	21574.56795
646.19	21393.62148
646.389	21592.86765
646.589	21828.75891
646.788	21973.16631
646.987	21840.96161
647.187	22158.27985
647.386	21723.00807
647.586	22026.0527
647.785	22015.88204
647.984	22123.69583
648.184	22009.77969
648.383	21906.04498
648.582	21771.81485
648.782	22131.83315
648.981	21702.67257
649.18	22198.9683
649.38	22465.5141
649.579	22378.01506
649.778	22257.9692
649.977	22024.01856
650.177	22359.70216
650.376	22249.83096
650.575	21934.52019
650.774	21877.57052
650.973	21956.89409
651.173	22072.83895
651.372	22017.91617
651.571	22207.10617
651.77	22463.47916
651.969	22536.73916
652.168	22506.21359
652.367	22264.07292
652.566	21960.96212
652.765	22308.83453
652.964	22345.45899
653.163	22406.50238
653.362	22390.22383
653.561	22093.18142
653.76	22111.48997
653.959	22093.18142
654.158	22373.9455
654.357	22378.01506
654.556	22009.77969
654.755	22402.43272
654.954	22239.65824
655.153	22404.46755
655.352	22396.32826
655.551	22510.28362
655.749	22430.92066
655.948	22209.14065
656.147	22453.30453
656.346	22414.64175
656.545	22711.76778
656.743	22689.37895
656.942	22463.47916
657.141	22772.83037
657.34	22685.3083
657.538	22485.86367
657.737	22821.68268
657.936	23002.8605
658.135	22498.07358
658.333	22899.03622
658.532	22585.58173
658.731	22561.16019
658.929	22400.3979
659.128	21887.73988
659.326	22188.79605
659.525	22628.32065
659.724	22561.16019
659.922	22862.39446
660.121	22593.72235
660.319	22662.91996
660.518	22632.39111
660.716	22660.88468
660.915	22516.38869
661.113	22992.68126
661.312	22581.51144
661.51	22375.98028
661.709	22652.74359
661.907	22624.25021
662.105	22536.73916
662.304	22754.51127
662.502	22542.84437
662.701	22835.93165
662.899	22347.49372
663.097	22799.29179
663.296	22526.56388
663.494	22709.73241
663.692	22463.47916
663.891	22762.65306
664.089	22294.59201
664.287	22614.07417
664.485	22414.64175
664.684	22958.07248
664.882	22976.39465
665.08	23072.08153
665.278	22795.22077
665.476	22978.43047
665.675	22886.82218
665.873	22837.96723
666.071	22483.82869
666.269	22506.21359
666.467	22221.34759
666.665	22750.44039
666.863	22264.07292
667.061	22762.65306
667.259	22589.65203
667.457	22833.89607
667.655	22404.46755
667.853	22730.08623
668.051	22182.69274
668.249	22253.90007
668.447	22211.17513
668.645	22314.93853
668.843	22638.49681
669.041	22691.41428
669.239	22677.16704
669.437	22485.86367
669.635	23033.39871
669.833	22734.15703
670.031	22589.65203
670.229	22835.93165
670.426	22752.47583
670.624	22882.75085
670.822	22449.2347
671.02	22972.32304
671.218	22939.75058
671.415	22703.62634
671.613	22833.89607
671.811	22693.44961
672.009	22213.20961
672.206	22345.45899
672.404	22351.56318
672.602	22284.41889
672.799	22040.29179
672.997	22369.87596
673.195	21627.43464
673.392	22172.52064
673.59	22304.76522
673.788	22339.35483
673.985	21967.0642
674.183	22245.76186
674.38	22510.28362
674.578	22789.11425
674.775	22337.32012
674.973	22080.9759
675.17	22247.79641
675.368	22137.93618
675.565	22040.29179
675.763	22392.25863
675.96	22298.66128
676.158	22184.72717
676.355	22205.0717
676.553	22960.10826
676.75	22540.80929
676.947	22441.09509
677.145	22194.89939
677.342	22365.80643
677.539	22654.77886
677.737	22819.64713
677.934	22310.86919
678.131	22137.93618
678.329	22034.1893
678.526	22013.84792
678.723	22323.07724
678.92	22783.00777
679.118	22422.78117
679.315	22744.33411
679.512	22467.54904
679.709	22227.45111
679.906	22105.38709
680.104	22123.69583
680.301	21625.40125
680.498	21741.31035
680.695	21822.65762
680.892	22038.25762
681.089	21901.97715
681.286	22170.48623
681.483	21987.4047
681.68	22530.63398
681.877	22422.78117
682.075	22422.78117
682.272	22314.93853
682.469	22225.4166
682.665	21826.72514
682.862	21849.09681
683.059	21790.11797
683.256	21725.04164
683.453	21420.04989
683.65	21857.23208
683.847	22113.52427
684.044	22201.00276
684.241	22034.1893
684.438	22089.1129
684.635	21659.9693
684.831	22058.59945
685.028	21476.97493
685.225	21659.9693
685.422	21662.00275
685.619	22054.53105
685.815	22158.27985
686.012	21926.38434
686.209	21684.37096
686.405	22015.88204
686.602	21804.35394
686.799	21808.4214
686.996	21723.00807
687.192	21560.33507
687.389	21588.80103
687.586	21733.17596
687.782	21999.60919
687.979	22386.15422
688.175	21375.32528
688.372	21747.41118
688.568	21698.60552
688.765	21855.19826
688.962	21723.00807
689.158	21418.01691
689.355	21769.78119
689.551	21572.53467
689.748	21379.39107
689.944	21387.52271
690.14	21889.77377
690.337	21405.81912
690.533	21666.06966
690.73	21200.51134
690.926	21588.80103
691.123	21664.03621
691.319	21619.30113
691.515	21641.66843
691.712	21275.71833
691.908	21454.61115
692.104	20976.95587
692.301	21411.918
692.497	20954.60305
692.693	20991.18065
692.889	21316.37306
693.086	21084.66279
693.282	21204.57644
693.478	21517.63758
693.674	21531.86988
693.87	21485.10733
694.067	21503.40547
694.263	21405.81912
694.459	21529.83668
694.655	21603.0343
694.851	21611.16768
695.047	21409.88504
695.243	21308.24199
695.439	21505.43862
695.635	21574.56795
695.831	21531.86988
696.027	21117.18035
696.224	20855.03743
696.42	20855.03743
696.615	21233.0326
696.811	20946.47487
697.007	20859.10114
697.203	20958.66716
697.399	20743.29192
697.595	20722.9759
697.791	20497.49606
697.987	20800.17897
698.183	21190.34866
698.379	20942.41081
698.575	21464.77644
698.77	21056.21079
698.966	21204.57644
699.162	20873.32425
699.358	20983.05218
699.554	20674.21915
699.749	20960.69922
699.945	20824.56014
700.141	21080.59817
700.337	20729.07066
700.532	20757.51338
700.728	20741.2603
700.924	20718.91275
701.119	20749.3868
701.315	20800.17897
701.511	20361.42055
701.706	20800.17897
701.902	20564.52524
702.097	20964.76336
702.293	20731.10226
702.489	21389.55563
702.684	20999.30919
702.88	21039.95286
703.075	20798.14724
703.271	20629.52757
703.466	20688.43962
703.662	20643.7474
703.857	20794.08378
704.053	20930.21871
704.248	21109.05086
704.443	20824.56014
704.639	20477.18509
704.834	20686.40811
705.03	20278.15974
705.225	20623.43342
705.42	20125.87167
705.616	20450.78145
705.811	20296.4359
706.006	20546.2441
706.202	20495.46495
706.397	20491.40273
706.592	20487.34052
706.787	20223.33331
706.983	20322.83539
707.178	20725.00748
707.373	20253.79206
707.568	20048.72141
707.763	19667.11996
707.959	20176.63174
708.154	20131.96274
708.349	20064.96307
708.544	20722.9759
708.739	20777.8301
708.934	20142.11461
709.129	20584.83801
709.324	20373.60565
709.519	20578.74413
709.714	20525.93213
709.909	20570.61903
710.104	20367.51308
710.299	20355.32805
710.494	20298.46661
710.689	20255.82268
710.884	20408.13092
711.079	20471.09188
711.274	20312.68166
711.469	20505.62057
711.664	20536.08806
711.859	20308.62019
712.054	20239.57786
712.249	20361.42055
712.443	20050.75161
712.638	20133.99311
712.833	19744.24021
713.028	20237.54728
713.223	19811.21796
713.417	19981.72743
713.612	19776.7137
713.807	20426.40949
714.002	20180.69265
714.196	20302.52803
714.391	19768.59523
714.586	20268.00647
714.78	20119.78064
714.975	20286.28244
715.17	20432.50243
715.364	20142.11461
715.559	20211.15008
715.754	20077.14449
715.948	19933.00742
716.143	20073.084
716.337	20064.96307
716.532	20178.66219
716.726	19957.36712
716.921	20062.93285
717.115	19898.49887
717.31	20095.4169
717.504	19874.14062
717.699	19784.83224
717.893	19421.59304
718.088	19602.18128
718.282	19468.25875
718.476	19407.39087
718.671	19334.35433
718.865	19585.94728
719.059	19734.09246
719.254	20050.75161
719.448	20030.44987
719.642	19947.21717
719.837	19425.65084
720.031	19437.82434
720.225	19565.65515
720.419	19910.67822
720.614	19508.83942
720.808	19776.7137
721.002	19547.3926
721.196	19642.76745
721.39	19472.31674
721.585	19464.20078
721.779	19656.97301
721.973	19362.75679
722.167	19232.92357
722.361	19650.88489
722.555	19297.83807
722.749	19208.58171
722.943	19139.61634
723.137	19336.38305
723.331	19409.41974
723.525	19748.29933
723.719	19320.1534
723.913	19407.39087
724.107	18942.88804
724.301	19413.47749
724.495	18610.36099
724.689	19206.55325
724.883	18961.13958
725.077	19044.28961
725.271	18946.94391
725.465	19107.16368
725.659	18971.27946
725.853	18782.69402
726.046	18902.33023
726.24	18882.05193
726.434	18786.74926
726.628	19214.66712
726.822	18999.67167
727.015	19163.95652
727.209	18750.25269
727.403	19376.95832
727.596	19111.2202
727.79	19437.82434
727.984	19046.31775
728.177	19299.86671
728.371	19218.72408
728.565	18995.6156
728.758	19385.07358
728.952	19391.16006
729.146	18969.25148
729.339	19328.26819
729.533	18906.38594
729.726	18979.39144
729.92	18912.46953
730.113	18754.3078
730.307	18983.44746
730.5	18831.35792
730.694	18620.49744
730.887	18788.77688
731.081	18673.20857
731.274	18703.62004
731.468	18547.51715
731.661	18656.98948
731.854	18466.4338
732.048	18620.49744
732.241	18608.33371
732.435	18628.60667
732.628	18523.1915
732.821	18381.30288
733.014	18573.87056
733.208	18707.67497
733.401	18654.96211
733.594	18833.38563
733.788	19050.37403
733.981	19289.72352
734.174	19058.48664
734.367	19086.88129
734.56	19131.50307
734.754	19021.9804
734.947	19111.2202
735.14	18790.80451
735.333	18557.653
735.526	18533.32712
735.719	18196.87531
735.912	18304.28541
736.105	18630.63399
736.298	18689.42791
736.491	18721.86735
736.684	18517.11017
736.877	18176.61042
737.07	18387.38344
737.263	17971.95533
737.456	18409.67911
737.649	18040.84503
737.842	18502.92055
738.035	18482.64998
738.228	18549.54431
738.421	18786.74926
738.614	18953.02774
738.807	18750.25269
739	18646.85268
739.192	18267.80534
739.385	18164.45166
739.578	18284.01855
739.771	18227.27334
739.964	18044.89749
740.156	18474.54186
740.349	18247.53915
740.542	18247.53915
740.735	18073.26514
740.927	18217.14057
741.12	18166.47811
741.313	18198.90182
741.505	18450.21787
741.698	18036.79258
741.891	18379.27603
742.083	18359.00779
742.276	18257.6722
742.468	18498.8664
742.661	17686.30867
742.854	17980.05979
743.046	18200.92833
743.239	18022.60912
743.431	18065.16003
743.624	17959.79875
743.816	18073.26514
744.009	18393.46403
744.201	18361.0346
744.393	18257.6722
744.586	18160.39877
744.778	18215.11403
744.971	18263.75207
745.163	17982.08591
745.355	18030.71393
745.548	18130.00255
745.74	17967.90313
745.932	18373.19552
746.125	18127.97617
746.317	18198.90182
746.509	18077.31772
746.702	18444.13696
746.894	17771.3878
747.086	18136.08173
747.278	17937.51202
747.471	17961.82484
747.663	17862.55066
747.855	17998.29503
748.047	17659.97584
748.239	17955.74659
748.431	18038.8188
748.623	17880.78406
748.815	17933.45993
749.008	18361.0346
749.2	17919.27774
749.392	17844.31753
749.584	17479.71207
749.776	17722.77043
749.968	17645.79686
750.16	17621.49041
750.352	17493.8892
750.544	18028.68773
750.736	17649.84798
750.928	17935.48597
751.12	17493.8892
751.311	18010.45201
751.503	17801.77465
751.695	17698.46247
751.887	17621.49041
752.079	17907.1217
752.271	17489.83858
752.463	17785.56824
752.654	17362.25032
752.846	17680.23181
753.038	17390.6022
753.23	17504.01582
753.421	17088.88699
753.613	17388.57705
753.805	17692.38555
753.997	17145.58024
754.188	17425.0303
754.38	17743.02743
754.572	17609.33736
754.763	17495.91452
754.955	17463.50983
755.146	17493.8892
755.338	17512.11717
755.53	17530.34539
755.721	17621.49041
755.913	17684.28305
756.104	17392.62736
756.296	17801.77465
756.487	17562.75176
756.679	17520.21857
756.87	16882.37966
757.062	16748.7716
757.253	16862.13532
757.445	16641.48788
757.636	16896.55086
757.827	17040.29451
758.019	17145.58024
758.21	16930.96714
758.401	16354.07897
758.593	16447.17869
758.784	16418.84355
758.975	16477.53821
759.167	16839.86683
759.358	16736.62594
759.549	16947.1633
759.74	16939.0652
759.932	16619.22226
760.123	16809.5012
760.314	16886.42856
760.505	17123.30763
760.696	16663.75378
760.888	16930.96714
761.079	16580.76411
761.27	16894.52639
761.461	16530.16248
761.652	16783.18477
761.843	16483.61017
762.034	16441.10684
762.225	16313.60211
762.416	16263.00707
762.607	16206.34195
762.798	16131.46508
762.989	16339.91198
763.18	16635.41541
763.371	16554.45109
763.562	16382.41323
763.753	16111.22847
763.944	16327.76892
764.135	16461.3464
764.326	16299.43538
764.517	16388.4849
764.708	16212.41315
764.899	16273.12599
765.089	15866.37704
765.28	16198.24704
765.471	15967.55287
765.662	15583.0994
765.853	16184.08102
766.043	16014.09487
766.234	16350.03125
766.425	15657.96385
766.615	15664.03399
766.806	15937.19978
766.997	15947.31744
767.187	15589.16945
767.378	16052.54317
767.569	16028.25997
767.759	15753.06365
767.95	15649.87034
768.141	15761.15735
768.331	15664.03399
768.522	15759.13393
768.712	15362.55806
768.903	15421.23359
769.093	15295.78972
769.284	15368.62792
769.474	15356.48819
769.665	15558.81927
769.855	15364.58135
770.046	15488.00277
770.236	15271.51039
770.426	15522.39926
770.617	15542.63257
770.807	15336.25534
770.998	15360.53477
771.188	14980.15887
771.378	14769.73445
771.569	14660.47263
771.759	14583.58297
771.949	14761.64107
772.139	15526.44592
772.33	15239.138
772.52	15239.138
772.71	15188.55621
772.9	15172.37004
773.09	15050.9737
773.281	15077.27628
773.471	15324.11564
773.661	14921.4834
773.851	14978.13558
774.041	14996.34515
774.231	15057.04353
774.421	15008.48485
774.611	14551.2079
774.802	14223.38949
774.992	14581.55954
775.182	14405.51591
775.372	14581.55954
775.562	14492.52726
775.752	14450.03368
775.942	14316.47809
776.131	14456.10423
776.321	14085.77258
776.511	14312.43084
776.701	14182.91493
776.891	14474.3158
777.081	14448.01016
777.271	14324.57257
777.461	14417.65719
777.651	14385.28032
777.84	14354.92663
778.03	14427.77488
778.22	14008.86455
778.41	14326.59619
778.599	14441.93959
778.789	14306.35995
778.979	14035.17558
779.169	14158.62981
779.358	14508.71513
779.548	14583.58297
779.738	14338.73785
779.927	14478.3628
780.117	14510.73861
780.307	14132.32058
780.496	14132.32058
780.686	14484.43329
780.875	14120.17774
781.065	14193.03365
781.254	14006.84061
781.444	14257.79226
781.633	13834.79608
781.823	13958.26525
782.012	14310.40721
782.202	14367.06815
782.391	13624.26609
782.581	13535.18502
782.77	13765.97264
782.96	13998.74481
783.149	13680.9506
783.338	13893.4958
783.528	13960.28925
783.717	13931.95298
783.906	13952.19323
784.096	13664.75529
784.285	13571.62809
784.474	13553.4067
784.663	13559.48053
784.853	13407.62485
785.042	13612.11906
785.231	13731.55962
785.42	13664.75529
785.61	13563.52973
785.799	13391.42564
785.988	13608.07003
786.177	12812.11564
786.366	12824.2732
786.555	13061.30747
786.744	12901.26654
786.933	12700.66185
787.122	13150.43087
787.312	13271.94844
787.501	13674.87738
787.69	13332.70136
787.879	13188.91317
788.068	13063.33311
788.257	13093.71704
788.445	12844.53537
788.634	13004.58771
788.823	13008.63926
789.012	13421.79895
789.201	13197.0145
789.39	13077.51241
789.579	12903.29257
789.768	13004.58771
789.957	13213.21695
790.145	13235.49485
790.334	12978.25221
790.523	12783.74721
790.712	12889.11021
790.9	12751.3248
791.089	12619.59345
791.278	12785.77357
791.467	12789.82626
791.655	12706.74159
791.844	12437.15328
792.033	12577.02865
792.221	12516.21703
792.41	12797.93156
792.599	12463.50897
792.787	12931.65652
792.976	12939.76031
793.164	12587.16337
793.353	12315.49693
793.541	12358.07945
793.73	12435.12588
793.918	12753.35125
794.107	12325.6359
794.295	12461.48165
794.484	12431.07104
794.672	12266.82741
794.861	12098.47979
795.049	12378.35577
795.238	12175.56093
795.426	12477.70003
795.614	12007.18519
795.803	12297.24634
795.991	12439.18068
796.179	12183.6741
796.368	12254.6594
796.556	12175.56093
796.744	12021.38761
796.932	12007.18519
797.121	12084.27944
797.309	11820.48792
797.497	11911.81592
797.685	12137.02172
797.874	12043.70492
798.062	11903.69856
798.25	11877.31622
798.438	11544.36748
798.626	11944.28406
798.814	12011.24306
799.002	12029.50311
799.19	12011.24306
799.378	11694.62994
799.566	12027.47424
799.755	11861.08023
799.943	11830.63632
800.131	11873.25727
800.318	11788.01163
800.506	11723.05241
800.694	11560.6145
800.882	11792.07128
801.07	12021.38761
801.258	11794.1011
801.446	11609.35198
801.634	11418.43255
801.822	11491.56053
802.01	11558.58365
802.197	11909.78659
802.385	11438.74714
802.573	11511.87165
802.761	11438.74714
802.949	11763.65296
803.136	11353.4193
803.324	11664.17535
803.512	11550.46018
803.699	11674.3271
803.887	11861.08023
804.075	11656.05378
804.262	11749.44317
804.45	11897.61045
804.638	11672.29677
804.825	12080.22212
805.013	11694.62994
805.201	12027.47424
805.388	11759.59307
805.576	11820.48792
805.763	11857.02115
805.951	11842.81411
806.138	11761.62302
806.326	11893.55167
806.513	11519.99584
806.701	12015.30091
806.888	11783.95194
807.075	11913.84524
807.263	11481.40461
807.45	12124.85088
807.638	11871.22779
807.825	11976.75012
808.012	12045.73372
808.2	12037.61848
808.387	11830.63632
808.574	11861.08023
808.761	11757.5631
808.949	11777.86234
809.136	11698.6904
809.323	11696.66017
809.51	11796.13091
809.698	11727.11263
809.885	11662.14497
810.072	11737.263
810.259	12033.56081
810.446	12205.98473
810.633	12013.27199
810.82	11984.86631
811.008	11816.4285
811.195	11830.63632
811.382	11483.43581
811.569	11781.92208
811.756	11394.05377
811.943	11471.24845
812.13	11861.08023
812.317	11905.72791
812.504	11960.51735
812.691	12218.15379
812.878	12433.09846
813.064	12647.96848
813.251	11976.75012
813.438	12039.6473
813.625	12037.61848
813.812	11765.6829
813.999	11771.77266
814.186	11948.34243
814.372	11832.66597
814.559	11688.53918
814.746	11517.9648
814.933	11471.24845
815.12	11660.11458
815.306	11704.78102
815.493	11601.22943
815.68	11761.62302
815.866	11660.11458
816.053	11729.14272
816.24	11645.90162
816.426	11698.6904
816.613	11645.90162
816.799	12102.53696
816.986	11637.77974
817.173	11735.23295
817.359	11448.90406
817.546	11422.49555
817.732	11168.48135
817.919	11339.19629
818.105	11052.59685
818.292	11436.71572
818.478	11264.00936
818.665	11487.49819
818.851	11355.45112
819.037	11093.26206
819.224	11194.90629
819.41	11221.32947
819.597	11142.05461
819.783	11310.74881
819.969	10824.78933
820.156	11357.48292
820.342	11479.3734
820.528	11682.44834
820.714	11448.90406
820.901	11597.16811
821.087	11375.76874
821.273	11788.01163
821.459	11483.43581
821.646	11452.96677
821.832	11442.80994
822.018	11398.11699
822.204	10865.47972
822.39	11322.94083
822.576	10859.37646
822.762	10877.68593
822.948	10995.65819
823.134	11314.81286
823.32	10952.94849
823.507	10979.38841
823.693	10910.23382
823.879	11198.97151
824.065	10944.81274
824.25	11357.48292
824.436	11060.73024
824.622	11536.24375
824.808	11121.72513
824.994	11272.13835
825.18	10930.57476
825.366	11337.1644
825.552	11030.22912
825.738	10957.01629
825.923	10999.72553
826.109	11050.56348
826.295	11074.96325
826.481	11032.26261
826.667	11087.16256
826.852	11215.23197
827.038	11109.52693
827.224	11337.1644
827.409	10985.48966
827.595	11190.84103
827.781	10934.64281
827.966	10930.57476
828.152	10893.96024
828.338	10796.30328
828.523	10578.51095
828.709	10914.3021
828.894	10629.40951
829.08	10531.6774
829.266	10254.60921
829.451	10454.28554
829.637	10305.55916
829.822	10570.36646
830.008	10437.99015
830.193	10264.79987
830.378	10221.99681
830.564	10332.04982
830.749	10087.43341
830.935	10454.28554
831.12	10295.36984
831.305	10458.35925
831.491	10442.06408
831.676	10572.40261
831.861	10586.65524
832.047	10666.05169
832.232	10607.0151
832.417	10580.54705
832.602	10440.02712
832.788	10323.89909
832.973	9971.17024
833.158	10507.23985
833.343	10297.40773
833.528	10460.39609
833.714	10507.23985
833.899	10651.80242
834.084	10124.13852
834.269	10315.74814
834.454	10034.40684
834.639	10091.51198
834.824	10364.65063
835.009	10091.51198
835.194	10156.76149
835.379	10217.92001
835.564	9971.17024
835.749	10211.80472
835.934	9887.51335
836.119	9930.36507
836.304	9511.76586
836.489	9881.39114
836.674	9650.68981
836.859	10016.04925
837.044	9595.53753
837.228	9926.28423
837.413	9805.87299
837.598	9977.29051
837.783	9875.26881
837.968	9987.49068
838.152	9793.62487
838.337	10014.00944
838.522	9744.62698
838.707	9838.53199
838.891	9446.36449
839.076	9652.73227
839.261	9638.43473
839.445	9421.83472
839.63	9430.01157
839.815	9809.95557
839.999	9456.58454
840.184	9718.08281
840.368	9620.05105
840.553	9636.39216
840.737	9887.51335
840.922	9644.56234
841.106	9354.36576
841.291	9593.49463
841.475	9137.52495
841.66	9380.94657
841.844	8988.07975
842.029	9260.28818
842.213	8719.66068
842.397	8947.1196
842.582	8986.03191
842.766	9278.69744
842.951	8922.54012
843.135	8967.60056
843.319	9074.07321
843.504	9266.42475
843.688	8990.12757
843.872	9151.85048
844.056	9196.86813
844.241	9340.05187
844.425	8971.69653
844.609	9061.79031
844.793	9043.36479
844.977	8768.8599
845.161	8740.16164
845.346	9096.59024
845.53	8832.39335
845.714	9041.31742
845.898	8768.8599
846.082	8775.00906
846.266	8654.04523
846.45	8670.45087
846.634	8463.24164
846.818	8637.6384
847.002	8764.76037
847.186	8762.71057
847.37	8561.74127
847.554	8471.45161
847.738	8405.76321
847.922	8528.91292
848.106	8483.76601
848.29	8467.34666
848.473	8307.19351
848.657	8344.1624
848.841	8151.03243
849.025	8225.01771
849.209	7908.3423
849.392	8303.08547
849.576	7912.45806
849.76	8122.2534
849.944	7842.47895
850.127	8200.35881
850.311	8060.5708
850.495	8356.48396
850.678	8335.94764
850.862	8491.97522
851.046	8157.19885
851.229	8315.40937
851.413	8233.2367
851.596	8241.45539
851.78	8185.97313
851.964	8146.92138
852.147	7939.20847
852.331	7959.78336
852.514	7685.96801
852.698	7650.94235
852.881	7700.38856
853.065	7817.77472
853.248	7644.76072
853.431	7883.64602
853.615	7733.34594
853.798	7924.80484
853.982	7570.56618
854.165	7920.68932
854.348	7786.89022
854.532	7914.51591
854.715	7795.12655
854.898	7937.15087
855.081	7380.83148
855.265	7842.47895
855.448	7665.36542
855.631	7613.84968
855.814	7611.78878
855.997	7869.23849
856.181	7615.91057
856.364	7774.53511
856.547	7560.2592
856.73	7667.42577
856.913	7316.85775
857.096	7519.0259
857.279	7339.56051
857.462	7591.17855
857.645	7417.9679
857.828	7401.46369
858.011	7558.19773
858.194	7422.09373
858.377	7327.17752
858.56	7655.06333
858.743	7516.96401
858.926	7467.47218
859.109	7211.56476
859.292	7302.40916
859.475	7312.72969
859.658	7347.81541
859.841	7141.33748
860.023	7120.67751
860.206	6839.47909
860.389	7147.53504
860.572	6980.1304
860.755	7066.95115
860.937	6901.54405
861.12	6909.81783
861.303	6882.92671
861.486	6973.9274
861.668	6767.04407
861.851	6889.13269
862.034	6909.81783
862.216	7197.1083
862.399	6802.23028
862.581	6856.03174
862.764	6882.92671
862.947	6742.20277
863.129	6682.156
863.312	6479.09596
863.494	6549.57051
863.677	6938.77323
863.859	6512.26379
864.042	6551.64289
864.224	6309.01736
864.406	6491.53459
864.589	6180.31705
864.771	6358.81268
864.954	6142.93556
865.136	6335.9915
865.318	6113.85581
865.501	6333.9167
865.683	6057.76041
865.865	6530.91809
866.048	6248.83003
866.23	6535.06323
866.412	6392.0021
866.594	6435.55416
866.777	6076.46078
866.959	6358.81268
867.141	6203.15755
867.323	6242.60263
867.505	6331.84188
867.687	6234.29911
867.869	6184.47008
868.052	6273.73752
868.234	6070.22753
868.416	6360.8872
868.598	5980.86107
868.78	6383.70531
868.962	6286.19
869.144	6309.01736
869.326	5824.88502
869.508	6379.55677
869.69	6007.88343
869.872	6153.32007
870.054	5951.75561
870.236	6076.46078
870.417	6028.66715
870.599	6051.52653
870.781	5872.73178
870.963	6383.70531
871.145	5951.75561
871.327	6034.90181
871.508	5926.80439
871.69	6063.99408
871.872	5889.37121
872.054	5928.88379
872.235	5741.64352
872.417	5847.76981
872.599	5652.11679
872.78	5829.0461
872.962	5712.50007
873.144	5930.96317
873.325	5670.85855
873.507	5729.15403
873.689	5772.8635
873.87	5926.80439
874.052	5443.74651
874.233	5795.75479
874.415	5477.10158
874.596	5602.12941
874.778	5385.36066
874.959	5928.88379
875.141	5635.45584
875.322	5993.33342
875.503	5710.41822
875.685	5804.07818
875.866	5783.26899
876.048	5889.37121
876.229	5497.94544
876.41	5625.04198
876.592	5660.4467
876.773	5727.07237
876.954	5512.53474
877.136	5814.48189
877.317	5689.5984
877.498	5758.29484
877.679	5602.12941
877.86	5920.56606
878.042	5810.32048
878.223	5955.91381
878.404	5685.43416
878.585	5851.93037
878.766	5735.39888
878.947	5928.88379
879.128	5587.5472
879.309	6072.30531
879.49	5862.33137
879.672	6130.47337
879.853	6101.39164
880.034	6145.01251
880.215	5812.4012
880.396	5962.15095
880.576	5787.43101
880.757	6049.44852
880.938	5510.45063
881.119	6009.96191
881.3	5781.18794
881.481	6036.97998
881.662	5843.60915
881.843	5687.51629
882.023	5545.87738
882.204	5785.35001
882.385	5878.97174
882.566	5906.00912
882.747	5831.12661
882.927	5887.29136
883.108	5878.97174
883.289	5968.38787
883.469	5843.60915
883.65	5945.51812
883.831	5754.13215
884.011	5664.61151
884.192	5722.90898
884.373	5724.99069
884.553	5804.07818
884.734	5710.41822
884.914	5718.74548
885.095	6070.22753
885.275	5560.46289
885.456	5870.65174
885.636	5752.05077
885.817	5831.12661
885.997	5589.63045
886.178	6051.52653
886.358	5851.93037
886.538	5768.70115
886.719	5591.71367
886.899	5972.54569
887.08	5720.82724
887.26	5999.56928
887.44	5837.36798
887.621	5957.99288
887.801	5508.36649
887.981	5989.17607
888.161	5933.04252
888.342	5997.49069
888.522	6057.76041
888.702	6001.64785
888.882	5899.77008
889.062	6445.92219
889.242	6344.29044
889.423	6176.16392
889.603	6026.58889
889.783	6184.47008
889.963	5895.6106
890.143	5897.69035
890.323	5872.73178
890.503	6034.90181
890.683	5737.48045
890.863	5922.64553
891.043	5831.12661
891.223	5881.05168
891.403	5654.1993
891.583	5937.20115
891.763	5770.78234
891.943	5960.07193
892.122	5614.62753
892.302	6036.97998
892.482	5670.85855
892.662	5656.28179
892.842	5406.21486
893.022	5795.75479
893.201	5483.35498
893.381	5454.17062
893.561	5381.18954
893.741	5660.4467
893.92	5647.95169
894.1	5579.21399
894.28	5385.36066
894.459	5477.10158
894.639	5333.21488
894.819	5364.50411
894.998	5287.31448
895.178	5389.53169
895.357	5435.4068
895.537	5222.61743
895.716	5343.64521
895.896	5589.63045
896.075	5051.37534
896.255	5272.70743
896.434	5201.74262
896.614	5752.05077
896.793	5260.18619
896.973	5745.80649
897.152	5410.38542
897.331	5531.29072
897.511	5203.83021
897.69	5364.50411
897.87	5189.21662
898.049	5147.45723
898.228	5047.19676
898.407	5310.2661
898.587	5114.04301
898.766	5264.36003
898.945	4917.61482
899.124	5118.22011
899.304	5176.68978
899.483	5185.0411
899.662	5243.4899
899.841	5168.33809
900.02	5026.30244
900.199	5128.66246
900.378	4744.00435
900.557	5103.59985
900.737	4877.88654
900.916	4842.33318
901.095	4614.21761
901.274	4712.61227
901.453	4668.65483
901.632	4656.09374
901.811	4517.86865
901.989	4785.85254
902.168	4524.15371
902.347	5082.71178
902.526	4519.96369
902.705	4591.18192
902.884	4331.32198
903.063	4733.54089
903.242	4312.44811
903.42	4444.52828
903.599	4280.98779
903.778	4540.91289
903.957	4140.40641
904.135	4501.10751
904.314	3987.1285
904.493	4467.58101
904.672	4121.51512
904.85	4148.80199
905.029	4037.53339
905.207	4289.37768
905.386	4140.40641
905.565	3970.32424
905.743	3903.09424
905.922	3915.70144
906.1	3593.99669
906.279	3915.70144
906.457	3579.26743
906.636	3810.61946
906.814	3633.97147
906.993	3709.69441
907.171	3516.13177
907.35	3678.14619
907.528	3419.29188
907.707	3469.8218
907.885	3360.32739
908.063	3640.28266
908.242	3381.38772
908.42	3375.0698
908.598	3364.53959
908.777	3560.32848
908.955	3276.06875
909.133	3730.72415
909.311	3377.17579
909.49	3354.00895
909.668	3364.53959
909.846	3535.07421
910.024	3318.20151
910.202	3593.99669
910.38	3206.53492
910.559	3322.41441
910.737	3240.25057
910.915	3486.66281
911.093	3446.66354
911.271	3600.30895
911.449	3191.783
911.627	3549.80619
911.805	3080.06403
911.983	3278.17555
912.161	3223.39328
912.339	3636.07522
912.517	3153.84578
912.695	3431.92533
912.872	3284.49584
913.05	3612.93296
913.228	3381.38772
913.406	3612.93296
913.584	3492.97788
913.762	3343.47787
913.939	3364.53959
914.117	3446.66354
914.295	3267.64138
914.473	3535.07421
914.65	3263.42759
914.828	3415.08059
915.006	3263.42759
915.184	3516.13177
915.361	3080.06403
915.539	3467.71659
915.716	3225.5005
915.894	3394.02308
916.072	3094.82194
916.249	3617.14081
916.427	3166.49211
916.604	3347.69035
916.782	3120.11941
916.959	3210.74961
917.137	2997.82744
917.314	3288.70929
917.492	3014.69839
917.669	3356.11511
917.847	2959.86426
918.024	3088.49722
918.201	2875.4845
918.379	2953.5366
918.556	2917.6773
918.733	3231.82206
918.911	2723.544
919.088	3021.02475
919.265	2961.97346
919.442	2961.97346
919.62	2687.659
919.797	2810.07441
919.974	2776.30915
920.151	2945.0995
920.328	2693.99192
920.506	2980.95552
920.683	2862.82554
920.86	2858.60577
921.037	2698.2138
921.214	2843.83614
921.391	2617.98935
921.568	2862.82554
921.745	2723.544
921.922	2740.42976
922.099	2495.50763
922.276	2767.86729
922.453	2696.10287
922.63	2624.32352
922.807	2468.04951
922.984	2786.86117
923.161	2503.9559
923.338	2679.21493
923.514	2546.19451
923.691	2731.98699
923.868	2411.01522
924.045	2531.41152
924.222	2216.62095
924.399	2508.17997
924.575	2313.82825
924.752	2294.81097
924.929	2438.47715
925.105	2413.12774
925.282	2165.89668
925.459	2406.79014
925.635	2125.73662
925.812	2385.66416
925.989	2182.80531
926.165	2514.51598
926.342	2184.91885
926.518	2275.79292
926.695	2060.20634
926.871	2288.4717
927.048	1975.64116
927.224	2271.56659
927.401	1948.15526
927.577	2191.25942
927.754	1888.95155
927.93	2296.92403
928.107	1981.98391
928.283	1931.24037
928.459	1709.20292
928.636	1988.3266
928.812	1751.49935
928.988	1960.84119
929.165	1738.81057
929.341	1954.49825
929.517	1704.9732
929.693	2041.18011
929.87	1675.36484
930.046	1962.95549
930.222	1666.9052
930.398	1738.81057
930.574	1662.67537
930.751	1681.70954
930.927	1540.00643
931.103	1713.43262
931.279	1531.54631
931.455	1728.23648
931.631	1497.70566
931.807	1740.92537
931.983	1533.66134
932.159	1664.79029
932.335	1427.90899
932.511	1499.82071
932.687	1430.02404
932.863	1506.16584
933.039	1320.04245
933.215	1480.78528
933.391	1237.55917
933.566	1478.67023
933.742	1320.04245
933.918	1279.85784
934.094	1159.30986
934.27	1203.72105
934.445	1057.80567
934.621	1212.1805
934.797	1045.11847
934.973	1182.57266
935.148	1155.08031
935.324	1100.09774
935.5	949.97145
935.675	890.77596
935.851	799.88117
936.027	930.94368
936.202	850.61115
936.378	973.22839
936.553	715.34359
936.729	856.95276
936.904	643.50026
937.08	706.89075
937.255	571.67092
937.431	520.97704
937.606	493.52124
937.782	656.17752
937.957	432.28277
938.133	499.85698
938.308	459.73291
938.483	466.06793
938.659	307.73615
938.834	400.61285
939.009	394.2793
939.185	421.72573
939.36	333.06283
939.535	381.61266
939.71	292.96345
939.886	373.16856
940.061	299.2945
940.236	360.50292
940.411	301.40489
940.586	297.18413
940.761	259.20069
940.937	278.19166
941.112	132.63502
941.287	284.52232
941.462	221.22341
941.637	155.83321
941.812	229.66226
941.987	280.30186
942.162	282.41208
942.337	322.50973
942.512	280.30186
942.687	231.77202
942.862	202.23715
943.037	221.22341
943.212	271.86117
943.386	242.32113
943.561	195.90876
943.736	170.59702
943.911	122.09124
944.086	160.05133
944.26	240.21127
944.435	187.47118
944.61	206.45618
944.785	166.37868
944.959	221.22341
945.134	238.10143
945.309	231.77202
945.483	187.47118
945.658	183.25252
945.833	164.26954
946.007	107.33087
946.182	181.14322
946.357	231.77202
946.531	214.89448
946.706	221.22341
946.88	172.70621
947.055	166.37868
947.229	170.59702
947.404	183.25252
947.578	164.26954
947.752	153.72418
947.927	280.30186
948.101	136.85268
948.276	195.90876
948.45	153.72418
948.624	187.47118
948.799	271.86117
948.973	221.22341
949.147	162.16043
949.321	136.85268
949.496	141.07043
949.67	189.58055
949.844	141.07043
950.018	360.50292
950.193	225.4428
950.367	320.39917
950.541	179.03394
950.715	233.8818
950.889	187.47118
951.063	307.73615
951.237	265.53084
951.411	257.09068
951.585	210.67529
951.759	225.4428
951.933	200.12766
952.107	126.30869
952.281	155.83321
952.455	191.68993
952.629	176.92467
952.803	280.30186
952.977	280.30186
953.151	250.76076
953.325	212.78487
953.499	246.5409
953.672	124.19996
953.846	280.30186
954.02	189.58055
954.194	242.32113
954.368	200.12766
954.541	273.97131
954.715	189.58055
954.889	185.36184
955.062	314.06758
955.236	267.64093
955.41	212.78487
955.583	326.73092
955.757	221.22341
955.93	225.4428
956.104	225.4428
956.278	248.65082
956.451	164.26954
956.625	107.33087
956.798	250.76076
956.972	221.22341
957.145	280.30186
957.319	221.22341
957.492	231.77202
957.665	229.66226
957.839	210.67529
958.012	288.74285
958.185	134.74384
958.359	204.34665
958.532	221.22341
958.705	233.8818
958.879	246.5409
959.052	195.90876
959.225	238.10143
959.398	179.03394
959.572	170.59702
959.745	221.22341
959.918	170.59702
960.091	248.65082
960.264	271.86117
960.438	212.78487
960.611	145.28826
960.784	191.68993
960.957	271.86117
961.13	231.77202
961.303	210.67529
961.476	145.28826
961.649	223.33309
961.822	155.83321
961.995	284.52232
962.168	223.33309
962.341	174.81543
962.514	187.47118
962.686	309.84661
962.859	212.78487
963.032	174.81543
963.205	229.66226
963.378	189.58055
963.551	195.90876
963.723	155.83321
963.896	210.67529
964.069	212.78487
964.242	153.72418
964.414	254.98069
964.587	221.22341
964.76	162.16043
964.932	208.56572
965.105	187.47118
965.278	195.90876
965.45	153.72418
965.623	214.89448
965.795	153.72418
965.968	242.32113
966.14	195.90876
966.313	132.63502
966.485	195.90876
966.658	261.31072
966.83	77.81336
967.003	195.90876
967.175	263.42077
967.348	208.56572
967.52	170.59702
967.692	195.90876
967.865	191.68993
968.037	210.67529
968.209	126.30869
968.382	227.55252
968.554	162.16043
968.726	157.94226
968.898	138.96154
969.071	212.78487
969.243	141.07043
969.415	172.70621
969.587	128.41744
969.759	195.90876
969.932	198.0182
970.104	147.39721
970.276	223.33309
970.448	132.63502
970.62	174.81543
970.792	212.78487
970.964	73.59693
971.136	187.47118
971.308	113.65661
971.48	98.89685
971.652	56.73213
971.824	138.96154
971.996	151.61516
972.168	113.65661
972.339	130.52622
972.511	181.14322
972.683	82.02988
972.855	187.47118
973.027	94.67998
973.199	157.94226
973.37	149.50617
973.542	141.07043
973.714	126.30869
973.886	136.85268
974.057	111.54801
974.229	107.33087
974.401	103.11382
974.572	138.96154
974.744	105.22233
974.915	94.67998
975.087	103.11382
975.259	162.16043
975.43	82.02988
975.602	138.96154
975.773	86.24649
975.945	94.67998
976.116	117.87389
976.288	126.30869
976.459	88.35483
976.63	119.98255
976.802	60.94819
976.973	157.94226
977.145	189.58055
977.316	151.61516
977.487	111.54801
977.659	124.19996
977.83	122.09124
978.001	111.54801
978.172	107.33087
978.344	113.65661
978.515	105.22233
978.686	63.05626
978.857	94.67998
979.028	77.81336
979.2	128.41744
979.371	92.57157
979.542	122.09124
979.713	46.19237
979.884	52.51615
980.055	94.67998
980.226	170.59702
980.397	132.63502
980.568	111.54801
980.739	46.19237
980.91	111.54801
981.081	37.76098
981.252	27.22227
981.423	126.30869
981.594	90.46319
981.765	44.08449
981.936	136.85268
982.106	157.94226
982.277	52.51615
982.448	103.11382
982.619	46.19237
982.79	75.70514
982.96	60.94819
983.131	31.43768
983.302	103.11382
983.472	101.00532
983.643	69.38059
983.814	119.98255
983.984	98.89685
984.155	86.24649
984.326	103.11382
984.496	46.19237
984.667	77.81336
984.837	96.7884
985.008	69.38059
985.178	60.94819
985.349	39.86879
985.519	27.22227
985.69	27.22227
985.86	96.7884
986.031	111.54801
986.201	60.94819
986.371	113.65661
986.542	69.38059
986.712	162.16043
986.882	20.89932
987.053	71.48875
987.223	130.52622
987.393	88.35483
987.563	71.48875
987.734	96.7884
987.904	35.65319
988.074	-23.35526
988.244	105.22233
988.414	1.93177
988.585	132.63502
988.755	111.54801
988.925	60.94819
989.095	54.62413
989.265	174.81543
989.435	52.51615
989.605	143.17933
989.775	48.30027
989.945	71.48875
990.115	86.24649
990.285	60.94819
990.455	94.67998
990.625	90.46319
990.795	35.65319
990.965	27.22227
991.134	20.89932
991.304	65.16435
991.474	23.00695
991.644	-19.141
991.814	128.41744
991.984	132.63502
992.153	1.93177
992.323	1.93177
992.493	48.30027
992.662	103.11382
992.832	-31.78348
993.002	60.94819
993.171	67.27246
993.341	86.24649
993.511	35.65319
993.68	73.59693
993.85	-10.71218
994.019	96.7884
994.189	44.08449
994.358	94.67998
994.528	60.94819
994.697	60.94819
994.867	71.48875
995.036	56.73213
995.206	71.48875
995.375	79.92161
995.544	-31.78348
995.714	67.27246
995.883	103.11382
996.052	46.19237
996.222	82.02988
996.391	105.22233
996.56	77.81336
996.73	39.86879
996.899	41.97663
997.068	63.05626
997.237	77.81336
997.406	90.46319
997.576	88.35483
997.745	-14.92664
997.914	35.65319
998.083	46.19237
998.252	12.46906
998.421	73.59693
998.59	-31.78348
998.759	37.76098
998.928	86.24649
999.097	33.54542
999.266	92.57157
999.435	44.08449
999.604	23.00695
999.773	27.22227
999.942	119.98255
1000.111	174.81543
1000.28	14.57659
1000.448	86.24649
1000.617	60.94819
1000.786	39.86879
1000.955	39.86879
1001.124	39.86879
1001.292	-4.39031
1001.461	117.87389
1001.63	86.24649
1001.798	33.54542
1001.967	105.22233
1002.136	33.54542
1002.304	111.54801
1002.473	-19.141
1002.642	-4.39031
1002.81	-29.67646
1002.979	96.7884
1003.147	33.54542
1003.316	50.4082
1003.484	6.14661
1003.653	18.79172
1003.821	18.79172
1003.99	20.89932
1004.158	69.38059
1004.327	39.86879
1004.495	50.4082
1004.663	41.97663
1004.832	-12.81942
1005	6.14661
1005.168	44.08449
1005.337	6.14661
1005.505	1.93177
1005.673	6.14661
1005.842	12.46906
1006.01	27.22227
1006.178	-17.03383
1006.346	54.62413
1006.514	29.32996
1006.683	115.76524
1006.851	54.62413
1007.019	54.62413
1007.187	48.30027
1007.355	94.67998
1007.523	39.86879
1007.691	50.4082
1007.859	-12.81942
1008.027	35.65319
1008.195	35.65319
1008.363	31.43768
1008.531	60.94819
1008.699	35.65319
1008.867	10.36155
1009.035	-23.35526
1009.203	103.11382
1009.37	41.97663
1009.538	35.65319
1009.706	63.05626
1009.874	-8.60492
1010.042	67.27246
1010.209	18.79172
1010.377	41.97663
1010.545	35.65319
1010.713	77.81336
1010.88	-14.92664
1011.048	29.32996
1011.216	-4.39031
1011.383	96.7884
1011.551	86.24649
1011.718	-33.89048
1011.886	54.62413
1012.054	-27.56942
1012.221	117.87389
1012.389	60.94819
1012.556	4.03918
1012.724	1.93177
1012.891	63.05626
1013.058	1.93177
1013.226	56.73213
1013.393	63.05626
1013.561	-19.141
1013.728	10.36155
1013.895	-12.81942
1014.063	8.25407
1014.23	27.22227
1014.397	69.38059
1014.565	1.93177
1014.732	37.76098
1014.899	10.36155
1015.066	6.14661
1015.233	39.86879
1015.401	-4.39031
1015.568	27.22227
1015.735	18.79172
1015.902	-40.21131
1016.069	37.76098
1016.236	37.76098
1016.403	-31.78348
1016.57	14.57659
1016.737	33.54542
1016.904	-31.78348
1017.071	37.76098
1017.238	60.94819
1017.405	37.76098
1017.572	-12.81942
1017.739	82.02988
1017.906	63.05626
1018.073	-23.35526
1018.24	50.4082
1018.407	-19.141
1018.573	1.93177
1018.74	31.43768
1018.907	-29.67646
1019.074	46.19237
1019.241	35.65319
1019.407	46.19237
1019.574	-10.71218
1019.741	-2.28298
1019.907	-14.92664
1020.074	44.08449
1020.241	-46.53192
1020.407	141.07043
1020.574	60.94819
1020.74	14.57659
1020.907	27.22227
1021.073	37.76098
1021.24	82.02988
1021.406	60.94819
1021.573	58.84015
1021.739	-6.49763
1021.906	52.51615
1022.072	6.14661
1022.239	-6.49763
1022.405	52.51615
1022.571	63.05626
1022.738	-4.39031
1022.904	52.51615
1023.07	-6.49763
1023.237	-4.39031
1023.403	23.00695
1023.569	-14.92664
1023.735	69.38059
1023.902	63.05626
1024.068	29.32996
1024.234	-14.92664
1024.4	-12.81942
1024.566	-63.38577
1024.732	86.24649
1024.898	1.93177
1025.065	-38.10439
1025.231	44.08449
1025.397	86.24649
1025.563	-6.49763
1025.729	-40.21131
1025.895	1.93177
1026.061	60.94819
1026.227	23.00695
1026.392	-10.71218
1026.558	4.03918
1026.724	27.22227
1026.89	10.36155
1027.056	-0.17561
1027.222	6.14661
1027.388	-50.74553
1027.553	56.73213
1027.719	96.7884
1027.885	33.54542
1028.051	-0.17561
1028.216	8.25407
1028.382	27.22227
1028.548	41.97663
1028.713	-2.28298
1028.879	31.43768
1029.045	12.46906
1029.21	60.94819
1029.376	52.51615
1029.541	-14.92664
1029.707	1.93177
1029.873	-8.60492
1030.038	10.36155
1030.204	-0.17561
1030.369	-4.39031
1030.534	50.4082
1030.7	37.76098
1030.865	-48.63874
1031.031	12.46906
1031.196	-2.28298
1031.361	-29.67646
1031.527	27.22227
1031.692	35.65319
1031.857	63.05626
1032.023	46.19237
1032.188	39.86879
1032.353	31.43768
1032.518	-21.24814
1032.684	-8.60492
1032.849	-57.06577
1033.014	6.14661
1033.179	39.86879
1033.344	1.93177
1033.509	-23.35526
1033.674	44.08449
1033.839	-57.06577
1034.004	-31.78348
1034.17	-14.92664
1034.335	20.89932
1034.5	4.03918
1034.664	23.00695
1034.829	-52.8523
1034.994	-4.39031
1035.159	20.89932
1035.324	18.79172
1035.489	-63.38577
1035.654	31.43768
1035.819	14.57659
1035.984	10.36155
1036.148	27.22227
1036.313	-17.03383
1036.478	48.30027
1036.643	65.16435
1036.807	69.38059
1036.972	-12.81942
1037.137	52.51615
1037.301	54.62413
1037.466	25.11459
1037.631	-35.99745
1037.795	-6.49763
1037.96	35.65319
1038.124	1.93177
1038.289	-8.60492
1038.454	6.14661
1038.618	14.57659
1038.783	6.14661
1038.947	12.46906
1039.111	71.48875
1039.276	10.36155
1039.44	96.7884
1039.605	94.67998
1039.769	4.03918
1039.933	6.14661
1040.098	52.51615
1040.262	-10.71218
1040.426	1.93177
1040.591	-10.71218
1040.755	29.32996
1040.919	-10.71218
1041.083	56.73213
1041.248	52.51615
1041.412	-23.35526
1041.576	6.14661
1041.74	-2.28298
1041.904	-40.21131
1042.068	-23.35526
1042.232	12.46906
1042.397	-0.17561
1042.561	63.05626
1042.725	14.57659
1042.889	44.08449
1043.053	-82.34441
1043.217	27.22227
1043.381	-38.10439
1043.544	41.97663
1043.708	-6.49763
1043.872	63.05626
1044.036	20.89932
1044.2	48.30027
1044.364	18.79172
1044.528	52.51615
1044.691	-2.28298
1044.855	-14.92664
1045.019	52.51615
1045.183	35.65319
1045.346	52.51615
1045.51	46.19237
1045.674	-2.28298
1045.837	-14.92664
1046.001	18.79172
1046.165	-6.49763
1046.328	23.00695
1046.492	77.81336
1046.655	29.32996
1046.819	44.08449
1046.983	10.36155
1047.146	-23.35526
1047.31	18.79172
1047.473	37.76098
1047.636	14.57659
1047.8	-8.60492
1047.963	16.68414
1048.127	58.84015
1048.29	-4.39031
