Data from mixed_try1_USB4F045381__7__00232.txt Node

Date: Thu Apr 03 20:23:33 EDT 2025
User: mmckonesweet
Spectrometer: USB4F04538
Trigger mode: 4
Integration Time (sec): 2.700000E-3
Scans to average: 1
Electric dark correction enabled: true
Nonlinearity correction enabled: true
Boxcar width: 0
XAxis mode: Wavelengths
Number of Pixels in Spectrum: 3648
>>>>>Begin Spectral Data<<<<<
345.52	50.23254
345.736	50.23254
345.952	50.23254
346.168	58.66448
346.384	-59.34802
346.6	-86.73269
346.816	77.63768
347.032	-23.53085
347.248	5.97099
347.464	33.36978
347.68	-36.17303
347.896	39.69314
348.112	22.83131
348.328	54.44846
348.544	8.07845
348.76	-44.60065
348.975	-50.9211
349.191	29.15432
349.407	46.01671
349.623	-103.58262
349.839	62.88058
350.055	33.36978
350.27	31.26204
350.486	22.83131
350.702	-29.85205
350.918	-25.63794
351.133	5.97099
351.349	31.26204
351.565	50.23254
351.781	-53.02787
351.996	5.97099
352.212	31.26204
352.428	3.86356
352.644	37.58533
352.859	20.72369
353.075	22.83131
353.291	14.40096
353.506	-8.78052
353.722	18.61609
353.938	48.12461
354.153	-0.35123
354.369	-15.10224
354.584	31.26204
354.8	79.74592
355.016	5.97099
355.231	46.01671
355.447	48.12461
355.662	-4.56592
355.878	-12.99502
356.093	5.97099
356.309	52.34049
356.524	-17.20943
356.74	5.97099
356.955	-21.42373
357.171	-0.35123
357.386	-0.35123
357.602	-12.99502
357.817	24.93896
358.033	29.15432
358.248	-36.17303
358.464	3.86356
358.679	8.07845
358.895	52.34049
359.11	16.50851
359.325	29.15432
359.541	16.50851
359.756	10.18593
359.972	54.44846
360.187	22.83131
360.402	20.72369
360.618	-0.35123
360.833	-65.66794
361.048	-12.99502
361.264	3.86356
361.479	5.97099
361.694	-8.78052
361.909	46.01671
362.125	-4.56592
362.34	12.29343
362.555	-61.45468
362.77	-53.02787
362.986	1.75615
363.201	54.44846
363.416	-42.49378
363.631	5.97099
363.847	-74.09415
364.062	-15.10224
364.277	12.29343
364.492	-38.27997
364.707	8.07845
364.922	-4.56592
365.138	-8.78052
365.353	62.88058
365.568	29.15432
365.783	3.86356
365.998	3.86356
366.213	39.69314
366.428	14.40096
366.643	-31.95906
366.858	-0.35123
367.073	-36.17303
367.288	3.86356
367.503	73.42125
367.718	-0.35123
367.933	-44.60065
368.148	46.01671
368.363	83.96248
368.578	-21.42373
368.793	-71.98763
369.008	111.37229
369.223	16.50851
369.438	5.97099
369.653	73.42125
369.868	-36.17303
370.083	-19.31659
370.298	-29.85205
370.513	88.17913
370.728	-42.49378
370.943	126.13296
371.157	18.61609
371.372	50.23254
371.587	56.55646
371.802	12.29343
372.017	-29.85205
372.232	31.26204
372.446	-21.42373
372.661	-10.88778
372.876	-10.88778
373.091	27.04663
373.306	29.15432
373.52	56.55646
373.735	64.98867
373.95	-38.27997
374.165	-12.99502
374.379	12.29343
374.594	37.58533
374.809	12.29343
375.023	-15.10224
375.238	124.02423
375.453	107.15516
375.667	-0.35123
375.882	-34.06606
376.097	-17.20943
376.311	20.72369
376.526	-29.85205
376.741	67.09678
376.955	-12.99502
377.17	12.29343
377.384	31.26204
377.599	43.90883
377.813	62.88058
378.028	14.40096
378.242	-4.56592
378.457	-2.45859
378.672	46.01671
378.886	5.97099
379.101	79.74592
379.315	-25.63794
379.53	12.29343
379.744	41.80097
379.958	12.29343
380.173	5.97099
380.387	-6.67324
380.602	29.15432
380.816	8.07845
381.031	-29.85205
381.245	-36.17303
381.459	-0.35123
381.674	-10.88778
381.888	-17.20943
382.103	16.50851
382.317	22.83131
382.531	-15.10224
382.746	20.72369
382.96	-19.31659
383.174	39.69314
383.388	22.83131
383.603	16.50851
383.817	46.01671
384.031	56.55646
384.246	94.50427
384.46	73.42125
384.674	29.15432
384.888	-25.63794
385.103	73.42125
385.317	20.72369
385.531	46.01671
385.745	-34.06606
385.959	64.98867
386.174	20.72369
386.388	16.50851
386.602	-4.56592
386.816	48.12461
387.03	20.72369
387.244	-53.02787
387.458	3.86356
387.672	-8.78052
387.887	22.83131
388.101	-8.78052
388.315	20.72369
388.529	3.86356
388.743	-0.35123
388.957	20.72369
389.171	-17.20943
389.385	-2.45859
389.599	10.18593
389.813	67.09678
390.027	-27.74501
390.241	22.83131
390.455	-2.45859
390.669	-2.45859
390.883	3.86356
391.097	-2.45859
391.311	12.29343
391.525	-8.78052
391.738	27.04663
391.952	3.86356
392.166	12.29343
392.38	31.26204
392.594	29.15432
392.808	20.72369
393.022	71.31307
393.236	3.86356
393.449	37.58533
393.663	62.88058
393.877	-29.85205
394.091	24.93896
394.305	20.72369
394.518	1.75615
394.732	41.80097
394.946	48.12461
395.16	-12.99502
395.373	-25.63794
395.587	3.86356
395.801	-71.98763
396.015	-29.85205
396.228	-29.85205
396.442	-25.63794
396.656	39.69314
396.869	39.69314
397.083	50.23254
397.297	-2.45859
397.51	46.01671
397.724	10.18593
397.938	-27.74501
398.151	-19.31659
398.365	48.12461
398.578	-15.10224
398.792	56.55646
399.005	22.83131
399.219	12.29343
399.433	-0.35123
399.646	20.72369
399.86	46.01671
400.073	33.36978
400.287	-29.85205
400.5	20.72369
400.714	3.86356
400.927	37.58533
401.141	-38.27997
401.354	37.58533
401.567	31.26204
401.781	46.01671
401.994	29.15432
402.208	46.01671
402.421	-29.85205
402.635	-50.9211
402.848	46.01671
403.061	46.01671
403.275	14.40096
403.488	33.36978
403.701	10.18593
403.915	-21.42373
404.128	3.86356
404.341	37.58533
404.555	-40.38689
404.768	12.29343
404.981	48.12461
405.195	29.15432
405.408	-10.88778
405.621	132.45929
405.834	29.15432
406.048	-46.70749
406.261	18.61609
406.474	-34.06606
406.687	-12.99502
406.9	20.72369
407.114	-4.56592
407.327	46.01671
407.54	-21.42373
407.753	-44.60065
407.966	29.15432
408.179	88.17913
408.392	-19.31659
408.605	-6.67324
408.819	-19.31659
409.032	48.12461
409.245	12.29343
409.458	75.52945
409.671	46.01671
409.884	12.29343
410.097	50.23254
410.31	-34.06606
410.523	-12.99502
410.736	-46.70749
410.949	8.07845
411.162	14.40096
411.375	-10.88778
411.588	39.69314
411.801	-17.20943
412.014	-12.99502
412.227	24.93896
412.44	-36.17303
412.653	3.86356
412.865	22.83131
413.078	33.36978
413.291	22.83131
413.504	-8.78052
413.717	-4.56592
413.93	54.44846
414.143	-25.63794
414.356	1.75615
414.568	41.80097
414.781	33.36978
414.994	46.01671
415.207	-27.74501
415.42	-2.45859
415.632	5.97099
415.845	20.72369
416.058	29.15432
416.271	-8.78052
416.483	22.83131
416.696	-4.56592
416.909	20.72369
417.121	41.80097
417.334	62.88058
417.547	29.15432
417.759	22.83131
417.972	10.18593
418.185	-19.31659
418.397	37.58533
418.61	-55.13461
418.823	41.80097
419.035	-25.63794
419.248	20.72369
419.46	24.93896
419.673	-21.42373
419.885	-21.42373
420.098	56.55646
420.311	-12.99502
420.523	58.66448
420.736	10.18593
420.948	-19.31659
421.161	-6.67324
421.373	-10.88778
421.586	58.66448
421.798	-12.99502
422.01	-63.56133
422.223	50.23254
422.435	41.80097
422.648	37.58533
422.86	1.75615
423.073	-17.20943
423.285	58.66448
423.497	48.12461
423.71	-0.35123
423.922	-55.13461
424.134	-40.38689
424.347	29.15432
424.559	-29.85205
424.771	-10.88778
424.984	14.40096
425.196	1.75615
425.408	56.55646
425.621	-21.42373
425.833	96.6127
426.045	79.74592
426.257	46.01671
426.47	33.36978
426.682	-0.35123
426.894	-2.45859
427.106	46.01671
427.318	64.98867
427.531	-29.85205
427.743	5.97099
427.955	46.01671
428.167	48.12461
428.379	88.17913
428.591	24.93896
428.804	46.01671
429.016	-21.42373
429.228	22.83131
429.44	50.23254
429.652	27.04663
429.864	-8.78052
430.076	3.86356
430.288	-10.88778
430.5	39.69314
430.712	-38.27997
430.924	-29.85205
431.136	-46.70749
431.348	5.97099
431.56	-2.45859
431.772	-4.56592
431.984	-46.70749
432.196	-40.38689
432.408	86.0708
432.62	-31.95906
432.832	37.58533
433.044	27.04663
433.256	-0.35123
433.468	-50.9211
433.679	56.55646
433.891	33.36978
434.103	-38.27997
434.315	12.29343
434.527	20.72369
434.739	24.93896
434.95	37.58533
435.162	20.72369
435.374	-61.45468
435.586	5.97099
435.798	16.50851
436.009	-63.56133
436.221	-25.63794
436.433	22.83131
436.645	-67.77453
436.856	-38.27997
437.068	-46.70749
437.28	1.75615
437.491	56.55646
437.703	-4.56592
437.915	-29.85205
438.126	37.58533
438.338	-80.41353
438.55	20.72369
438.761	71.31307
438.973	-25.63794
439.184	5.97099
439.396	73.42125
439.608	69.20492
439.819	37.58533
440.031	79.74592
440.242	41.80097
440.454	37.58533
440.665	12.29343
440.877	46.01671
441.088	-38.27997
441.3	73.42125
441.511	-27.74501
441.723	24.93896
441.934	-53.02787
442.146	14.40096
442.357	37.58533
442.569	81.85419
442.78	46.01671
442.991	37.58533
443.203	-4.56592
443.414	-34.06606
443.626	-12.99502
443.837	-0.35123
444.048	-6.67324
444.26	8.07845
444.471	24.93896
444.682	54.44846
444.894	-15.10224
445.105	-2.45859
445.316	31.26204
445.528	88.17913
445.739	31.26204
445.95	41.80097
446.161	27.04663
446.373	67.09678
446.584	-36.17303
446.795	37.58533
447.006	48.12461
447.217	46.01671
447.429	-2.45859
447.64	24.93896
447.851	56.55646
448.062	-4.56592
448.273	-2.45859
448.484	5.97099
448.695	37.58533
448.907	-12.99502
449.118	3.86356
449.329	-10.88778
449.54	-8.78052
449.751	-36.17303
449.962	-27.74501
450.173	-31.95906
450.384	8.07845
450.595	-21.42373
450.806	62.88058
451.017	60.77252
451.228	60.77252
451.439	-0.35123
451.65	-23.53085
451.861	20.72369
452.072	-12.99502
452.283	-44.60065
452.494	8.07845
452.705	73.42125
452.915	48.12461
453.126	-12.99502
453.337	-15.10224
453.548	27.04663
453.759	12.29343
453.97	-10.88778
454.181	31.26204
454.391	-4.56592
454.602	20.72369
454.813	-42.49378
455.024	8.07845
455.235	-19.31659
455.445	-36.17303
455.656	27.04663
455.867	35.47754
456.078	56.55646
456.288	-27.74501
456.499	-25.63794
456.71	-19.31659
456.921	33.36978
457.131	-0.35123
457.342	98.72115
457.553	33.36978
457.763	79.74592
457.974	33.36978
458.184	67.09678
458.395	48.12461
458.606	54.44846
458.816	-6.67324
459.027	-31.95906
459.237	1.75615
459.448	8.07845
459.659	-29.85205
459.869	1.75615
460.08	14.40096
460.29	-19.31659
460.501	-19.31659
460.711	113.4809
460.922	-6.67324
461.132	-23.53085
461.343	-36.17303
461.553	29.15432
461.764	12.29343
461.974	1.75615
462.184	-19.31659
462.395	-4.56592
462.605	-29.85205
462.816	39.69314
463.026	-63.56133
463.236	75.52945
463.447	39.69314
463.657	5.97099
463.867	20.72369
464.078	-69.8811
464.288	54.44846
464.498	39.69314
464.709	18.61609
464.919	24.93896
465.129	58.66448
465.339	29.15432
465.55	18.61609
465.76	-4.56592
465.97	60.77252
466.18	-8.78052
466.391	-8.78052
466.601	54.44846
466.811	46.01671
467.021	71.31307
467.231	37.58533
467.441	35.47754
467.651	14.40096
467.862	-57.24133
468.072	-34.06606
468.282	-19.31659
468.492	33.36978
468.702	3.86356
468.912	54.44846
469.122	-25.63794
469.332	-27.74501
469.542	-0.35123
469.752	31.26204
469.962	-17.20943
470.172	5.97099
470.382	-2.45859
470.592	48.12461
470.802	54.44846
471.012	24.93896
471.222	-2.45859
471.432	46.01671
471.642	5.97099
471.852	-44.60065
472.062	14.40096
472.272	20.72369
472.482	16.50851
472.691	-10.88778
472.901	48.12461
473.111	3.86356
473.321	12.29343
473.531	54.44846
473.741	-17.20943
473.95	12.29343
474.16	-42.49378
474.37	62.88058
474.58	39.69314
474.79	24.93896
474.999	-23.53085
475.209	-38.27997
475.419	33.36978
475.628	79.74592
475.838	24.93896
476.048	96.6127
476.258	71.31307
476.467	14.40096
476.677	3.86356
476.886	12.29343
477.096	39.69314
477.306	56.55646
477.515	-6.67324
477.725	14.40096
477.935	60.77252
478.144	-25.63794
478.354	31.26204
478.563	58.66448
478.773	-8.78052
478.982	-42.49378
479.192	29.15432
479.401	10.18593
479.611	16.50851
479.82	24.93896
480.03	-19.31659
480.239	-69.8811
480.449	3.86356
480.658	-6.67324
480.868	62.88058
481.077	-8.78052
481.287	8.07845
481.496	14.40096
481.705	62.88058
481.915	46.01671
482.124	-29.85205
482.333	46.01671
482.543	12.29343
482.752	54.44846
482.961	-17.20943
483.171	-15.10224
483.38	-29.85205
483.589	62.88058
483.799	83.96248
484.008	-17.20943
484.217	10.18593
484.426	5.97099
484.636	41.80097
484.845	-19.31659
485.054	20.72369
485.263	16.50851
485.472	33.36978
485.682	71.31307
485.891	75.52945
486.1	20.72369
486.309	29.15432
486.518	37.58533
486.727	-6.67324
486.936	24.93896
487.146	58.66448
487.355	-21.42373
487.564	-29.85205
487.773	33.36978
487.982	94.50427
488.191	35.47754
488.4	64.98867
488.609	10.18593
488.818	48.12461
489.027	41.80097
489.236	56.55646
489.445	-4.56592
489.654	-19.31659
489.863	-2.45859
490.072	73.42125
490.281	-29.85205
490.49	37.58533
490.698	33.36978
490.907	18.61609
491.116	3.86356
491.325	-29.85205
491.534	46.01671
491.743	-34.06606
491.952	12.29343
492.16	48.12461
492.369	-8.78052
492.578	20.72369
492.787	3.86356
492.996	46.01671
493.204	46.01671
493.413	79.74592
493.622	24.93896
493.831	-12.99502
494.039	-21.42373
494.248	22.83131
494.457	1.75615
494.665	-8.78052
494.874	-42.49378
495.083	73.42125
495.291	39.69314
495.5	54.44846
495.709	-61.45468
495.917	-0.35123
496.126	8.07845
496.335	5.97099
496.543	24.93896
496.752	14.40096
496.96	8.07845
497.169	20.72369
497.377	79.74592
497.586	-38.27997
497.794	48.12461
498.003	46.01671
498.211	24.93896
498.42	24.93896
498.628	14.40096
498.837	1.75615
499.045	-31.95906
499.254	-67.77453
499.462	88.17913
499.671	75.52945
499.879	-4.56592
500.087	75.52945
500.296	-19.31659
500.504	41.80097
500.713	3.86356
500.921	39.69314
501.129	67.09678
501.338	83.96248
501.546	60.77252
501.754	37.58533
501.962	73.42125
502.171	-23.53085
502.379	8.07845
502.587	20.72369
502.795	60.77252
503.004	-76.20064
503.212	73.42125
503.42	22.83131
503.628	52.34049
503.837	46.01671
504.045	54.44846
504.253	-8.78052
504.461	37.58533
504.669	12.29343
504.877	-19.31659
505.085	-0.35123
505.294	31.26204
505.502	71.31307
505.71	-59.34802
505.918	71.31307
506.126	35.47754
506.334	43.90883
506.542	54.44846
506.75	54.44846
506.958	-6.67324
507.166	14.40096
507.374	1.75615
507.582	54.44846
507.79	115.58952
507.998	-25.63794
508.206	29.15432
508.414	12.29343
508.622	33.36978
508.83	-4.56592
509.037	29.15432
509.245	29.15432
509.453	-12.99502
509.661	-8.78052
509.869	71.31307
510.077	62.88058
510.285	12.29343
510.492	100.82962
510.7	33.36978
510.908	3.86356
511.116	54.44846
511.324	-0.35123
511.531	48.12461
511.739	64.98867
511.947	27.04663
512.155	29.15432
512.362	14.40096
512.57	79.74592
512.778	41.80097
512.985	54.44846
513.193	12.29343
513.401	24.93896
513.608	-15.10224
513.816	71.31307
514.024	-12.99502
514.231	48.12461
514.439	29.15432
514.646	96.6127
514.854	83.96248
515.061	3.86356
515.269	37.58533
515.477	14.40096
515.684	-8.78052
515.892	20.72369
516.099	43.90883
516.307	29.15432
516.514	-19.31659
516.722	43.90883
516.929	27.04663
517.136	56.55646
517.344	134.5681
517.551	88.17913
517.759	105.04662
517.966	12.29343
518.173	29.15432
518.381	-21.42373
518.588	3.86356
518.796	147.22146
519.003	8.07845
519.21	105.04662
519.418	-4.56592
519.625	20.72369
519.832	113.4809
520.039	31.26204
520.247	14.40096
520.454	-4.56592
520.661	29.15432
520.868	-6.67324
521.076	29.15432
521.283	-34.06606
521.49	14.40096
521.697	-31.95906
521.904	-46.70749
522.112	-4.56592
522.319	75.52945
522.526	-36.17303
522.733	41.80097
522.94	29.15432
523.147	98.72115
523.354	115.58952
523.561	22.83131
523.768	22.83131
523.975	71.31307
524.183	115.58952
524.39	-21.42373
524.597	12.29343
524.804	56.55646
525.011	86.0708
525.218	79.74592
525.425	24.93896
525.632	41.80097
525.838	46.01671
526.045	3.86356
526.252	52.34049
526.459	3.86356
526.666	79.74592
526.873	24.93896
527.08	5.97099
527.287	-4.56592
527.494	77.63768
527.701	20.72369
527.907	16.50851
528.114	54.44846
528.321	18.61609
528.528	81.85419
528.735	35.47754
528.941	54.44846
529.148	41.80097
529.355	37.58533
529.562	-27.74501
529.768	41.80097
529.975	29.15432
530.182	-0.35123
530.388	60.77252
530.595	37.58533
530.802	79.74592
531.008	16.50851
531.215	100.82962
531.422	1.75615
531.628	-8.78052
531.835	12.29343
532.042	46.01671
532.248	29.15432
532.455	54.44846
532.661	12.29343
532.868	37.58533
533.074	62.88058
533.281	64.98867
533.487	24.93896
533.694	37.58533
533.9	88.17913
534.107	81.85419
534.313	16.50851
534.52	33.36978
534.726	37.58533
534.933	20.72369
535.139	50.23254
535.345	39.69314
535.552	41.80097
535.758	-10.88778
535.965	48.12461
536.171	29.15432
536.377	20.72369
536.584	151.43941
536.79	8.07845
536.996	-42.49378
537.203	75.52945
537.409	10.18593
537.615	-29.85205
537.821	79.74592
538.028	79.74592
538.234	46.01671
538.44	79.74592
538.646	-12.99502
538.853	46.01671
539.059	46.01671
539.265	8.07845
539.471	3.86356
539.677	-17.20943
539.883	64.98867
540.09	62.88058
540.296	39.69314
540.502	69.20492
540.708	-10.88778
540.914	71.31307
541.12	88.17913
541.326	46.01671
541.532	62.88058
541.738	12.29343
541.944	56.55646
542.15	12.29343
542.356	62.88058
542.562	83.96248
542.768	56.55646
542.974	20.72369
543.18	98.72115
543.386	64.98867
543.592	46.01671
543.798	10.18593
544.004	94.50427
544.21	79.74592
544.415	20.72369
544.621	-25.63794
544.827	81.85419
545.033	54.44846
545.239	22.83131
545.445	81.85419
545.651	73.42125
545.856	27.04663
546.062	31.26204
546.268	3.86356
546.474	22.83131
546.679	14.40096
546.885	98.72115
547.091	31.26204
547.297	83.96248
547.502	20.72369
547.708	54.44846
547.914	62.88058
548.119	107.15516
548.325	75.52945
548.531	48.12461
548.736	64.98867
548.942	73.42125
549.147	41.80097
549.353	71.31307
549.559	-0.35123
549.764	83.96248
549.97	33.36978
550.175	46.01671
550.381	41.80097
550.586	109.26371
550.792	48.12461
550.997	81.85419
551.203	14.40096
551.408	48.12461
551.614	46.01671
551.819	-8.78052
552.025	88.17913
552.23	92.39587
552.435	16.50851
552.641	62.88058
552.846	12.29343
553.052	98.72115
553.257	12.29343
553.462	124.02423
553.668	37.58533
553.873	54.44846
554.078	58.66448
554.283	37.58533
554.489	37.58533
554.694	54.44846
554.899	113.4809
555.105	58.66448
555.31	113.4809
555.515	138.7858
555.72	20.72369
555.925	105.04662
556.131	-29.85205
556.336	100.82962
556.541	113.4809
556.746	62.88058
556.951	138.7858
557.156	56.55646
557.361	29.15432
557.567	143.00359
557.772	83.96248
557.977	90.28749
558.182	62.88058
558.387	75.52945
558.592	130.35049
558.797	64.98867
559.002	14.40096
559.207	79.74592
559.412	79.74592
559.617	46.01671
559.822	41.80097
560.027	143.00359
560.232	75.52945
560.437	16.50851
560.642	41.80097
560.847	92.39587
561.051	41.80097
561.256	88.17913
561.461	90.28749
561.666	41.80097
561.871	22.83131
562.076	8.07845
562.281	113.4809
562.485	62.88058
562.69	83.96248
562.895	16.50851
563.1	50.23254
563.305	130.35049
563.509	88.17913
563.714	8.07845
563.919	102.93811
564.123	83.96248
564.328	100.82962
564.533	31.26204
564.737	79.74592
564.942	105.04662
565.147	-4.56592
565.351	73.42125
565.556	107.15516
565.761	98.72115
565.965	191.51415
566.17	62.88058
566.374	54.44846
566.579	81.85419
566.784	46.01671
566.988	54.44846
567.193	113.4809
567.397	1.75615
567.602	62.88058
567.806	62.88058
568.011	90.28749
568.215	100.82962
568.42	113.4809
568.624	105.04662
568.828	48.12461
569.033	79.74592
569.237	33.36978
569.442	136.67694
569.646	166.20292
569.85	115.58952
570.055	147.22146
570.259	77.63768
570.463	71.31307
570.668	67.09678
570.872	155.65745
571.076	62.88058
571.281	147.22146
571.485	117.69816
571.689	79.74592
571.893	62.88058
572.098	96.6127
572.302	121.91552
572.506	121.91552
572.71	117.69816
572.914	96.6127
573.119	121.91552
573.323	58.66448
573.527	96.6127
573.731	130.35049
573.935	128.24171
574.139	52.34049
574.343	126.13296
574.547	107.15516
574.751	223.15728
574.955	88.17913
575.159	172.53045
575.364	113.4809
575.568	128.24171
575.772	62.88058
575.976	109.26371
576.18	138.7858
576.383	147.22146
576.587	130.35049
576.791	62.88058
576.995	90.28749
577.199	79.74592
577.403	69.20492
577.607	64.98867
577.811	48.12461
578.015	92.39587
578.219	134.5681
578.422	180.96744
578.626	128.24171
578.83	147.22146
579.034	210.49949
579.238	206.28038
579.442	100.82962
579.645	174.63967
579.849	149.33043
580.053	149.33043
580.257	130.35049
580.46	159.87558
580.664	115.58952
580.868	155.65745
581.071	107.15516
581.275	140.89469
581.479	126.13296
581.682	88.17913
581.886	124.02423
582.09	174.63967
582.293	138.7858
582.497	176.7489
582.7	132.45929
582.904	98.72115
583.107	64.98867
583.311	130.35049
583.515	206.28038
583.718	37.58533
583.922	180.96744
584.125	79.74592
584.329	130.35049
584.532	107.15516
584.735	178.85816
584.939	189.40476
585.142	180.96744
585.346	107.15516
585.549	117.69816
585.753	90.28749
585.956	172.53045
586.159	164.09378
586.363	126.13296
586.566	159.87558
586.769	132.45929
586.973	164.09378
587.176	100.82962
587.379	138.7858
587.582	183.07674
587.786	149.33043
587.989	83.96248
588.192	180.96744
588.395	210.49949
588.599	134.5681
588.802	206.28038
589.005	109.26371
589.208	90.28749
589.411	170.42125
589.615	180.96744
589.818	109.26371
590.021	111.37229
590.224	130.35049
590.427	178.85816
590.63	117.69816
590.833	193.62355
591.036	197.84241
591.239	164.09378
591.442	189.40476
591.645	273.79547
591.848	210.49949
592.051	256.91485
592.254	130.35049
592.457	197.84241
592.66	185.18606
592.863	269.5752
593.066	206.28038
593.269	180.96744
593.472	202.06136
593.675	189.40476
593.878	138.7858
594.081	180.96744
594.284	164.09378
594.486	157.7665
594.689	212.60907
594.892	172.53045
595.095	172.53045
595.298	193.62355
595.5	159.87558
595.703	206.28038
595.906	166.20292
596.109	138.7858
596.311	202.06136
596.514	248.47499
596.717	246.36508
596.92	240.03545
597.122	185.18606
597.325	155.65745
597.528	193.62355
597.73	225.26699
597.933	214.71868
598.136	180.96744
598.338	208.38993
598.541	265.355
598.743	231.59621
598.946	254.80485
599.148	140.89469
599.351	155.65745
599.554	117.69816
599.756	233.70599
599.959	294.89792
600.161	235.81579
600.363	214.71868
600.566	231.59621
600.768	193.62355
600.971	216.8283
601.173	197.84241
601.376	237.92561
601.578	210.49949
601.78	214.71868
601.983	244.25518
602.185	225.26699
602.388	265.355
602.59	248.47499
602.792	231.59621
602.995	210.49949
603.197	271.68532
603.399	309.67074
603.601	273.79547
603.804	212.60907
604.006	197.84241
604.208	290.67728
604.41	235.81579
604.613	273.79547
604.815	311.78121
605.017	280.12601
605.219	189.40476
605.421	231.59621
605.623	134.5681
605.826	311.78121
606.028	193.62355
606.23	229.48645
606.432	265.355
606.634	183.07674
606.836	183.07674
607.038	286.45672
607.24	183.07674
607.442	240.03545
607.644	242.1453
607.846	235.81579
608.048	263.24494
608.25	248.47499
608.452	189.40476
608.654	269.5752
608.856	265.355
609.058	290.67728
609.26	191.51415
609.462	307.56028
609.664	273.79547
609.866	284.34646
610.067	324.44443
610.269	358.21613
610.471	259.02486
610.673	307.56028
610.875	294.89792
611.077	237.92561
611.278	381.43673
611.48	235.81579
611.682	214.71868
611.884	225.26699
612.085	301.22902
612.287	256.91485
612.489	252.69488
612.69	231.59621
612.892	328.66565
613.094	265.355
613.295	328.66565
613.497	347.662
613.699	250.58493
613.9	353.99443
614.102	307.56028
614.304	275.90563
614.505	307.56028
614.707	275.90563
614.908	261.13489
615.11	286.45672
615.311	273.79547
615.513	269.5752
615.714	332.88694
615.916	303.33942
616.117	275.90563
616.319	332.88694
616.52	263.24494
616.722	402.54813
616.923	337.1083
617.124	324.44443
617.326	229.48645
617.527	273.79547
617.729	349.77279
617.93	351.8836
618.131	332.88694
618.333	387.76998
618.534	362.43791
618.735	341.32972
618.937	261.13489
619.138	381.43673
619.339	301.22902
619.54	332.88694
619.742	294.89792
619.943	334.99761
620.144	332.88694
620.345	377.21465
620.546	284.34646
620.748	375.10364
620.949	324.44443
621.15	375.10364
621.351	334.99761
621.552	379.32569
621.753	299.11864
621.954	297.00827
622.155	413.10444
622.356	341.32972
622.558	362.43791
622.759	362.43791
622.96	288.56699
623.161	337.1083
623.362	332.88694
623.563	387.76998
623.764	328.66565
623.965	362.43791
624.166	341.32972
624.366	318.11274
624.567	299.11864
624.768	429.99538
624.969	425.77255
625.17	381.43673
625.371	366.65975
625.572	366.65975
625.773	303.33942
625.973	461.6686
626.174	375.10364
626.375	379.32569
626.576	328.66565
626.777	345.55122
626.977	362.43791
627.178	493.34525
627.379	356.10527
627.58	343.44047
627.78	370.88166
627.981	341.32972
628.182	383.5478
628.382	402.54813
628.583	391.99222
628.784	410.99314
628.984	368.7707
629.185	413.10444
629.386	334.99761
629.586	341.32972
629.787	358.21613
629.987	476.45062
630.188	391.99222
630.388	429.99538
630.589	377.21465
630.79	353.99443
630.99	364.54882
631.191	495.45715
631.391	459.55694
631.591	385.65888
631.792	375.10364
631.992	518.68897
632.193	461.6686
632.393	419.43842
632.594	429.99538
632.794	432.10681
632.994	353.99443
633.195	484.89782
633.395	362.43791
633.595	463.78027
633.796	448.99889
633.996	484.89782
634.196	478.56239
634.397	476.45062
634.597	356.10527
634.797	423.66115
634.997	465.89196
635.198	419.43842
635.398	383.5478
635.598	404.65936
635.798	309.67074
635.998	463.78027
636.199	478.56239
636.399	560.93302
636.599	514.46487
636.799	546.14697
636.999	353.99443
637.199	569.38248
637.399	425.77255
637.599	453.22206
637.799	383.5478
637.999	495.45715
638.199	419.43842
638.399	527.13733
638.599	487.00965
638.799	537.6981
638.999	451.11047
639.199	455.33367
639.399	351.8836
639.599	497.56906
639.799	503.90488
639.999	493.34525
640.199	493.34525
640.399	539.8103
640.599	448.99889
640.799	446.88733
640.998	495.45715
641.198	537.6981
641.398	434.21827
641.598	573.6073
641.798	594.73216
641.997	565.15772
642.197	480.67419
642.397	567.2701
642.597	470.11538
642.796	554.59606
642.996	459.55694
643.196	514.46487
643.395	487.00965
643.595	596.84472
643.795	520.80104
643.994	554.59606
644.194	647.5499
644.394	506.01685
644.593	487.00965
644.793	603.18247
644.992	573.6073
645.192	575.71972
645.392	535.58592
645.591	535.58592
645.791	518.68897
645.99	643.32419
646.19	535.58592
646.389	537.6981
646.589	518.68897
646.788	590.50708
646.987	588.39456
647.187	641.21136
647.386	573.6073
647.586	681.35723
647.785	546.14697
647.984	598.95729
648.184	537.6981
648.383	537.6981
648.582	579.94462
648.782	632.76015
648.981	544.03473
649.18	499.68099
649.38	554.59606
649.579	641.21136
649.778	613.74564
649.977	539.8103
650.177	558.82068
650.376	626.42187
650.575	531.3616
650.774	527.13733
650.973	603.18247
651.173	645.43704
651.372	622.19641
651.571	586.28206
651.77	586.28206
651.969	506.01685
652.168	563.04536
652.367	510.24083
652.566	639.09854
652.765	664.45318
652.964	592.61962
653.163	740.52702
653.362	596.84472
653.561	675.01812
653.76	531.3616
653.959	552.48376
654.158	715.16749
654.357	700.37515
654.556	448.99889
654.755	715.16749
654.954	639.09854
655.153	611.63298
655.352	662.34023
655.551	615.85832
655.749	670.79211
655.948	708.82785
656.147	717.28072
656.346	672.90511
656.545	715.16749
656.743	748.98054
656.942	510.24083
657.141	594.73216
657.34	609.52034
657.538	723.62049
657.737	723.62049
657.936	797.5914
658.135	660.22729
658.333	787.02337
658.532	569.38248
658.731	723.62049
658.929	653.88854
659.128	746.86714
659.326	681.35723
659.525	704.60147
659.724	594.73216
659.922	717.28072
660.121	721.50723
660.319	636.98573
660.518	630.64738
660.716	725.73377
660.915	607.4077
661.113	729.96036
661.312	780.68268
661.51	791.25055
661.709	689.80952
661.907	780.68268
662.105	628.53462
662.304	856.7766
662.502	668.67912
662.701	755.32078
662.899	713.05426
663.097	721.50723
663.296	706.71465
663.494	882.1438
663.692	613.74564
663.891	899.05592
664.089	620.0837
664.287	780.68268
664.485	770.11505
664.684	725.73377
664.882	613.74564
665.08	778.56913
665.278	706.71465
665.476	880.02982
665.675	683.47028
665.873	706.71465
666.071	729.96036
666.269	831.41065
666.467	651.77565
666.665	755.32078
666.863	791.25055
667.061	774.34207
667.259	706.71465
667.457	854.66273
667.655	763.77459
667.853	863.11829
668.051	793.36416
668.249	867.34612
668.447	791.25055
668.645	772.22855
668.843	774.34207
669.041	903.28403
669.239	647.5499
669.437	884.25779
669.635	831.41065
669.833	772.22855
670.031	653.88854
670.229	852.54886
670.426	706.71465
670.624	829.29687
670.822	706.71465
671.02	793.36416
671.218	892.71381
671.415	801.81867
671.613	791.25055
671.811	787.02337
672.009	615.85832
672.206	831.41065
672.404	748.98054
672.602	829.29687
672.799	780.68268
672.997	903.28403
673.195	835.63822
673.392	806.04598
673.59	715.16749
673.788	852.54886
673.985	782.79623
674.183	884.25779
674.38	831.41065
674.578	861.00439
674.775	882.1438
674.973	903.28403
675.17	825.06936
675.368	892.71381
675.565	789.13696
675.763	812.38703
675.96	632.76015
676.158	928.65334
676.355	791.25055
676.553	960.36649
676.75	873.68793
676.947	890.59979
677.145	920.19678
677.342	814.50072
677.539	808.15966
677.737	850.435
677.934	808.15966
678.131	806.04598
678.329	734.18699
678.526	888.48578
678.723	784.9098
678.92	865.2322
679.118	865.2322
679.315	822.95561
679.512	765.88806
679.709	903.28403
679.906	858.89049
680.104	894.82784
680.301	765.88806
680.498	791.25055
680.695	801.81867
680.892	924.42505
681.089	780.68268
681.286	852.54886
681.483	835.63822
681.68	856.7766
681.877	806.04598
682.075	789.13696
682.272	801.81867
682.469	848.32114
682.665	873.68793
682.862	888.48578
683.059	763.77459
683.256	848.32114
683.453	789.13696
683.65	852.54886
683.847	822.95561
684.044	888.48578
684.241	812.38703
684.438	973.05219
684.635	839.86582
684.831	884.25779
685.028	951.90949
685.225	928.65334
685.422	742.64038
685.619	899.05592
685.815	873.68793
686.012	901.16997
686.209	801.81867
686.405	934.99584
686.602	907.51217
686.799	755.32078
686.996	789.13696
687.192	873.68793
687.389	768.00155
687.586	850.435
687.782	882.1438
687.979	975.1665
688.175	742.64038
688.372	922.31091
688.568	797.5914
688.765	865.2322
688.962	721.50723
689.158	934.99584
689.355	706.71465
689.551	907.51217
689.748	776.4556
689.944	968.8236
690.14	772.22855
690.337	831.41065
690.533	892.71381
690.73	911.74035
690.926	852.54886
691.123	896.94188
691.319	861.00439
691.515	899.05592
691.712	924.42505
691.908	920.19678
692.104	806.04598
692.301	956.13798
692.497	825.06936
692.693	886.37178
692.889	784.9098
693.086	814.50072
693.282	947.68104
693.478	907.51217
693.674	738.41367
693.87	890.59979
694.067	816.61443
694.263	911.74035
694.459	774.34207
694.655	983.6238
694.851	899.05592
695.047	928.65334
695.243	831.41065
695.439	839.86582
695.635	791.25055
695.831	903.28403
696.027	822.95561
696.224	873.68793
696.42	789.13696
696.615	877.91585
696.811	856.7766
697.007	801.81867
697.203	782.79623
697.399	907.51217
697.595	812.38703
697.791	934.99584
697.987	789.13696
698.183	992.08121
698.379	808.15966
698.575	1000.53871
698.77	863.11829
698.966	890.59979
699.162	894.82784
699.358	968.8236
699.554	833.52443
699.749	903.28403
699.945	803.93232
700.141	1042.82774
700.337	848.32114
700.532	1034.36975
700.728	814.50072
700.924	833.52443
701.119	937.11002
701.315	856.7766
701.511	755.32078
701.706	1053.40037
701.902	958.25223
702.097	949.79526
702.293	827.18311
702.489	1049.1713
702.684	869.46005
702.88	884.25779
703.075	738.41367
703.271	801.81867
703.466	911.74035
703.662	850.435
703.857	687.69643
704.053	918.08266
704.248	877.91585
704.443	1011.11074
704.639	780.68268
704.834	909.62625
705.03	937.11002
705.225	932.88167
705.42	822.95561
705.616	1000.53871
705.811	837.75202
706.006	915.96855
706.202	841.97964
706.397	983.6238
706.592	882.1438
706.787	924.42505
706.983	932.88167
707.178	954.02373
707.373	892.71381
707.568	958.25223
707.763	869.46005
707.959	989.96684
708.154	943.45261
708.349	882.1438
708.544	913.85444
708.739	979.39514
708.934	894.82784
709.129	911.74035
709.324	820.84188
709.519	920.19678
709.714	839.86582
709.909	1017.45403
710.104	854.66273
710.299	907.51217
710.494	839.86582
710.689	1011.11074
710.884	839.86582
711.079	884.25779
711.274	848.32114
711.469	1021.68293
711.664	782.79623
711.859	1002.65311
712.054	867.34612
712.249	850.435
712.443	899.05592
712.638	945.56682
712.833	782.79623
713.028	920.19678
713.223	833.52443
713.417	856.7766
713.612	873.68793
713.807	873.68793
714.002	865.2322
714.196	776.4556
714.391	746.86714
714.586	1036.48424
714.78	958.25223
714.975	934.99584
715.17	746.86714
715.364	858.89049
715.559	814.50072
715.754	941.33841
715.948	789.13696
716.143	949.79526
716.337	852.54886
716.532	975.1665
716.726	806.04598
716.921	829.29687
717.115	746.86714
717.31	907.51217
717.504	713.05426
717.699	949.79526
717.893	763.77459
718.088	915.96855
718.282	829.29687
718.476	875.80189
718.671	810.27334
718.865	934.99584
719.059	763.77459
719.254	863.11829
719.448	797.5914
719.642	962.48076
719.837	856.7766
720.031	949.79526
720.225	806.04598
720.419	1004.76751
720.614	928.65334
720.808	888.48578
721.002	825.06936
721.196	975.1665
721.39	858.89049
721.585	943.45261
721.779	937.11002
721.973	880.02982
722.167	776.4556
722.361	782.79623
722.555	772.22855
722.749	867.34612
722.943	814.50072
723.137	905.3981
723.331	899.05592
723.525	884.25779
723.719	732.07367
723.913	888.48578
724.107	725.73377
724.301	994.19557
724.495	850.435
724.689	837.75202
724.883	890.59979
725.077	941.33841
725.271	839.86582
725.465	886.37178
725.659	797.5914
725.853	915.96855
726.046	814.50072
726.24	789.13696
726.434	721.50723
726.628	873.68793
726.822	835.63822
727.015	892.71381
727.209	831.41065
727.403	932.88167
727.596	765.88806
727.79	901.16997
727.984	890.59979
728.177	932.88167
728.371	780.68268
728.565	841.97964
728.758	721.50723
728.952	962.48076
729.146	801.81867
729.339	901.16997
729.533	926.53919
729.726	877.91585
729.92	810.27334
730.113	778.56913
730.307	746.86714
730.5	1040.71324
730.694	850.435
730.887	960.36649
731.081	742.64038
731.274	966.70931
731.468	814.50072
731.661	848.32114
731.854	892.71381
732.048	913.85444
732.241	763.77459
732.435	909.62625
732.628	877.91585
732.821	1013.22517
733.014	932.88167
733.208	1028.02631
733.401	803.93232
733.594	937.11002
733.788	975.1665
733.981	911.74035
734.174	1013.22517
734.367	877.91585
734.56	975.1665
734.754	865.2322
734.947	877.91585
735.14	856.7766
735.333	882.1438
735.526	966.70931
735.719	791.25055
735.912	975.1665
736.105	869.46005
736.298	814.50072
736.491	907.51217
736.684	861.00439
736.877	835.63822
737.07	869.46005
737.263	740.52702
737.456	863.11829
737.649	839.86582
737.842	865.2322
738.035	899.05592
738.228	975.1665
738.421	899.05592
738.614	806.04598
738.807	884.25779
739	865.2322
739.192	848.32114
739.385	937.11002
739.578	886.37178
739.771	1019.56848
739.964	806.04598
740.156	924.42505
740.349	979.39514
740.542	825.06936
740.735	831.41065
740.927	869.46005
741.12	992.08121
741.313	770.11505
741.505	960.36649
741.698	970.93789
741.891	831.41065
742.083	926.53919
742.276	721.50723
742.468	920.19678
742.661	888.48578
742.854	867.34612
743.046	865.2322
743.239	977.28082
743.431	928.65334
743.624	985.73814
743.816	763.77459
744.009	850.435
744.201	875.80189
744.393	844.09347
744.586	882.1438
744.778	1034.36975
744.971	816.61443
745.163	915.96855
745.355	831.41065
745.548	962.48076
745.74	837.75202
745.932	911.74035
746.125	850.435
746.317	806.04598
746.509	899.05592
746.702	894.82784
746.894	867.34612
747.086	932.88167
747.278	827.18311
747.471	810.27334
747.663	852.54886
747.855	844.09347
748.047	833.52443
748.239	903.28403
748.431	702.4883
748.623	757.43422
748.815	725.73377
749.008	949.79526
749.2	856.7766
749.392	882.1438
749.584	738.41367
749.776	850.435
749.968	763.77459
750.16	903.28403
750.352	763.77459
750.544	799.70503
750.736	742.64038
750.928	932.88167
751.12	865.2322
751.311	951.90949
751.503	943.45261
751.695	1097.80687
751.887	820.84188
752.079	899.05592
752.271	814.50072
752.463	992.08121
752.654	983.6238
752.846	922.31091
753.038	789.13696
753.23	890.59979
753.421	770.11505
753.613	782.79623
753.805	907.51217
753.997	949.79526
754.188	797.5914
754.38	850.435
754.572	755.32078
754.763	801.81867
754.955	812.38703
755.146	861.00439
755.338	797.5914
755.53	738.41367
755.721	856.7766
755.913	884.25779
756.104	827.18311
756.296	839.86582
756.487	732.07367
756.679	839.86582
756.87	729.96036
757.062	780.68268
757.253	768.00155
757.445	884.25779
757.636	791.25055
757.827	806.04598
758.019	755.32078
758.21	858.89049
758.401	814.50072
758.593	740.52702
758.784	757.43422
758.975	761.66112
759.167	691.92262
759.358	780.68268
759.549	875.80189
759.74	871.57399
759.932	789.13696
760.123	753.20736
760.314	772.22855
760.505	746.86714
760.696	856.7766
760.888	890.59979
761.079	727.84706
761.27	772.22855
761.461	763.77459
761.652	810.27334
761.843	772.22855
762.034	689.80952
762.225	729.96036
762.416	782.79623
762.607	679.24418
762.798	835.63822
762.989	808.15966
763.18	778.56913
763.371	757.43422
763.562	810.27334
763.753	746.86714
763.944	776.4556
764.135	687.69643
764.326	782.79623
764.517	732.07367
764.708	611.63298
764.899	626.42187
765.089	784.9098
765.28	649.66276
765.471	719.39397
765.662	586.28206
765.853	732.07367
766.043	782.79623
766.234	801.81867
766.425	641.21136
766.615	672.90511
766.806	734.18699
766.997	694.03574
767.187	746.86714
767.378	736.30033
767.569	721.50723
767.759	706.71465
767.95	632.76015
768.141	719.39397
768.331	641.21136
768.522	810.27334
768.712	605.29508
768.903	662.34023
769.093	546.14697
769.284	662.34023
769.474	611.63298
769.665	727.84706
769.855	721.50723
770.046	691.92262
770.236	679.24418
770.426	719.39397
770.617	649.66276
770.807	700.37515
770.998	552.48376
771.188	700.37515
771.378	626.42187
771.569	628.53462
771.759	598.95729
771.949	662.34023
772.139	605.29508
772.33	613.74564
772.52	605.29508
772.71	691.92262
772.9	586.28206
773.09	679.24418
773.281	628.53462
773.471	653.88854
773.661	681.35723
773.851	636.98573
774.041	560.93302
774.231	681.35723
774.421	617.971
774.611	706.71465
774.802	577.83217
774.992	546.14697
775.182	634.87293
775.372	723.62049
775.562	656.00144
775.752	565.15772
775.942	577.83217
776.131	636.98573
776.321	560.93302
776.511	588.39456
776.701	560.93302
776.891	632.76015
777.081	586.28206
777.271	704.60147
777.461	598.95729
777.651	605.29508
777.84	461.6686
778.03	620.0837
778.22	620.0837
778.41	539.8103
778.599	582.05709
778.789	658.11436
778.979	560.93302
779.169	565.15772
779.358	535.58592
779.548	594.73216
779.738	605.29508
779.927	729.96036
780.117	552.48376
780.307	603.18247
780.496	518.68897
780.686	634.87293
780.875	586.28206
781.065	622.19641
781.254	544.03473
781.444	552.48376
781.633	501.79293
781.823	560.93302
782.012	489.12151
782.202	662.34023
782.391	427.88395
782.581	520.80104
782.77	531.3616
782.96	601.06987
783.149	484.89782
783.338	636.98573
783.528	554.59606
783.717	567.2701
783.906	468.00366
784.096	468.00366
784.285	518.68897
784.474	569.38248
784.663	493.34525
784.853	514.46487
785.042	459.55694
785.231	529.24946
785.42	527.13733
785.61	499.68099
785.799	487.00965
785.988	487.00965
786.177	406.7706
786.366	408.88187
786.555	512.35284
786.744	501.79293
786.933	440.55273
787.122	554.59606
787.312	463.78027
787.501	556.70836
787.69	516.57691
787.879	552.48376
788.068	455.33367
788.257	446.88733
788.445	425.77255
788.634	544.03473
788.823	478.56239
789.012	560.93302
789.201	474.33885
789.39	552.48376
789.579	451.11047
789.768	495.45715
789.957	461.6686
790.145	501.79293
790.334	468.00366
790.523	520.80104
790.712	476.45062
790.9	596.84472
791.089	383.5478
791.278	487.00965
791.467	487.00965
791.655	459.55694
791.844	457.4453
792.033	425.77255
792.221	391.99222
792.41	455.33367
792.599	427.88395
792.787	501.79293
792.976	531.3616
793.164	446.88733
793.353	387.76998
793.541	429.99538
793.73	398.32572
793.918	546.14697
794.107	394.10337
794.295	476.45062
794.484	438.44123
794.672	415.21575
794.861	351.8836
795.049	552.48376
795.238	453.22206
795.426	495.45715
795.614	459.55694
795.803	410.99314
795.991	372.99264
796.179	398.32572
796.368	417.32708
796.556	442.66424
796.744	341.32972
796.932	438.44123
797.121	400.43691
797.309	489.12151
797.497	391.99222
797.685	410.99314
797.874	463.78027
798.062	463.78027
798.25	383.5478
798.438	402.54813
798.626	337.1083
798.814	389.88109
799.002	417.32708
799.19	446.88733
799.378	440.55273
799.566	366.65975
799.755	425.77255
799.943	419.43842
800.131	444.77578
800.318	332.88694
800.506	311.78121
800.694	400.43691
800.882	404.65936
801.07	544.03473
801.258	417.32708
801.446	512.35284
801.634	400.43691
801.822	417.32708
802.01	383.5478
802.197	506.01685
802.385	436.32974
802.573	413.10444
802.761	404.65936
802.949	425.77255
803.136	377.21465
803.324	527.13733
803.512	341.32972
803.699	383.5478
803.887	290.67728
804.075	446.88733
804.262	415.21575
804.45	427.88395
804.638	362.43791
804.825	400.43691
805.013	444.77578
805.201	470.11538
805.388	324.44443
805.576	446.88733
805.763	385.65888
805.951	436.32974
806.138	341.32972
806.326	434.21827
806.513	404.65936
806.701	429.99538
806.888	349.77279
807.075	410.99314
807.263	349.77279
807.45	396.21454
807.638	440.55273
807.825	501.79293
808.012	347.662
808.2	455.33367
808.387	311.78121
808.574	535.58592
808.761	394.10337
808.949	514.46487
809.136	358.21613
809.323	512.35284
809.51	453.22206
809.698	444.77578
809.885	362.43791
810.072	400.43691
810.259	383.5478
810.446	400.43691
810.633	512.35284
810.82	493.34525
811.008	404.65936
811.195	444.77578
811.382	383.5478
811.569	400.43691
811.756	425.77255
811.943	425.77255
812.13	349.77279
812.317	548.25922
812.504	493.34525
812.691	476.45062
812.878	468.00366
813.064	501.79293
813.251	351.8836
813.438	569.38248
813.625	391.99222
813.812	489.12151
813.999	457.4453
814.186	455.33367
814.372	394.10337
814.559	510.24083
814.746	362.43791
814.933	586.28206
815.12	425.77255
815.306	470.11538
815.493	375.10364
815.68	478.56239
815.866	410.99314
816.053	461.6686
816.24	419.43842
816.426	400.43691
816.613	381.43673
816.799	520.80104
816.986	442.66424
817.173	537.6981
817.359	510.24083
817.546	415.21575
817.732	453.22206
817.919	476.45062
818.105	444.77578
818.292	463.78027
818.478	444.77578
818.665	391.99222
818.851	495.45715
819.037	423.66115
819.224	385.65888
819.41	470.11538
819.597	427.88395
819.783	400.43691
819.969	379.32569
820.156	468.00366
820.342	442.66424
820.528	459.55694
820.714	427.88395
820.901	510.24083
821.087	457.4453
821.273	470.11538
821.459	436.32974
821.646	470.11538
821.832	455.33367
822.018	451.11047
822.204	432.10681
822.39	432.10681
822.576	381.43673
822.762	425.77255
822.948	404.65936
823.134	463.78027
823.32	372.99264
823.507	402.54813
823.693	372.99264
823.879	387.76998
824.065	324.44443
824.25	446.88733
824.436	421.54978
824.622	383.5478
824.808	425.77255
824.994	434.21827
825.18	345.55122
825.366	474.33885
825.552	307.56028
825.738	396.21454
825.923	400.43691
826.109	391.99222
826.295	419.43842
826.481	508.12883
826.667	415.21575
826.852	358.21613
827.038	332.88694
827.224	438.44123
827.409	375.10364
827.595	413.10444
827.781	313.8917
827.966	417.32708
828.152	465.89196
828.338	379.32569
828.523	368.7707
828.709	419.43842
828.894	360.32701
829.08	391.99222
829.266	379.32569
829.451	434.21827
829.637	425.77255
829.822	408.88187
830.008	330.77629
830.193	290.67728
830.378	442.66424
830.564	400.43691
830.749	303.33942
830.935	389.88109
831.12	303.33942
831.305	446.88733
831.491	324.44443
831.676	347.662
831.861	269.5752
832.047	423.66115
832.232	297.00827
832.417	351.8836
832.602	313.8917
832.788	265.355
832.973	341.32972
833.158	404.65936
833.343	307.56028
833.528	358.21613
833.714	299.11864
833.899	349.77279
834.084	330.77629
834.269	402.54813
834.454	282.23623
834.639	391.99222
834.824	379.32569
835.009	446.88733
835.194	303.33942
835.379	383.5478
835.564	421.54978
835.749	320.22329
835.934	305.44984
836.119	309.67074
836.304	330.77629
836.489	383.5478
836.674	322.33385
836.859	250.58493
837.044	307.56028
837.228	294.89792
837.413	223.15728
837.598	423.66115
837.783	307.56028
837.968	309.67074
838.152	280.12601
838.337	387.76998
838.522	345.55122
838.707	267.46509
838.891	330.77629
839.076	337.1083
839.261	351.8836
839.445	341.32972
839.63	273.79547
839.815	326.55503
839.999	313.8917
840.184	387.76998
840.368	273.79547
840.553	328.66565
840.737	324.44443
840.922	282.23623
841.106	256.91485
841.291	334.99761
841.475	183.07674
841.66	273.79547
841.844	303.33942
842.029	231.59621
842.213	345.55122
842.397	341.32972
842.582	326.55503
842.766	286.45672
842.951	256.91485
843.135	322.33385
843.319	223.15728
843.504	284.34646
843.688	240.03545
843.872	235.81579
844.056	261.13489
844.241	351.8836
844.425	269.5752
844.609	282.23623
844.793	343.44047
844.977	265.355
845.161	240.03545
845.346	290.67728
845.53	271.68532
845.714	278.01581
845.898	208.38993
846.082	265.355
846.266	235.81579
846.45	273.79547
846.634	242.1453
846.818	242.1453
847.002	290.67728
847.186	406.7706
847.37	233.70599
847.554	237.92561
847.738	189.40476
847.922	223.15728
848.106	240.03545
848.29	240.03545
848.473	326.55503
848.657	235.81579
848.841	307.56028
849.025	301.22902
849.209	271.68532
849.392	284.34646
849.576	261.13489
849.76	252.69488
849.944	233.70599
850.127	208.38993
850.311	161.98467
850.495	189.40476
850.678	197.84241
850.862	383.5478
851.046	261.13489
851.229	235.81579
851.413	248.47499
851.596	214.71868
851.78	132.45929
851.964	286.45672
852.147	248.47499
852.331	166.20292
852.514	290.67728
852.698	221.0476
852.881	288.56699
853.065	214.71868
853.248	159.87558
853.431	248.47499
853.615	231.59621
853.798	324.44443
853.982	227.37671
854.165	206.28038
854.348	164.09378
854.532	275.90563
854.715	189.40476
854.898	214.71868
855.081	193.62355
855.265	235.81579
855.448	197.84241
855.631	176.7489
855.814	214.71868
855.997	227.37671
856.181	248.47499
856.364	256.91485
856.547	187.2954
856.73	265.355
856.913	147.22146
857.096	218.93794
857.279	208.38993
857.462	244.25518
857.645	256.91485
857.828	256.91485
858.011	197.84241
858.194	132.45929
858.377	206.28038
858.56	202.06136
858.743	235.81579
858.926	199.95188
859.109	176.7489
859.292	282.23623
859.475	105.04662
859.658	176.7489
859.841	174.63967
860.023	193.62355
860.206	185.18606
860.389	193.62355
860.572	88.17913
860.755	132.45929
860.937	206.28038
861.12	98.72115
861.303	130.35049
861.486	166.20292
861.668	267.46509
861.851	136.67694
862.034	121.91552
862.216	193.62355
862.399	189.40476
862.581	193.62355
862.764	193.62355
862.947	227.37671
863.129	155.65745
863.312	227.37671
863.494	168.31207
863.677	113.4809
863.859	151.43941
864.042	176.7489
864.224	206.28038
864.406	124.02423
864.589	206.28038
864.771	155.65745
864.954	117.69816
865.136	199.95188
865.318	189.40476
865.501	130.35049
865.683	176.7489
865.865	102.93811
866.048	174.63967
866.23	136.67694
866.412	176.7489
866.594	115.58952
866.777	96.6127
866.959	130.35049
867.141	225.26699
867.323	223.15728
867.505	172.53045
867.687	96.6127
867.869	124.02423
868.052	151.43941
868.234	138.7858
868.416	229.48645
868.598	155.65745
868.78	79.74592
868.962	155.65745
869.144	130.35049
869.326	136.67694
869.508	109.26371
869.69	174.63967
869.872	81.85419
870.054	240.03545
870.236	100.82962
870.417	134.5681
870.599	138.7858
870.781	151.43941
870.963	147.22146
871.145	193.62355
871.327	178.85816
871.508	204.17086
871.69	168.31207
871.872	147.22146
872.054	248.47499
872.235	121.91552
872.417	206.28038
872.599	185.18606
872.78	161.98467
872.962	170.42125
873.144	71.31307
873.325	170.42125
873.507	202.06136
873.689	214.71868
873.87	113.4809
874.052	151.43941
874.233	159.87558
874.415	132.45929
874.596	147.22146
874.778	121.91552
874.959	149.33043
875.141	100.82962
875.322	176.7489
875.503	96.6127
875.685	161.98467
875.866	100.82962
876.048	79.74592
876.229	81.85419
876.41	138.7858
876.592	94.50427
876.773	193.62355
876.954	88.17913
877.136	96.6127
877.317	98.72115
877.498	130.35049
877.679	98.72115
877.86	151.43941
878.042	67.09678
878.223	138.7858
878.404	155.65745
878.585	172.53045
878.766	128.24171
878.947	128.24171
879.128	143.00359
879.309	147.22146
879.49	79.74592
879.672	149.33043
879.853	126.13296
880.034	124.02423
880.215	105.04662
880.396	96.6127
880.576	197.84241
880.757	189.40476
880.938	41.80097
881.119	164.09378
881.3	155.65745
881.481	147.22146
881.662	210.49949
881.843	138.7858
882.023	96.6127
882.204	143.00359
882.385	197.84241
882.566	229.48645
882.747	248.47499
882.927	77.63768
883.108	115.58952
883.289	178.85816
883.469	140.89469
883.65	155.65745
883.831	126.13296
884.011	174.63967
884.192	79.74592
884.373	88.17913
884.553	130.35049
884.734	149.33043
884.914	96.6127
885.095	155.65745
885.275	117.69816
885.456	155.65745
885.636	143.00359
885.817	206.28038
885.997	147.22146
886.178	149.33043
886.358	193.62355
886.538	113.4809
886.719	130.35049
886.899	111.37229
887.08	157.7665
887.26	206.28038
887.44	96.6127
887.621	231.59621
887.801	168.31207
887.981	231.59621
888.161	149.33043
888.342	151.43941
888.522	166.20292
888.702	166.20292
888.882	157.7665
889.062	178.85816
889.242	208.38993
889.423	121.91552
889.603	138.7858
889.783	233.70599
889.963	189.40476
890.143	187.2954
890.323	172.53045
890.503	166.20292
890.683	164.09378
890.863	267.46509
891.043	111.37229
891.223	151.43941
891.403	155.65745
891.583	136.67694
891.763	96.6127
891.943	183.07674
892.122	96.6127
892.302	62.88058
892.482	159.87558
892.662	86.0708
892.842	147.22146
893.022	115.58952
893.201	176.7489
893.381	151.43941
893.561	193.62355
893.741	149.33043
893.92	130.35049
894.1	180.96744
894.28	64.98867
894.459	178.85816
894.639	174.63967
894.819	90.28749
894.998	170.42125
895.178	81.85419
895.357	115.58952
895.537	180.96744
895.716	157.7665
895.896	172.53045
896.075	130.35049
896.255	100.82962
896.434	157.7665
896.614	143.00359
896.793	105.04662
896.973	147.22146
897.152	180.96744
897.331	174.63967
897.511	24.93896
897.69	155.65745
897.87	48.12461
898.049	88.17913
898.228	92.39587
898.407	58.66448
898.587	79.74592
898.766	100.82962
898.945	79.74592
899.124	136.67694
899.304	92.39587
899.483	174.63967
899.662	143.00359
899.841	155.65745
900.02	164.09378
900.199	117.69816
900.378	102.93811
900.557	71.31307
900.737	159.87558
900.916	105.04662
901.095	147.22146
901.274	98.72115
901.453	185.18606
901.632	168.31207
901.811	126.13296
901.989	83.96248
902.168	143.00359
902.347	83.96248
902.526	64.98867
902.705	98.72115
902.884	117.69816
903.063	117.69816
903.242	193.62355
903.42	126.13296
903.599	124.02423
903.778	124.02423
903.957	143.00359
904.135	71.31307
904.314	33.36978
904.493	145.11251
904.672	132.45929
904.85	113.4809
905.029	121.91552
905.207	64.98867
905.386	138.7858
905.565	121.91552
905.743	96.6127
905.922	64.98867
906.1	24.93896
906.279	111.37229
906.457	121.91552
906.636	54.44846
906.814	71.31307
906.993	77.63768
907.171	16.50851
907.35	132.45929
907.528	54.44846
907.707	67.09678
907.885	92.39587
908.063	60.77252
908.242	71.31307
908.42	71.31307
908.598	155.65745
908.777	71.31307
908.955	60.77252
909.133	113.4809
909.311	124.02423
909.49	71.31307
909.668	64.98867
909.846	113.4809
910.024	71.31307
910.202	79.74592
910.38	43.90883
910.559	75.52945
910.737	124.02423
910.915	37.58533
911.093	33.36978
911.271	81.85419
911.449	54.44846
911.627	109.26371
911.805	67.09678
911.983	31.26204
912.161	58.66448
912.339	58.66448
912.517	115.58952
912.695	29.15432
912.872	105.04662
913.05	16.50851
913.228	58.66448
913.406	164.09378
913.584	151.43941
913.762	121.91552
913.939	56.55646
914.117	132.45929
914.295	96.6127
914.473	94.50427
914.65	130.35049
914.828	56.55646
915.006	88.17913
915.184	58.66448
915.361	124.02423
915.539	88.17913
915.716	73.42125
915.894	48.12461
916.072	81.85419
916.249	109.26371
916.427	102.93811
916.604	56.55646
916.782	37.58533
916.959	62.88058
917.137	102.93811
917.314	71.31307
917.492	105.04662
917.669	81.85419
917.847	109.26371
918.024	20.72369
918.201	54.44846
918.379	113.4809
918.556	75.52945
918.733	88.17913
918.911	88.17913
919.088	54.44846
919.265	54.44846
919.442	31.26204
919.62	86.0708
919.797	75.52945
919.974	33.36978
920.151	58.66448
920.328	5.97099
920.506	75.52945
920.683	27.04663
920.86	29.15432
921.037	138.7858
921.214	48.12461
921.391	79.74592
921.568	71.31307
921.745	12.29343
921.922	75.52945
922.099	-25.63794
922.276	79.74592
922.453	105.04662
922.63	18.61609
922.807	107.15516
922.984	88.17913
923.161	54.44846
923.338	20.72369
923.514	10.18593
923.691	29.15432
923.868	132.45929
924.045	50.23254
924.222	48.12461
924.399	39.69314
924.575	60.77252
924.752	41.80097
924.929	96.6127
925.105	48.12461
925.282	58.66448
925.459	105.04662
925.635	52.34049
925.812	96.6127
925.989	79.74592
926.165	71.31307
926.342	10.18593
926.518	69.20492
926.695	58.66448
926.871	130.35049
927.048	46.01671
927.224	58.66448
927.401	73.42125
927.577	130.35049
927.754	121.91552
927.93	12.29343
928.107	132.45929
928.283	54.44846
928.459	71.31307
928.636	27.04663
928.812	5.97099
928.988	31.26204
929.165	75.52945
929.341	33.36978
929.517	5.97099
929.693	71.31307
929.87	83.96248
930.046	62.88058
930.222	64.98867
930.398	75.52945
930.574	71.31307
930.751	-4.56592
930.927	126.13296
931.103	37.58533
931.279	62.88058
931.455	79.74592
931.631	29.15432
931.807	121.91552
931.983	37.58533
932.159	41.80097
932.335	79.74592
932.511	54.44846
932.687	33.36978
932.863	62.88058
933.039	71.31307
933.215	24.93896
933.391	46.01671
933.566	94.50427
933.742	113.4809
933.918	140.89469
934.094	16.50851
934.27	-27.74501
934.445	54.44846
934.621	69.20492
934.797	121.91552
934.973	113.4809
935.148	14.40096
935.324	75.52945
935.5	8.07845
935.675	20.72369
935.851	107.15516
936.027	107.15516
936.202	96.6127
936.378	29.15432
936.553	41.80097
936.729	54.44846
936.904	12.29343
937.08	12.29343
937.255	1.75615
937.431	24.93896
937.606	-8.78052
937.782	16.50851
937.957	39.69314
938.133	39.69314
938.308	-19.31659
938.483	-21.42373
938.659	54.44846
938.834	-29.85205
939.009	33.36978
939.185	46.01671
939.36	43.90883
939.535	-2.45859
939.71	41.80097
939.886	27.04663
940.061	10.18593
940.236	14.40096
940.411	39.69314
940.586	-29.85205
940.761	-4.56592
940.937	-12.99502
941.112	-15.10224
941.287	24.93896
941.462	-0.35123
941.637	27.04663
941.812	81.85419
941.987	29.15432
942.162	75.52945
942.337	64.98867
942.512	79.74592
942.687	-55.13461
942.862	75.52945
943.037	24.93896
943.212	92.39587
943.386	22.83131
943.561	102.93811
943.736	-69.8811
943.911	-0.35123
944.086	48.12461
944.26	107.15516
944.435	71.31307
944.61	29.15432
944.785	8.07845
944.959	37.58533
945.134	88.17913
945.309	20.72369
945.483	50.23254
945.658	-12.99502
945.833	-38.27997
946.007	20.72369
946.182	33.36978
946.357	81.85419
946.531	16.50851
946.706	-63.56133
946.88	8.07845
947.055	86.0708
947.229	24.93896
947.404	22.83131
947.578	29.15432
947.752	75.52945
947.927	71.31307
948.101	48.12461
948.276	-17.20943
948.45	-4.56592
948.624	58.66448
948.799	22.83131
948.973	-42.49378
949.147	-44.60065
949.321	39.69314
949.496	64.98867
949.67	124.02423
949.844	-2.45859
950.018	73.42125
950.193	-53.02787
950.367	29.15432
950.541	5.97099
950.715	18.61609
950.889	46.01671
951.063	-44.60065
951.237	46.01671
951.411	22.83131
951.585	8.07845
951.759	41.80097
951.933	1.75615
952.107	-8.78052
952.281	-0.35123
952.455	16.50851
952.629	109.26371
952.803	22.83131
952.977	83.96248
953.151	31.26204
953.325	81.85419
953.499	37.58533
953.672	24.93896
953.846	12.29343
954.02	60.77252
954.194	37.58533
954.368	16.50851
954.541	3.86356
954.715	50.23254
954.889	-2.45859
955.062	16.50851
955.236	-12.99502
955.41	43.90883
955.583	56.55646
955.757	37.58533
955.93	12.29343
956.104	3.86356
956.278	24.93896
956.451	60.77252
956.625	33.36978
956.798	88.17913
956.972	1.75615
957.145	5.97099
957.319	29.15432
957.492	-12.99502
957.665	71.31307
957.839	37.58533
958.012	24.93896
958.185	24.93896
958.359	-12.99502
958.532	16.50851
958.705	-50.9211
958.879	60.77252
959.052	29.15432
959.225	33.36978
959.398	62.88058
959.572	8.07845
959.745	64.98867
959.918	-6.67324
960.091	75.52945
960.264	20.72369
960.438	33.36978
960.611	20.72369
960.784	-71.98763
960.957	-8.78052
961.13	-21.42373
961.303	46.01671
961.476	107.15516
961.649	-0.35123
961.822	33.36978
961.995	64.98867
962.168	37.58533
962.341	-36.17303
962.514	-4.56592
962.686	-31.95906
962.859	62.88058
963.032	71.31307
963.205	31.26204
963.378	24.93896
963.551	3.86356
963.723	69.20492
963.896	-23.53085
964.069	14.40096
964.242	-23.53085
964.414	67.09678
964.587	29.15432
964.76	3.86356
964.932	73.42125
965.105	-44.60065
965.278	-12.99502
965.45	39.69314
965.623	50.23254
965.795	-17.20943
965.968	16.50851
966.14	71.31307
966.313	24.93896
966.485	16.50851
966.658	8.07845
966.83	88.17913
967.003	20.72369
967.175	-2.45859
967.348	69.20492
967.52	20.72369
967.692	20.72369
967.865	3.86356
968.037	12.29343
968.209	73.42125
968.382	56.55646
968.554	-27.74501
968.726	10.18593
968.898	64.98867
969.071	90.28749
969.243	3.86356
969.415	-8.78052
969.587	-6.67324
969.759	31.26204
969.932	5.97099
970.104	-15.10224
970.276	8.07845
970.448	3.86356
970.62	37.58533
970.792	1.75615
970.964	64.98867
971.136	41.80097
971.308	20.72369
971.48	54.44846
971.652	-29.85205
971.824	-29.85205
971.996	-50.9211
972.168	31.26204
972.339	39.69314
972.511	-4.56592
972.683	27.04663
972.855	46.01671
973.027	22.83131
973.199	-25.63794
973.37	14.40096
973.542	29.15432
973.714	-2.45859
973.886	46.01671
974.057	41.80097
974.229	48.12461
974.401	67.09678
974.572	-0.35123
974.744	29.15432
974.915	64.98867
975.087	-19.31659
975.259	39.69314
975.43	29.15432
975.602	56.55646
975.773	37.58533
975.945	22.83131
976.116	-12.99502
976.288	-10.88778
976.459	12.29343
976.63	16.50851
976.802	12.29343
976.973	-4.56592
977.145	39.69314
977.316	-12.99502
977.487	33.36978
977.659	27.04663
977.83	12.29343
978.001	-27.74501
978.172	-25.63794
978.344	12.29343
978.515	41.80097
978.686	3.86356
978.857	58.66448
979.028	20.72369
979.2	3.86356
979.371	62.88058
979.542	29.15432
979.713	29.15432
979.884	24.93896
980.055	-12.99502
980.226	31.26204
980.397	8.07845
980.568	-2.45859
980.739	50.23254
980.91	29.15432
981.081	-21.42373
981.252	-21.42373
981.423	-21.42373
981.594	37.58533
981.765	73.42125
981.936	29.15432
982.106	64.98867
982.277	46.01671
982.448	29.15432
982.619	1.75615
982.79	37.58533
982.96	96.6127
983.131	58.66448
983.302	24.93896
983.472	-0.35123
983.643	-6.67324
983.814	-88.83902
983.984	18.61609
984.155	-2.45859
984.326	14.40096
984.496	54.44846
984.667	-21.42373
984.837	-44.60065
985.008	20.72369
985.178	16.50851
985.349	48.12461
985.519	-12.99502
985.69	-21.42373
985.86	79.74592
986.031	-0.35123
986.201	8.07845
986.371	3.86356
986.542	62.88058
986.712	24.93896
986.882	-27.74501
987.053	-6.67324
987.223	62.88058
987.393	31.26204
987.563	-61.45468
987.734	14.40096
987.904	71.31307
988.074	69.20492
988.244	8.07845
988.414	-4.56592
988.585	29.15432
988.755	-84.62633
988.925	31.26204
989.095	37.58533
989.265	3.86356
989.435	-17.20943
989.605	29.15432
989.775	22.83131
989.945	79.74592
990.115	62.88058
990.285	3.86356
990.455	52.34049
990.625	58.66448
990.795	-19.31659
990.965	8.07845
991.134	27.04663
991.304	-10.88778
991.474	48.12461
991.644	37.58533
991.814	-50.9211
991.984	-8.78052
992.153	18.61609
992.323	3.86356
992.493	-12.99502
992.662	27.04663
992.832	-4.56592
993.002	56.55646
993.171	22.83131
993.341	37.58533
993.511	3.86356
993.68	-12.99502
993.85	12.29343
994.019	-42.49378
994.189	-78.3071
994.358	-27.74501
994.528	79.74592
994.697	77.63768
994.867	81.85419
995.036	75.52945
995.206	29.15432
995.375	20.72369
995.544	41.80097
995.714	37.58533
995.883	12.29343
996.052	-46.70749
996.222	-46.70749
996.391	73.42125
996.56	29.15432
996.73	62.88058
996.899	8.07845
997.068	16.50851
997.237	88.17913
997.406	62.88058
997.576	-25.63794
997.745	54.44846
997.914	-38.27997
998.083	-12.99502
998.252	62.88058
998.421	33.36978
998.59	96.6127
998.759	58.66448
998.928	12.29343
999.097	90.28749
999.266	79.74592
999.435	37.58533
999.604	-17.20943
999.773	113.4809
999.942	-10.88778
1000.111	-53.02787
1000.28	-2.45859
1000.448	54.44846
1000.617	-0.35123
1000.786	62.88058
1000.955	18.61609
1001.124	29.15432
1001.292	20.72369
1001.461	-25.63794
1001.63	-19.31659
1001.798	20.72369
1001.967	29.15432
1002.136	56.55646
1002.304	-48.81431
1002.473	29.15432
1002.642	39.69314
1002.81	46.01671
1002.979	64.98867
1003.147	-17.20943
1003.316	22.83131
1003.484	48.12461
1003.653	43.90883
1003.821	14.40096
1003.99	92.39587
1004.158	24.93896
1004.327	3.86356
1004.495	-29.85205
1004.663	50.23254
1004.832	-19.31659
1005	37.58533
1005.168	-27.74501
1005.337	-12.99502
1005.505	-25.63794
1005.673	-82.51994
1005.842	48.12461
1006.01	50.23254
1006.178	37.58533
1006.346	96.6127
1006.514	22.83131
1006.683	60.77252
1006.851	8.07845
1007.019	-4.56592
1007.187	58.66448
1007.355	-4.56592
1007.523	-27.74501
1007.691	54.44846
1007.859	-34.06606
1008.027	41.80097
1008.195	3.86356
1008.363	-19.31659
1008.531	37.58533
1008.699	58.66448
1008.867	-36.17303
1009.035	10.18593
1009.203	48.12461
1009.37	-10.88778
1009.538	-46.70749
1009.706	10.18593
1009.874	31.26204
1010.042	46.01671
1010.209	-25.63794
1010.377	37.58533
1010.545	-2.45859
1010.713	-36.17303
1010.88	8.07845
1011.048	-21.42373
1011.216	24.93896
1011.383	8.07845
1011.551	31.26204
1011.718	81.85419
1011.886	56.55646
1012.054	117.69816
1012.221	20.72369
1012.389	43.90883
1012.556	46.01671
1012.724	35.47754
1012.891	-46.70749
1013.058	107.15516
1013.226	-2.45859
1013.393	3.86356
1013.561	12.29343
1013.728	37.58533
1013.895	46.01671
1014.063	-21.42373
1014.23	83.96248
1014.397	37.58533
1014.565	-42.49378
1014.732	-50.9211
1014.899	-53.02787
1015.066	14.40096
1015.233	52.34049
1015.401	22.83131
1015.568	-4.56592
1015.735	71.31307
1015.902	-29.85205
1016.069	20.72369
1016.236	-12.99502
1016.403	54.44846
1016.57	3.86356
1016.737	56.55646
1016.904	60.77252
1017.071	-4.56592
1017.238	8.07845
1017.405	-8.78052
1017.572	-0.35123
1017.739	46.01671
1017.906	37.58533
1018.073	31.26204
1018.24	18.61609
1018.407	79.74592
1018.573	48.12461
1018.74	-4.56592
1018.907	-8.78052
1019.074	14.40096
1019.241	31.26204
1019.407	-10.88778
1019.574	-2.45859
1019.741	54.44846
1019.907	3.86356
1020.074	37.58533
1020.241	56.55646
1020.407	35.47754
1020.574	-19.31659
1020.74	-10.88778
1020.907	22.83131
1021.073	71.31307
1021.24	-17.20943
1021.406	-19.31659
1021.573	-25.63794
1021.739	90.28749
1021.906	31.26204
1022.072	-69.8811
1022.239	-0.35123
1022.405	39.69314
1022.571	60.77252
1022.738	58.66448
1022.904	-48.81431
1023.07	67.09678
1023.237	20.72369
1023.403	-2.45859
1023.569	-17.20943
1023.735	20.72369
1023.902	3.86356
1024.068	-4.56592
1024.234	12.29343
1024.4	39.69314
1024.566	48.12461
1024.732	-4.56592
1024.898	14.40096
1025.065	62.88058
1025.231	96.6127
1025.397	-29.85205
1025.563	-46.70749
1025.729	39.69314
1025.895	86.0708
1026.061	-21.42373
1026.227	-25.63794
1026.392	-8.78052
1026.558	22.83131
1026.724	-27.74501
1026.89	12.29343
1027.056	-4.56592
1027.222	3.86356
1027.388	-27.74501
1027.553	5.97099
1027.719	54.44846
1027.885	71.31307
1028.051	-12.99502
1028.216	31.26204
1028.382	5.97099
1028.548	22.83131
1028.713	46.01671
1028.879	-46.70749
1029.045	-42.49378
1029.21	-59.34802
1029.376	41.80097
1029.541	14.40096
1029.707	20.72369
1029.873	-8.78052
1030.038	-12.99502
1030.204	-107.79484
1030.369	-6.67324
1030.534	-63.56133
1030.7	-21.42373
1030.865	-38.27997
1031.031	-55.13461
1031.196	50.23254
1031.361	12.29343
1031.527	-0.35123
1031.692	-4.56592
1031.857	29.15432
1032.023	33.36978
1032.188	1.75615
1032.353	22.83131
1032.518	8.07845
1032.684	16.50851
1032.849	-0.35123
1033.014	20.72369
1033.179	-4.56592
1033.344	-21.42373
1033.509	10.18593
1033.674	-17.20943
1033.839	29.15432
1034.004	31.26204
1034.17	46.01671
1034.335	3.86356
1034.5	100.82962
1034.664	-0.35123
1034.829	62.88058
1034.994	37.58533
1035.159	-15.10224
1035.324	-31.95906
1035.489	69.20492
1035.654	31.26204
1035.819	-4.56592
1035.984	31.26204
1036.148	-65.66794
1036.313	-21.42373
1036.478	-67.77453
1036.643	-29.85205
1036.807	1.75615
1036.972	105.04662
1037.137	33.36978
1037.301	20.72369
1037.466	20.72369
1037.631	3.86356
1037.795	14.40096
1037.96	115.58952
1038.124	-0.35123
1038.289	37.58533
1038.454	-12.99502
1038.618	-8.78052
1038.783	-46.70749
1038.947	-4.56592
1039.111	-65.66794
1039.276	29.15432
1039.44	31.26204
1039.605	-4.56592
1039.769	43.90883
1039.933	-10.88778
1040.098	-2.45859
1040.262	60.77252
1040.426	-4.56592
1040.591	71.31307
1040.755	-17.20943
1040.919	3.86356
1041.083	-6.67324
1041.248	62.88058
1041.412	31.26204
1041.576	37.58533
1041.74	-12.99502
1041.904	20.72369
1042.068	-46.70749
1042.232	41.80097
1042.397	62.88058
1042.561	-12.99502
1042.725	37.58533
1042.889	-25.63794
1043.053	-17.20943
1043.217	24.93896
1043.381	16.50851
1043.544	-12.99502
1043.708	67.09678
1043.872	41.80097
1044.036	-29.85205
1044.2	-2.45859
1044.364	-4.56592
1044.528	20.72369
1044.691	-8.78052
1044.855	92.39587
1045.019	-36.17303
1045.183	-21.42373
1045.346	-10.88778
1045.51	39.69314
1045.674	12.29343
1045.837	-12.99502
1046.001	3.86356
1046.165	5.97099
1046.328	14.40096
1046.492	-19.31659
1046.655	29.15432
1046.819	24.93896
1046.983	94.50427
1047.146	29.15432
1047.31	-48.81431
1047.473	-21.42373
1047.636	81.85419
1047.8	14.40096
1047.963	54.44846
1048.127	-34.06606
1048.29	33.36978
