Data from mixed_try1_USB4F045381__9__00234.txt Node

Date: Thu Apr 03 20:23:53 EDT 2025
User: mmckonesweet
Spectrometer: USB4F04538
Trigger mode: 4
Integration Time (sec): 2.700000E-3
Scans to average: 1
Electric dark correction enabled: true
Nonlinearity correction enabled: true
Boxcar width: 0
XAxis mode: Wavelengths
Number of Pixels in Spectrum: 3648
>>>>>Begin Spectral Data<<<<<
345.52	-5.44397
345.736	-5.44397
345.952	-5.44397
346.168	-13.87303
346.384	70.43467
346.6	-64.43909
346.816	-28.62294
347.032	-5.44397
347.248	-5.44397
347.464	53.57014
347.68	-34.94396
347.896	43.03055
348.112	2.98547
348.328	-7.55127
348.544	11.4153
348.76	28.27611
348.975	7.20034
349.191	-81.29121
349.407	2.98547
349.623	5.09289
349.839	-22.3017
350.055	-3.33665
350.27	21.95313
350.486	2.98547
350.702	55.67812
350.918	-47.58533
351.133	-37.05092
351.349	15.63036
351.565	36.70708
351.781	34.5993
351.996	62.00222
352.212	13.52282
352.428	30.38382
352.644	43.03055
352.859	-28.62294
353.075	-5.44397
353.291	-13.87303
353.506	19.84552
353.722	-13.87303
353.938	-28.62294
354.153	-70.75882
354.369	-22.3017
354.584	32.49155
354.8	-68.65227
355.016	-13.87303
355.231	-72.86535
355.447	-1.2293
355.662	-114.99048
355.878	-22.3017
356.093	-28.62294
356.309	-47.58533
356.524	2.98547
356.74	-60.2258
356.955	30.38382
357.171	19.84552
357.386	-22.3017
357.602	-15.98024
357.817	-5.44397
358.033	-13.87303
358.248	-47.58533
358.464	-39.15785
358.679	-39.15785
358.895	28.27611
359.11	-43.37164
359.325	70.43467
359.541	30.38382
359.756	53.57014
359.972	-1.2293
360.187	-34.94396
360.402	-30.72997
360.618	-81.29121
360.833	11.4153
361.048	-13.87303
361.264	-18.08741
361.479	-60.2258
361.694	0.87808
361.909	15.63036
362.125	-7.55127
362.34	-26.51589
362.555	-85.50398
362.77	17.73793
362.986	-26.51589
363.201	53.57014
363.416	-34.94396
363.631	-1.2293
363.847	7.20034
364.062	-93.92922
364.277	-43.37164
364.492	47.24632
364.707	28.27611
364.922	7.20034
365.138	64.1103
365.353	-22.3017
365.568	-18.08741
365.783	93.62577
365.998	7.20034
366.213	55.67812
366.428	-34.94396
366.643	17.73793
366.858	-34.94396
367.073	-28.62294
367.288	7.20034
367.503	5.09289
367.718	-81.29121
367.933	36.70708
368.148	-7.55127
368.363	-62.33245
368.578	-51.79892
368.793	-39.15785
369.008	-22.3017
369.223	17.73793
369.438	-70.75882
369.653	-3.33665
369.868	-41.26476
370.083	15.63036
370.298	19.84552
370.513	-56.01241
370.728	-43.37164
370.943	-77.07833
371.157	24.06077
371.372	13.52282
371.587	19.84552
371.802	-51.79892
372.017	-26.51589
372.232	-47.58533
372.446	-34.94396
372.661	55.67812
372.876	-89.71665
373.091	19.84552
373.306	21.95313
373.52	-72.86535
373.735	13.52282
373.95	-1.2293
374.165	-39.15785
374.379	-30.72997
374.594	-24.40881
374.809	15.63036
375.023	-72.86535
375.238	-41.26476
375.453	-15.98024
375.667	38.81488
375.882	-102.35404
376.097	-53.90568
376.311	-51.79892
376.526	64.1103
376.741	0.87808
376.955	21.95313
377.17	-28.62294
377.384	28.27611
377.599	-30.72997
377.813	-11.7658
378.028	59.89417
378.242	-60.2258
378.457	17.73793
378.672	28.27611
378.886	-1.2293
379.101	5.09289
379.315	2.98547
379.53	-26.51589
379.744	-20.19457
379.958	15.63036
380.173	-22.3017
380.387	-22.3017
380.602	57.78613
380.816	38.81488
381.031	-30.72997
381.245	99.95108
381.459	32.49155
381.674	-18.08741
381.888	-11.7658
382.103	21.95313
382.317	-22.3017
382.531	-70.75882
382.746	45.13842
382.96	-9.65855
383.174	21.95313
383.388	-62.33245
383.603	59.89417
383.817	83.08402
384.031	-30.72997
384.246	-20.19457
384.46	-1.2293
384.674	70.43467
384.888	-22.3017
385.103	19.84552
385.317	-37.05092
385.531	-18.08741
385.745	19.84552
385.959	-60.2258
386.174	53.57014
386.388	95.73419
386.602	-37.05092
386.816	-49.69214
387.03	30.38382
387.244	-70.75882
387.458	2.98547
387.672	-45.4785
387.887	-24.40881
388.101	55.67812
388.315	53.57014
388.529	-60.2258
388.743	-22.3017
388.957	-7.55127
389.171	-24.40881
389.385	-56.01241
389.599	36.70708
389.813	-13.87303
390.027	30.38382
390.241	-11.7658
390.455	-51.79892
390.669	-15.98024
390.883	-34.94396
391.097	-9.65855
391.311	11.4153
391.525	7.20034
391.738	-64.43909
391.952	-47.58533
392.166	21.95313
392.38	-3.33665
392.594	-9.65855
392.808	-47.58533
393.022	-43.37164
393.236	-13.87303
393.449	-53.90568
393.663	-15.98024
393.877	13.52282
394.091	-89.71665
394.305	-43.37164
394.518	-56.01241
394.732	-30.72997
394.946	45.13842
395.16	-45.4785
395.373	-106.56629
395.587	-5.44397
395.801	-5.44397
396.015	24.06077
396.228	-9.65855
396.442	28.27611
396.656	-53.90568
396.869	2.98547
397.083	-7.55127
397.297	2.98547
397.51	36.70708
397.724	49.35423
397.938	45.13842
398.151	-3.33665
398.365	26.16843
398.578	17.73793
398.792	-9.65855
399.005	-53.90568
399.219	15.63036
399.433	-5.44397
399.646	-39.15785
399.86	-56.01241
400.073	5.09289
400.287	40.92271
400.5	-13.87303
400.714	24.06077
400.927	5.09289
401.141	-34.94396
401.354	7.20034
401.567	7.20034
401.781	-83.39761
401.994	-37.05092
402.208	-7.55127
402.421	72.54284
402.635	-26.51589
402.848	-43.37164
403.061	-1.2293
403.275	-60.2258
403.488	-39.15785
403.701	-18.08741
403.915	-68.65227
404.128	-11.7658
404.341	28.27611
404.555	-64.43909
404.768	17.73793
404.981	-9.65855
405.195	-53.90568
405.408	11.4153
405.621	7.20034
405.834	-9.65855
406.048	-13.87303
406.261	38.81488
406.474	57.78613
406.687	-34.94396
406.9	-106.56629
407.114	-28.62294
407.327	-79.18478
407.54	-47.58533
407.753	47.24632
407.966	-56.01241
408.179	-114.99048
408.392	-110.77844
408.605	-13.87303
408.819	-64.43909
409.032	13.52282
409.245	7.20034
409.458	70.43467
409.671	47.24632
409.884	32.49155
410.097	-106.56629
410.31	80.97574
410.523	-39.15785
410.736	-81.29121
410.949	26.16843
411.162	-26.51589
411.375	45.13842
411.588	-20.19457
411.801	-3.33665
412.014	-11.7658
412.227	13.52282
412.44	2.98547
412.653	-18.08741
412.865	-22.3017
413.078	36.70708
413.291	2.98547
413.504	-77.07833
413.717	-20.19457
413.93	-41.26476
414.143	-30.72997
414.356	-5.44397
414.568	-26.51589
414.781	-22.3017
414.994	13.52282
415.207	-15.98024
415.42	45.13842
415.632	-56.01241
415.845	13.52282
416.058	-9.65855
416.271	9.30781
416.483	-34.94396
416.696	-30.72997
416.909	-13.87303
417.121	15.63036
417.334	-106.56629
417.547	-39.15785
417.759	11.4153
417.972	11.4153
418.185	-39.15785
418.397	-77.07833
418.61	-34.94396
418.823	-53.90568
419.035	-15.98024
419.248	-28.62294
419.46	32.49155
419.673	19.84552
419.885	-64.43909
420.098	-3.33665
420.311	-58.11912
420.523	45.13842
420.736	-24.40881
420.948	17.73793
421.161	-18.08741
421.373	-28.62294
421.586	-64.43909
421.798	-68.65227
422.01	-34.94396
422.223	-60.2258
422.435	-72.86535
422.648	-70.75882
422.86	9.30781
423.073	-9.65855
423.285	21.95313
423.497	59.89417
423.71	-43.37164
423.922	11.4153
424.134	62.00222
424.347	-26.51589
424.559	0.87808
424.771	-74.97185
424.984	7.20034
425.196	-20.19457
425.408	-9.65855
425.621	30.38382
425.833	-9.65855
426.045	68.32652
426.257	9.30781
426.47	5.09289
426.682	15.63036
426.894	7.20034
427.106	-5.44397
427.318	-49.69214
427.531	21.95313
427.743	-18.08741
427.955	24.06077
428.167	32.49155
428.379	-28.62294
428.591	-11.7658
428.804	-83.39761
429.016	-28.62294
429.228	-39.15785
429.44	-68.65227
429.652	5.09289
429.864	13.52282
430.076	-3.33665
430.288	-13.87303
430.5	-11.7658
430.712	49.35423
430.924	11.4153
431.136	32.49155
431.348	-129.73178
431.56	-5.44397
431.772	-15.98024
431.984	19.84552
432.196	-37.05092
432.408	-81.29121
432.62	-1.2293
432.832	-3.33665
433.044	-37.05092
433.256	-87.61033
433.468	-22.3017
433.679	-5.44397
433.891	5.09289
434.103	-70.75882
434.315	38.81488
434.527	32.49155
434.739	32.49155
434.95	5.09289
435.162	-56.01241
435.374	5.09289
435.586	-81.29121
435.798	-7.55127
436.009	-20.19457
436.221	-5.44397
436.433	13.52282
436.645	49.35423
436.856	2.98547
437.068	-5.44397
437.28	45.13842
437.491	7.20034
437.703	-13.87303
437.915	2.98547
438.126	-28.62294
438.338	-22.3017
438.55	-70.75882
438.761	7.20034
438.973	40.92271
439.184	-62.33245
439.396	-47.58533
439.608	19.84552
439.819	-18.08741
440.031	15.63036
440.242	-79.18478
440.454	-15.98024
440.665	-22.3017
440.877	-5.44397
441.088	-13.87303
441.3	-56.01241
441.511	2.98547
441.723	-62.33245
441.934	-28.62294
442.146	57.78613
442.357	45.13842
442.569	49.35423
442.78	11.4153
442.991	45.13842
443.203	-66.54569
443.414	51.46218
443.626	32.49155
443.837	7.20034
444.048	-1.2293
444.26	-18.08741
444.471	-51.79892
444.682	-60.2258
444.894	-22.3017
445.105	-47.58533
445.316	-70.75882
445.528	-47.58533
445.739	-20.19457
445.95	-30.72997
446.161	-58.11912
446.373	38.81488
446.584	7.20034
446.795	-53.90568
447.006	45.13842
447.217	-18.08741
447.429	13.52282
447.64	68.32652
447.851	-22.3017
448.062	-22.3017
448.273	-74.97185
448.484	-22.3017
448.695	-47.58533
448.907	70.43467
449.118	-79.18478
449.329	57.78613
449.54	-68.65227
449.751	36.70708
449.962	5.09289
450.173	-26.51589
450.384	-41.26476
450.595	-45.4785
450.806	-13.87303
451.017	28.27611
451.228	-30.72997
451.439	13.52282
451.65	-30.72997
451.861	-11.7658
452.072	-22.3017
452.283	-47.58533
452.494	-26.51589
452.705	-5.44397
452.915	36.70708
453.126	-39.15785
453.337	-24.40881
453.548	17.73793
453.759	30.38382
453.97	-37.05092
454.181	57.78613
454.391	28.27611
454.602	19.84552
454.813	-3.33665
455.024	-11.7658
455.235	2.98547
455.445	-45.4785
455.656	-3.33665
455.867	64.1103
456.078	21.95313
456.288	0.87808
456.499	-5.44397
456.71	-30.72997
456.921	-1.2293
457.131	-30.72997
457.342	80.97574
457.553	-51.79892
457.763	-34.94396
457.974	-11.7658
458.184	9.30781
458.395	-32.83698
458.606	-70.75882
458.816	11.4153
459.027	5.09289
459.237	0.87808
459.448	11.4153
459.659	-56.01241
459.869	19.84552
460.08	-72.86535
460.29	19.84552
460.501	-34.94396
460.711	11.4153
460.922	19.84552
461.132	21.95313
461.343	-64.43909
461.553	-9.65855
461.764	-28.62294
461.974	45.13842
462.184	-56.01241
462.395	-18.08741
462.605	-13.87303
462.816	-77.07833
463.026	19.84552
463.236	-5.44397
463.447	-22.3017
463.657	-20.19457
463.867	28.27611
464.078	-18.08741
464.288	5.09289
464.498	-5.44397
464.709	-20.19457
464.919	70.43467
465.129	-53.90568
465.339	24.06077
465.55	9.30781
465.76	11.4153
465.97	-51.79892
466.18	-22.3017
466.391	-37.05092
466.601	-5.44397
466.811	49.35423
467.021	66.2184
467.231	-37.05092
467.441	45.13842
467.651	-15.98024
467.862	-9.65855
468.072	-72.86535
468.282	-26.51589
468.492	11.4153
468.702	45.13842
468.912	-9.65855
469.122	24.06077
469.332	-47.58533
469.542	21.95313
469.752	-93.92922
469.962	24.06077
470.172	15.63036
470.382	19.84552
470.592	72.54284
470.802	-81.29121
471.012	47.24632
471.222	13.52282
471.432	2.98547
471.642	-11.7658
471.852	55.67812
472.062	13.52282
472.272	-3.33665
472.482	-13.87303
472.691	-22.3017
472.901	-11.7658
473.111	5.09289
473.321	-34.94396
473.531	-30.72997
473.741	-9.65855
473.95	-62.33245
474.16	-11.7658
474.37	-13.87303
474.58	-11.7658
474.79	-13.87303
474.999	19.84552
475.209	-5.44397
475.419	11.4153
475.628	-3.33665
475.838	-53.90568
476.048	11.4153
476.258	2.98547
476.467	-58.11912
476.677	-18.08741
476.886	53.57014
477.096	28.27611
477.306	28.27611
477.515	11.4153
477.725	-43.37164
477.935	87.30066
478.144	5.09289
478.354	15.63036
478.563	-56.01241
478.773	-22.3017
478.982	-37.05092
479.192	11.4153
479.401	5.09289
479.611	-64.43909
479.82	-56.01241
480.03	-45.4785
480.239	2.98547
480.449	-9.65855
480.658	2.98547
480.868	-18.08741
481.077	32.49155
481.287	-41.26476
481.496	2.98547
481.705	-20.19457
481.915	-47.58533
482.124	-30.72997
482.333	-30.72997
482.543	-18.08741
482.752	-9.65855
482.961	-5.44397
483.171	-20.19457
483.38	-13.87303
483.589	2.98547
483.799	-11.7658
484.008	-62.33245
484.217	-13.87303
484.426	2.98547
484.636	-13.87303
484.845	-34.94396
485.054	-121.30834
485.263	45.13842
485.472	-18.08741
485.682	2.98547
485.891	64.1103
486.1	45.13842
486.309	40.92271
486.518	30.38382
486.727	-56.01241
486.936	-5.44397
487.146	-9.65855
487.355	-64.43909
487.564	70.43467
487.773	-45.4785
487.982	-39.15785
488.191	28.27611
488.4	53.57014
488.609	49.35423
488.818	-5.44397
489.027	-45.4785
489.236	-34.94396
489.445	64.1103
489.654	-30.72997
489.863	53.57014
490.072	-47.58533
490.281	49.35423
490.49	-37.05092
490.698	13.52282
490.907	-28.62294
491.116	-5.44397
491.325	47.24632
491.534	68.32652
491.743	72.54284
491.952	47.24632
492.16	36.70708
492.369	15.63036
492.578	47.24632
492.787	21.95313
492.996	64.1103
493.204	-60.2258
493.413	53.57014
493.622	62.00222
493.831	-13.87303
494.039	19.84552
494.248	38.81488
494.457	19.84552
494.665	38.81488
494.874	-20.19457
495.083	5.09289
495.291	2.98547
495.5	68.32652
495.709	53.57014
495.917	38.81488
496.126	-5.44397
496.335	28.27611
496.543	66.2184
496.752	0.87808
496.96	59.89417
497.169	17.73793
497.377	62.00222
497.586	36.70708
497.794	7.20034
498.003	-3.33665
498.211	9.30781
498.42	74.65103
498.628	9.30781
498.837	15.63036
499.045	36.70708
499.254	45.13842
499.462	55.67812
499.671	2.98547
499.879	28.27611
500.087	11.4153
500.296	55.67812
500.504	-51.79892
500.713	21.95313
500.921	-1.2293
501.129	11.4153
501.338	57.78613
501.546	19.84552
501.754	19.84552
501.962	-64.43909
502.171	11.4153
502.379	38.81488
502.587	38.81488
502.795	-43.37164
503.004	-5.44397
503.212	76.75925
503.42	47.24632
503.628	57.78613
503.837	104.16807
504.045	-89.71665
504.253	-43.37164
504.461	43.03055
504.669	55.67812
504.877	0.87808
505.085	53.57014
505.294	-15.98024
505.502	108.38515
505.71	83.08402
505.918	91.51738
506.126	2.98547
506.334	51.46218
506.542	32.49155
506.75	30.38382
506.958	-3.33665
507.166	83.08402
507.374	55.67812
507.582	80.97574
507.79	129.47183
507.998	104.16807
508.206	83.08402
508.414	114.71092
508.622	116.81956
508.83	21.95313
509.037	2.98547
509.245	28.27611
509.453	62.00222
509.661	87.30066
509.869	91.51738
510.077	45.13842
510.285	34.5993
510.492	2.98547
510.7	78.86748
510.908	-9.65855
511.116	70.43467
511.324	45.13842
511.531	70.43467
511.739	53.57014
511.947	70.43467
512.155	76.75925
512.362	87.30066
512.57	36.70708
512.778	72.54284
512.985	112.60231
513.193	72.54284
513.401	87.30066
513.608	87.30066
513.816	87.30066
514.024	137.90711
514.231	173.76082
514.439	36.70708
514.646	62.00222
514.854	45.13842
515.061	106.2766
515.269	70.43467
515.477	131.58062
515.684	19.84552
515.892	135.79826
516.099	129.47183
516.307	121.0369
516.514	72.54284
516.722	62.00222
516.929	95.73419
517.136	68.32652
517.344	112.60231
517.551	146.34273
517.759	137.90711
517.966	78.86748
518.173	154.77869
518.381	173.76082
518.588	97.84262
518.796	123.1456
519.003	32.49155
519.21	104.16807
519.418	78.86748
519.625	19.84552
519.832	95.73419
520.039	87.30066
520.247	150.56067
520.454	131.58062
520.661	80.97574
520.868	87.30066
521.076	137.90711
521.283	171.65161
521.49	133.68943
521.697	146.34273
521.904	121.0369
522.112	55.67812
522.319	137.90711
522.526	169.54242
522.733	133.68943
522.94	74.65103
523.147	114.71092
523.354	188.52586
523.561	154.77869
523.768	78.86748
523.975	129.47183
524.183	148.45169
524.39	158.99679
524.597	104.16807
524.804	171.65161
525.011	97.84262
525.218	146.34273
525.425	47.24632
525.632	171.65161
525.838	104.16807
526.045	135.79826
526.252	171.65161
526.459	87.30066
526.666	218.05892
526.873	93.62577
527.08	154.77869
527.287	180.08857
527.494	131.58062
527.701	158.99679
527.907	247.59586
528.114	146.34273
528.321	129.47183
528.528	184.30718
528.735	108.38515
528.941	186.41651
529.148	152.66967
529.355	180.08857
529.562	140.01598
529.768	222.27825
529.975	215.94929
530.182	201.1824
530.388	245.48595
530.595	224.38794
530.802	194.85404
531.008	220.16857
531.215	180.08857
531.422	177.9793
531.628	209.6205
531.835	283.46719
532.042	167.43326
532.248	264.47581
532.455	196.96348
532.661	251.81573
532.868	247.59586
533.074	258.14568
533.281	154.77869
533.487	239.15634
533.694	224.38794
533.9	285.57744
534.107	205.40141
534.313	317.23335
534.52	249.70578
534.726	220.16857
534.933	213.83967
535.139	256.03568
535.345	247.59586
535.552	306.68093
535.758	243.37606
535.965	298.23931
536.171	319.34389
536.377	203.2919
536.584	323.56502
536.79	275.02639
536.996	266.58589
537.203	224.38794
537.409	325.67561
537.615	367.89113
537.821	224.38794
538.028	332.0075
538.234	243.37606
538.44	294.01862
538.646	222.27825
538.853	232.82691
539.059	256.03568
539.265	260.25571
539.471	285.57744
539.677	363.66927
539.883	300.34969
540.09	346.78251
540.296	344.67174
540.502	319.34389
540.708	342.56099
540.914	291.9083
541.12	308.79138
541.326	403.77968
541.532	310.90184
541.738	340.45025
541.944	327.78622
542.15	378.44609
542.356	323.56502
542.562	353.11491
542.768	391.11258
542.974	424.8928
543.18	382.66819
543.386	467.12378
543.592	315.12283
543.798	473.45896
544.004	391.11258
544.21	321.45445
544.415	264.47581
544.621	441.78444
544.827	433.33849
545.033	467.12378
545.239	418.55869
545.445	443.89597
545.651	399.55725
545.856	522.03308
546.062	399.55725
546.268	380.55713
546.474	403.77968
546.679	393.22373
546.885	433.33849
547.091	488.24157
547.297	391.11258
547.502	536.81802
547.708	448.11907
547.914	408.00217
548.119	416.44736
548.325	555.82823
548.531	338.33954
548.736	443.89597
548.942	382.66819
549.147	505.13686
549.353	397.44606
549.559	536.81802
549.764	441.78444
549.97	543.15464
550.175	543.15464
550.381	595.96448
550.586	446.00751
550.792	543.15464
550.997	471.34722
551.203	484.01789
551.408	486.12972
551.614	524.14517
551.819	541.04242
552.025	505.13686
552.23	551.60365
552.435	627.6543
552.641	623.42883
552.846	576.95198
553.052	519.921
553.257	619.20341
553.462	513.58486
553.668	636.1054
553.873	484.01789
554.078	623.42883
554.283	602.30222
554.489	629.76706
554.694	655.12107
554.899	680.47679
555.105	621.31611
555.31	712.17376
555.515	581.17689
555.72	640.33102
555.925	610.75271
556.131	745.98656
556.336	657.23398
556.541	619.20341
556.746	644.55668
556.951	737.53311
557.156	631.87982
557.361	834.75747
557.567	680.47679
557.772	691.04216
557.977	743.87318
558.182	661.45984
558.387	754.44019
558.592	686.81598
558.797	612.86537
559.002	817.84743
559.207	758.66706
559.412	682.58984
559.617	669.9117
559.822	729.07982
560.027	638.2182
560.232	838.98507
560.437	807.27896
560.642	893.947
560.847	739.64646
561.051	881.26297
561.256	858.0097
561.461	957.37129
561.666	834.75747
561.871	813.62002
562.076	838.98507
562.281	834.75747
562.485	737.53311
562.69	796.71072
562.895	796.71072
563.1	965.82836
563.305	781.91558
563.509	993.31459
563.714	784.02915
563.919	948.91433
564.123	889.71896
564.328	885.49095
564.533	794.5971
564.737	906.63131
564.942	951.02856
565.147	898.17507
565.351	891.83297
565.556	948.91433
565.761	858.0097
565.965	999.65772
566.17	864.3514
566.374	1075.77955
566.579	948.91433
566.784	1054.63385
566.988	847.44038
567.193	1113.84309
567.397	849.55422
567.602	1041.9467
567.806	855.89582
568.011	1094.81112
568.215	982.74283
568.42	1084.23797
568.624	1039.83219
568.828	898.17507
569.033	965.82836
569.237	1001.77211
569.442	934.11494
569.646	1022.91636
569.85	1008.11532
570.055	1033.48871
570.259	1145.56388
570.463	1151.90816
570.668	1113.84309
570.872	1223.81234
571.076	1128.646
571.281	1141.33439
571.485	957.37129
571.689	1096.92576
571.893	1088.46722
572.098	1118.07247
572.302	1096.92576
572.506	1213.23794
572.71	1033.48871
572.914	1147.67864
573.119	1168.8264
573.323	1141.33439
573.527	1092.69648
573.731	1173.056
573.935	1101.15507
574.139	1280.91532
574.343	1189.97456
574.547	1297.83507
574.751	1126.53129
574.955	1361.2852
575.159	1145.56388
575.364	1278.80036
575.568	1240.73153
575.772	1304.18002
575.976	1080.00875
576.18	1414.16117
576.383	1154.02292
576.587	1373.97538
576.791	1255.53598
576.995	1354.94013
577.199	1147.67864
577.403	1348.59506
577.607	1291.49015
577.811	1414.16117
578.015	1382.43552
578.219	1384.55056
578.422	1160.36725
578.626	1405.70098
578.83	1359.17017
579.034	1439.54177
579.238	1361.2852
579.442	1464.9224
579.645	1240.73153
579.849	1536.83389
580.053	1363.40023
580.257	1473.3826
580.46	1395.12576
580.664	1562.21417
580.868	1428.96651
581.071	1585.47925
581.275	1287.26021
581.479	1435.31167
581.682	1439.54177
581.886	1541.06395
582.09	1464.9224
582.293	1642.58352
582.497	1475.49765
582.7	1526.25872
582.904	1462.80734
583.107	1754.67153
583.311	1545.294
583.515	1534.71886
583.718	1456.46219
583.922	1727.17907
584.125	1651.04327
584.329	1534.71886
584.532	1600.2842
584.735	1581.24925
584.939	1549.52405
585.142	1847.71793
585.346	1498.76319
585.549	1862.51996
585.753	1621.43397
585.956	1676.42229
586.159	1761.01585
586.363	1769.4749
586.566	1604.51417
586.769	1638.35363
586.973	1659.50299
587.176	1761.01585
587.379	1746.21237
587.582	1769.4749
587.786	1752.55675
587.989	1951.32677
588.192	1718.71973
588.395	1951.32677
588.599	1902.69566
588.802	2073.94715
589.005	1815.99851
589.208	1870.97816
589.411	1718.71973
589.615	1896.35225
589.818	1892.12329
590.021	1913.26789
590.224	1830.80103
590.427	2038.00902
590.63	1813.88384
590.833	1938.64068
591.036	1693.34141
591.239	1999.95473
591.442	1904.81012
591.645	1959.78404
591.848	1796.96637
592.051	1980.92679
592.254	1964.01264
592.457	2040.12309
592.66	1898.46673
592.863	2192.31618
593.066	1964.01264
593.269	2065.4913
593.472	2018.98215
593.675	2202.88361
593.878	2082.40288
594.081	2158.49899
594.284	2169.06709
594.486	2185.97562
594.689	2124.67973
594.892	2276.8495
595.095	1999.95473
595.298	2221.90444
595.5	2099.31398
595.703	2304.3197
595.906	1968.24121
596.109	2196.54317
596.311	2046.46523
596.514	2183.86208
596.717	2175.40785
596.92	2162.72626
597.122	2287.41515
597.325	2348.69123
597.528	2031.66679
597.73	2526.13175
597.933	2147.93069
598.136	2348.69123
598.338	2247.26446
598.541	2255.71751
598.743	2293.75443
598.946	2439.53334
599.148	2319.11069
599.351	2357.14246
599.554	2321.22365
599.756	2384.60783
599.959	2323.33659
600.161	2278.96265
600.363	2154.2717
600.566	2450.09512
600.768	2355.02966
600.971	2616.93365
601.173	2445.87044
601.376	2473.33006
601.578	2302.20667
601.78	2538.80309
601.983	2458.54434
602.185	2515.57198
602.388	2327.56246
602.59	2690.82548
602.792	2414.18399
602.995	2399.39617
603.197	2521.90787
603.399	2665.49287
603.601	2431.08373
603.804	2433.19615
604.006	2306.43273
604.208	2606.37643
604.41	2374.04443
604.613	2507.12396
604.815	2350.80405
605.017	2722.48862
605.219	2454.31975
605.421	2564.14452
605.623	2707.71285
605.826	2741.48509
606.028	2500.78782
606.23	2802.68856
606.432	2386.72048
606.634	2716.15622
606.836	2433.19615
607.038	2640.15845
607.24	2513.45999
607.442	2720.37783
607.644	2492.33948
607.846	2703.49108
608.048	2614.82223
608.25	2785.80598
608.452	2395.17098
608.654	2840.67113
608.856	2532.46747
609.058	2695.0474
609.26	2633.82456
609.462	2659.15944
609.664	2602.15345
609.866	2825.90067
610.067	2650.71468
610.269	2716.15622
610.471	2659.15944
610.673	2895.5268
610.875	2811.12952
611.077	2950.37271
611.278	2842.78114
611.48	2887.0881
611.682	2783.6956
611.884	3009.42633
612.085	2593.70736
612.287	2872.31981
612.489	2785.80598
612.69	2944.04484
612.892	2802.68856
613.094	2986.2281
613.295	2669.7151
613.497	2884.97838
613.699	2834.34102
613.9	2954.59122
614.102	3026.29661
614.304	2977.79193
614.505	2695.0474
614.707	3003.09972
614.908	2868.10017
615.11	2918.73205
615.311	2783.6956
615.513	2969.35551
615.714	2927.16988
615.916	3074.79317
616.117	2868.10017
616.319	3019.97037
616.52	2847.00112
616.722	3038.94867
616.923	2857.55082
617.124	3180.19163
617.326	2916.62255
617.527	3213.91059
617.729	2878.64916
617.93	2990.44609
618.131	2990.44609
618.333	2954.59122
618.534	2946.15415
618.735	3315.04179
618.937	2996.77297
619.138	3154.89967
619.339	2918.73205
619.54	3258.16027
619.742	3036.84003
619.943	3125.38943
620.144	2973.57375
620.345	3138.03706
620.546	2973.57375
620.748	3163.33058
620.949	2929.2793
621.15	3220.23242
621.351	3007.31747
621.552	3129.60537
621.753	3015.7528
621.954	3432.97809
622.155	2944.04484
622.356	3047.38307
622.558	2971.46464
622.759	3207.5886
622.96	3036.84003
623.161	3188.62177
623.362	3015.7528
623.563	3289.76264
623.764	3116.95735
623.965	3374.0168
624.166	3197.05164
624.366	3308.72223
624.567	3152.7919
624.768	3317.14827
624.969	3024.18787
625.17	3146.46849
625.371	2859.66072
625.572	3323.46762
625.773	2969.35551
625.973	3403.49918
626.174	3146.46849
626.375	3418.23907
626.576	3190.72926
626.777	3411.92208
626.977	3091.6596
627.178	3275.01534
627.379	3051.60018
627.58	3285.54921
627.78	3167.54594
627.981	3348.74346
628.182	3184.40673
628.382	3285.54921
628.583	3218.12516
628.784	3386.65253
628.984	2935.60748
629.185	3395.07599
629.386	3182.29919
629.586	3443.50542
629.787	3302.40252
629.987	3399.28762
630.188	3188.62177
630.388	3298.1893
630.589	3306.61568
630.79	3371.91079
630.99	3161.22288
631.191	3428.76703
631.391	3432.97809
631.591	3485.61028
631.792	3277.12215
631.992	3563.48508
632.193	3428.76703
632.393	3521.39371
632.594	3382.44069
632.794	3365.59263
632.994	3491.92538
633.195	3569.79814
633.395	3458.24294
633.595	3635.02335
633.796	3390.8643
633.996	3721.26101
634.196	3350.84967
634.397	3681.30121
634.597	3386.65253
634.797	3790.64828
634.997	3508.76486
635.198	3559.27627
635.398	3557.17184
635.598	3580.31955
635.798	3626.6082
635.998	3637.12708
636.199	3550.85844
636.399	3660.26696
636.599	3443.50542
636.799	3794.85289
636.999	3331.89318
637.199	3712.849
637.399	3525.60317
637.599	3618.19276
637.799	3445.61084
637.999	3794.85289
638.199	3531.91724
638.399	3738.08411
638.599	3668.68088
638.799	3607.67303
638.999	3639.2308
639.199	3887.33422
639.399	3738.08411
639.599	3702.33355
639.799	3628.71202
639.999	3670.78432
640.199	3603.46501
640.399	3782.23883
640.599	3298.1893
640.799	3904.14487
640.998	3773.82907
641.198	3820.07887
641.398	3904.14487
641.598	3971.37455
641.798	3799.05741
641.997	3944.06499
642.197	3841.09835
642.397	3973.47514
642.597	3807.46623
642.796	3889.43562
642.996	3479.29501
643.196	3946.16585
643.395	3721.26101
643.595	3805.36406
643.795	3601.36097
643.994	4025.98332
644.194	3939.86322
644.394	4036.48341
644.593	3830.58886
644.793	4088.97614
644.992	3830.58886
645.192	3843.20019
645.392	3878.92842
645.591	3996.58031
645.791	4042.78322
645.99	4051.18268
646.19	3799.05741
646.389	3983.9778
646.589	3925.15637
646.788	3967.1733
646.987	3941.96411
647.187	4307.20506
647.386	3895.73971
647.586	4046.98299
647.785	3868.42072
647.984	4021.78313
648.184	4009.18209
648.383	3983.9778
648.582	3958.77056
648.782	4088.97614
648.981	3996.58031
649.18	4063.78125
649.38	3996.58031
649.579	4063.78125
649.778	3992.37956
649.977	4172.93742
650.177	3904.14487
650.376	4273.64635
650.575	4057.48206
650.774	4277.84149
650.973	4120.46555
651.173	4248.47372
651.372	4036.48341
651.571	4326.07941
651.77	4130.96097
651.969	4326.07941
652.168	4177.1346
652.367	4256.86493
652.566	4088.97614
652.765	4365.91952
652.964	4223.29801
653.163	4303.01052
653.362	4254.76716
653.561	4433.00092
653.76	4080.57818
653.959	4273.64635
654.158	4099.47313
654.357	4368.01615
654.556	4185.52871
654.755	4217.0036
654.954	4097.37378
655.153	4424.61696
655.352	4416.23266
655.551	4500.0599
655.749	4275.74393
655.948	4435.09685
656.147	4231.69025
656.346	4544.05508
656.545	4376.40246
656.743	4393.17403
656.942	4342.85514
657.141	4487.48805
657.34	4342.85514
657.538	4458.15067
657.737	4472.8199
657.936	4663.42114
658.135	4181.3317
658.333	4565.00173
658.532	4189.72564
658.731	4332.37047
658.929	4403.65555
659.128	4418.32877
659.326	4265.25581
659.525	4525.2012
659.724	4575.47423
659.922	4340.75825
660.121	4214.90542
660.319	4600.60594
660.518	4323.98235
660.716	4709.47278
660.915	4290.42639
661.113	4728.30895
661.312	4380.59548
661.51	4611.07654
661.709	4231.69025
661.907	4443.48036
662.105	4300.91322
662.304	4479.10639
662.502	4409.94421
662.701	4558.71797
662.899	4311.39951
663.097	4552.43401
663.296	4514.72604
663.494	4669.70155
663.692	4365.91952
663.891	4726.21613
664.089	4443.48036
664.287	4655.04695
664.485	4619.45262
664.684	4786.89863
664.882	4512.63095
665.08	4636.2037
665.278	4414.13653
665.476	4558.71797
665.675	4445.57619
665.873	4703.19366
666.071	4445.57619
666.269	4533.58092
666.467	4474.91542
666.665	4659.23409
666.863	4393.17403
667.061	4688.54157
667.259	4460.24634
667.457	4667.6081
667.655	4433.00092
667.853	4500.0599
668.051	4416.23266
668.249	4617.35863
668.447	4585.94616
668.645	4692.72799
668.843	4521.0112
669.041	4600.60594
669.239	4594.32331
669.437	4761.79094
669.635	4485.39267
669.833	4797.3592
670.031	4447.67199
670.229	4935.38532
670.426	4642.48498
670.624	4820.37046
670.822	4571.2853
671.02	4734.58726
671.218	4583.85182
671.415	4784.80645
671.613	4516.82112
671.811	4780.62202
672.009	4556.62334
672.206	4608.98246
672.404	4474.91542
672.602	4701.10057
672.799	4648.76606
672.997	4611.07654
673.195	4701.10057
673.392	4776.43749
673.59	4433.00092
673.788	4514.72604
673.985	4521.0112
674.183	4648.76606
674.38	4636.2037
674.578	4791.08293
674.775	4608.98246
674.973	4705.28672
675.17	4541.96029
675.368	4682.26177
675.565	4682.26177
675.763	4617.35863
675.96	4544.05508
676.158	4864.29339
676.355	4611.07654
676.553	4885.20553
676.75	4464.43762
676.947	4832.9209
677.145	4585.94616
677.342	4941.65687
677.539	4590.13478
677.737	4939.56637
677.934	4460.24634
678.131	4688.54157
678.329	4426.71299
678.526	4801.54327
678.723	4611.07654
678.92	4669.70155
679.118	4544.05508
679.315	4820.37046
679.512	4533.58092
679.709	4763.88337
679.906	4780.62202
680.104	4784.80645
680.301	4650.85971
680.498	4567.09628
680.695	4535.6758
680.892	4818.27864
681.089	4644.5787
681.286	4688.54157
681.483	4500.0599
681.68	4774.3452
681.877	4539.86549
682.075	4876.84095
682.272	4604.79425
682.469	4987.64187
682.665	4680.16845
682.862	4793.17504
683.059	4726.21613
683.256	4736.67999
683.453	4801.54327
683.65	4655.04695
683.847	4680.16845
684.044	4738.77269
684.241	4495.86937
684.438	4617.35863
684.635	4401.55929
684.831	4518.91617
685.028	4638.29748
685.225	4768.06817
685.422	4428.80898
685.619	4956.28966
685.815	4663.42114
686.012	4682.26177
686.209	4368.01615
686.405	4809.91114
686.602	4684.35506
686.799	4483.29726
686.996	4625.73444
687.192	4611.07654
687.389	4636.2037
687.586	4751.32844
687.782	4694.82117
687.979	5071.22236
688.175	4845.47051
688.372	4759.69849
688.568	4858.0193
688.765	4791.08293
688.962	4592.22906
689.158	4816.1868
689.355	4768.06817
689.551	4648.76606
689.748	4772.25288
689.944	4627.82833
690.14	4569.1908
690.337	4941.65687
690.533	4786.89863
690.73	4912.38789
690.926	4491.67876
691.123	4560.81258
691.319	4650.85971
691.515	4715.75171
691.712	4466.53322
691.908	4705.28672
692.104	4659.23409
692.301	4621.54658
692.497	4529.3911
692.693	4671.79498
692.889	4690.63479
693.086	4835.01256
693.282	4768.06817
693.478	4964.65076
693.674	4678.07512
693.87	4768.06817
694.067	4667.6081
694.263	4889.38768
694.459	4579.66307
694.655	4659.23409
694.851	4602.7001
695.047	4747.14328
695.243	4554.52869
695.439	4600.60594
695.635	4458.15067
695.831	4929.11357
696.027	4726.21613
696.224	4665.51463
696.42	4516.82112
696.615	4642.48498
696.811	4359.62949
697.007	4659.23409
697.203	4627.82833
697.399	4615.26462
697.595	4575.47423
697.791	4784.80645
697.987	4508.44068
698.183	4795.26713
698.379	4317.69102
698.575	4755.51351
698.77	4407.84801
698.966	4736.67999
699.162	4466.53322
699.358	4912.38789
699.554	4382.69196
699.749	4719.93755
699.945	4684.35506
700.141	4623.64052
700.337	4684.35506
700.532	4885.20553
700.728	4768.06817
700.924	4736.67999
701.119	4460.24634
701.315	4537.77065
701.511	4418.32877
701.706	4755.51351
701.902	4391.07766
702.097	4719.93755
702.293	4307.20506
702.489	4694.82117
702.684	4554.52869
702.88	4738.77269
703.075	4468.6288
703.271	4552.43401
703.466	4418.32877
703.662	4776.43749
703.857	4428.80898
704.053	4644.5787
704.248	4646.67239
704.443	4761.79094
704.639	4594.32331
704.834	4719.93755
705.03	4644.5787
705.225	4646.67239
705.42	4604.79425
705.616	4793.17504
705.811	4477.01091
706.006	4694.82117
706.202	4468.6288
706.397	4583.85182
706.592	4487.48805
706.787	4629.92221
706.983	4485.39267
707.178	4782.71424
707.373	4608.98246
707.568	4799.45125
707.763	4502.15513
707.959	4675.98176
708.154	4809.91114
708.349	4657.14053
708.544	4558.71797
708.739	4851.74501
708.934	4558.71797
709.129	4751.32844
709.324	4617.35863
709.519	4770.16054
709.714	4625.73444
709.909	4728.30895
710.104	4483.29726
710.299	4619.45262
710.494	4740.86538
710.689	4784.80645
710.884	4560.81258
711.079	4751.32844
711.274	4579.66307
711.469	4719.93755
711.664	4296.71855
711.859	4629.92221
712.054	4481.20184
712.249	4613.17059
712.443	4514.72604
712.638	4719.93755
712.833	4541.96029
713.028	4688.54157
713.223	4600.60594
713.417	4839.19581
713.612	4445.57619
713.807	4673.88838
714.002	4594.32331
714.196	4414.13653
714.391	4474.91542
714.586	4722.03043
714.78	4391.07766
714.975	4575.47423
715.17	4508.44068
715.364	4577.56866
715.559	4317.69102
715.754	4705.28672
715.948	4208.61076
716.143	4569.1908
716.337	4521.0112
716.532	4786.89863
716.726	4539.86549
716.921	4558.71797
717.115	4340.75825
717.31	4407.84801
717.504	4399.46301
717.699	4699.00746
717.893	4365.91952
718.088	4525.2012
718.282	4248.47372
718.476	4562.90717
718.671	4477.01091
718.865	4642.48498
719.059	4166.64149
719.254	4523.10621
719.448	4349.14569
719.642	4416.23266
719.837	4261.06042
720.031	4514.72604
720.225	4208.61076
720.419	4562.90717
720.614	4518.91617
720.808	4560.81258
721.002	4407.84801
721.196	4477.01091
721.39	4458.15067
721.585	4562.90717
721.779	4449.76777
721.973	4527.29616
722.167	4235.88625
722.361	4349.14569
722.555	4313.4967
722.749	4470.72436
722.943	4449.76777
723.137	4391.07766
723.331	4416.23266
723.525	4544.05508
723.719	4250.57155
723.913	4688.54157
724.107	4214.90542
724.301	4418.32877
724.495	4277.84149
724.689	4613.17059
724.883	4453.95927
725.077	4533.58092
725.271	4453.95927
725.465	4282.03654
725.659	4384.78842
725.853	4441.38452
726.046	4252.66937
726.24	4567.09628
726.434	4200.21759
726.628	4351.24249
726.822	4200.21759
727.015	4414.13653
727.209	4443.48036
727.403	4307.20506
727.596	4189.72564
727.79	4435.09685
727.984	4627.82833
728.177	4521.0112
728.371	4311.39951
728.565	4399.46301
728.758	4357.53278
728.952	4548.24459
729.146	4292.5238
729.339	4462.34199
729.533	4269.45112
729.726	4374.30591
729.92	4200.21759
730.113	4460.24634
730.307	4399.46301
730.5	4502.15513
730.694	4305.1078
730.887	4487.48805
731.081	4493.77408
731.274	4623.64052
731.468	4219.10176
731.661	4521.0112
731.854	4206.5125
732.048	4600.60594
732.241	4231.69025
732.435	4535.6758
732.628	4353.33928
732.821	4409.94421
733.014	4223.29801
733.208	4556.62334
733.401	4391.07766
733.594	4546.14985
733.788	4395.27038
733.981	4613.17059
734.174	4537.77065
734.367	4575.47423
734.56	4391.07766
734.754	4412.04038
734.947	4535.6758
735.14	4235.88625
735.333	4378.49898
735.526	4399.46301
735.719	4261.06042
735.912	4550.33931
736.105	4575.47423
736.298	4485.39267
736.491	4594.32331
736.684	4384.78842
736.877	4430.90496
737.07	4477.01091
737.263	4172.93742
737.456	4307.20506
737.649	4290.42639
737.842	4252.66937
738.035	4326.07941
738.228	4382.69196
738.421	4388.98127
738.614	4439.28865
738.807	4483.29726
739	4579.66307
739.192	4156.14785
739.385	4323.98235
739.578	4250.57155
739.771	4412.04038
739.964	4258.96269
740.156	4365.91952
740.349	4229.59222
740.542	4405.75179
740.735	4292.5238
740.927	4391.07766
741.12	4200.21759
741.313	4368.01615
741.505	4282.03654
741.698	4344.95201
741.891	4124.66378
742.083	4300.91322
742.276	4273.64635
742.468	4332.37047
742.661	4374.30591
742.854	4462.34199
743.046	4200.21759
743.239	4164.5428
743.431	4256.86493
743.624	4378.49898
743.816	4256.86493
744.009	4428.80898
744.201	4250.57155
744.393	4305.1078
744.586	4258.96269
744.778	4359.62949
744.971	4196.02087
745.163	4479.10639
745.355	4326.07941
745.548	4315.59387
745.74	4212.80723
745.932	4416.23266
746.125	4309.30229
746.317	4550.33931
746.509	4286.23151
746.702	4569.1908
746.894	4453.95927
747.086	4242.18008
747.278	4206.5125
747.471	4219.10176
747.663	4078.47864
747.855	4380.59548
748.047	4088.97614
748.239	4328.17645
748.431	4107.87035
748.623	4143.55479
748.815	4229.59222
749.008	4233.78826
749.2	4070.08025
749.392	4179.23316
749.584	4040.68331
749.776	4284.13403
749.968	4386.88485
750.16	4378.49898
750.352	4307.20506
750.544	4198.11924
750.736	4286.23151
750.928	4500.0599
751.12	4282.03654
751.311	4279.93902
751.503	4265.25581
751.695	4330.27347
751.887	4147.75256
752.079	4562.90717
752.271	4145.65369
752.463	4491.67876
752.654	4080.57818
752.846	4235.88625
753.038	4070.08025
753.23	4162.4441
753.421	4323.98235
753.613	4141.45587
753.805	4055.38229
753.997	4093.175
754.188	4181.3317
754.38	4057.48206
754.572	4067.98061
754.763	4107.87035
754.955	4044.88312
755.146	4326.07941
755.338	4162.4441
755.53	4292.5238
755.721	4189.72564
755.913	4242.18008
756.104	4191.82407
756.296	4365.91952
756.487	4095.2744
756.679	4130.96097
756.87	3998.68066
757.062	4000.78099
757.253	4091.07558
757.445	3937.7623
757.636	4097.37378
757.827	4067.98061
758.019	4214.90542
758.21	4049.08285
758.401	3906.24611
758.593	4099.47313
758.784	4017.58287
758.975	4046.98299
759.167	3992.37956
759.358	4038.58337
759.549	3946.16585
759.74	4101.57247
759.932	3817.97681
760.123	4097.37378
760.314	3895.73971
760.505	3937.7623
760.696	3874.7254
760.888	3967.1733
761.079	3780.13642
761.27	4013.38252
761.461	3939.86322
761.652	4032.28344
761.843	3702.33355
762.034	4099.47313
762.225	3853.70909
762.416	3904.14487
762.607	3626.6082
762.798	3992.37956
762.989	3868.42072
763.18	4055.38229
763.371	3761.21384
763.562	3744.39245
763.753	3592.94463
763.944	3820.07887
764.135	3626.6082
764.326	3769.62407
764.517	3702.33355
764.708	3700.2304
764.899	3542.44031
765.089	3569.79814
765.28	3466.66398
765.471	3773.82907
765.662	3466.66398
765.853	3700.2304
766.043	3660.26696
766.234	3807.46623
766.425	3561.38068
766.615	3813.77264
766.806	3580.31955
766.997	3685.50783
767.187	3637.12708
767.378	3794.85289
767.569	3559.27627
767.759	3744.39245
767.95	3647.64549
768.141	3761.21384
768.331	3698.12723
768.522	3662.37047
768.712	3483.50521
768.903	3407.71066
769.093	3523.49845
769.284	3464.55875
769.474	3536.12652
769.665	3735.98129
769.855	3664.47396
770.046	3691.81762
770.236	3384.54662
770.426	3576.11105
770.617	3504.5551
770.807	3521.39371
770.998	3439.29454
771.188	3462.4535
771.378	3411.92208
771.569	3460.34823
771.759	3498.24032
771.949	3702.33355
772.139	3601.36097
772.33	3475.08474
772.52	3424.5559
772.71	3559.27627
772.9	3458.24294
773.09	3550.85844
773.281	3569.79814
773.471	3517.18416
773.661	3310.82877
773.851	3618.19276
774.041	3521.39371
774.231	3443.50542
774.421	3333.99952
774.611	3432.97809
774.802	3323.46762
774.992	3483.50521
775.182	3496.13536
775.372	3523.49845
775.562	3382.44069
775.752	3481.40012
775.942	3211.80327
776.131	3430.87257
776.321	3182.29919
776.511	3390.8643
776.701	3325.57403
776.891	3241.30411
777.081	3243.41119
777.271	3485.61028
777.461	3264.48105
777.651	3317.14827
777.84	3188.62177
778.03	3317.14827
778.22	3140.14494
778.41	3213.91059
778.599	3249.73232
778.789	3300.29592
778.979	3106.4169
779.169	3243.41119
779.358	3011.53516
779.548	3289.76264
779.738	3116.95735
779.927	3216.01788
780.117	3125.38943
780.307	3333.99952
780.496	3055.81723
780.686	3281.33571
780.875	3157.00742
781.065	3289.76264
781.254	3100.09244
781.444	3281.33571
781.633	3133.82125
781.823	3218.12516
782.012	3038.94867
782.202	3114.84929
782.391	2952.48197
782.581	3121.17342
782.77	2912.40352
782.96	3106.4169
783.149	3028.40532
783.338	3199.15906
783.528	3074.79317
783.717	3070.5764
783.906	2834.34102
784.096	3163.33058
784.285	2859.66072
784.474	2982.01004
784.663	2929.2793
784.853	2914.51304
785.042	2813.23973
785.231	2811.12952
785.42	2811.12952
785.61	2880.75892
785.799	2775.25393
785.988	2996.77297
786.177	2743.59574
786.366	2811.12952
786.555	2806.90907
786.744	2988.3371
786.933	2842.78114
787.122	3009.42633
787.312	2925.06044
787.501	2933.4981
787.69	2673.93728
787.879	2946.15415
788.068	2762.59101
788.257	2796.3577
788.445	2714.0454
788.634	2920.84153
788.823	2939.82619
789.012	3053.70871
789.201	2762.59101
789.39	2906.07486
789.579	2705.60197
789.768	2771.03301
789.957	2684.4925
790.145	2787.91635
790.334	2819.57026
790.523	2935.60748
790.712	2802.68856
790.9	2828.01078
791.089	2597.93043
791.278	2802.68856
791.467	2595.8189
791.655	2771.03301
791.844	2722.48862
792.033	2832.23095
792.221	2718.26703
792.41	2922.95099
792.599	2538.80309
792.787	2956.70045
792.976	2602.15345
793.164	2652.82589
793.353	2530.35557
793.541	2868.10017
793.73	2758.36994
793.918	2891.30748
794.107	2498.67575
794.295	2749.92762
794.484	2642.26972
794.672	2707.71285
794.861	2574.70294
795.049	2806.90907
795.238	2581.03786
795.426	2642.26972
795.614	2416.2965
795.803	2654.93708
795.991	2424.74641
796.179	2735.15305
796.368	2735.15305
796.556	2733.04234
796.744	2293.75443
796.932	2507.12396
797.121	2306.43273
797.309	2716.15622
797.497	2428.9713
797.685	2625.3792
797.874	2316.99772
798.062	2498.67575
798.25	2340.23984
798.438	2352.91686
798.626	2319.11069
798.814	2507.12396
799.002	2416.2965
799.19	2686.6035
799.378	2378.26982
799.566	2490.22737
799.755	2346.5784
799.943	2437.42096
800.131	2555.69756
800.318	2616.93365
800.506	2471.21785
800.694	2530.35557
800.882	2390.94575
801.07	2614.82223
801.258	2259.94398
801.446	2545.1386
801.634	2316.99772
801.822	2532.46747
802.01	2355.02966
802.197	2623.26783
802.385	2306.43273
802.573	2581.03786
802.761	2452.20744
802.949	2496.56367
803.136	2538.80309
803.324	2597.93043
803.512	2519.79592
803.699	2507.12396
803.887	2433.19615
804.075	2464.88115
804.262	2226.1312
804.45	2488.11524
804.638	2450.09512
804.825	2572.59128
805.013	2293.75443
805.201	2488.11524
805.388	2407.84642
805.576	2547.25042
805.763	2477.55446
805.951	2600.04195
806.138	2460.65662
806.326	2515.57198
806.513	2433.19615
806.701	2447.98279
806.888	2352.91686
807.075	2581.03786
807.263	2403.62131
807.45	2327.56246
807.638	2412.07148
807.825	2654.93708
808.012	2494.45158
808.2	2690.82548
808.387	2524.01982
808.574	2627.49056
808.761	2486.00311
808.949	2454.31975
809.136	2371.93172
809.323	2559.92106
809.51	2412.07148
809.698	2566.25623
809.885	2496.56367
810.072	2534.57935
810.259	2469.10563
810.446	2532.46747
810.633	2509.23598
810.82	2648.60346
811.008	2528.24367
811.195	2612.71079
811.382	2312.77175
811.569	2566.25623
811.756	2361.36801
811.943	2747.817
812.13	2346.5784
812.317	2589.48424
812.504	2380.3825
812.691	2741.48509
812.878	2496.56367
813.064	2741.48509
813.251	2500.78782
813.438	2551.47401
813.625	2443.75809
813.812	2555.69756
813.999	2291.64134
814.186	2716.15622
814.372	2551.47401
814.559	2699.26927
814.746	2437.42096
814.933	2587.37266
815.12	2564.14452
815.306	2673.93728
815.493	2431.08373
815.68	2462.76889
815.866	2507.12396
816.053	2555.69756
816.24	2475.44227
816.426	2581.03786
816.613	2247.26446
816.799	2566.25623
816.986	2543.02678
817.173	2657.04827
817.359	2496.56367
817.546	2473.33006
817.732	2435.30856
817.919	2642.26972
818.105	2428.9713
818.292	2549.36222
818.478	2530.35557
818.665	2416.2965
818.851	2445.87044
819.037	2604.26494
819.224	2319.11069
819.41	2538.80309
819.597	2367.70627
819.783	2445.87044
819.969	2348.69123
820.156	2690.82548
820.342	2549.36222
820.528	2673.93728
820.714	2367.70627
820.901	2707.71285
821.087	2416.2965
821.273	2726.71015
821.459	2479.66664
821.646	2361.36801
821.832	2295.8675
822.018	2589.48424
822.204	2272.62317
822.39	2490.22737
822.576	2226.1312
822.762	2386.72048
822.948	2361.36801
823.134	2456.43205
823.32	2357.14246
823.507	2390.94575
823.693	2384.60783
823.879	2530.35557
824.065	2310.65875
824.25	2450.09512
824.436	2342.3527
824.622	2445.87044
824.808	2243.03788
824.994	2344.46555
825.18	2264.17041
825.366	2433.19615
825.552	2247.26446
825.738	2428.9713
825.923	2198.65666
826.109	2253.60426
826.295	2355.02966
826.481	2365.59352
826.667	2253.60426
826.852	2319.11069
827.038	2124.67973
827.224	2473.33006
827.409	2266.28362
827.595	2158.49899
827.781	2192.31618
827.966	2369.819
828.152	2192.31618
828.338	2428.9713
828.523	2192.31618
828.709	2304.3197
828.894	2175.40785
829.08	2243.03788
829.266	2061.26334
829.451	2245.15117
829.637	2196.54317
829.822	2255.71751
830.008	2090.85849
830.193	2270.51
830.378	2192.31618
830.564	2281.07579
830.749	2078.17503
830.935	2488.11524
831.12	1985.15526
831.305	2340.23984
831.491	2177.52142
831.676	2245.15117
831.861	1947.09809
832.047	1997.84054
832.232	1972.46976
832.417	1989.38371
832.602	2021.09627
832.788	2040.12309
832.973	1980.92679
833.158	1978.81254
833.343	1866.74907
833.528	2073.94715
833.714	1851.94711
833.899	1976.69829
834.084	1773.7044
834.269	2124.67973
834.454	1735.63835
834.639	2057.03534
834.824	1748.32717
835.009	2031.66679
835.194	1951.32677
835.379	2175.40785
835.564	2008.41142
835.749	2152.15804
835.934	2069.71924
836.119	2192.31618
836.304	1847.71793
836.489	2010.52558
836.674	1947.09809
836.859	2259.94398
837.044	2046.46523
837.228	2169.06709
837.413	1991.49793
837.598	2164.83988
837.783	1790.62224
837.968	2122.56596
838.152	1881.55079
838.337	2080.28895
838.522	1803.31045
838.707	2042.23714
838.891	1744.09758
839.076	1913.26789
839.261	1678.53719
839.445	1777.93389
839.63	1697.57116
839.815	1839.25952
839.999	1718.71973
840.184	1930.18318
840.368	1697.57116
840.553	1845.60333
840.737	1796.96637
840.922	1913.26789
841.106	1674.30739
841.291	1870.97816
841.475	1587.59425
841.66	1837.1449
841.844	1663.73283
842.029	1818.11317
842.213	1676.42229
842.397	1913.26789
842.582	1718.71973
842.766	1898.46673
842.951	1703.91577
843.135	1708.14549
843.319	1602.39919
843.504	1712.3752
843.688	1680.65209
843.872	1659.50299
844.056	1581.24925
844.241	1811.76917
844.425	1589.70925
844.609	1737.75316
844.793	1627.77886
844.977	1864.63452
845.161	1744.09758
845.346	1735.63835
845.53	1678.53719
845.714	1756.78631
845.898	1549.52405
846.082	1703.91577
846.266	1464.9224
846.45	1813.88384
846.634	1509.33841
846.818	1718.71973
847.002	1549.52405
847.186	1689.11165
847.37	1384.55056
847.554	1513.56849
847.738	1431.08156
847.922	1481.8428
848.106	1416.27622
848.29	1773.7044
848.473	1435.31167
848.657	1710.26034
848.841	1477.6127
849.025	1602.39919
849.209	1409.93107
849.392	1500.87823
849.576	1458.57724
849.76	1418.39126
849.944	1278.80036
850.127	1464.9224
850.311	1338.01999
850.495	1479.72775
850.678	1261.88078
850.862	1672.19248
851.046	1365.51526
851.229	1454.34714
851.413	1354.94013
851.596	1380.32048
851.78	1204.77848
851.964	1439.54177
852.147	1261.88078
852.331	1439.54177
852.514	1103.26973
852.698	1323.21494
852.881	1113.84309
853.065	1338.01999
853.248	1321.09995
853.431	1316.86995
853.615	1168.8264
853.798	1270.34055
853.982	1149.7934
854.165	1283.03028
854.348	1109.61373
854.532	1346.48005
854.715	1236.50171
854.898	1388.78064
855.081	1219.58257
855.265	1426.85146
855.448	1134.99018
855.631	1393.01072
855.814	1204.77848
855.997	1335.90498
856.181	1065.20663
856.364	1253.42105
856.547	1177.28562
856.73	1367.63028
856.913	1118.07247
857.096	1156.1377
857.279	1200.54877
857.462	1067.3212
857.645	1168.8264
857.828	1225.92723
858.011	1160.36725
858.194	1236.50171
858.377	1263.99572
858.56	1177.28562
858.743	1236.50171
858.926	1170.9412
859.109	1090.58185
859.292	1143.44913
859.475	1041.9467
859.658	1069.43578
859.841	993.31459
860.023	1041.9467
860.206	1052.51931
860.389	1128.646
860.572	1105.38439
860.755	1118.07247
860.937	978.51417
861.12	1046.17573
861.303	948.91433
861.486	1181.51525
861.668	934.11494
861.851	1181.51525
862.034	982.74283
862.216	1031.37423
862.399	830.52991
862.581	1270.34055
862.764	858.0097
862.947	1145.56388
863.129	910.85947
863.312	1016.57302
863.494	948.91433
863.677	1027.14528
863.859	961.59981
864.042	923.54416
864.224	1012.34416
864.406	885.49095
864.589	915.08767
864.771	866.46532
864.954	813.62002
865.136	961.59981
865.318	870.69318
865.501	953.1428
865.683	862.23749
865.865	929.8866
866.048	889.71896
866.23	912.97357
866.412	849.55422
866.594	940.45749
866.777	779.80203
866.959	883.37696
867.141	705.83416
867.323	917.20178
867.505	741.75982
867.687	978.51417
867.869	777.68849
868.052	896.06103
868.234	781.91558
868.416	851.66808
868.598	779.80203
868.78	932.00077
868.962	701.60782
869.144	915.08767
869.326	737.53311
869.508	893.947
869.69	889.71896
869.872	974.28554
870.054	885.49095
870.236	874.92107
870.417	851.66808
870.599	877.03503
870.781	864.3514
870.963	775.57496
871.145	784.02915
871.327	720.6267
871.508	786.14272
871.69	828.41614
871.872	748.09996
872.054	910.85947
872.235	853.78195
872.417	798.82435
872.599	678.36375
872.78	830.52991
872.962	593.85193
873.144	796.71072
873.325	720.6267
873.507	817.84743
873.689	669.9117
873.87	813.62002
874.052	678.36375
874.233	864.3514
874.415	771.34792
874.596	805.16529
874.778	672.02469
874.959	627.6543
875.141	775.57496
875.322	906.63131
875.503	663.57279
875.685	864.3514
875.866	621.31611
876.048	669.9117
876.229	695.26839
876.41	813.62002
876.592	712.17376
876.773	800.93799
876.954	619.20341
877.136	741.75982
877.317	745.98656
877.498	758.66706
877.679	663.57279
877.86	847.44038
878.042	754.44019
878.223	838.98507
878.404	805.16529
878.585	830.52991
878.766	765.00745
878.947	822.07489
879.128	724.85324
879.309	743.87318
879.49	636.1054
879.672	796.71072
879.853	767.12093
880.034	737.53311
880.215	735.41977
880.396	847.44038
880.576	720.6267
880.757	822.07489
880.938	665.68575
881.119	745.98656
881.3	686.81598
881.481	731.19313
881.662	593.85193
881.843	792.48349
882.023	659.3469
882.204	796.71072
882.385	803.05163
882.566	691.04216
882.747	682.58984
882.927	775.57496
883.108	800.93799
883.289	754.44019
883.469	906.63131
883.65	885.49095
883.831	792.48349
884.011	784.02915
884.192	781.91558
884.373	866.46532
884.553	703.72099
884.734	841.09888
884.914	847.44038
885.095	896.06103
885.275	731.19313
885.456	946.80011
885.636	790.36989
885.817	847.44038
885.997	779.80203
886.178	883.37696
886.358	790.36989
886.538	881.26297
886.719	809.39263
886.899	874.92107
887.08	815.73372
887.26	729.07982
887.44	720.6267
887.621	940.45749
887.801	604.41482
887.981	807.27896
888.161	733.30644
888.342	940.45749
888.522	824.18863
888.702	944.6859
888.882	771.34792
889.062	1063.09206
889.242	893.947
889.423	809.39263
889.603	779.80203
889.783	798.82435
889.963	841.09888
890.143	917.20178
890.323	722.73996
890.503	898.17507
890.683	790.36989
890.863	860.12359
891.043	716.40021
891.223	853.78195
891.403	815.73372
891.583	889.71896
891.763	695.26839
891.943	788.2563
892.122	699.49467
892.302	822.07489
892.482	771.34792
892.662	771.34792
892.842	813.62002
893.022	792.48349
893.201	672.02469
893.381	712.17376
893.561	815.73372
893.741	745.98656
893.92	602.30222
894.1	773.46144
894.28	680.47679
894.459	809.39263
894.639	665.68575
894.819	893.947
894.998	636.1054
895.178	691.04216
895.357	636.1054
895.537	767.12093
895.716	646.66954
895.896	737.53311
896.075	598.07705
896.255	646.66954
896.434	513.58486
896.614	636.1054
896.793	547.37911
896.973	682.58984
897.152	642.44384
897.331	703.72099
897.511	598.07705
897.69	606.52744
897.87	602.30222
898.049	648.7824
898.228	629.76706
898.407	653.00817
898.587	562.16522
898.766	568.50232
898.945	503.0249
899.124	674.1377
899.304	570.61472
899.483	665.68575
899.662	555.82823
899.841	625.54156
900.02	591.73939
900.199	729.07982
900.378	547.37911
900.557	612.86537
900.737	568.50232
900.916	712.17376
901.095	526.25728
901.274	566.38994
901.453	503.0249
901.632	553.71593
901.811	553.71593
901.989	617.09072
902.168	500.91295
902.347	490.35343
902.526	397.44606
902.705	560.05288
902.884	484.01789
903.063	547.37911
903.242	475.57071
903.42	534.70585
903.599	359.44748
903.778	450.23064
903.957	494.57719
904.135	401.66845
904.314	405.89092
904.493	435.44996
904.672	435.44996
904.85	486.12972
905.029	351.00409
905.207	481.90607
905.386	363.66927
905.565	334.11816
905.743	285.57744
905.922	342.56099
906.1	410.11344
906.279	359.44748
906.457	306.68093
906.636	427.0042
906.814	310.90184
906.993	289.79799
907.171	298.23931
907.35	467.12378
907.528	336.22884
907.707	450.23064
907.885	245.48595
908.063	313.01233
908.242	289.79799
908.42	294.01862
908.598	241.26619
908.777	351.00409
908.955	308.79138
909.133	351.00409
909.311	300.34969
909.49	268.69598
909.668	137.90711
909.846	355.22575
910.024	348.89329
910.202	342.56099
910.38	302.46008
910.559	283.46719
910.737	283.46719
910.915	306.68093
911.093	256.03568
911.271	283.46719
911.449	260.25571
911.627	300.34969
911.805	279.24676
911.983	376.33506
912.161	370.00209
912.339	403.77968
912.517	315.12283
912.695	401.66845
912.872	351.00409
913.05	334.11816
913.228	325.67561
913.406	382.66819
913.584	310.90184
913.762	325.67561
913.939	317.23335
914.117	323.56502
914.295	306.68093
914.473	420.67004
914.65	323.56502
914.828	370.00209
915.006	315.12283
915.184	256.03568
915.361	351.00409
915.539	365.78019
915.716	289.79799
915.894	420.67004
916.072	376.33506
916.249	253.9257
916.427	327.78622
916.604	302.46008
916.782	283.46719
916.959	315.12283
917.137	287.68771
917.314	260.25571
917.492	283.46719
917.669	437.56144
917.847	266.58589
918.024	230.71714
918.201	243.37606
918.379	266.58589
918.556	275.02639
918.733	237.04651
918.911	239.15634
919.088	260.25571
919.265	298.23931
919.442	192.74463
919.62	180.08857
919.797	340.45025
919.974	188.52586
920.151	308.79138
920.328	374.22406
920.506	241.26619
920.683	222.27825
920.86	279.24676
921.037	285.57744
921.214	165.32411
921.391	275.02639
921.568	289.79799
921.745	256.03568
921.922	266.58589
922.099	211.73008
922.276	315.12283
922.453	215.94929
922.63	226.49765
922.807	158.99679
922.984	218.05892
923.161	190.63523
923.338	222.27825
923.514	192.74463
923.691	310.90184
923.868	270.8061
924.045	213.83967
924.222	192.74463
924.399	199.07293
924.575	226.49765
924.752	237.04651
924.929	135.79826
925.105	218.05892
925.282	167.43326
925.459	264.47581
925.635	140.01598
925.812	218.05892
925.989	140.01598
926.165	226.49765
926.342	137.90711
926.518	184.30718
926.695	180.08857
926.871	137.90711
927.048	158.99679
927.224	167.43326
927.401	209.6205
927.577	203.2919
927.754	148.45169
927.93	144.23379
928.107	194.85404
928.283	184.30718
928.459	156.88773
928.636	131.58062
928.812	89.40901
928.988	123.1456
929.165	87.30066
929.341	173.76082
929.517	213.83967
929.693	123.1456
929.87	112.60231
930.046	123.1456
930.222	148.45169
930.398	140.01598
930.574	112.60231
930.751	175.87005
930.927	121.0369
931.103	192.74463
931.279	99.95108
931.455	91.51738
931.631	104.16807
931.807	167.43326
931.983	87.30066
932.159	99.95108
932.335	32.49155
932.511	142.12488
932.687	137.90711
932.863	32.49155
933.039	80.97574
933.215	104.16807
933.391	87.30066
933.566	53.57014
933.742	70.43467
933.918	24.06077
934.094	64.1103
934.27	85.19233
934.445	129.47183
934.621	74.65103
934.797	89.40901
934.973	106.2766
935.148	70.43467
935.324	32.49155
935.5	87.30066
935.675	104.16807
935.851	32.49155
936.027	89.40901
936.202	165.32411
936.378	5.09289
936.553	45.13842
936.729	62.00222
936.904	89.40901
937.08	24.06077
937.255	89.40901
937.431	5.09289
937.606	62.00222
937.782	53.57014
937.957	9.30781
938.133	19.84552
938.308	55.67812
938.483	-53.90568
938.659	45.13842
938.834	55.67812
939.009	-5.44397
939.185	32.49155
939.36	-26.51589
939.535	34.5993
939.71	-18.08741
939.886	45.13842
940.061	80.97574
940.236	19.84552
940.411	49.35423
940.586	11.4153
940.761	-47.58533
940.937	40.92271
941.112	53.57014
941.287	43.03055
941.462	66.2184
941.637	64.1103
941.812	-5.44397
941.987	47.24632
942.162	7.20034
942.337	24.06077
942.512	78.86748
942.687	-72.86535
942.862	47.24632
943.037	0.87808
943.212	-79.18478
943.386	-45.4785
943.561	2.98547
943.736	2.98547
943.911	30.38382
944.086	-37.05092
944.26	53.57014
944.435	-18.08741
944.61	36.70708
944.785	28.27611
944.959	51.46218
945.134	-51.79892
945.309	30.38382
945.483	-30.72997
945.658	36.70708
945.833	26.16843
946.007	-39.15785
946.182	104.16807
946.357	0.87808
946.531	-26.51589
946.706	45.13842
946.88	2.98547
947.055	7.20034
947.229	-51.79892
947.404	83.08402
947.578	19.84552
947.752	-45.4785
947.927	-13.87303
948.101	-81.29121
948.276	38.81488
948.45	11.4153
948.624	-3.33665
948.799	-13.87303
948.973	70.43467
949.147	-41.26476
949.321	-32.83698
949.496	55.67812
949.67	-5.44397
949.844	19.84552
950.018	17.73793
950.193	30.38382
950.367	11.4153
950.541	28.27611
950.715	-5.44397
950.889	28.27611
951.063	13.52282
951.237	-13.87303
951.411	13.52282
951.585	-22.3017
951.759	-13.87303
951.933	28.27611
952.107	53.57014
952.281	36.70708
952.455	9.30781
952.629	34.5993
952.803	-7.55127
952.977	64.1103
953.151	28.27611
953.325	-18.08741
953.499	30.38382
953.672	-3.33665
953.846	59.89417
954.02	-5.44397
954.194	-5.44397
954.368	-1.2293
954.541	72.54284
954.715	62.00222
954.889	-22.3017
955.062	-13.87303
955.236	91.51738
955.41	-51.79892
955.583	28.27611
955.757	28.27611
955.93	21.95313
956.104	-13.87303
956.278	11.4153
956.451	66.2184
956.625	-26.51589
956.798	2.98547
956.972	-47.58533
957.145	5.09289
957.319	45.13842
957.492	5.09289
957.665	30.38382
957.839	-13.87303
958.012	11.4153
958.185	-13.87303
958.359	28.27611
958.532	64.1103
958.705	-3.33665
958.879	-7.55127
959.052	30.38382
959.225	-43.37164
959.398	19.84552
959.572	64.1103
959.745	36.70708
959.918	38.81488
960.091	-68.65227
960.264	-5.44397
960.438	-30.72997
960.611	45.13842
960.784	13.52282
960.957	72.54284
961.13	11.4153
961.303	24.06077
961.476	11.4153
961.649	-9.65855
961.822	62.00222
961.995	95.73419
962.168	7.20034
962.341	-43.37164
962.514	15.63036
962.686	-62.33245
962.859	11.4153
963.032	70.43467
963.205	89.40901
963.378	38.81488
963.551	49.35423
963.723	43.03055
963.896	45.13842
964.069	-51.79892
964.242	2.98547
964.414	55.67812
964.587	13.52282
964.76	-18.08741
964.932	11.4153
965.105	70.43467
965.278	13.52282
965.45	80.97574
965.623	55.67812
965.795	129.47183
965.968	-26.51589
966.14	-22.3017
966.313	45.13842
966.485	36.70708
966.658	24.06077
966.83	49.35423
967.003	19.84552
967.175	5.09289
967.348	-5.44397
967.52	78.86748
967.692	-5.44397
967.865	-34.94396
968.037	15.63036
968.209	-72.86535
968.382	36.70708
968.554	87.30066
968.726	43.03055
968.898	40.92271
969.071	2.98547
969.243	28.27611
969.415	62.00222
969.587	2.98547
969.759	-22.3017
969.932	-47.58533
970.104	-9.65855
970.276	36.70708
970.448	19.84552
970.62	62.00222
970.792	-18.08741
970.964	68.32652
971.136	-11.7658
971.308	19.84552
971.48	2.98547
971.652	-89.71665
971.824	45.13842
971.996	70.43467
972.168	17.73793
972.339	45.13842
972.511	-13.87303
972.683	-34.94396
972.855	64.1103
973.027	19.84552
973.199	-64.43909
973.37	89.40901
973.542	-62.33245
973.714	28.27611
973.886	-13.87303
974.057	-13.87303
974.229	-7.55127
974.401	15.63036
974.572	-28.62294
974.744	-1.2293
974.915	17.73793
975.087	-13.87303
975.259	-1.2293
975.43	78.86748
975.602	-18.08741
975.773	32.49155
975.945	-5.44397
976.116	36.70708
976.288	38.81488
976.459	116.81956
976.63	19.84552
976.802	9.30781
976.973	17.73793
977.145	70.43467
977.316	62.00222
977.487	28.27611
977.659	-13.87303
977.83	0.87808
978.001	2.98547
978.172	15.63036
978.344	32.49155
978.515	36.70708
978.686	68.32652
978.857	-5.44397
979.028	-20.19457
979.2	-15.98024
979.371	-79.18478
979.542	21.95313
979.713	-13.87303
979.884	-3.33665
980.055	55.67812
980.226	-39.15785
980.397	11.4153
980.568	43.03055
980.739	-64.43909
980.91	49.35423
981.081	17.73793
981.252	-45.4785
981.423	-30.72997
981.594	78.86748
981.765	-11.7658
981.936	19.84552
982.106	-37.05092
982.277	11.4153
982.448	15.63036
982.619	34.5993
982.79	19.84552
982.96	15.63036
983.131	-20.19457
983.302	-66.54569
983.472	-1.2293
983.643	13.52282
983.814	-26.51589
983.984	53.57014
984.155	36.70708
984.326	15.63036
984.496	-9.65855
984.667	13.52282
984.837	-64.43909
985.008	-5.44397
985.178	64.1103
985.349	72.54284
985.519	93.62577
985.69	0.87808
985.86	43.03055
986.031	2.98547
986.201	0.87808
986.371	-22.3017
986.542	24.06077
986.712	-9.65855
986.882	17.73793
987.053	21.95313
987.223	28.27611
987.393	19.84552
987.563	9.30781
987.734	-20.19457
987.904	-9.65855
988.074	-45.4785
988.244	89.40901
988.414	24.06077
988.585	-34.94396
988.755	7.20034
988.925	19.84552
989.095	47.24632
989.265	17.73793
989.435	-64.43909
989.605	-11.7658
989.775	-18.08741
989.945	-3.33665
990.115	-13.87303
990.285	15.63036
990.455	49.35423
990.625	11.4153
990.795	-37.05092
990.965	-39.15785
991.134	-22.3017
991.304	-83.39761
991.474	49.35423
991.644	-5.44397
991.814	-11.7658
991.984	-81.29121
992.153	-43.37164
992.323	15.63036
992.493	-30.72997
992.662	-24.40881
992.832	13.52282
993.002	-41.26476
993.171	47.24632
993.341	47.24632
993.511	-13.87303
993.68	-20.19457
993.85	2.98547
994.019	-56.01241
994.189	7.20034
994.358	68.32652
994.528	-64.43909
994.697	-15.98024
994.867	-64.43909
995.036	5.09289
995.206	11.4153
995.375	7.20034
995.544	38.81488
995.714	11.4153
995.883	-43.37164
996.052	-22.3017
996.222	-51.79892
996.391	11.4153
996.56	-3.33665
996.73	66.2184
996.899	-13.87303
997.068	30.38382
997.237	13.52282
997.406	-18.08741
997.576	-1.2293
997.745	28.27611
997.914	-7.55127
998.083	7.20034
998.252	-53.90568
998.421	21.95313
998.59	-11.7658
998.759	-15.98024
998.928	-39.15785
999.097	-11.7658
999.266	47.24632
999.435	-22.3017
999.604	19.84552
999.773	45.13842
999.942	-11.7658
1000.111	5.09289
1000.28	21.95313
1000.448	-7.55127
1000.617	-70.75882
1000.786	-13.87303
1000.955	-45.4785
1001.124	2.98547
1001.292	11.4153
1001.461	-15.98024
1001.63	-72.86535
1001.798	-1.2293
1001.967	-13.87303
1002.136	-30.72997
1002.304	-64.43909
1002.473	28.27611
1002.642	19.84552
1002.81	-13.87303
1002.979	-62.33245
1003.147	-34.94396
1003.316	-9.65855
1003.484	19.84552
1003.653	-5.44397
1003.821	19.84552
1003.99	7.20034
1004.158	36.70708
1004.327	-20.19457
1004.495	32.49155
1004.663	-3.33665
1004.832	-56.01241
1005	53.57014
1005.168	-64.43909
1005.337	11.4153
1005.505	-74.97185
1005.673	2.98547
1005.842	-5.44397
1006.01	95.73419
1006.178	-53.90568
1006.346	-13.87303
1006.514	2.98547
1006.683	-68.65227
1006.851	-77.07833
1007.019	-30.72997
1007.187	-47.58533
1007.355	45.13842
1007.523	-39.15785
1007.691	-9.65855
1007.859	-28.62294
1008.027	-47.58533
1008.195	-39.15785
1008.363	64.1103
1008.531	-30.72997
1008.699	30.38382
1008.867	-34.94396
1009.035	-9.65855
1009.203	-72.86535
1009.37	53.57014
1009.538	-13.87303
1009.706	-20.19457
1009.874	78.86748
1010.042	-28.62294
1010.209	-47.58533
1010.377	28.27611
1010.545	-26.51589
1010.713	2.98547
1010.88	-5.44397
1011.048	-11.7658
1011.216	-3.33665
1011.383	-62.33245
1011.551	24.06077
1011.718	62.00222
1011.886	-3.33665
1012.054	49.35423
1012.221	-20.19457
1012.389	-11.7658
1012.556	26.16843
1012.724	28.27611
1012.891	-28.62294
1013.058	-24.40881
1013.226	-15.98024
1013.393	7.20034
1013.561	28.27611
1013.728	-15.98024
1013.895	-41.26476
1014.063	38.81488
1014.23	-26.51589
1014.397	-30.72997
1014.565	13.52282
1014.732	-72.86535
1014.899	24.06077
1015.066	45.13842
1015.233	-43.37164
1015.401	36.70708
1015.568	7.20034
1015.735	36.70708
1015.902	28.27611
1016.069	0.87808
1016.236	78.86748
1016.403	15.63036
1016.57	-5.44397
1016.737	-13.87303
1016.904	-39.15785
1017.071	2.98547
1017.238	-1.2293
1017.405	-1.2293
1017.572	-1.2293
1017.739	-34.94396
1017.906	13.52282
1018.073	-26.51589
1018.24	47.24632
1018.407	-39.15785
1018.573	15.63036
1018.74	66.2184
1018.907	15.63036
1019.074	-74.97185
1019.241	45.13842
1019.407	-11.7658
1019.574	19.84552
1019.741	21.95313
1019.907	19.84552
1020.074	-28.62294
1020.241	70.43467
1020.407	-22.3017
1020.574	62.00222
1020.74	-26.51589
1020.907	-62.33245
1021.073	-13.87303
1021.24	-20.19457
1021.406	-47.58533
1021.573	17.73793
1021.739	40.92271
1021.906	26.16843
1022.072	15.63036
1022.239	-45.4785
1022.405	36.70708
1022.571	-9.65855
1022.738	45.13842
1022.904	-30.72997
1023.07	30.38382
1023.237	21.95313
1023.403	-22.3017
1023.569	2.98547
1023.735	-56.01241
1023.902	32.49155
1024.068	15.63036
1024.234	-56.01241
1024.4	28.27611
1024.566	-68.65227
1024.732	28.27611
1024.898	53.57014
1025.065	-28.62294
1025.231	-30.72997
1025.397	36.70708
1025.563	36.70708
1025.729	-39.15785
1025.895	-39.15785
1026.061	-72.86535
1026.227	-5.44397
1026.392	-20.19457
1026.558	-11.7658
1026.724	-7.55127
1026.89	32.49155
1027.056	2.98547
1027.222	38.81488
1027.388	49.35423
1027.553	11.4153
1027.719	-30.72997
1027.885	28.27611
1028.051	-20.19457
1028.216	-56.01241
1028.382	19.84552
1028.548	19.84552
1028.713	17.73793
1028.879	-13.87303
1029.045	32.49155
1029.21	2.98547
1029.376	-18.08741
1029.541	30.38382
1029.707	30.38382
1029.873	57.78613
1030.038	-28.62294
1030.204	-39.15785
1030.369	5.09289
1030.534	2.98547
1030.7	9.30781
1030.865	89.40901
1031.031	-32.83698
1031.196	-51.79892
1031.361	-20.19457
1031.527	-13.87303
1031.692	11.4153
1031.857	45.13842
1032.023	-60.2258
1032.188	-22.3017
1032.353	51.46218
1032.518	-22.3017
1032.684	62.00222
1032.849	2.98547
1033.014	24.06077
1033.179	-87.61033
1033.344	-64.43909
1033.509	2.98547
1033.674	-72.86535
1033.839	-9.65855
1034.004	-53.90568
1034.17	-56.01241
1034.335	-47.58533
1034.5	19.84552
1034.664	-13.87303
1034.829	0.87808
1034.994	-5.44397
1035.159	-49.69214
1035.324	-13.87303
1035.489	-28.62294
1035.654	-96.03546
1035.819	-30.72997
1035.984	-45.4785
1036.148	2.98547
1036.313	21.95313
1036.478	11.4153
1036.643	5.09289
1036.807	21.95313
1036.972	11.4153
1037.137	-51.79892
1037.301	36.70708
1037.466	-79.18478
1037.631	2.98547
1037.795	-22.3017
1037.96	-32.83698
1038.124	-13.87303
1038.289	2.98547
1038.454	-45.4785
1038.618	-117.09646
1038.783	19.84552
1038.947	-5.44397
1039.111	34.5993
1039.276	21.95313
1039.44	-34.94396
1039.605	13.52282
1039.769	-62.33245
1039.933	-9.65855
1040.098	-11.7658
1040.262	-68.65227
1040.426	-22.3017
1040.591	13.52282
1040.755	9.30781
1040.919	-64.43909
1041.083	28.27611
1041.248	2.98547
1041.412	-60.2258
1041.576	-5.44397
1041.74	13.52282
1041.904	-5.44397
1042.068	13.52282
1042.232	-22.3017
1042.397	-39.15785
1042.561	-30.72997
1042.725	-72.86535
1042.889	-39.15785
1043.053	-9.65855
1043.217	-13.87303
1043.381	-30.72997
1043.544	-18.08741
1043.708	24.06077
1043.872	-37.05092
1044.036	-22.3017
1044.2	-22.3017
1044.364	-34.94396
1044.528	24.06077
1044.691	0.87808
1044.855	28.27611
1045.019	5.09289
1045.183	-39.15785
1045.346	-47.58533
1045.51	-39.15785
1045.674	17.73793
1045.837	-47.58533
1046.001	28.27611
1046.165	-20.19457
1046.328	-45.4785
1046.492	-18.08741
1046.655	-47.58533
1046.819	17.73793
1046.983	45.13842
1047.146	-11.7658
1047.31	-47.58533
1047.473	-13.87303
1047.636	19.84552
1047.8	-43.37164
1047.963	-39.15785
1048.127	68.32652
1048.29	-58.11912
