Data from mixed_try1_USB4F045381__1__00226.txt Node

Date: Thu Apr 03 20:22:45 EDT 2025
User: mmckonesweet
Spectrometer: USB4F04538
Trigger mode: 4
Integration Time (sec): 2.700000E-3
Scans to average: 1
Electric dark correction enabled: true
Nonlinearity correction enabled: true
Boxcar width: 0
XAxis mode: Wavelengths
Number of Pixels in Spectrum: 3648
>>>>>Begin Spectral Data<<<<<
345.52	-56.36353
345.736	-56.36353
345.952	-56.36353
346.168	-79.53586
346.384	-14.22423
346.6	-12.11701
346.816	34.24801
347.032	11.06405
347.248	19.49425
347.464	-35.29512
347.68	-47.93647
347.896	44.78711
348.112	2.63424
348.328	19.49425
348.544	-20.54576
348.76	-31.08114
348.975	15.2791
349.191	-87.96139
349.407	-50.04327
349.623	11.06405
349.839	-20.54576
350.055	-26.86706
350.27	4.74166
350.486	-37.40208
350.702	-31.08114
350.918	-43.72279
351.133	-73.21644
351.349	-33.18815
351.565	-39.50901
351.781	-5.79519
351.996	-31.08114
352.212	-56.36353
352.428	-45.82964
352.644	-52.15005
352.859	-22.65289
353.075	59.54283
353.291	-41.61591
353.506	-31.08114
353.722	2.63424
353.938	-5.79519
354.153	6.8491
354.369	15.2791
354.584	-14.22423
354.8	-14.22423
355.016	-7.90249
355.231	-28.97412
355.447	-28.97412
355.662	30.03253
355.878	-5.79519
356.093	6.8491
356.309	4.74166
356.524	-24.75999
356.74	-64.79019
356.955	-62.68356
357.171	-10.00976
357.386	15.2791
357.602	-35.29512
357.817	-62.68356
358.033	6.8491
358.248	0.52684
358.464	42.67924
358.679	-39.50901
358.895	2.63424
359.11	40.5714
359.325	-14.22423
359.541	-73.21644
359.756	-22.65289
359.972	-20.54576
360.187	-79.53586
360.402	-10.00976
360.618	-10.00976
360.833	-28.97412
361.048	-73.21644
361.264	-39.50901
361.479	-33.18815
361.694	-64.79019
361.909	-10.00976
362.125	6.8491
362.34	-92.17399
362.555	80.62436
362.77	-5.79519
362.986	-18.43861
363.201	6.8491
363.416	-31.08114
363.631	40.5714
363.847	78.51611
364.062	-10.00976
364.277	-37.40208
364.492	-37.40208
364.707	-41.61591
364.922	-60.57691
365.138	67.97517
365.353	2.63424
365.568	-22.65289
365.783	-5.79519
365.998	-62.68356
366.213	15.2791
366.428	15.2791
366.643	25.81715
366.858	-28.97412
367.073	6.8491
367.288	-41.61591
367.503	72.19148
367.718	-24.75999
367.933	11.06405
368.148	2.63424
368.363	13.17157
368.578	-37.40208
368.793	32.14026
369.008	-64.79019
369.223	-56.36353
369.438	-14.22423
369.653	-31.08114
369.868	-1.58052
370.083	44.78711
370.298	-47.93647
370.513	-47.93647
370.728	-5.79519
370.943	-56.36353
371.157	-111.12944
371.372	21.60186
371.587	-39.50901
371.802	2.63424
372.017	74.29967
372.232	17.38667
372.446	-18.43861
372.661	-7.90249
372.876	17.38667
373.091	6.8491
373.306	-1.58052
373.52	-14.22423
373.735	-28.97412
373.95	-3.68787
374.165	-12.11701
374.379	27.92483
374.594	2.63424
374.809	49.00291
375.023	-22.65289
375.238	-3.68787
375.453	6.8491
375.667	19.49425
375.882	-81.64228
376.097	-18.43861
376.311	-35.29512
376.526	-73.21644
376.741	-5.79519
376.955	-14.22423
377.17	23.70949
377.384	-43.72279
377.599	-33.18815
377.813	30.03253
378.028	-14.22423
378.242	-14.22423
378.457	2.63424
378.672	-47.93647
378.886	27.92483
379.101	-47.93647
379.315	-35.29512
379.53	38.46358
379.744	-16.33143
379.958	-54.2568
380.173	-18.43861
380.387	19.49425
380.602	32.14026
380.816	-18.43861
381.031	21.60186
381.245	25.81715
381.459	40.5714
381.674	49.00291
381.888	-26.86706
382.103	-22.65289
382.317	-54.2568
382.531	30.03253
382.746	-5.79519
382.96	-22.65289
383.174	11.06405
383.388	-62.68356
383.603	-45.82964
383.817	-1.58052
384.031	27.92483
384.246	4.74166
384.46	36.35578
384.674	-33.18815
384.888	-20.54576
385.103	-18.43861
385.317	-50.04327
385.531	53.21881
385.745	-35.29512
385.959	-16.33143
386.174	-31.08114
386.388	-22.65289
386.602	72.19148
386.816	-54.2568
387.03	-77.42941
387.244	61.65088
387.458	-52.15005
387.672	6.8491
387.887	-39.50901
388.101	36.35578
388.315	-33.18815
388.529	-10.00976
388.743	13.17157
388.957	-14.22423
389.171	-73.21644
389.385	-39.50901
389.599	32.14026
389.813	-22.65289
390.027	-5.79519
390.241	-12.11701
390.455	63.75895
390.669	30.03253
390.883	-1.58052
391.097	36.35578
391.311	-73.21644
391.525	2.63424
391.738	72.19148
391.952	36.35578
392.166	-1.58052
392.38	30.03253
392.594	-35.29512
392.808	-56.36353
393.022	19.49425
393.236	-33.18815
393.449	82.73264
393.663	2.63424
393.877	11.06405
394.091	105.92518
394.305	49.00291
394.518	30.03253
394.732	19.49425
394.946	2.63424
395.16	70.08331
395.373	19.49425
395.587	11.06405
395.801	-18.43861
396.015	2.63424
396.228	27.92483
396.442	-18.43861
396.656	51.11085
396.869	-26.86706
397.083	-87.96139
397.297	-22.65289
397.51	11.06405
397.724	21.60186
397.938	-45.82964
398.151	-5.79519
398.365	25.81715
398.578	-14.22423
398.792	-43.72279
399.005	4.74166
399.219	13.17157
399.433	-14.22423
399.646	2.63424
399.86	38.46358
400.073	78.51611
400.287	65.86705
400.5	-12.11701
400.714	-64.79019
400.927	-5.79519
401.141	97.49122
401.354	2.63424
401.567	2.63424
401.781	17.38667
401.994	15.2791
402.208	-62.68356
402.421	-35.29512
402.635	-5.79519
402.848	-1.58052
403.061	-1.58052
403.275	15.2791
403.488	44.78711
403.701	-12.11701
403.915	-35.29512
404.128	-98.49271
404.341	17.38667
404.555	6.8491
404.768	17.38667
404.981	-18.43861
405.195	49.00291
405.408	-47.93647
405.621	40.5714
405.834	-31.08114
406.048	61.65088
406.261	36.35578
406.474	36.35578
406.687	-1.58052
406.9	46.895
407.114	-52.15005
407.327	-1.58052
407.54	2.63424
407.753	70.08331
407.966	40.5714
408.179	-22.65289
408.392	36.35578
408.605	53.21881
408.819	15.2791
409.032	27.92483
409.245	-37.40208
409.458	-28.97412
409.671	36.35578
409.884	78.51611
410.097	11.06405
410.31	32.14026
410.523	-45.82964
410.736	65.86705
410.949	-28.97412
411.162	36.35578
411.375	27.92483
411.588	59.54283
411.801	84.84094
412.014	150.20917
412.227	19.49425
412.44	11.06405
412.653	-10.00976
412.865	93.27437
413.078	19.49425
413.291	53.21881
413.504	-41.61591
413.717	30.03253
413.93	-3.68787
414.143	70.08331
414.356	36.35578
414.568	51.11085
414.781	21.60186
414.994	55.32679
415.207	23.70949
415.42	15.2791
415.632	4.74166
415.845	-20.54576
416.058	-3.68787
416.271	38.46358
416.483	-31.08114
416.696	36.35578
416.909	129.12037
417.121	63.75895
417.334	36.35578
417.547	44.78711
417.759	27.92483
417.972	-5.79519
418.185	-1.58052
418.397	93.27437
418.61	82.73264
418.823	124.90287
419.035	99.59967
419.248	55.32679
419.46	108.03372
419.673	70.08331
419.885	135.44678
420.098	13.17157
420.311	36.35578
420.523	70.08331
420.736	95.38278
420.948	145.99124
421.161	23.70949
421.373	53.21881
421.586	40.5714
421.798	44.78711
422.01	70.08331
422.223	40.5714
422.435	32.14026
422.648	70.08331
422.86	53.21881
423.073	55.32679
423.285	38.46358
423.497	95.38278
423.71	25.81715
423.922	70.08331
424.134	97.49122
424.347	89.05761
424.559	103.81665
424.771	-14.22423
424.984	38.46358
425.196	86.94927
425.408	-7.90249
425.621	89.05761
425.833	78.51611
426.045	70.08331
426.257	120.68545
426.47	19.49425
426.682	91.16598
426.894	89.05761
427.106	99.59967
427.318	120.68545
427.531	152.31817
427.743	162.86346
427.955	112.25088
428.167	70.08331
428.379	154.42718
428.591	103.81665
428.804	53.21881
429.016	46.895
429.228	145.99124
429.44	103.81665
429.652	61.65088
429.864	194.50247
430.076	103.81665
430.288	103.81665
430.5	112.25088
430.712	150.20917
430.924	53.21881
431.136	154.42718
431.348	105.92518
431.56	154.42718
431.772	177.62776
431.984	148.10019
432.196	135.44678
432.408	114.35949
432.62	205.04983
432.832	80.62436
433.044	162.86346
433.256	181.84631
433.468	179.73703
433.679	209.26891
433.891	95.38278
434.103	150.20917
434.315	145.99124
434.527	181.84631
434.739	156.53622
434.95	173.40929
435.162	188.1743
435.374	230.36551
435.586	215.59768
435.798	162.86346
436.009	264.12413
436.221	198.72135
436.433	264.12413
436.645	224.03632
436.856	202.94032
437.068	251.46407
437.28	243.02442
437.491	251.46407
437.703	299.99796
437.915	369.65026
438.126	407.65029
438.338	236.69488
438.55	253.57403
438.761	209.26891
438.973	289.44628
439.184	287.336
439.396	335.87706
439.608	257.79401
439.819	354.87394
440.031	228.25576
440.242	331.65572
440.454	310.5501
440.665	333.76638
440.877	325.32385
441.088	378.09425
441.3	289.44628
441.511	333.76638
441.723	295.77723
441.934	323.21326
442.146	308.43963
442.357	352.76311
442.569	411.87285
442.78	428.76371
442.991	432.98659
443.203	356.9848
443.414	435.09805
443.626	375.98323
443.837	384.42741
444.048	424.5409
444.26	359.09566
444.471	409.76156
444.682	458.32515
444.894	426.6523
445.105	388.64961
445.316	485.77775
445.528	350.65229
445.739	401.31658
445.95	475.21875
446.161	447.76714
446.373	534.35382
446.584	466.77183
446.795	479.44231
447.006	555.47618
447.217	513.23285
447.429	513.23285
447.64	513.23285
447.851	483.66592
448.062	521.68107
448.273	589.27478
448.484	618.85129
448.695	540.69038
448.907	576.59991
449.118	547.02707
449.329	568.15026
449.54	566.03788
449.751	555.47618
449.962	487.88959
450.173	519.56899
450.384	652.65602
450.595	671.67253
450.806	773.10918
451.017	549.13933
451.228	724.50103
451.439	678.01157
451.65	616.7386
451.861	722.38775
452.072	705.48196
452.283	724.50103
452.494	796.35845
452.705	728.7276
452.915	825.95009
453.126	790.01762
453.337	809.04035
453.548	730.84091
453.759	857.65739
453.97	754.08795
454.181	948.56196
454.391	916.84943
454.602	897.82273
454.813	1014.10618
455.024	1009.87733
455.235	982.39044
455.445	1045.82331
455.656	967.59026
455.867	914.73532
456.078	961.24743
456.288	899.93677
456.499	948.56196
456.71	1162.12957
456.921	1024.67841
457.131	1231.91943
457.342	1028.90734
457.553	1176.93315
457.763	1041.59428
457.974	1236.14923
458.184	1164.24435
458.395	1379.96798
458.606	1219.23009
458.816	1445.53442
459.027	1308.05749
459.237	1390.54317
459.448	1492.06554
459.659	1468.79999
459.869	1382.08301
460.08	1405.34847
460.29	1473.03009
460.501	1887.54189
460.711	1534.36635
460.922	1451.87957
461.132	1633.77123
461.343	1578.78175
461.553	1629.54132
461.764	1790.26979
461.974	1709.90787
462.184	1652.80572
462.395	1777.58143
462.605	1946.7457
462.816	1811.41673
463.026	1946.7457
463.236	1923.48759
463.447	1982.68866
463.657	1895.99984
463.867	2202.53136
464.078	2261.705
464.288	2276.49731
464.498	2098.96167
464.709	2198.30441
464.919	2137.00991
465.129	2472.97803
465.339	2335.66194
465.55	2331.43614
465.76	2437.06889
465.97	2443.40603
466.18	2428.61923
466.391	2736.91196
466.601	2508.88397
466.811	2755.90761
467.021	2559.56911
467.231	2958.45813
467.441	2601.80153
467.651	2827.65909
467.862	3013.29252
468.072	3266.23679
468.282	3173.51759
468.492	2920.48995
468.702	3135.57784
468.912	3350.49864
469.122	3314.6907
469.332	3401.04244
469.542	3441.04908
469.752	3611.53032
469.962	3611.53032
470.172	3981.52722
470.382	3737.73364
470.592	3998.3306
470.802	3598.90624
471.012	4015.13268
471.222	3750.35017
471.432	4092.8251
471.642	3994.12988
471.852	4195.67114
472.062	4256.51531
472.272	4273.29675
472.482	4491.32954
472.691	4660.97871
472.901	4434.74753
473.111	4568.84171
473.321	4512.28176
473.531	4771.90415
473.741	4750.97968
473.95	5066.69603
474.16	4805.37859
474.37	5060.42863
474.58	5127.27018
474.79	5469.45824
474.999	5340.1685
475.209	5302.61587
475.419	5536.15307
475.628	5717.35763
475.838	5684.04605
476.048	5727.76626
476.258	5973.23866
476.467	6272.35386
476.677	6087.54158
476.886	6388.54515
477.096	6187.23871
477.306	6483.93331
477.515	6176.85612
477.725	6477.71384
477.935	6564.76739
478.144	6602.06356
478.354	6682.8463
478.563	7125.49837
478.773	6854.65241
478.982	7024.23478
479.192	7179.20832
479.401	7234.96815
479.611	7365.01198
479.82	7212.25313
480.03	7628.96234
480.239	7859.6329
480.449	7643.387
480.658	8090.04363
480.868	7972.81306
481.077	8055.08702
481.287	7812.28449
481.496	8394.12883
481.705	8190.76847
481.915	8398.23516
482.124	8414.65967
482.333	8457.76815
482.543	8465.97833
482.752	8763.39384
482.961	8730.59475
483.171	9064.5199
483.38	8605.50491
483.589	9301.87753
483.799	9310.05823
484.008	9440.91363
484.217	9547.18477
484.426	9485.87978
484.636	9424.56036
484.845	9963.68972
485.054	9514.49056
485.263	9931.0452
485.472	9720.80541
485.682	10128.89626
485.891	10122.77916
486.1	9677.92132
486.309	10516.06473
486.518	10442.74306
486.727	10344.95471
486.936	10509.95522
487.146	10363.29233
487.355	10613.80144
487.564	10945.49073
487.773	11175.25714
487.982	10990.23501
488.191	11226.0719
488.4	11116.30376
488.609	11114.27072
488.818	11406.92052
489.027	11333.77788
489.236	11532.85882
489.445	11687.18567
489.654	11703.42755
489.863	11946.98964
490.072	11995.68771
490.281	11894.22813
490.49	11841.46104
490.698	12125.52704
490.907	12009.89044
491.116	12565.54245
491.325	12149.86842
491.534	12547.29923
491.743	12494.59374
491.952	12320.22847
492.16	12721.60298
492.369	12693.23097
492.578	12972.84995
492.787	13189.58829
492.996	13090.3411
493.204	12928.27991
493.413	13307.05059
493.622	13588.4995
493.831	13268.57317
494.039	13406.27493
494.248	13491.3168
494.457	13762.59886
494.665	13665.4301
494.874	13772.72019
495.083	13861.78475
495.291	13416.39932
495.5	13967.03591
495.709	14011.56314
495.917	13932.62766
496.126	14039.89803
496.335	14230.13518
496.543	14282.75079
496.752	14199.77943
496.96	14329.29434
497.169	14456.77873
497.377	14677.33419
497.586	14606.51514
497.794	14976.78673
498.003	14887.7617
498.211	15134.60233
498.42	14564.02307
498.628	15053.67141
498.837	14946.43738
499.045	15001.06614
499.254	15427.97792
499.462	15454.28089
499.671	15707.19966
499.879	15486.6539
500.087	15440.11774
500.296	15727.43371
500.504	15563.5404
500.713	15648.52142
500.921	15606.03074
501.129	15662.68507
501.338	15397.62845
501.546	15974.29804
501.754	15646.49805
501.962	16283.91955
502.171	16111.90302
502.379	16198.92161
502.587	16249.51525
502.795	16415.47034
503.004	16004.6515
503.212	16447.85334
503.42	16506.54885
503.628	16721.10661
503.837	16510.59688
504.045	16644.18676
504.253	16791.95686
504.461	16822.32217
504.669	17000.47685
504.877	17130.05687
505.085	17014.64912
505.294	17152.32959
505.502	16656.33178
505.71	17360.90024
505.918	16911.397
506.126	17348.74963
506.334	17275.84823
506.542	17411.52898
506.75	17241.42391
506.958	17524.94441
507.166	17354.82492
507.374	17605.96154
507.582	18000.99657
507.79	17784.21771
507.998	17978.70904
508.206	17770.0373
508.414	17873.35561
508.622	17986.81355
508.83	18080.01945
509.037	18236.05515
509.245	18161.07425
509.453	18173.23297
509.661	18337.38874
509.869	18507.6504
510.077	17976.68293
510.285	18365.76383
510.492	18355.62978
510.7	18406.30095
510.908	18564.41029
511.116	18446.83958
511.324	18317.12128
511.531	18550.22003
511.739	18467.10947
511.947	18761.06635
512.155	18609.00947
512.362	18803.64625
512.57	18582.65518
512.778	18803.64625
512.985	18742.81836
513.193	18890.83914
513.401	19018.60026
513.608	19207.22941
513.816	18988.17949
514.024	19264.0279
514.231	19193.03028
514.439	19383.72103
514.646	19387.77868
514.854	19464.8771
515.061	19393.86518
515.269	19755.06458
515.477	19535.89412
515.684	19653.59071
515.892	19529.80675
516.099	19714.47378
516.307	19956.01379
516.514	19899.17549
516.722	19968.19385
516.929	19935.71402
517.136	20008.79516
517.344	19793.6274
517.551	19984.43417
517.759	20260.5608
517.966	20309.2971
518.173	20213.85745
518.381	20301.17422
518.588	20313.35857
518.796	20735.84266
519.003	20593.64034
519.21	20453.48949
519.418	20662.70749
519.625	20293.0514
519.832	20890.25679
520.039	20833.36459
520.247	21215.41679
520.454	21083.30792
520.661	21264.19979
520.868	20603.79697
521.076	21223.54713
521.283	20959.34451
521.49	21274.3632
521.697	21231.67753
521.904	21487.81815
522.112	21117.85781
522.319	21512.2158
522.526	21288.59216
522.733	21514.24896
522.94	21459.35494
523.147	21770.45907
523.354	21203.22141
523.561	21780.62742
523.768	21674.88136
523.975	21768.42542
524.183	21581.34558
524.39	22134.5456
524.597	22075.55126
524.804	22193.54309
525.011	22030.79904
525.218	22016.56009
525.425	21861.97768
525.632	21622.01229
525.838	21937.23215
526.045	22167.09555
526.252	22354.27617
526.459	22492.64694
526.666	22285.09709
526.873	22675.81016
527.08	22494.68192
527.287	22708.37551
527.494	22592.36558
527.701	23337.46388
527.907	22749.08344
528.114	22975.03745
528.321	22799.9703
528.528	23021.86197
528.735	23494.27536
528.941	23251.93825
529.148	22781.65078
529.355	23044.25693
529.562	23306.91837
529.768	23750.91529
529.975	22985.21654
530.182	23608.33162
530.388	23253.97451
530.595	23787.58202
530.802	23182.70737
531.008	24023.90126
531.215	23663.32644
531.422	24433.47398
531.628	23640.92088
531.835	23891.47623
532.042	24091.13699
532.248	24109.47454
532.455	24030.01347
532.661	24519.06984
532.868	24074.83714
533.074	24459.96745
533.281	24413.09468
533.487	24343.80702
533.694	24351.95835
533.9	24936.92203
534.107	24745.30885
534.313	24706.5811
534.52	24470.15736
534.726	24879.84358
534.933	24953.2305
535.139	25305.93628
535.345	25161.17618
535.552	25369.14479
535.758	24855.38195
535.965	24928.76786
536.171	25259.04097
536.377	25550.62545
536.584	25927.91058
536.79	25301.85839
536.996	25499.6461
537.203	25389.53506
537.409	25257.00207
537.615	25475.17646
537.821	25652.58789
538.028	25901.39654
538.234	25670.94165
538.44	25785.14636
538.646	25536.3511
538.853	26005.41492
539.059	26066.60439
539.265	26235.90345
539.471	26229.784
539.677	25787.18579
539.883	25805.54069
540.09	26093.12032
540.296	26472.53358
540.502	26596.97705
540.708	26217.54515
540.914	26556.17527
541.12	26837.7199
541.326	26951.97789
541.532	26609.21771
541.738	26725.50666
541.944	26862.20338
542.15	27355.99617
542.356	26823.43797
542.562	27337.63058
542.768	27076.44252
542.974	27204.9933
543.18	27174.38548
543.386	27331.50874
543.592	27645.77794
543.798	27353.95555
544.004	27270.29096
544.21	27407.01226
544.415	27431.50026
544.621	28098.86536
544.827	27500.88392
545.033	27917.21537
545.239	27809.04609
545.445	28121.31709
545.651	27721.28852
545.856	27725.37021
546.062	27949.87089
546.268	27611.08445
546.474	27539.65777
546.679	27313.14328
546.885	27449.86639
547.091	27625.36996
547.297	27713.12513
547.502	28066.20852
547.708	28009.05975
547.914	28129.4814
548.119	28574.4622
548.325	28343.80061
548.531	27802.9234
548.736	28449.94408
548.942	28347.883
549.147	28190.71423
549.353	28615.28867
549.559	28545.88392
549.764	28737.7706
549.97	28801.0544
550.175	28592.83406
550.381	28860.25628
550.586	28580.58614
550.792	29082.78152
550.997	28962.33055
551.203	29017.45173
551.408	28743.89479
551.614	28999.07792
551.819	29146.07076
552.025	28999.07792
552.23	29043.99183
552.435	29166.48686
552.641	29458.44849
552.846	29340.02791
553.052	29207.31937
553.257	29838.23526
553.462	29905.62073
553.668	29697.34226
553.873	29615.66753
554.078	29958.71316
554.283	29881.11678
554.489	30218.06037
554.694	30060.81614
554.899	29979.13353
555.105	30332.4242
555.31	30083.27918
555.515	29981.17557
555.72	30301.79067
555.925	30240.5244
556.131	30126.16356
556.336	30216.01819
556.541	30283.41067
556.746	30197.63865
556.951	30373.26935
557.156	29991.38581
557.361	30224.18691
557.567	30567.29054
557.772	30830.76954
557.977	30377.35389
558.182	30579.5449
558.387	30540.7396
558.592	30928.81399
558.797	30947.19768
559.002	30589.75689
559.207	30457.00343
559.412	30305.87512
559.617	30230.31346
559.822	31372.09849
560.027	30681.66632
560.232	31022.77629
560.437	30804.21639
560.642	30863.45067
560.847	31090.18592
561.051	31133.08379
561.256	31037.07517
561.461	31576.40192
561.666	31412.95786
561.871	31200.49606
562.076	31351.66905
562.281	31133.08379
562.485	31198.45324
562.69	31114.6989
562.895	31261.78138
563.1	31188.23916
563.305	30943.1124
563.509	31192.32478
563.714	31186.19635
563.919	31408.8719
564.123	31566.18636
564.328	31339.41146
564.533	31756.20304
564.737	31374.14145
564.942	31535.53991
565.147	31970.75682
565.351	32095.41204
565.556	31680.60318
565.761	31762.33286
565.965	31856.32557
566.17	31515.10915
566.374	31735.7704
566.579	31844.06543
566.784	31701.03533
566.988	32506.21571
567.193	32857.82207
567.397	32177.1572
567.602	32124.02247
567.806	31970.75682
568.011	32651.34692
568.215	32498.03965
568.42	32148.54602
568.624	32168.98254
568.828	32254.81816
569.033	32197.594
569.237	32612.50783
569.442	32745.38199
569.646	32158.76425
569.85	32124.02247
570.055	32763.78076
570.259	32908.93372
570.463	32553.22876
570.668	32741.2934
570.872	32861.91094
571.076	33303.57203
571.281	33279.0319
571.485	32710.6293
571.689	32757.64781
571.893	32408.10538
572.098	32984.58195
572.302	32896.66678
572.506	33387.42065
572.71	32833.28904
572.914	33334.24778
573.119	33029.56368
573.323	33231.99781
573.527	32878.26654
573.731	33716.72953
573.935	33254.49219
574.139	32992.76035
574.343	32571.6255
574.547	33503.99904
574.751	33733.09486
574.955	33546.95148
575.159	33557.17845
575.364	33442.64076
575.568	33577.63264
575.772	34031.80007
575.976	33606.26902
576.18	33162.47192
576.383	33677.86272
576.587	33821.06212
576.791	33765.82614
576.995	33569.45092
577.199	34082.9557
577.403	34205.73852
577.607	34095.23338
577.811	34027.70771
578.015	33741.2776
578.219	34146.39183
578.422	33904.94369
578.626	34723.62653
578.83	34568.02818
579.034	33964.27806
579.238	34142.29907
579.442	35131.1683
579.645	35022.60945
579.849	34641.72964
580.053	35209.01112
580.257	34389.9382
580.46	34637.63497
580.664	35065.62176
580.868	34238.48286
581.071	34301.9278
581.275	34836.24598
581.479	35098.39443
581.682	34737.95918
581.886	34914.06355
582.09	34651.96638
582.293	35231.54586
582.497	34938.63886
582.7	34959.11879
582.904	35102.4911
583.107	35143.45882
583.311	34942.73481
583.515	35299.15361
583.718	35604.48086
583.922	35641.37381
584.125	35502.00938
584.329	34694.96184
584.532	34987.79144
584.735	35624.97673
584.939	35479.4674
585.142	35362.66881
585.346	34969.35892
585.549	36000.1472
585.753	35852.51702
585.956	36012.45105
586.159	36055.51615
586.363	36537.61535
586.566	35739.76346
586.769	35358.57091
586.973	35417.99241
587.176	36145.75613
587.379	36305.75532
587.582	35981.69182
587.786	35561.44125
587.989	35905.82454
588.192	35981.69182
588.395	36545.82426
588.599	36248.3155
588.802	36428.85688
589.005	36106.78747
589.208	36601.2371
589.411	36307.80683
589.615	35991.94475
589.818	36658.70726
590.021	36285.24055
590.224	36593.0275
590.427	36921.49427
590.63	36900.96004
590.833	36562.24239
591.036	36790.08701
591.239	37178.23095
591.442	36927.65467
591.645	36861.9469
591.848	36991.31579
592.051	36913.28049
592.254	37063.1993
592.457	37165.90506
592.66	36654.60208
592.863	36742.86928
593.066	36779.82199
593.269	36695.65508
593.472	37363.15075
593.675	37457.68845
593.878	37252.19176
594.081	37336.43643
594.284	37373.42582
594.486	37636.53193
594.689	37418.63835
594.892	37484.40851
595.095	37873.02487
595.298	37307.66857
595.5	37492.63033
595.703	37768.13244
595.906	37930.62178
596.109	38089.0464
596.311	37367.26075
596.514	37437.13543
596.717	37850.39925
596.92	38426.63675
597.122	37696.15942
597.325	37659.14848
597.528	37924.45038
597.73	37965.59445
597.933	37770.18896
598.136	38311.33604
598.338	38399.86808
598.541	38647.02032
598.743	38506.95168
598.946	37875.08179
599.148	38175.48062
599.351	38261.92976
599.554	38348.39401
599.756	37786.64136
599.959	38389.57283
600.161	38298.98401
600.363	38406.04533
600.566	38243.40368
600.768	38842.77465
600.971	38527.54742
601.173	38336.04105
601.376	38494.59466
601.578	38249.57897
601.78	38436.93279
601.983	38682.04398
602.185	38778.88781
602.388	38661.44151
602.59	38371.04193
602.792	38692.34556
602.995	38426.63675
603.197	38774.76639
603.399	38958.20578
603.601	39193.28237
603.804	38430.75514
604.006	38677.92342
604.208	38704.70775
604.41	39152.03184
604.613	39418.16649
604.815	39436.74015
605.017	39986.06819
605.219	39028.30336
605.421	39104.59851
605.623	38795.37389
605.826	39781.53357
606.028	38789.19154
606.23	39020.05601
606.432	38976.75996
606.634	39286.11028
606.836	38925.22246
607.038	38888.11909
607.24	38904.6091
607.442	39178.84424
607.644	39185.03195
607.846	39011.80882
608.048	38846.89668
608.25	39345.94323
608.452	38729.43312
608.654	39154.09427
608.856	38581.1005
609.058	39566.77858
609.26	39341.81655
609.462	39682.40207
609.664	39866.22734
609.866	39628.71575
610.067	39515.17124
610.269	39715.44326
610.471	39544.07057
610.673	39709.24784
610.875	39393.40285
611.077	39370.70412
611.278	39566.77858
611.48	39771.20626
611.682	39321.18376
611.884	39729.89961
612.085	39860.02964
612.287	40310.64551
612.489	39740.22589
612.69	39492.46601
612.892	39707.18272
613.094	39874.49109
613.295	39383.0851
613.497	39069.54236
613.699	39308.80456
613.9	39232.47396
614.102	39599.8106
614.304	39277.8581
614.505	39096.34975
614.707	39321.18376
614.908	39314.99411
615.11	39539.94197
615.311	38954.08273
615.513	38956.14425
615.714	39341.81655
615.916	39608.06901
616.117	39092.22543
616.319	39444.99537
616.52	39556.4566
616.722	39362.45033
616.923	38657.32113
617.124	39407.84813
617.326	39110.78518
617.527	39707.18272
617.729	39740.22589
617.93	39864.16143
618.131	39632.84522
618.333	39024.17967
618.534	39449.12304
618.735	40320.98677
618.937	40610.6545
619.138	40035.66793
619.339	40229.9931
619.54	39971.60275
619.742	39620.45693
619.943	40052.20254
620.144	39705.11761
620.345	40178.30156
620.546	40015.00063
620.748	40581.67787
620.949	39804.25457
621.15	40143.15518
621.351	39465.63413
621.552	39463.57021
621.753	40120.41507
621.954	40103.87763
622.155	39042.73657
622.356	39453.25076
622.558	40103.87763
622.759	39562.64976
622.96	40116.28065
623.161	39874.49109
623.362	39492.46601
623.563	39975.73568
623.764	40201.045
623.965	40277.55533
624.166	40341.67011
624.366	40079.07275
624.567	40153.49203
624.768	39703.05251
624.969	39310.86773
625.17	39756.74846
625.371	39901.34943
625.572	39362.45033
625.773	39791.86114
625.973	39903.41553
626.174	39473.88991
626.375	39680.33709
626.576	39455.31463
626.777	40033.60115
626.977	39461.5063
627.178	40091.475
627.379	39467.69806
627.58	39727.83439
627.78	39480.08186
627.981	39816.64837
628.182	40126.61679
628.382	40205.18032
628.583	40579.60819
628.784	40285.82761
628.984	39632.84522
629.185	39765.01
629.386	39376.89456
629.586	39986.06819
629.787	39835.23978
629.987	40362.35455
630.188	39936.47456
630.388	39917.87853
630.589	39963.33702
630.79	39387.21217
630.99	39886.88703
631.191	40039.80152
631.391	40695.5274
631.591	40314.78198
631.792	39785.66457
631.992	40718.30143
632.193	40037.73472
632.393	39847.63452
632.594	39839.37132
632.794	39990.20127
632.994	40407.8642
633.195	40697.59771
633.395	40484.41527
633.595	39765.01
633.796	40339.60173
633.996	39977.80216
634.196	39909.61389
634.397	41002.05806
634.597	40716.23101
634.797	41304.6971
634.997	40753.50037
635.198	40039.80152
635.398	39746.42177
635.598	40647.91343
635.798	40664.47413
635.998	40558.91206
636.199	40939.903
636.399	40616.86407
636.599	40110.07909
636.799	40219.65425
636.999	39880.68901
637.199	40621.00384
637.399	40863.2595
637.599	41126.39978
637.799	40310.64551
637.999	40813.55325
638.199	40728.65372
638.399	40250.67162
638.599	40455.44821
638.799	40933.68807
638.999	41064.22363
639.199	40896.40069
639.399	40358.21757
639.599	40581.67787
639.799	40314.78198
639.999	40801.12772
640.199	41064.22363
640.399	40782.49021
640.599	39905.48164
640.799	41246.63715
640.998	40743.1474
641.198	40770.06572
641.398	40213.45107
641.598	40995.84208
641.798	41269.4453
641.997	40488.5536
642.197	40668.61442
642.397	41190.65962
642.597	40875.6871
642.796	40931.61645
642.996	40401.65803
643.196	40794.91512
643.395	40569.25999
643.595	40929.54484
643.795	41296.40225
643.994	41458.18654
644.194	41209.31783
644.394	41819.35666
644.593	41169.92939
644.793	41462.33582
644.992	41290.18124
645.192	40964.76377
645.392	41422.91961
645.591	41279.81312
645.791	40823.90817
645.99	41331.6567
646.19	40656.19369
646.389	40271.35124
646.589	40813.55325
646.788	40906.75792
646.987	40714.1606
647.187	41400.1017
647.386	40964.76377
647.586	41279.81312
647.785	41441.5899
647.984	42351.41919
648.184	42052.03226
648.383	41205.17148
648.582	40819.76617
648.782	41072.51317
648.981	41070.44077
649.18	41176.14834
649.38	40956.47666
649.579	41481.00818
649.778	41545.33161
649.977	41617.96892
650.177	40881.90105
650.376	40954.40491
650.575	41248.71056
650.774	41375.21109
650.973	41221.75718
651.173	41194.8058
651.372	41163.71056
651.571	41624.19567
651.77	41653.2553
651.969	41389.7304
652.168	41321.28738
652.367	42066.57971
652.566	41798.58967
652.765	41713.45792
652.964	41445.73899
653.163	41240.417
653.362	42012.54944
653.561	41657.40688
653.76	41709.30568
653.959	41273.59239
654.158	41875.43376
654.357	41275.66596
654.556	41099.45548
654.755	41825.587
654.954	42041.6416
655.153	41867.12547
655.352	42118.53994
655.551	42257.83242
655.749	42615.68237
655.948	41775.7474
656.147	42284.86593
656.346	42243.2768
656.545	42091.51963
656.743	42374.2999
656.942	42363.89938
657.141	42068.65797
657.34	41510.05603
657.538	41437.44087
657.737	41327.50893
657.936	41979.30426
658.135	41207.24465
658.333	41539.10625
658.532	41709.30568
658.731	41385.58197
658.929	41288.10759
659.128	41028.99518
659.326	41346.17424
659.525	41692.69723
659.724	41286.03395
659.922	41744.60127
660.121	41375.21109
660.319	41159.56472
660.518	41080.8029
660.716	41153.34607
660.915	41773.67091
661.113	41927.36511
661.312	41514.20591
661.51	41622.12007
661.709	41147.12751
661.907	41898.28259
662.105	41294.32857
662.304	41927.36511
662.502	41865.04843
662.701	41717.61021
662.899	41835.97116
663.097	41283.96033
663.296	41031.06735
663.494	41678.16548
663.692	41329.58281
663.891	42052.03226
664.089	41638.72519
664.287	41981.38199
664.485	42074.89282
664.684	42066.57971
664.882	41659.48268
665.08	41624.19567
665.278	41103.60063
665.476	41225.90372
665.675	41207.24465
665.873	41395.95314
666.071	41763.28861
666.269	41800.66631
666.467	40975.12291
666.665	41609.66675
666.863	41201.02517
667.061	41686.46926
667.259	41624.19567
667.457	41910.74623
667.655	41613.81781
667.853	42064.50146
668.051	41267.37177
668.249	41385.58197
668.447	41018.63452
668.645	40915.04391
668.843	41439.51538
669.041	41132.61797
669.239	40846.69001
669.437	41325.43507
669.635	41578.53538
669.833	41366.91461
670.031	40960.62019
670.229	41095.31038
670.426	41883.74225
670.624	41657.40688
670.822	41018.63452
671.02	41464.41048
671.218	41557.78266
671.415	41172.00236
671.613	40987.55427
671.811	41008.27414
672.009	41321.28738
672.206	41354.47024
672.404	40956.47666
672.602	41010.34619
672.799	40950.26145
672.997	40689.31654
673.195	40676.89513
673.392	41543.25648
673.59	41379.35941
673.788	40935.7597
673.985	40935.7597
674.183	40886.04375
674.38	41080.8029
674.578	40952.33317
674.775	40488.5536
674.973	40881.90105
675.17	40496.8304
675.368	40159.69427
675.565	40376.83431
675.763	40141.08785
675.96	40521.66185
676.158	40944.04635
676.355	40695.5274
676.553	41489.30732
676.75	41180.29436
676.947	41230.05031
677.145	40993.77011
677.342	41060.07893
677.539	40801.12772
677.737	41109.81843
677.934	41039.35614
678.131	40991.69815
678.329	40366.49157
678.526	40126.61679
678.723	40380.97149
678.92	40776.27791
679.118	40805.26952
679.315	40890.18649
679.512	40890.18649
679.709	40765.92431
679.906	40414.07048
680.104	40194.84212
680.301	40225.85753
680.498	40029.46763
680.695	40192.77451
680.892	40139.02052
681.089	40122.4823
681.286	40362.35455
681.483	39374.83107
681.68	40289.96382
681.877	40099.74337
682.075	40124.54954
682.272	39482.14586
682.469	39488.33792
682.665	39372.76759
682.862	39119.0342
683.059	39556.4566
683.256	39376.89456
683.453	39575.03634
683.65	40203.11265
683.847	39981.93515
684.044	39414.03911
684.241	39657.62291
684.438	39944.73974
684.635	39758.81383
684.831	40126.61679
685.028	39630.78048
685.225	39461.5063
685.422	39934.4083
685.619	39698.92234
685.815	39482.14586
686.012	39721.63878
686.209	39176.78169
686.405	39409.91178
686.602	39678.27211
686.799	39209.78366
686.996	39325.31024
687.192	39420.23019
687.389	39484.20987
687.586	39323.24699
687.782	39709.24784
687.979	39471.82595
688.175	38859.26301
688.372	39053.0463
688.568	39125.22107
688.765	39310.86773
688.962	39467.69806
689.158	39862.09553
689.355	39257.22836
689.551	39139.65744
689.748	38787.13078
689.944	38966.45199
690.14	38838.65265
690.337	38785.07002
690.533	38799.4955
690.73	37942.96481
690.926	38599.63952
691.123	38142.55155
691.319	37975.88098
691.515	38628.47944
691.712	38311.33604
691.908	37673.54132
692.104	38321.62964
692.301	38286.63229
692.497	38103.45108
692.693	38212.52842
692.889	38148.72559
693.086	38196.06239
693.282	38014.97166
693.478	38927.28385
693.674	38799.4955
693.87	38733.55414
694.067	39059.23225
694.263	38550.20375
694.459	38857.20194
694.655	38916.977
694.851	38642.90006
695.047	38315.45346
695.243	38043.77723
695.439	37823.66113
695.635	37669.42904
695.831	37973.82365
696.027	37932.67893
696.224	37706.44069
696.42	37992.33985
696.615	37807.20758
696.811	37751.68061
697.007	37562.52069
697.203	37213.15572
697.399	37071.41511
697.595	37354.93083
697.791	37149.47094
697.987	37443.30125
698.183	37910.05072
698.379	37665.31679
698.575	37603.63681
698.77	37877.13872
698.966	38000.56948
699.162	37640.64396
699.358	37003.63807
699.554	36627.91904
699.749	36935.86863
699.945	37677.65363
700.141	36827.04249
700.337	37137.14565
700.532	36855.78716
700.728	37124.82062
700.924	37139.19984
701.119	37270.68344
701.315	37079.63103
701.511	36543.77202
701.706	38089.0464
701.902	37174.12229
702.097	37330.27177
702.293	37361.09576
702.489	37716.72216
702.684	37381.64601
702.88	37371.37079
703.075	36944.08271
703.271	37040.60641
703.466	36894.79991
703.662	36634.07657
703.857	36574.55626
704.053	36894.79991
704.248	37463.85451
704.443	37478.24223
704.639	36625.86655
704.834	37178.23095
705.03	36845.52105
705.225	36744.92215
705.42	36340.63184
705.616	36488.36403
705.811	36264.72639
706.006	36471.94773
706.202	36449.37599
706.397	36773.66305
706.592	36114.99122
706.787	36061.66852
706.983	36299.60083
707.178	36929.70815
707.373	36634.07657
707.568	36636.12909
707.763	36837.30829
707.959	37389.86632
708.154	36958.4576
708.349	37061.14537
708.544	37153.57942
708.739	36814.72376
708.934	36634.07657
709.129	36767.50418
709.324	36342.68345
709.519	36771.61009
709.714	36236.00758
709.909	36455.53184
710.104	35963.2369
710.299	35850.4668
710.494	35637.27451
710.689	36110.88934
710.884	36121.1441
711.079	35379.06061
711.274	35795.11313
711.469	36373.45842
711.664	36106.78747
711.859	36147.80717
712.054	35887.37151
712.249	35741.81338
712.443	35434.38529
712.638	36211.3924
712.833	35764.36282
713.028	35998.09658
713.223	35288.90967
713.417	35016.465
713.612	35512.25595
713.807	35762.31284
714.002	35293.00723
714.196	35262.276
714.391	35350.37517
714.586	35477.41816
714.78	35760.26287
714.975	35235.64315
715.17	35344.22842
715.364	35700.81607
715.559	35217.2055
715.754	35379.06061
715.948	35051.2841
716.143	35303.25122
716.337	34881.29747
716.532	35620.87751
716.726	35713.11504
716.921	34952.97476
717.115	34930.44702
717.31	35295.05602
717.504	34850.58031
717.699	34815.76873
717.893	34772.76794
718.088	34877.20179
718.282	34961.1668
718.476	34828.05503
718.671	34437.0165
718.865	34815.76873
719.059	34733.86412
719.254	35223.35134
719.448	34494.33207
719.642	34377.65724
719.837	33900.85177
720.031	33708.54695
720.225	34152.531
720.419	34250.76224
720.614	34078.86316
720.808	34144.34545
721.002	33309.70713
721.196	33880.39239
721.39	33904.94369
721.585	33988.83107
721.779	34367.42322
721.973	34308.06783
722.167	34346.95548
722.361	34709.29408
722.555	34686.77209
722.749	34375.61043
722.943	33972.46234
723.137	33741.2776
723.331	34322.39469
723.525	33874.25464
723.719	33479.4554
723.913	34144.34545
724.107	33506.04436
724.301	34197.55258
724.495	33806.74145
724.689	34557.7923
724.883	34097.27968
725.077	34183.22734
725.271	33958.13988
725.465	33618.54195
725.659	33070.4573
725.853	33673.77155
726.046	33246.31238
726.24	32953.91332
726.434	32925.28979
726.628	33139.97894
726.822	33158.38226
727.015	33469.22901
727.209	32763.78076
727.403	33080.68087
727.596	33471.27428
727.79	34044.07721
727.984	34042.03101
728.177	34301.9278
728.371	34222.11057
728.565	33812.87886
728.758	33939.72555
728.952	33960.18594
729.146	33598.08713
729.339	33710.59259
729.533	33432.41465
729.726	33295.39194
729.92	33260.62708
730.113	32827.15584
730.307	33491.72716
730.5	33722.8665
730.694	33197.23446
730.887	33182.92037
731.081	33379.24008
731.274	33342.42809
731.468	33076.59143
731.661	33373.10468
731.854	33113.39676
732.048	33448.77647
732.241	33336.29285
732.435	33411.96265
732.628	33632.86051
732.821	32663.61207
733.014	32710.6293
733.208	33047.96568
733.401	33174.74096
733.594	32949.82421
733.788	33422.18861
733.981	33454.9122
734.174	33690.13632
734.367	33510.13502
734.56	33778.10059
734.754	33602.17807
734.947	33240.17755
735.14	33117.4863
735.333	33009.11728
735.526	32749.47059
735.719	32489.86362
735.912	32467.37975
736.105	32522.56793
736.298	32434.67642
736.491	32148.54602
736.684	31972.80029
736.877	32285.47463
737.07	32344.74519
737.263	32943.69057
737.456	32745.38199
737.649	32753.5592
737.842	32310.00016
738.035	32602.28716
738.228	31876.75929
738.421	32166.93888
738.614	32722.89488
738.807	32810.80075
739	32843.51109
739.192	32835.33345
739.385	33050.01036
739.578	33123.62062
739.771	32816.93389
739.964	32688.14264
740.156	33015.25117
740.349	32232.33704
740.542	32191.46294
740.735	31842.02208
740.927	32138.32784
741.12	32115.84802
741.313	32162.85156
741.505	32655.4353
741.698	32598.19891
741.891	32520.5239
742.083	32669.74468
742.276	32841.46668
742.468	33017.29581
742.661	32418.32497
742.854	32068.84555
743.046	31756.20304
743.239	32203.72508
743.431	32917.11174
743.624	32199.63769
743.816	32716.76208
744.009	32825.11145
744.201	32553.22876
744.393	32679.96575
744.586	32653.39111
744.778	31823.63202
744.971	31872.67253
745.163	31878.80267
745.355	32050.45357
745.548	31492.63551
745.74	31629.52357
745.932	31547.79844
746.125	32134.24058
746.317	32224.16216
746.509	31874.71591
746.702	32027.9747
746.894	31553.92773
747.086	31333.28269
747.278	31008.47749
747.471	31306.72483
747.663	31482.42029
747.855	31472.20511
748.047	31114.6989
748.239	31519.19529
748.431	31435.43079
748.623	31966.66989
748.815	30936.9845
749.008	31306.72483
749.2	31131.04101
749.392	30955.36825
749.584	30661.24177
749.776	30777.66346
749.968	30624.47792
750.16	31441.55981
750.352	30555.03624
750.544	30371.22708
750.736	30430.45337
750.928	31108.57064
751.12	30777.66346
751.311	30969.66679
751.503	31077.9295
751.695	30798.08877
751.887	30791.96116
752.079	31200.49606
752.271	30710.2609
752.463	31218.88151
752.654	30536.65486
752.846	30561.16339
753.038	30403.90353
753.23	30438.6226
753.421	30363.05802
753.613	30559.121
753.805	30873.66359
753.997	30424.32647
754.188	30369.18481
754.38	30185.38568
754.572	30066.94241
754.763	30328.33972
754.955	30197.63865
755.146	30971.70945
755.338	30820.55676
755.53	30218.06037
755.721	30383.48071
755.913	30256.86197
756.104	29926.0408
756.296	29803.52201
756.487	29870.90685
756.679	30138.41633
756.87	29985.25966
757.062	29930.12483
757.253	29760.64137
757.445	29462.53202
757.636	29317.56923
757.827	29327.7777
758.019	29227.73578
758.21	29233.86073
758.401	29190.98632
758.593	29229.77743
758.784	29086.86467
758.975	29223.65249
759.167	29144.02916
759.358	29364.52843
759.549	29386.98737
759.74	29566.66351
759.932	29617.70937
760.123	29078.69838
760.314	29148.11237
760.505	28974.57964
760.696	28948.04
760.888	28956.20602
761.079	28084.57796
761.27	28631.61937
761.461	28260.11263
761.652	28762.26743
761.843	28415.24301
762.034	28652.03285
762.225	28049.88021
762.416	28462.19158
762.607	28309.1005
762.798	28676.52916
762.989	29260.40226
763.18	29491.11686
763.371	28435.65536
763.562	28349.9242
763.753	27874.35546
763.944	28233.5778
764.135	28074.3727
764.326	28572.42088
764.517	28290.72997
764.708	28017.22381
764.899	28011.10076
765.089	28078.4548
765.28	27851.90523
765.471	28074.3727
765.662	27600.88055
765.853	27604.9621
766.043	27527.41335
766.234	28115.19388
766.425	27992.73169
766.615	27572.30978
766.806	27488.63964
766.997	27458.02914
767.187	26839.76018
767.378	27386.60573
767.569	26737.74789
767.759	26790.79382
767.95	26876.4855
768.141	27304.98089
768.331	27062.15943
768.522	26768.35119
768.712	26872.40489
768.903	26892.80801
769.093	26676.54229
769.284	26868.32428
769.474	26782.63285
769.665	26588.81665
769.855	26486.81368
770.046	26715.30568
770.236	26182.86873
770.426	26239.98309
770.617	26460.29355
770.807	26115.55711
770.998	26488.8537
771.188	26305.25826
771.378	25940.14793
771.569	26468.45356
771.759	26307.29814
771.949	26276.70016
772.139	26652.06043
772.33	25730.08263
772.52	26070.68375
772.71	26250.18222
772.9	26662.26118
773.09	26197.1472
773.281	26409.29407
773.471	26364.41535
773.661	26084.96154
773.851	25917.71283
774.041	25715.80707
774.231	25681.13826
774.421	25393.61314
774.611	25505.76355
774.802	25893.23843
774.992	25728.04326
775.182	25489.45038
775.372	25568.97832
775.562	25320.20899
775.752	25371.1838
775.942	25144.86587
776.131	25522.07686
776.321	25171.3702
776.511	24983.80926
776.701	25089.81963
776.891	24631.16643
777.081	24690.27494
777.271	24928.76786
777.461	25199.91373
777.651	24898.19003
777.84	24983.80926
778.03	24961.38478
778.22	25093.89708
778.41	25259.04097
778.599	24606.70835
778.789	24388.63986
778.979	24478.30934
779.169	24537.4124
779.358	24802.38292
779.548	24863.53579
779.738	24439.58782
779.927	24645.43381
780.117	24341.76919
780.307	24411.05676
780.496	23991.30322
780.686	24231.73051
780.875	24040.20055
781.065	24152.26301
781.254	23553.33901
781.444	24021.86386
781.633	23856.84399
781.823	23844.62104
782.012	23856.84399
782.202	23846.65819
782.391	24570.02189
782.581	24466.08139
782.77	24347.88268
782.96	24625.05188
783.149	23663.32644
783.338	23447.43363
783.528	23451.50676
783.717	23492.23873
783.906	23657.2158
784.096	23168.45442
784.285	23651.10518
784.474	23376.15589
784.663	23146.05724
784.853	22932.28618
785.042	22818.2901
785.231	23156.23773
785.42	23072.76018
785.61	23339.50028
785.799	23152.16552
785.988	23396.52057
786.177	23262.11958
786.366	23036.11326
786.555	22706.34015
786.744	22626.96384
786.933	22517.06704
787.122	22710.41087
787.312	22681.9161
787.501	22909.89325
787.69	22771.47339
787.879	22918.03608
788.068	22964.85844
788.257	22594.40074
788.445	22720.58774
788.634	22742.97716
788.823	22787.75726
789.012	22740.94174
789.201	22382.7629
789.39	22075.55126
789.579	22344.10251
789.768	22842.71693
789.957	22818.2901
790.145	22683.95142
790.334	22569.97902
790.523	22264.75111
790.712	21990.1168
790.9	21855.8762
791.089	21735.88742
791.278	21500.0169
791.467	21308.91957
791.655	21827.40307
791.844	21796.89698
792.033	22038.93568
792.221	21646.41307
792.41	22154.88921
792.599	21489.85126
792.787	22028.7649
792.976	21925.02837
793.164	21986.04866
793.353	21839.60574
793.541	21979.94647
793.73	21642.34623
793.918	22142.683
794.107	21837.57195
794.295	21685.04879
794.484	21357.70702
794.672	21258.10178
794.861	21603.71208
795.049	21605.74542
795.238	21038.59805
795.426	21262.16711
795.614	21162.57118
795.803	21357.70702
795.991	21402.43087
796.179	21508.14948
796.368	21123.95497
796.556	21130.05217
796.744	20874.00154
796.932	21392.26619
797.121	20886.19295
797.309	20768.34891
797.497	21008.11518
797.685	21107.69595
797.874	20886.19295
798.062	21073.14641
798.25	20347.88173
798.438	20888.22487
798.626	20658.64458
798.814	20620.0478
799.002	21016.24385
799.19	20733.81106
799.378	20459.58259
799.566	20386.46786
799.755	19805.80545
799.943	20280.8673
800.131	20256.49955
800.318	20191.52185
800.506	20286.95933
800.694	20297.1128
800.882	20609.891
801.07	20494.11087
801.258	20071.73051
801.446	20386.46786
801.634	20276.80597
801.822	20492.07976
802.01	20498.1731
802.197	20382.40609
802.385	20142.7914
802.573	20276.80597
802.761	20165.12589
802.949	20528.64037
803.136	20134.6699
803.324	20325.54308
803.512	20297.1128
803.699	20536.76513
803.887	20723.65309
804.075	20528.64037
804.262	20179.33901
804.45	20260.5608
804.638	19657.64947
804.825	19537.92326
805.013	19205.20095
805.201	19771.30138
805.388	20057.51894
805.576	20211.82692
805.763	20384.43697
805.951	20786.63414
806.138	20506.29761
806.326	20360.06666
806.513	20349.91254
806.701	20335.69694
806.888	20215.88799
807.075	20546.92118
807.263	20041.27741
807.45	20577.38995
807.638	20333.66616
807.825	20412.86977
808.012	20691.14831
808.2	20530.67155
808.387	20429.11746
808.574	20335.69694
808.761	20234.16298
808.949	20427.08648
809.136	20711.46367
809.323	20792.72929
809.51	20343.82011
809.698	20264.62207
809.885	20238.22414
810.072	20573.32739
810.259	20624.11055
810.446	20248.37711
810.633	20496.14199
810.82	20685.05378
811.008	20646.45596
811.195	20618.01643
811.382	20650.51882
811.569	20542.85875
811.756	19962.1038
811.943	20345.85092
812.13	20165.12589
812.317	20008.79516
812.504	19939.77394
812.691	20270.714
812.878	20664.73895
813.064	20634.26749
813.251	20737.87427
813.438	20648.48739
813.625	20595.67166
813.812	20701.30594
813.999	20382.40609
814.186	20278.83663
814.372	19799.71641
814.559	20043.30759
814.746	19712.44428
814.933	20110.30578
815.12	20195.58283
815.306	20047.36796
815.493	20138.73064
815.68	20274.77531
815.866	19868.72776
816.053	19931.65412
816.24	19643.4439
816.426	19639.38521
816.613	19590.68217
816.799	20276.80597
816.986	20000.67476
817.173	20313.35857
817.359	20360.06666
817.546	20211.82692
817.732	20130.60917
817.919	19984.43417
818.105	19418.21155
818.292	19318.80094
818.478	19576.47757
818.665	19982.40412
818.851	19641.41455
819.037	19600.82844
819.224	20079.85149
819.41	19929.62417
819.597	19521.69031
819.783	19949.92381
819.969	19815.95394
820.156	20144.82179
820.342	20116.39675
820.528	20025.03615
820.714	19436.47172
820.901	19801.74608
821.087	19763.18295
821.273	20039.24724
821.459	19629.23854
821.646	19740.85761
821.832	19562.27317
822.018	19840.31073
822.204	19312.7149
822.39	19590.68217
822.576	19472.99308
822.762	19310.68623
822.948	19024.68452
823.134	19290.39973
823.32	19182.88818
823.507	19300.54293
823.693	19018.60026
823.879	19004.40379
824.065	18667.80218
824.25	18775.25946
824.436	18767.14909
824.622	18769.17667
824.808	18823.92301
824.994	18444.81261
825.18	18084.07205
825.366	18517.78587
825.552	18047.59914
825.738	18377.9248
825.923	18134.7308
826.109	18667.80218
826.295	18345.49584
826.481	18722.54318
826.667	18750.92854
826.852	18805.67391
827.038	18797.5633
827.224	18702.2684
827.409	18752.95609
827.595	18771.20426
827.781	18554.27437
827.966	18850.28339
828.152	18534.00283
828.338	18317.12128
828.523	17842.96694
828.709	18523.8672
828.894	17978.70904
829.08	18355.62978
829.266	18096.22994
829.451	18272.53417
829.637	18124.59887
829.822	17972.6307
830.008	17822.70826
830.193	17654.57431
830.378	17844.99283
830.564	17867.27781
830.749	17875.38154
830.935	18274.56082
831.12	18142.83641
831.305	18165.12714
831.491	17857.14822
831.676	17940.21342
831.861	17561.40148
832.047	17757.88278
832.232	17705.21463
832.417	17498.61495
832.602	17213.07511
832.788	17458.10913
832.973	17273.82325
833.158	17763.96002
833.343	17587.73223
833.528	17921.97909
833.714	17818.65657
833.899	17818.65657
834.084	17814.60489
834.269	17972.6307
834.454	17462.15965
834.639	17470.26074
834.824	17409.5038
835.009	17421.65496
835.194	17283.9482
835.379	17496.58963
835.564	17383.17665
835.749	17537.09665
835.934	17565.45233
836.119	17032.8708
836.304	16959.98538
836.489	17207.00044
836.674	16919.49496
836.859	17332.54898
837.044	17150.30478
837.228	17235.34912
837.413	17119.93302
837.598	17545.19821
837.783	17081.46304
837.968	16937.71552
838.152	16834.46845
838.337	16662.40432
838.522	16686.69468
838.707	16759.56781
838.891	16619.89698
839.076	16381.06397
839.261	15915.61554
839.445	16257.61033
839.63	16041.07608
839.815	16154.40009
839.999	16004.6515
840.184	16231.30142
840.368	16130.11596
840.553	16482.26084
840.737	16377.0162
840.922	16381.06397
841.106	16170.58965
841.291	16328.44354
841.475	16164.51855
841.66	16587.5111
841.844	16482.26084
842.029	16158.44747
842.213	16150.35272
842.397	16148.32904
842.582	16053.21771
842.766	15950.01549
842.951	15808.37094
843.135	15818.48822
843.319	15887.28645
843.504	15784.0896
843.688	15464.39744
843.872	15500.81713
844.056	15834.67592
844.241	15935.85076
844.425	15579.72716
844.609	15739.57419
844.793	15504.86377
844.977	15883.23946
845.161	15597.93732
845.346	15753.73813
845.53	15616.14754
845.714	15881.21596
845.898	15571.63377
846.082	15219.5797
846.266	15104.25326
846.45	15029.39208
846.634	14859.43536
846.818	14762.31552
847.002	14818.96895
847.186	14914.06464
847.37	14903.94814
847.554	14962.62371
847.738	14895.85492
847.922	14962.62371
848.106	14778.50227
848.29	14879.66847
848.473	14669.24065
848.657	14598.42145
848.841	14891.80831
849.025	14774.45559
849.209	14561.99962
849.392	14800.75898
849.576	14418.3317
849.76	14547.83547
849.944	14499.27221
850.127	14776.47893
850.311	14776.47893
850.495	14999.04286
850.678	14843.24882
850.862	15282.3012
851.046	15033.43863
851.229	14869.55192
851.413	14663.17048
851.596	14748.15207
851.78	14305.01086
851.964	14608.53856
852.147	14387.97841
852.331	14321.19987
852.514	14345.48319
852.698	14013.58707
852.881	14193.70823
853.065	14234.18258
853.248	14505.34266
853.431	14329.29434
853.615	13902.26682
853.798	13956.91591
853.982	13511.56389
854.165	13552.05696
854.348	13278.69895
854.532	13284.77438
854.715	13384.00092
854.898	13855.71234
855.081	13732.2344
855.265	14009.5392
855.448	13705.91797
855.631	13776.7687
855.814	13373.87621
855.997	13408.29981
856.181	13462.97026
856.364	13529.78595
856.547	13592.5486
856.73	13384.00092
856.913	13284.77438
857.096	13319.20104
857.279	13086.28996
857.462	13076.16201
857.645	12863.44623
857.828	13179.46153
858.011	13179.46153
858.194	13009.31451
858.377	13019.44326
858.56	13471.06935
858.743	13005.26297
858.926	13055.90576
859.109	12677.01788
859.292	12982.97916
859.475	13041.72609
859.658	13078.18761
859.841	13009.31451
860.023	13232.11944
860.206	12500.67536
860.389	12559.46143
860.572	12204.6326
860.755	12447.96601
860.937	12190.43499
861.12	12381.05923
861.303	12468.23936
861.486	12379.03164
861.668	12127.55553
861.851	12622.29588
862.034	12413.49979
862.216	12508.7841
862.399	12336.45061
862.581	12226.94239
862.764	12157.98197
862.947	12103.21315
863.129	12137.69787
863.312	11681.09481
863.494	11703.42755
863.677	11821.16449
863.859	11650.63933
864.042	11317.5222
864.224	11689.21593
864.406	11612.05946
864.589	11532.85882
864.771	11735.90963
864.954	11589.72224
865.136	11788.68824
865.318	11735.90963
865.501	11705.45775
865.683	11746.05982
865.865	11784.62855
866.048	11829.28321
866.23	11492.23758
866.412	11234.20166
866.594	11423.17271
866.777	11252.49301
866.959	11093.93978
867.141	11163.06062
867.323	11388.63606
867.505	11053.27464
867.687	11187.45328
867.869	10933.2868
868.052	11467.86302
868.234	11146.798
868.416	11490.20642
868.598	11126.46877
868.78	11532.85882
868.962	11557.22975
869.144	11778.53896
869.326	11467.86302
869.508	11256.55764
869.69	11142.73224
869.872	11282.97674
870.054	11104.10538
870.236	11396.76259
870.417	11536.92073
870.599	11307.36208
870.781	11032.94043
870.963	11043.10767
871.145	10945.49073
871.327	11244.36363
871.508	10691.15609
871.69	11006.50432
871.872	10640.26686
872.054	11309.39412
872.235	10805.12064
872.417	11169.15893
872.599	11016.67228
872.78	11248.42834
872.962	10982.10009
873.144	11041.07425
873.325	10868.19225
873.507	11234.20166
873.689	10827.50217
873.87	10949.55862
874.052	11043.10767
874.233	10825.46754
874.415	10805.12064
874.596	10990.23501
874.778	10448.85383
874.959	10326.61602
875.141	10434.59518
875.322	10784.77256
875.503	10461.07504
875.685	10945.49073
875.866	10593.442
876.048	10436.63217
876.229	10357.17991
876.41	10654.51662
876.592	10530.31981
876.773	10713.54495
876.954	10226.753
877.136	10835.64056
877.317	10778.66791
877.498	11102.07228
877.679	10660.62347
877.86	11085.8071
878.042	10764.4233
878.223	10908.87771
878.404	10685.04979
878.585	10973.96499
878.766	10752.21318
878.947	10908.87771
879.128	10709.47435
879.309	10929.21873
879.49	10742.03775
879.672	10892.60408
879.853	10552.71938
880.034	10695.2269
880.215	10709.47435
880.396	10943.45677
880.576	10813.25954
880.757	11199.64904
880.938	10766.45828
881.119	11095.97292
881.3	10874.29536
881.481	10947.52468
881.662	10766.45828
881.843	10615.83732
882.023	10579.18965
882.204	10381.62888
882.385	10697.26229
882.566	10556.79187
882.747	10790.87711
882.927	10929.21873
883.108	10735.93234
883.289	10827.50217
883.469	10613.80144
883.65	10914.98014
883.831	10799.01634
884.011	10866.15785
884.192	10754.24823
884.373	10980.06633
884.553	11006.50432
884.734	10949.55862
884.914	10656.55225
885.095	11132.56766
885.275	10900.74099
885.456	11049.20789
885.636	10544.57426
885.817	10705.40371
885.997	10524.21056
886.178	10872.261
886.358	10697.26229
886.538	10914.98014
886.719	10632.12388
886.899	10715.58022
887.08	10788.84227
887.26	11083.7739
887.44	10941.4228
887.621	11158.99503
887.801	10823.4329
887.981	10971.93119
888.161	10689.12067
888.342	10577.15355
888.522	10397.92714
888.702	10953.62646
888.882	10992.26871
889.062	11289.07321
889.242	11150.86372
889.423	10961.76201
889.603	10839.70968
889.783	11061.40802
889.963	10902.77519
890.143	11317.5222
890.323	11047.17449
890.503	11217.94198
890.683	10906.84355
890.863	11106.13847
891.043	10825.46754
891.223	11108.17155
891.403	11020.73938
891.583	11161.02783
891.763	10666.73021
891.943	11049.20789
892.122	10715.58022
892.302	10831.57139
892.482	10589.36996
892.662	10656.55225
892.842	10296.04914
893.022	10642.30258
893.201	10524.21056
893.381	10898.70678
893.561	10723.72122
893.741	10886.50128
893.92	10973.96499
894.1	11313.45818
894.28	10829.53678
894.459	10933.2868
894.639	10762.38831
894.819	10585.29788
894.998	10560.86431
895.178	10522.17413
895.357	10259.36489
895.537	10379.59154
895.716	10591.40599
895.896	10634.15964
896.075	10357.17991
896.255	10499.77246
896.434	10324.57832
896.614	10424.41003
896.793	10063.64062
896.973	10247.13584
897.152	10173.75121
897.331	10540.50162
897.511	10306.23843
897.69	10041.20565
897.87	9922.88348
898.049	9973.89038
898.228	10141.1301
898.407	9973.89038
898.587	10135.01324
898.766	10206.36879
898.945	10022.84849
899.124	10106.46626
899.304	9937.16633
899.483	10322.54061
899.662	10128.89626
899.841	10304.2006
900.02	10073.83776
900.199	10414.22457
900.378	10151.32458
900.557	10165.59627
900.737	9810.636
900.916	10159.47991
901.095	9916.76205
901.274	9822.88336
901.453	9900.43756
901.632	9720.80541
901.811	9549.22802
901.989	9898.39694
902.168	9855.54037
902.347	10167.63502
902.526	9659.54035
902.705	9914.72154
902.884	9784.09819
903.063	9969.81016
903.242	9906.55935
903.42	9873.90827
903.599	9553.31448
903.778	9771.84911
903.957	9303.92273
904.135	9336.64368
904.314	9168.90359
904.493	9761.64113
904.672	9373.4497
904.85	9549.22802
905.029	9426.60458
905.207	9583.96091
905.386	9385.71719
905.565	9308.01308
905.743	9287.56067
905.922	9553.31448
906.1	9154.57906
906.279	9350.95777
906.457	9240.51377
906.636	9414.33904
906.814	9211.87219
906.993	9156.62547
907.171	9097.27254
907.35	8999.00126
907.528	8902.73812
907.707	9056.33105
907.885	8603.45368
908.063	8790.03966
908.242	8894.5437
908.42	8644.47473
908.598	8496.76379
908.777	9123.88081
908.955	9007.19207
909.133	9369.3604
909.311	8908.88374
909.49	9160.71825
909.668	8992.85797
909.846	8878.154
910.024	8311.98613
910.202	8589.09455
910.38	8400.28829
910.559	8272.95742
910.737	8112.65952
910.915	8322.25567
911.093	8326.36335
911.271	8291.44559
911.449	8240.08563
911.627	8133.2173
911.805	7962.52652
911.983	8283.22882
912.161	8087.98752
912.339	8441.34687
912.517	8102.37987
912.695	8186.65819
912.872	7886.3902
913.05	8299.66204
913.228	8137.32862
913.406	8272.95742
913.584	8071.53792
913.762	7892.56447
913.939	7445.47182
914.117	7647.50813
914.295	7494.96917
914.473	7595.98779
914.65	7655.75016
914.828	7633.08378
915.006	7740.21139
915.184	7752.5686
915.361	7534.14577
915.539	7723.73393
915.716	7121.36621
915.894	7503.21752
916.072	7484.65825
916.249	7346.43962
916.427	7268.00342
916.604	7362.94847
916.782	7249.42178
916.959	7410.40364
917.137	7410.40364
917.314	7583.62093
917.492	7065.57335
917.669	7224.64348
917.847	6856.7214
918.024	6902.23355
918.201	6945.66672
918.379	7228.77341
918.556	6726.33021
918.733	6999.42733
918.911	6680.77538
919.088	6792.57198
919.265	6666.27833
919.442	6802.92014
919.62	6386.47095
919.797	6591.70427
919.974	6579.27235
920.151	6827.75341
920.328	6537.82661
920.506	6691.12973
920.683	6450.7604
920.86	6400.98988
921.037	6326.30893
921.214	6367.80207
921.391	6224.61119
921.568	6093.77424
921.745	6056.37512
921.922	6438.31902
922.099	6170.62628
922.276	6442.46624
922.453	6081.30871
922.63	6471.49416
922.807	5919.17974
922.984	5919.17974
923.161	5738.1743
923.338	6093.77424
923.514	5786.04368
923.691	6247.44619
923.868	5819.33676
924.045	6050.14119
924.222	6035.59454
924.399	5811.01406
924.575	5723.60288
924.752	5677.79946
924.929	5298.44289
925.105	5619.48768
925.282	5569.49144
925.459	5756.90729
925.635	5684.04605
925.812	5860.94461
925.989	5340.1685
926.165	5290.09665
926.342	5152.32963
926.518	5365.19936
926.695	5252.53391
926.871	5110.56202
927.048	5102.20738
927.224	5288.01003
927.401	4987.29354
927.577	5162.77009
927.754	4989.3835
927.93	5177.38574
928.107	4736.3312
928.283	4742.60926
928.459	4568.84171
928.636	4916.22099
928.812	4608.63345
928.988	4792.82636
929.165	4384.43901
929.341	4870.21873
929.517	4541.61116
929.693	4845.12192
929.87	4361.37674
930.046	4617.00963
930.222	4256.51531
930.398	4451.51424
930.574	4206.16279
930.751	4363.47342
930.927	4176.78484
931.103	4568.84171
931.279	4214.55573
931.455	4355.08658
931.631	4092.8251
931.807	4155.79805
931.983	4042.43324
932.159	4332.02097
932.335	3897.49081
932.511	4176.78484
932.687	3971.02445
932.863	4126.41302
933.039	3855.46053
933.215	4281.68696
933.391	3924.80619
933.566	4061.33159
933.742	3653.60571
933.918	3849.1553
934.094	3455.78675
934.27	3474.73388
934.445	2931.03714
934.621	3449.47071
934.797	2956.34891
934.973	3251.48817
935.148	3030.16257
935.324	3162.9793
935.5	2846.64946
935.675	2871.96817
935.851	2711.58275
936.027	2762.23926
936.202	2616.58174
936.378	2720.02603
936.553	2284.94985
936.729	2210.98516
936.904	2158.14672
937.08	2206.75828
937.255	1997.48817
937.431	2096.84781
937.606	1925.60199
937.782	2215.21201
937.957	1828.33396
938.133	1921.37318
938.308	1709.90787
938.483	1709.90787
938.659	1487.83544
938.834	1576.66675
939.009	1274.21796
939.185	1339.7825
939.36	1236.14923
939.535	1278.44787
939.71	1121.94942
939.886	1384.19805
940.061	1134.63772
940.236	1269.98806
940.411	1105.03195
940.586	1261.52829
940.761	1050.05236
940.937	1130.40827
941.112	908.39304
941.287	1102.91728
941.462	971.81885
941.637	1020.4495
941.812	762.54173
941.987	855.54351
942.162	770.99567
942.337	838.63277
942.512	618.85129
942.687	751.97453
942.862	743.52096
943.037	705.48196
943.212	599.83753
943.386	737.18088
943.561	612.51326
943.736	601.95012
943.911	487.88959
944.086	625.18944
944.26	576.59991
944.435	680.12461
944.61	534.35382
944.785	675.89855
944.959	661.10768
945.134	604.06272
945.309	544.91483
945.483	678.01157
945.658	540.69038
945.833	555.47618
946.007	492.11332
946.182	597.72496
946.357	589.27478
946.531	637.86606
946.706	525.90526
946.88	639.97888
947.055	593.49984
947.229	578.71235
947.404	580.82481
947.578	585.04977
947.752	633.64047
947.927	713.93477
948.101	665.33358
948.276	790.01762
948.45	597.72496
948.624	756.20138
948.799	673.78553
948.973	639.97888
949.147	716.048
949.321	768.88217
949.496	629.41493
949.67	775.2227
949.844	722.38775
950.018	697.02933
950.193	578.71235
950.367	690.68998
950.541	593.49984
950.715	872.4548
950.889	620.96399
951.063	762.54173
951.237	787.90403
951.411	747.74772
951.585	656.88183
951.759	855.54351
951.933	688.57688
952.107	859.77128
952.281	709.70835
952.455	796.35845
952.629	593.49984
952.803	855.54351
952.977	699.14248
953.151	914.73532
953.325	673.78553
953.499	798.47207
953.672	766.76868
953.846	895.70869
954.02	798.47207
954.194	770.99567
954.368	720.27449
954.541	817.49515
954.715	802.69936
954.889	804.81301
955.062	804.81301
955.236	957.01892
955.41	699.14248
955.583	902.05083
955.757	762.54173
955.93	946.44774
956.104	720.27449
956.278	897.82273
956.451	720.27449
956.625	697.02933
956.798	713.93477
956.972	773.10918
957.145	692.80309
957.319	883.02463
957.492	709.70835
957.665	804.81301
957.839	885.13862
958.012	855.54351
958.185	705.48196
958.359	724.50103
958.532	694.9162
958.705	756.20138
958.879	732.95422
959.052	804.81301
959.225	604.06272
959.398	735.06755
959.572	758.31482
959.745	747.74772
959.918	728.7276
960.091	779.44977
960.264	754.08795
960.438	730.84091
960.611	697.02933
960.784	747.74772
960.957	678.01157
961.13	692.80309
961.303	646.31739
961.476	669.55954
961.649	604.06272
961.822	760.42827
961.995	589.27478
962.168	633.64047
962.341	496.33711
962.514	644.20454
962.686	620.96399
962.859	572.37505
963.032	513.23285
963.205	682.23766
963.378	652.65602
963.551	745.63433
963.723	542.8026
963.896	720.27449
964.069	572.37505
964.242	781.56332
964.414	483.66592
964.587	682.23766
964.76	506.89684
964.932	686.4638
965.105	555.47618
965.278	589.27478
965.45	502.6729
965.623	553.36388
965.795	551.2516
965.968	618.85129
966.14	563.92551
966.313	555.47618
966.485	555.47618
966.658	608.28796
966.83	460.4368
967.003	656.88183
967.175	521.68107
967.348	625.18944
967.52	464.66014
967.692	618.85129
967.865	468.88354
968.037	654.76892
968.209	551.2516
968.382	610.4006
968.554	582.93728
968.726	678.01157
968.898	544.91483
969.071	635.75326
969.243	424.5409
969.415	547.02707
969.587	466.77183
969.759	511.12083
969.932	386.5385
970.104	426.6523
970.276	443.54405
970.448	458.32515
970.62	409.76156
970.792	416.09547
970.964	344.31995
971.136	492.11332
971.308	426.6523
971.48	500.56096
971.652	528.01738
971.824	483.66592
971.996	390.76073
972.168	470.99526
972.339	424.5409
972.511	407.65029
972.683	344.31995
972.855	388.64961
973.027	460.4368
973.199	470.99526
973.37	375.98323
973.542	462.54846
973.714	470.99526
973.886	439.32102
974.057	325.32385
974.229	272.56455
974.401	348.54149
974.572	302.10835
974.744	316.8816
974.915	416.09547
975.087	314.77108
975.259	350.65229
975.43	295.77723
975.602	318.99213
975.773	327.43445
975.945	435.09805
976.116	367.53931
976.288	390.76073
976.459	293.6669
976.63	264.12413
976.802	245.1343
976.973	285.22573
977.145	234.58507
977.316	344.31995
977.487	333.76638
977.659	297.88759
977.83	230.36551
978.001	281.00526
978.172	245.1343
978.344	245.1343
978.515	274.6747
978.686	352.76311
978.857	188.1743
979.028	318.99213
979.2	253.57403
979.371	188.1743
979.542	304.21876
979.713	209.26891
979.884	181.84631
980.055	200.83082
980.226	281.00526
980.397	175.51851
980.568	207.15936
980.739	308.43963
980.91	183.95562
981.081	196.6119
981.252	249.35413
981.423	230.36551
981.594	207.15936
981.765	190.28367
981.936	179.73703
982.106	245.1343
982.277	198.72135
982.448	240.91455
982.619	97.49122
982.79	162.86346
982.96	137.55563
983.131	139.6645
983.302	177.62776
983.472	181.84631
983.643	194.50247
983.814	194.50247
983.984	154.42718
984.155	217.70731
984.326	116.46812
984.496	190.28367
984.667	112.25088
984.837	207.15936
985.008	139.6645
985.178	154.42718
985.349	131.22915
985.519	158.64528
985.69	148.10019
985.86	213.48807
986.031	173.40929
986.201	200.83082
986.371	131.22915
986.542	205.04983
986.712	120.68545
986.882	171.30008
987.053	124.90287
987.223	145.99124
987.393	209.26891
987.563	112.25088
987.734	91.16598
987.904	133.33796
988.074	179.73703
988.244	183.95562
988.414	186.06495
988.585	177.62776
988.755	72.19148
988.925	179.73703
989.095	158.64528
989.265	160.75436
989.435	99.59967
989.605	91.16598
989.775	97.49122
989.945	51.11085
990.115	95.38278
990.285	91.16598
990.455	112.25088
990.625	127.01161
990.795	86.94927
990.965	97.49122
991.134	137.55563
991.304	124.90287
991.474	129.12037
991.644	78.51611
991.814	141.77339
991.984	97.49122
992.153	97.49122
992.323	74.29967
992.493	57.4348
992.662	122.79415
992.832	72.19148
993.002	61.65088
993.171	179.73703
993.341	91.16598
993.511	70.08331
993.68	112.25088
993.85	27.92483
994.019	36.35578
994.189	78.51611
994.358	99.59967
994.528	89.05761
994.697	51.11085
994.867	82.73264
995.036	95.38278
995.206	95.38278
995.375	70.08331
995.544	74.29967
995.714	46.895
995.883	15.2791
996.052	99.59967
996.222	17.38667
996.391	36.35578
996.56	95.38278
996.73	61.65088
996.899	91.16598
997.068	70.08331
997.237	86.94927
997.406	44.78711
997.576	95.38278
997.745	53.21881
997.914	-14.22423
998.083	55.32679
998.252	112.25088
998.421	67.97517
998.59	27.92483
998.759	112.25088
998.928	-22.65289
999.097	78.51611
999.266	63.75895
999.435	67.97517
999.604	44.78711
999.773	78.51611
999.942	23.70949
1000.111	-26.86706
1000.28	53.21881
1000.448	53.21881
1000.617	38.46358
1000.786	-14.22423
1000.955	53.21881
1001.124	-18.43861
1001.292	57.4348
1001.461	19.49425
1001.63	120.68545
1001.798	-39.50901
1001.967	78.51611
1002.136	70.08331
1002.304	53.21881
1002.473	36.35578
1002.642	2.63424
1002.81	76.40788
1002.979	103.81665
1003.147	17.38667
1003.316	36.35578
1003.484	59.54283
1003.653	40.5714
1003.821	34.24801
1003.99	61.65088
1004.158	72.19148
1004.327	84.84094
1004.495	89.05761
1004.663	2.63424
1004.832	27.92483
1005	112.25088
1005.168	86.94927
1005.337	-12.11701
1005.505	44.78711
1005.673	2.63424
1005.842	-1.58052
1006.01	61.65088
1006.178	42.67924
1006.346	-41.61591
1006.514	27.92483
1006.683	53.21881
1006.851	-5.79519
1007.019	70.08331
1007.187	38.46358
1007.355	34.24801
1007.523	-20.54576
1007.691	13.17157
1007.859	53.21881
1008.027	23.70949
1008.195	11.06405
1008.363	44.78711
1008.531	11.06405
1008.699	32.14026
1008.867	-35.29512
1009.035	-26.86706
1009.203	-12.11701
1009.37	-22.65289
1009.538	17.38667
1009.706	-22.65289
1009.874	-1.58052
1010.042	53.21881
1010.209	11.06405
1010.377	53.21881
1010.545	44.78711
1010.713	-3.68787
1010.88	44.78711
1011.048	55.32679
1011.216	49.00291
1011.383	-31.08114
1011.551	-100.5989
1011.718	13.17157
1011.886	-14.22423
1012.054	36.35578
1012.221	32.14026
1012.389	61.65088
1012.556	-12.11701
1012.724	30.03253
1012.891	8.95656
1013.058	19.49425
1013.226	11.06405
1013.393	19.49425
1013.561	46.895
1013.728	21.60186
1013.895	-96.3865
1014.063	2.63424
1014.23	4.74166
1014.397	-18.43861
1014.565	49.00291
1014.732	21.60186
1014.899	-26.86706
1015.066	11.06405
1015.233	-43.72279
1015.401	21.60186
1015.568	-3.68787
1015.735	11.06405
1015.902	-31.08114
1016.069	-5.79519
1016.236	11.06405
1016.403	-52.15005
1016.57	55.32679
1016.737	40.5714
1016.904	36.35578
1017.071	-5.79519
1017.238	49.00291
1017.405	-31.08114
1017.572	49.00291
1017.739	-24.75999
1017.906	-26.86706
1018.073	65.86705
1018.24	15.2791
1018.407	95.38278
1018.573	-96.3865
1018.74	19.49425
1018.907	42.67924
1019.074	-60.57691
1019.241	-1.58052
1019.407	27.92483
1019.574	-71.10991
1019.741	27.92483
1019.907	4.74166
1020.074	27.92483
1020.241	-81.64228
1020.407	19.49425
1020.574	-77.42941
1020.74	11.06405
1020.907	-14.22423
1021.073	-26.86706
1021.24	21.60186
1021.406	-31.08114
1021.573	0.52684
1021.739	-3.68787
1021.906	-56.36353
1022.072	19.49425
1022.239	-1.58052
1022.405	78.51611
1022.571	-58.47023
1022.738	-56.36353
1022.904	61.65088
1023.07	55.32679
1023.237	53.21881
1023.403	-22.65289
1023.569	65.86705
1023.735	46.895
1023.902	-14.22423
1024.068	30.03253
1024.234	27.92483
1024.4	65.86705
1024.566	2.63424
1024.732	13.17157
1024.898	-3.68787
1025.065	55.32679
1025.231	30.03253
1025.397	-47.93647
1025.563	-52.15005
1025.729	-33.18815
1025.895	32.14026
1026.061	-20.54576
1026.227	27.92483
1026.392	-62.68356
1026.558	-12.11701
1026.724	-54.2568
1026.89	6.8491
1027.056	21.60186
1027.222	-22.65289
1027.388	-10.00976
1027.553	-22.65289
1027.719	-22.65289
1027.885	4.74166
1028.051	25.81715
1028.216	-64.79019
1028.382	2.63424
1028.548	-20.54576
1028.713	-62.68356
1028.879	38.46358
1029.045	-1.58052
1029.21	21.60186
1029.376	-31.08114
1029.541	-52.15005
1029.707	-90.0677
1029.873	2.63424
1030.038	27.92483
1030.204	21.60186
1030.369	44.78711
1030.534	-18.43861
1030.7	2.63424
1030.865	2.63424
1031.031	36.35578
1031.196	103.81665
1031.361	-66.89679
1031.527	11.06405
1031.692	30.03253
1031.857	-64.79019
1032.023	19.49425
1032.188	36.35578
1032.353	36.35578
1032.518	-22.65289
1032.684	6.8491
1032.849	19.49425
1033.014	-1.58052
1033.179	-22.65289
1033.344	-7.90249
1033.509	-22.65289
1033.674	15.2791
1033.839	-73.21644
1034.004	-31.08114
1034.17	-50.04327
1034.335	23.70949
1034.5	-3.68787
1034.664	2.63424
1034.829	19.49425
1034.994	4.74166
1035.159	4.74166
1035.324	-22.65289
1035.489	-20.54576
1035.654	23.70949
1035.819	-79.53586
1035.984	-3.68787
1036.148	-56.36353
1036.313	46.895
1036.478	-12.11701
1036.643	-14.22423
1036.807	53.21881
1036.972	46.895
1037.137	21.60186
1037.301	-1.58052
1037.466	-52.15005
1037.631	-5.79519
1037.795	53.21881
1037.96	-14.22423
1038.124	-98.49271
1038.289	-33.18815
1038.454	86.94927
1038.618	-52.15005
1038.783	-12.11701
1038.947	-66.89679
1039.111	36.35578
1039.276	67.97517
1039.44	-31.08114
1039.605	34.24801
1039.769	53.21881
1039.933	-31.08114
1040.098	2.63424
1040.262	-33.18815
1040.426	11.06405
1040.591	-1.58052
1040.755	-7.90249
1040.919	-31.08114
1041.083	2.63424
1041.248	-24.75999
1041.412	-12.11701
1041.576	23.70949
1041.74	2.63424
1041.904	-39.50901
1042.068	70.08331
1042.232	30.03253
1042.397	-43.72279
1042.561	2.63424
1042.725	-52.15005
1042.889	70.08331
1043.053	-10.00976
1043.217	11.06405
1043.381	57.4348
1043.544	-58.47023
1043.708	36.35578
1043.872	40.5714
1044.036	-71.10991
1044.2	-28.97412
1044.364	-31.08114
1044.528	-24.75999
1044.691	34.24801
1044.855	84.84094
1045.019	19.49425
1045.183	46.895
1045.346	25.81715
1045.51	-69.00336
1045.674	-35.29512
1045.837	19.49425
1046.001	-31.08114
1046.165	70.08331
1046.328	-54.2568
1046.492	11.06405
1046.655	-56.36353
1046.819	-28.97412
1046.983	-39.50901
1047.146	46.895
1047.31	17.38667
1047.473	46.895
1047.636	44.78711
1047.8	-3.68787
1047.963	4.74166
1048.127	-14.22423
1048.29	-20.54576
