Data from mixed_try1_USB4F045381__34__00259.txt Node

Date: Thu Apr 03 20:27:16 EDT 2025
User: mmckonesweet
Spectrometer: USB4F04538
Trigger mode: 4
Integration Time (sec): 2.700000E-3
Scans to average: 1
Electric dark correction enabled: true
Nonlinearity correction enabled: true
Boxcar width: 0
XAxis mode: Wavelengths
Number of Pixels in Spectrum: 3648
>>>>>Begin Spectral Data<<<<<
345.52	-8.60492
345.736	-8.60492
345.952	-8.60492
346.168	25.11459
346.384	71.48875
346.6	4.03918
346.816	4.03918
347.032	12.46906
347.248	31.43768
347.464	-67.59898
347.68	31.43768
347.896	-29.67646
348.112	33.54542
348.328	-23.35526
348.544	-12.81942
348.76	25.11459
348.975	-8.60492
349.191	-31.78348
349.407	73.59693
349.623	25.11459
349.839	-6.49763
350.055	8.25407
350.27	65.16435
350.486	41.97663
350.702	4.03918
350.918	-29.67646
351.133	-4.39031
351.349	37.76098
351.565	-4.39031
351.781	50.4082
351.996	14.57659
352.212	14.57659
352.428	50.4082
352.644	29.32996
352.859	46.19237
353.075	-27.56942
353.291	-29.67646
353.506	31.43768
353.722	29.32996
353.938	31.43768
354.153	23.00695
354.369	-6.49763
354.584	6.14661
354.8	-21.24814
355.016	-0.17561
355.231	-44.42508
355.447	-27.56942
355.662	71.48875
355.878	54.62413
356.093	33.54542
356.309	54.62413
356.524	39.86879
356.74	60.94819
356.955	-25.46235
357.171	-12.81942
357.386	37.76098
357.602	-0.17561
357.817	-6.49763
358.033	-63.38577
358.248	29.32996
358.464	-8.60492
358.679	23.00695
358.895	37.76098
359.11	12.46906
359.325	63.05626
359.541	23.00695
359.756	-19.141
359.972	-59.17246
360.187	-17.03383
360.402	12.46906
360.618	-38.10439
360.833	-4.39031
361.048	82.02988
361.264	-2.28298
361.479	25.11459
361.694	23.00695
361.909	-23.35526
362.125	29.32996
362.34	-2.28298
362.555	-103.40711
362.77	-46.53192
362.986	25.11459
363.201	71.48875
363.416	73.59693
363.631	-44.42508
363.847	35.65319
364.062	18.79172
364.277	-61.27913
364.492	37.76098
364.707	-0.17561
364.922	-50.74553
365.138	23.00695
365.353	-6.49763
365.568	101.00532
365.783	12.46906
365.998	-25.46235
366.213	-76.0251
366.428	82.02988
366.643	-2.28298
366.858	-38.10439
367.073	-33.89048
367.288	-12.81942
367.503	69.38059
367.718	-0.17561
367.933	-29.67646
368.148	-4.39031
368.363	25.11459
368.578	-8.60492
368.793	33.54542
369.008	-52.8523
369.223	-4.39031
369.438	46.19237
369.653	-42.31821
369.868	50.4082
370.083	65.16435
370.298	-38.10439
370.513	39.86879
370.728	46.19237
370.943	54.62413
371.157	-2.28298
371.372	23.00695
371.587	-88.66349
371.802	4.03918
372.017	6.14661
372.232	33.54542
372.446	-12.81942
372.661	-38.10439
372.876	56.73213
373.091	4.03918
373.306	-2.28298
373.52	29.32996
373.735	6.14661
373.95	54.62413
374.165	-2.28298
374.379	-21.24814
374.594	63.05626
374.809	-12.81942
375.023	-2.28298
375.238	29.32996
375.453	-19.141
375.667	16.68414
375.882	-12.81942
376.097	39.86879
376.311	41.97663
376.526	8.25407
376.741	-8.60492
376.955	-2.28298
377.17	52.51615
377.384	153.72418
377.599	8.25407
377.813	-54.95905
378.028	33.54542
378.242	79.92161
378.457	-6.49763
378.672	12.46906
378.886	67.27246
379.101	46.19237
379.315	98.89685
379.53	52.51615
379.744	58.84015
379.958	-2.28298
380.173	20.89932
380.387	113.65661
380.602	-44.42508
380.816	71.48875
381.031	-14.92664
381.245	37.76098
381.459	-4.39031
381.674	75.70514
381.888	20.89932
382.103	-38.10439
382.317	-21.24814
382.531	-4.39031
382.746	82.02988
382.96	33.54542
383.174	37.76098
383.388	90.46319
383.603	-25.46235
383.817	29.32996
384.031	39.86879
384.246	-10.71218
384.46	-52.8523
384.674	-38.10439
384.888	14.57659
385.103	41.97663
385.317	23.00695
385.531	-2.28298
385.745	-12.81942
385.959	-23.35526
386.174	31.43768
386.388	27.22227
386.602	-31.78348
386.816	14.57659
387.03	-17.03383
387.244	25.11459
387.458	20.89932
387.672	-19.141
387.887	10.36155
388.101	-61.27913
388.315	25.11459
388.529	33.54542
388.743	103.11382
388.957	37.76098
389.171	27.22227
389.385	12.46906
389.599	54.62413
389.813	56.73213
390.027	-4.39031
390.241	-0.17561
390.455	-12.81942
390.669	29.32996
390.883	37.76098
391.097	79.92161
391.311	98.89685
391.525	-12.81942
391.738	-12.81942
391.952	-27.56942
392.166	-63.38577
392.38	84.13817
392.594	-29.67646
392.808	46.19237
393.022	58.84015
393.236	-4.39031
393.449	-17.03383
393.663	29.32996
393.877	56.73213
394.091	31.43768
394.305	79.92161
394.518	-2.28298
394.732	-27.56942
394.946	65.16435
395.16	46.19237
395.373	25.11459
395.587	-86.55716
395.801	1.93177
396.015	20.89932
396.228	20.89932
396.442	63.05626
396.656	56.73213
396.869	54.62413
397.083	-10.71218
397.297	25.11459
397.51	29.32996
397.724	-14.92664
397.938	39.86879
398.151	16.68414
398.365	25.11459
398.578	23.00695
398.792	-10.71218
399.005	-8.60492
399.219	48.30027
399.433	16.68414
399.646	109.43943
399.86	-4.39031
400.073	71.48875
400.287	33.54542
400.5	-6.49763
400.714	25.11459
400.927	6.14661
401.141	12.46906
401.354	27.22227
401.567	4.03918
401.781	73.59693
401.994	8.25407
402.208	39.86879
402.421	-17.03383
402.635	-0.17561
402.848	-17.03383
403.061	63.05626
403.275	-27.56942
403.488	48.30027
403.701	4.03918
403.915	-21.24814
404.128	82.02988
404.341	52.51615
404.555	29.32996
404.768	-42.31821
404.981	58.84015
405.195	-17.03383
405.408	31.43768
405.621	73.59693
405.834	58.84015
406.048	20.89932
406.261	44.08449
406.474	31.43768
406.687	48.30027
406.9	-4.39031
407.114	23.00695
407.327	31.43768
407.54	-48.63874
407.753	39.86879
407.966	39.86879
408.179	4.03918
408.392	90.46319
408.605	-4.39031
408.819	79.92161
409.032	29.32996
409.245	14.57659
409.458	-54.95905
409.671	10.36155
409.884	31.43768
410.097	31.43768
410.31	14.57659
410.523	44.08449
410.736	-44.42508
410.949	4.03918
411.162	4.03918
411.375	8.25407
411.588	6.14661
411.801	67.27246
412.014	65.16435
412.227	71.48875
412.44	12.46906
412.653	-48.63874
412.865	12.46906
413.078	41.97663
413.291	58.84015
413.504	12.46906
413.717	46.19237
413.93	-33.89048
414.143	-10.71218
414.356	20.89932
414.568	-25.46235
414.781	82.02988
414.994	46.19237
415.207	-38.10439
415.42	46.19237
415.632	-19.141
415.845	50.4082
416.058	54.62413
416.271	75.70514
416.483	-2.28298
416.696	98.89685
416.909	54.62413
417.121	33.54542
417.334	-14.92664
417.547	14.57659
417.759	73.59693
417.972	-27.56942
418.185	23.00695
418.397	54.62413
418.61	12.46906
418.823	-54.95905
419.035	-38.10439
419.248	54.62413
419.46	-54.95905
419.673	-12.81942
419.885	6.14661
420.098	20.89932
420.311	60.94819
420.523	58.84015
420.736	25.11459
420.948	14.57659
421.161	33.54542
421.373	20.89932
421.586	77.81336
421.798	20.89932
422.01	88.35483
422.223	8.25407
422.435	-12.81942
422.648	14.57659
422.86	-33.89048
423.073	18.79172
423.285	31.43768
423.497	82.02988
423.71	-33.89048
423.922	14.57659
424.134	-4.39031
424.347	37.76098
424.559	1.93177
424.771	-14.92664
424.984	4.03918
425.196	58.84015
425.408	60.94819
425.621	31.43768
425.833	29.32996
426.045	50.4082
426.257	86.24649
426.47	-4.39031
426.682	71.48875
426.894	84.13817
427.106	58.84015
427.318	67.27246
427.531	-29.67646
427.743	-21.24814
427.955	48.30027
428.167	-46.53192
428.379	126.30869
428.591	-19.141
428.804	8.25407
429.016	31.43768
429.228	29.32996
429.44	37.76098
429.652	-29.67646
429.864	-2.28298
430.076	88.35483
430.288	12.46906
430.5	79.92161
430.712	71.48875
430.924	16.68414
431.136	-12.81942
431.348	90.46319
431.56	-4.39031
431.772	79.92161
431.984	12.46906
432.196	-59.17246
432.408	20.89932
432.62	-2.28298
432.832	-2.28298
433.044	23.00695
433.256	73.59693
433.468	50.4082
433.679	-6.49763
433.891	98.89685
434.103	37.76098
434.315	63.05626
434.527	4.03918
434.739	16.68414
434.95	8.25407
435.162	4.03918
435.374	67.27246
435.586	79.92161
435.798	71.48875
436.009	67.27246
436.221	-0.17561
436.433	96.7884
436.645	63.05626
436.856	63.05626
437.068	63.05626
437.28	46.19237
437.491	71.48875
437.703	58.84015
437.915	37.76098
438.126	-0.17561
438.338	48.30027
438.55	18.79172
438.761	6.14661
438.973	54.62413
439.184	31.43768
439.396	96.7884
439.608	60.94819
439.819	-21.24814
440.031	88.35483
440.242	71.48875
440.454	63.05626
440.665	82.02988
440.877	14.57659
441.088	18.79172
441.3	111.54801
441.511	29.32996
441.723	-8.60492
441.934	16.68414
442.146	92.57157
442.357	75.70514
442.569	77.81336
442.78	115.76524
442.991	18.79172
443.203	50.4082
443.414	88.35483
443.626	56.73213
443.837	71.48875
444.048	88.35483
444.26	54.62413
444.471	71.48875
444.682	170.59702
444.894	75.70514
445.105	107.33087
445.316	54.62413
445.528	96.7884
445.739	58.84015
445.95	58.84015
446.161	33.54542
446.373	90.46319
446.584	65.16435
446.795	75.70514
447.006	50.4082
447.217	90.46319
447.429	56.73213
447.64	63.05626
447.851	54.62413
448.062	39.86879
448.273	88.35483
448.484	46.19237
448.695	96.7884
448.907	29.32996
449.118	141.07043
449.329	92.57157
449.54	44.08449
449.751	8.25407
449.962	84.13817
450.173	63.05626
450.384	-12.81942
450.595	25.11459
450.806	25.11459
451.017	134.74384
451.228	67.27246
451.439	105.22233
451.65	71.48875
451.861	31.43768
452.072	109.43943
452.283	84.13817
452.494	117.87389
452.705	79.92161
452.915	132.63502
453.126	117.87389
453.337	117.87389
453.548	75.70514
453.759	65.16435
453.97	130.52622
454.181	63.05626
454.391	37.76098
454.602	20.89932
454.813	88.35483
455.024	132.63502
455.235	67.27246
455.445	134.74384
455.656	130.52622
455.867	98.89685
456.078	82.02988
456.288	94.67998
456.499	12.46906
456.71	147.39721
456.921	141.07043
457.131	90.46319
457.342	107.33087
457.553	88.35483
457.763	88.35483
457.974	126.30869
458.184	71.48875
458.395	134.74384
458.606	143.17933
458.816	96.7884
459.027	58.84015
459.237	69.38059
459.448	73.59693
459.659	56.73213
459.869	124.19996
460.08	151.61516
460.29	111.54801
460.501	58.84015
460.711	117.87389
460.922	119.98255
461.132	219.11374
461.343	98.89685
461.553	44.08449
461.764	160.05133
461.974	128.41744
462.184	176.92467
462.395	126.30869
462.605	149.50617
462.816	115.76524
463.026	88.35483
463.236	157.94226
463.447	147.39721
463.657	115.76524
463.867	179.03394
464.078	198.0182
464.288	160.05133
464.498	191.68993
464.709	181.14322
464.919	181.14322
465.129	206.45618
465.339	200.12766
465.55	208.56572
465.76	130.52622
465.97	225.4428
466.18	122.09124
466.391	273.97131
466.601	235.99161
466.811	257.09068
467.021	223.33309
467.231	301.40489
467.441	244.431
467.651	185.36184
467.862	217.0041
468.072	341.50562
468.282	301.40489
468.492	295.07378
468.702	292.96345
468.912	362.61382
469.122	286.63257
469.332	305.62571
469.542	381.61266
469.752	276.08147
469.962	316.17809
470.172	354.17033
470.382	364.72473
470.592	381.61266
470.802	392.16815
471.012	455.50964
471.222	396.39047
471.432	457.62127
471.642	417.50302
471.852	476.6266
472.062	434.39422
472.272	527.31334
472.482	466.06793
472.691	594.90821
472.901	529.42547
473.111	548.43524
473.321	529.42547
473.531	689.98561
473.741	628.71068
473.95	696.32496
474.16	637.1618
474.37	664.62926
474.58	658.29044
474.79	890.77596
474.999	780.85881
475.209	696.32496
475.419	791.42669
475.628	873.8641
475.838	791.42669
476.048	875.97805
476.258	882.31996
476.467	949.97145
476.677	1030.31699
476.886	1129.70336
477.096	1110.67107
477.306	1028.20252
477.515	1026.08805
477.725	1119.12982
477.935	1121.24452
478.144	1279.85784
478.354	1180.45784
478.563	1290.43267
478.773	1279.85784
478.982	1339.07749
479.192	1423.67889
479.401	1271.39803
479.611	1315.81245
479.82	1389.83816
480.03	1444.8294
480.239	1550.58156
480.449	1419.44879
480.658	1675.36484
480.868	1592.88174
481.077	1679.59464
481.287	1669.02012
481.496	1905.86734
481.705	1694.39885
481.915	1990.44082
482.124	1863.57724
482.333	1948.15526
482.543	2020.03921
482.752	2210.28068
482.961	2089.80154
483.171	2263.11381
483.38	2189.14591
483.589	2142.64647
483.799	2320.16717
484.008	2277.90607
484.217	2332.84475
484.426	2364.53715
484.636	2239.86792
484.845	2522.96385
485.054	2402.56503
485.263	2463.82502
485.472	2569.42377
485.682	2531.41152
485.891	2632.7689
486.1	2687.659
486.309	2598.98619
486.518	2854.38595
486.727	2725.65477
486.936	2989.3916
487.146	2938.77152
487.355	2970.41008
487.564	2953.5366
487.773	3248.67881
487.982	3164.38443
488.191	3349.79657
488.4	3042.1116
488.609	3383.49366
488.818	3257.10679
489.027	3265.53449
489.236	3276.06875
489.445	3490.87288
489.654	3354.00895
489.863	3471.92699
490.072	3450.87429
490.281	3713.90051
490.49	3524.55081
490.698	3821.12989
490.907	3682.35287
491.116	3922.00477
491.325	3924.10584
491.534	3747.54656
491.743	3898.89168
491.952	3932.50991
492.16	3913.60029
492.369	4142.50533
492.578	3922.00477
492.787	4155.09846
492.996	4308.25368
493.204	4278.89026
493.413	4077.42886
493.622	4467.58101
493.831	4299.86456
494.039	4524.15371
494.248	4350.19409
494.457	4385.83664
494.665	4341.8067
494.874	4421.47289
495.083	4499.01227
495.291	4538.81807
495.5	4595.37043
495.709	4733.54089
495.917	4543.00769
496.126	4710.51929
496.335	4867.43036
496.543	4829.78336
496.752	4756.55976
496.96	4783.76035
497.169	4836.05838
497.377	4976.14666
497.586	4999.13638
497.794	5078.53389
498.003	4974.05655
498.211	5316.52514
498.42	5003.31602
498.628	5253.92526
498.837	5262.27313
499.045	5383.27511
499.254	5139.10423
499.462	5314.43882
499.671	5349.90313
499.879	5495.86116
500.087	5199.65501
500.296	5495.86116
500.504	5487.5238
500.713	5645.86911
500.921	5456.25537
501.129	5622.95914
501.338	5566.71347
501.546	5685.43416
501.754	5612.54457
501.962	5797.83567
502.171	5622.95914
502.379	5980.86107
502.587	5895.6106
502.795	5837.36798
503.004	5820.72384
503.212	5914.32751
503.42	5845.68949
503.628	6103.46906
503.837	5939.28043
504.045	6080.61616
504.253	5937.20115
504.461	6124.24196
504.669	6045.29244
504.877	6252.98152
505.085	6147.08943
505.294	6317.31751
505.502	6219.76704
505.71	6350.5144
505.918	6232.22317
506.126	6354.66359
506.334	6223.91917
506.542	6671.80115
506.75	6325.61729
506.958	6752.55371
507.166	6526.77285
507.374	6586.86973
507.582	6271.66202
507.79	6655.23221
507.998	6543.35324
508.206	6597.2293
508.414	6626.23301
508.622	6657.30341
508.83	6503.97239
509.037	6785.67289
509.245	6634.51896
509.453	6934.63702
509.661	6754.62383
509.869	6926.36432
510.077	6824.99432
510.285	6953.24927
510.492	6866.37641
510.7	6959.45294
510.908	6837.4099
511.116	6973.9274
511.324	6944.97738
511.531	7174.38881
511.739	6858.10072
511.947	6982.19802
512.155	7104.14793
512.362	7221.89013
512.57	7025.61288
512.778	7308.60155
512.985	7271.44427
513.193	7261.12154
513.401	7345.75172
513.608	7496.34392
513.816	7316.85775
514.024	7279.70206
514.231	7263.18613
514.439	7498.40603
514.646	7362.26063
514.854	7650.94235
515.061	7304.47331
515.269	7560.2592
515.477	7780.71276
515.684	7545.82852
515.892	7568.50483
516.099	7560.2592
516.307	7545.82852
516.514	8017.38216
516.722	7688.02815
516.929	7811.5982
517.136	7683.90784
517.344	7830.12721
517.551	7867.18019
517.759	8042.06247
517.966	7908.3423
518.173	7867.18019
518.381	7848.65454
518.588	8146.92138
518.796	8064.68353
519.003	8173.64178
519.21	7799.24459
519.418	8021.49575
519.625	7920.68932
519.832	8144.86582
520.039	8372.91161
520.247	8206.5238
520.454	8471.45161
520.661	8690.95625
520.868	8268.16393
521.076	8582.25654
521.283	8459.13653
521.49	8543.27592
521.697	8483.76601
521.904	8580.2051
522.112	8518.65306
522.319	8760.66076
522.526	8625.3325
522.733	8639.68932
522.94	8555.58632
523.147	8506.34061
523.354	8368.80481
523.561	8867.2269
523.768	8953.26407
523.975	8918.44329
524.183	8891.81216
524.39	9088.40247
524.597	9002.41413
524.804	9024.93786
525.011	8959.40839
525.218	8914.34639
525.425	9029.03286
525.632	9129.33856
525.838	9274.60661
526.045	9288.92421
526.252	8977.84037
526.459	9178.45281
526.666	9137.52495
526.873	9472.93578
527.08	9186.63757
527.287	9448.40853
527.494	9153.89692
527.701	9419.79046
527.907	9374.81278
528.114	9603.70895
528.321	9290.96952
528.528	9489.28599
528.735	9532.20043
528.941	9613.92288
529.148	9211.1902
529.355	9838.53199
529.562	9303.241
529.768	9648.64733
529.975	9499.50435
530.182	9946.68783
530.388	9601.66612
530.595	9771.16859
530.802	9595.53753
531.008	10058.88183
531.215	9942.60723
531.422	10034.40684
531.628	10050.72373
531.835	9889.55405
532.042	10020.12881
532.248	10213.84316
532.455	9979.33058
532.661	10321.86137
532.868	10011.96962
533.074	10126.17756
533.281	10107.8257
533.487	10183.26504
533.694	10199.57375
533.9	10291.29402
534.107	10189.38091
534.313	10775.95469
534.52	10391.1363
534.726	10354.46324
534.933	10643.65972
535.139	10568.33031
535.345	10568.33031
535.552	10270.91411
535.758	10710.83122
535.965	10704.72527
536.171	10721.00757
536.377	10898.0287
536.584	10723.04281
536.79	10926.50666
536.996	10775.95469
537.203	10684.3713
537.409	10482.80047
537.615	10741.35937
537.821	10651.80242
538.028	11103.42769
538.234	10810.54659
538.44	10950.91457
538.646	10655.8737
538.853	11068.86346
539.059	10757.63995
539.265	11268.07387
539.471	10873.61724
539.677	10855.30756
539.883	10936.67682
540.09	11278.23498
540.296	11129.85705
540.502	11428.58997
540.708	11249.78324
540.914	11264.00936
541.12	11383.89552
541.326	11562.64533
541.532	11463.12336
541.738	11725.08252
541.944	11542.33656
542.15	11615.44379
542.356	11603.26008
542.562	11623.56608
542.768	11607.32136
542.974	12074.1361
543.18	11357.48292
543.386	11668.23607
543.592	11649.96251
543.798	11834.69561
544.004	11698.6904
544.21	12049.7913
544.415	11757.5631
544.621	12078.19346
544.827	11883.40457
545.033	12396.60388
545.239	12193.81541
545.445	12307.38563
545.651	11765.6829
545.856	12153.24908
546.062	12145.13546
546.268	11822.51762
546.474	12088.33672
546.679	11846.87331
546.885	11974.72105
547.091	11806.27981
547.297	11891.52227
547.502	12297.24634
547.708	12181.64582
547.914	12274.93928
548.119	12390.52124
548.325	12546.62355
548.531	12327.66368
548.736	12528.37981
548.942	12303.32993
549.147	12372.27295
549.353	12556.75874
549.559	12325.6359
549.764	12704.71502
549.97	12605.40548
550.175	12540.54236
550.381	12911.39666
550.586	12633.78111
550.792	12619.59345
550.997	12587.16337
551.203	13010.66502
551.408	12712.82129
551.614	12925.57861
551.819	12826.29944
552.025	12862.77085
552.23	12864.79698
552.435	12974.20052
552.641	13213.21695
552.846	12945.8381
553.052	12978.25221
553.257	12812.11564
553.462	13142.32912
553.668	13059.28183
553.873	13101.81924
554.078	13306.37556
554.283	13261.82258
554.489	13547.33284
554.694	13271.94844
554.899	13209.16636
555.105	13099.7937
555.31	13292.19984
555.515	13186.88783
555.72	13595.92284
555.925	13154.48171
556.131	13537.20967
556.336	13545.30821
556.541	13670.82856
556.746	13658.68199
556.951	13682.975
557.156	13488.61716
557.361	13715.36495
557.567	13770.02118
557.772	13784.19094
557.977	13490.64189
558.182	13571.62809
558.387	13753.82697
558.592	13701.19445
558.797	13668.80414
559.002	13980.52913
559.207	13699.17008
559.412	13984.57708
559.617	13873.25478
559.822	13790.26366
560.027	13601.99645
560.232	13743.7055
560.437	14142.43955
560.642	14095.89181
560.847	14081.72488
561.051	14075.6533
561.256	13958.26525
561.461	14031.12775
561.666	13857.06176
561.871	14358.97381
562.076	14263.86328
562.281	14223.38949
562.485	14108.03481
562.69	14326.59619
562.895	13972.43321
563.1	13972.43321
563.305	14174.81992
563.509	14006.84061
563.714	14093.86797
563.919	14231.48431
564.123	14178.86743
564.328	14286.12354
564.533	14124.22536
564.737	14083.74873
564.942	14439.91607
565.147	14800.08453
565.351	14437.89254
565.556	14304.33632
565.761	14401.4688
565.965	14532.99678
566.17	14502.64469
566.374	14439.91607
566.579	14456.10423
566.784	14537.0437
566.988	14348.85585
567.193	14597.74697
567.397	14707.01039
567.602	14850.66766
567.806	14464.19827
568.011	14765.68776
568.215	14646.30886
568.42	14759.61772
568.624	14753.54767
568.828	15002.415
569.033	14686.77664
569.237	15192.60275
569.442	14800.08453
569.646	14391.35101
569.85	14688.80002
570.055	15012.53141
570.259	14941.71636
570.463	15148.0908
570.668	15105.6021
570.872	15127.85809
571.076	15220.92855
571.281	14739.3842
571.485	15326.13892
571.689	15131.90463
571.893	14862.80755
572.098	15277.58022
572.302	15196.64929
572.506	15200.69584
572.71	15336.25534
572.914	15279.6035
573.119	15097.50901
573.323	15255.32419
573.527	15150.11407
573.731	15508.23598
573.935	15378.74438
574.139	14943.73966
574.343	15208.78892
574.547	15263.41729
574.751	15447.53653
574.955	15886.61195
575.159	15637.7301
575.364	15686.29123
575.568	15382.79096
575.772	15473.83956
575.976	15558.81927
576.18	15637.7301
576.383	15597.26286
576.587	15724.73583
576.791	15552.74925
576.995	15868.40053
577.199	15459.67638
577.403	15771.2745
577.607	15623.56653
577.811	16024.21279
578.015	15852.21267
578.219	15953.38806
578.422	15838.04836
578.626	15965.52932
578.83	15971.59997
579.034	15787.462
579.238	15736.8763
579.442	16137.53609
579.645	15981.71775
579.849	16254.91197
580.053	16220.5081
580.257	16048.49596
580.46	16046.47235
580.664	16190.15216
580.868	16167.89138
581.071	16382.41323
581.275	16348.00739
581.479	16471.46626
581.682	16200.27076
581.886	16062.66124
582.09	16159.7966
582.293	16341.93583
582.497	16520.04232
582.7	16088.96838
582.904	16418.84355
583.107	16548.37891
583.311	16232.65058
583.515	16315.62593
583.718	16426.93926
583.922	16161.82029
584.125	16556.47516
584.329	16613.14987
584.532	16283.24495
584.735	16416.81962
584.939	16499.80215
585.142	16552.42703
585.346	16331.8166
585.549	16406.70004
585.753	16410.74786
585.956	16811.52555
586.159	16803.42814
586.363	16920.84463
586.566	16651.60871
586.769	16736.62594
586.973	16483.61017
587.176	16756.86875
587.379	16702.2137
587.582	16969.43329
587.786	17131.40672
587.989	17099.01063
588.192	16896.55086
588.395	16945.13877
588.599	17194.17623
588.802	17271.12327
589.005	17090.91171
589.208	17362.25032
589.411	17323.77371
589.615	17299.47326
589.818	17139.50586
590.021	17285.29819
590.224	17309.5984
590.427	17212.40015
590.63	17096.98589
590.833	17354.14989
591.036	17352.12479
591.239	17945.61624
591.442	17242.77387
591.645	17212.40015
591.848	17396.67769
592.051	17603.26088
592.254	17514.14251
592.457	17854.44701
592.66	17657.95027
592.863	17894.9658
593.066	17341.99934
593.269	17536.42152
593.472	17254.92354
593.675	17518.19321
593.878	17789.61982
594.081	18061.10749
594.284	17899.01775
594.486	17755.1818
594.689	17967.90313
594.892	17978.03367
595.095	17747.07887
595.298	17988.1643
595.5	17647.82242
595.703	18292.12525
595.906	17864.57658
596.109	18083.39661
596.311	18057.05497
596.514	18247.53915
596.717	18401.57154
596.92	18646.85268
597.122	17925.3558
597.325	18241.45937
597.528	18178.63689
597.73	18521.16439
597.933	18324.55264
598.136	18659.01685
598.338	18450.21787
598.541	18811.08102
598.743	18395.4909
598.946	18237.4062
599.148	18354.95418
599.351	18521.16439
599.554	18423.8675
599.756	18431.97524
599.959	18434.00218
600.161	18703.62004
600.363	18421.84058
600.566	18462.3798
600.768	18429.9483
600.971	18638.7433
601.173	18318.47243
601.376	18786.74926
601.578	18482.64998
601.78	19145.70133
601.983	18561.70737
602.185	18867.85735
602.388	18717.81237
602.59	18669.15377
602.792	18389.4103
602.995	18539.40854
603.197	18523.1915
603.399	18756.33536
603.601	18691.45535
603.804	19005.75582
604.006	18800.94271
604.208	18782.69402
604.41	18869.88514
604.613	18863.8018
604.815	18640.77064
605.017	19021.9804
605.219	18573.87056
605.421	18476.56889
605.623	18936.80426
605.826	19088.90951
606.028	18987.50349
606.23	18946.94391
606.432	18630.63399
606.634	19216.6956
606.836	18484.67702
607.038	19255.23745
607.24	18721.86735
607.442	19218.72408
607.644	18924.63683
607.846	19076.74025
608.048	18831.35792
608.25	18772.55599
608.452	19080.79666
608.654	19214.66712
608.856	19196.41101
609.058	18995.6156
609.26	19028.06468
609.462	19232.92357
609.664	19149.75801
609.866	19017.92423
610.067	18930.72053
610.269	19119.3333
610.471	18770.5284
610.673	19084.85308
610.875	18896.2467
611.077	19121.36159
611.278	18942.88804
611.48	19348.55546
611.682	19389.13123
611.884	19482.4618
612.085	19149.75801
612.287	19109.19194
612.489	19058.48664
612.69	19090.93774
612.892	19212.63865
613.094	19291.75215
613.295	19174.09843
613.497	19480.43278
613.699	19080.79666
613.9	19468.25875
614.102	19040.23335
614.304	19234.95208
614.505	19228.86655
614.707	19490.57791
614.908	18950.99979
615.11	19368.84314
615.311	19257.26601
615.513	19182.21204
615.714	19159.89978
615.916	18936.80426
616.117	18904.35808
616.319	19502.75221
616.52	19210.61018
616.722	19307.98134
616.923	19381.01594
617.124	19421.59304
617.326	18928.69262
617.527	19456.08488
617.729	19139.61634
617.93	19699.5909
618.131	19472.31674
618.333	19596.0935
618.534	19594.06425
618.735	19212.63865
618.937	19516.95575
619.138	19533.18862
619.339	19044.28961
619.54	19610.29838
619.742	19340.4405
619.943	19736.122
620.144	19561.59678
620.345	19813.24766
620.546	19352.61296
620.748	19516.95575
620.949	19529.13038
621.15	19527.10126
621.351	19214.66712
621.552	19411.44861
621.753	19202.49634
621.954	19709.7383
622.155	18999.67167
622.356	19460.14282
622.558	19484.49082
622.759	19452.02695
622.96	19364.78557
623.161	19431.73757
623.362	19121.36159
623.563	19853.84255
623.764	19287.6949
623.965	20164.44908
624.166	19387.1024
624.366	19715.82678
624.567	19675.2376
624.768	19543.3343
624.969	19518.98485
625.17	19748.29933
625.371	19650.88489
625.572	19441.88221
625.773	19622.47416
625.973	19760.47682
626.174	19857.90213
626.375	19454.05591
626.576	19419.56414
626.777	19695.53198
626.977	19456.08488
627.178	19849.78299
627.379	19654.94363
627.58	19364.78557
627.78	19360.72801
627.981	19391.16006
628.182	19652.91426
628.382	19585.94728
628.583	19898.49887
628.784	19941.12725
628.984	19504.78128
629.185	19583.91805
629.386	19395.21774
629.586	19884.28982
629.787	19819.33679
629.987	19695.53198
630.188	20172.57083
630.388	20091.35633
630.589	19717.85628
630.79	20048.72141
630.99	19636.67942
631.191	19819.33679
631.391	19845.72344
631.591	19803.0992
631.792	19514.92666
631.992	20008.11846
632.193	20101.50778
632.393	19866.02134
632.594	19758.44723
632.794	19797.01018
632.994	19831.51515
633.195	20404.06906
633.395	19504.78128
633.595	20002.02816
633.796	19833.5449
633.996	20397.9763
634.196	19947.21717
634.397	20245.66964
634.597	19900.52875
634.797	20330.95846
634.997	20111.65933
635.198	19965.48716
635.398	20278.15974
635.598	20432.50243
635.798	20253.79206
635.998	20261.91456
636.199	19997.96798
636.399	20235.5167
636.599	19833.5449
636.799	19853.84255
636.999	19910.67822
637.199	20190.84502
637.399	19993.90782
637.599	20050.75161
637.799	19537.24688
637.999	20259.88393
638.199	20280.19041
638.399	20192.87551
638.599	20117.75031
638.799	20237.54728
638.999	20229.42499
639.199	20375.63651
639.399	20227.39443
639.599	20546.2441
639.799	20054.812
639.999	20290.34381
640.199	20172.57083
640.399	20213.18061
640.599	19622.47416
640.799	20491.40273
640.998	20467.02976
641.198	20326.89692
641.398	20521.86978
641.598	20278.15974
641.798	20349.2356
641.997	19928.94752
642.197	20105.56838
642.397	20359.38971
642.597	20213.18061
642.796	20383.76001
642.996	20174.60128
643.196	20627.49618
643.395	20613.27659
643.595	20881.45183
643.795	20584.83801
643.994	20930.21871
644.194	20635.62176
644.394	20552.33778
644.593	20534.05687
644.793	20873.32425
644.992	20966.79543
645.192	20850.97373
645.392	20700.62876
645.591	20690.47113
645.791	20304.55875
645.99	20454.8435
646.19	20349.2356
646.389	20972.89168
646.589	20397.9763
646.788	20846.91006
646.987	20288.31312
647.187	20456.87454
647.386	20174.60128
647.586	20326.89692
647.785	20550.30655
647.984	20560.46274
648.184	20471.09188
648.383	20653.90455
648.582	20775.79841
648.782	20946.47487
648.981	20751.41844
649.18	20499.52718
649.38	20637.65316
649.579	21074.50127
649.778	20662.03034
649.977	20836.75094
650.177	20548.27532
650.376	20639.68457
650.575	20300.49731
650.774	20775.79841
650.973	20798.14724
651.173	20773.76672
651.372	20678.28212
651.571	20940.37878
651.77	20771.73504
651.969	21174.08858
652.168	20544.21289
652.367	21056.21079
652.566	20722.9759
652.765	20889.57948
652.964	20875.35614
653.163	21184.2511
653.362	20844.87823
653.561	20607.18254
653.76	20599.0572
653.959	20779.8618
654.158	20968.82751
654.357	20536.08806
654.556	20523.90095
654.755	21131.40711
654.954	21050.11404
655.153	21265.5549
655.352	21212.70669
655.551	21302.14372
655.749	21167.99112
655.948	21206.609
656.147	21367.19373
656.346	20918.02677
656.545	21346.86516
656.743	21003.37348
656.942	21379.39107
657.141	21064.33985
657.34	20771.73504
657.538	20838.78276
657.737	21135.47193
657.936	21165.95864
658.135	21098.8891
658.333	21346.86516
658.532	21287.91458
658.731	21265.5549
658.929	21363.12799
659.128	20909.89889
659.326	20930.21871
659.525	21442.41293
659.724	21054.17854
659.922	21218.80442
660.121	21066.37213
660.319	20960.69922
660.518	20879.41993
660.716	21025.72739
660.915	21348.898
661.113	21123.27751
661.312	21141.5692
661.51	21403.78617
661.709	21100.92144
661.907	21167.99112
662.105	21096.85676
662.304	21180.18608
662.502	21029.79179
662.701	21308.24199
662.899	20757.51338
663.097	21115.14797
663.296	20972.89168
663.494	21446.47899
663.692	21354.99654
663.891	21251.32627
664.089	21302.14372
664.287	21308.24199
664.485	21328.56979
664.684	21720.9745
664.882	21107.0185
665.08	21324.5042
665.278	21415.98394
665.476	21550.16884
665.675	21529.83668
665.873	21501.37233
666.071	21281.81644
666.269	21230.99999
666.467	20985.08429
666.665	21312.30752
666.863	20804.24246
667.061	21418.01691
667.259	21269.62026
667.457	21495.27292
667.655	21367.19373
667.853	21068.40441
668.051	21027.75959
668.249	20930.21871
668.447	21011.50212
668.645	21298.07823
668.843	21566.43485
669.041	21226.93479
669.239	20836.75094
669.437	21133.43952
669.635	21336.70103
669.833	21200.51134
670.031	21068.40441
670.229	21113.1156
670.426	21054.17854
670.624	21086.69511
670.822	21139.53677
671.02	21576.60123
671.218	21241.16308
671.415	21415.98394
671.613	21192.38119
671.811	21208.64156
672.009	21025.72739
672.206	20926.15472
672.404	20810.33772
672.602	21021.66301
672.799	20670.1562
672.997	21180.18608
673.195	20792.05205
673.392	20806.27421
673.59	21129.3747
673.788	21029.79179
673.985	20590.93192
674.183	20981.02007
674.38	20682.34511
674.578	21090.75976
674.775	20934.28273
674.973	20787.98862
675.17	20491.40273
675.368	20741.2603
675.565	20757.51338
675.763	20934.28273
675.96	20712.81805
676.158	20574.68157
676.355	20404.06906
676.553	21145.63407
676.75	20753.45008
676.947	20771.73504
677.145	20838.78276
677.342	21078.56587
677.539	20631.55896
677.737	21143.60163
677.934	20588.90061
678.131	20365.48223
678.329	20430.47144
678.526	20560.46274
678.723	20765.64002
678.92	21237.09783
679.118	20773.76672
679.315	20838.78276
679.512	20826.59193
679.709	20932.25072
679.906	20493.43384
680.104	20861.133
680.301	20532.02568
680.498	20418.28564
680.695	20312.68166
680.892	20418.28564
681.089	20659.99888
681.286	21096.85676
681.483	20487.34052
681.68	20727.03907
681.877	20562.49399
682.075	20432.50243
682.272	20209.11955
682.469	20406.09999
682.665	20546.2441
682.862	19866.02134
683.059	20211.15008
683.256	20304.55875
683.453	20406.09999
683.65	20276.12908
683.847	20627.49618
684.044	20586.86931
684.241	20125.87167
684.438	20487.34052
684.635	19969.5472
684.831	20357.35888
685.028	20146.17538
685.225	20666.09326
685.422	20326.89692
685.619	20621.40205
685.815	20377.66738
686.012	20761.57669
686.209	20231.45555
686.405	20554.36901
686.602	20172.57083
686.799	19780.77296
686.996	19575.80116
687.192	19770.62484
687.389	19531.1595
687.586	19809.18827
687.782	20119.78064
687.979	20184.75359
688.175	19943.15722
688.372	20172.57083
688.568	19979.69739
688.765	20209.11955
688.962	19981.72743
689.158	20103.53808
689.355	19861.96173
689.551	19872.1108
689.748	19784.83224
689.944	20042.63086
690.14	19999.99807
690.337	19955.33712
690.533	19659.00239
690.73	19470.28775
690.926	19705.67933
691.123	19679.29644
691.319	19821.36651
691.515	20069.02353
691.712	19790.92119
691.908	20028.41972
692.104	19786.86189
692.301	19571.74275
692.497	19579.8596
692.693	19537.24688
692.889	19527.10126
693.086	19612.32767
693.282	19752.35848
693.478	19561.59678
693.674	19592.035
693.87	19951.27714
694.067	19464.20078
694.263	20081.20499
694.459	19559.5676
694.655	20205.05852
694.851	20022.3293
695.047	19634.65008
695.243	19350.58421
695.439	19567.68435
695.635	19486.51985
695.831	19661.03178
696.027	19234.95208
696.224	19750.3289
696.42	19251.18034
696.615	19462.1718
696.811	19241.03765
697.007	19295.80942
697.203	18926.66472
697.399	19640.7381
697.595	19314.06735
697.791	19376.95832
697.987	19265.38029
698.183	19888.34953
698.379	19354.64172
698.575	19693.50252
698.77	19330.2969
698.966	18979.39144
699.162	19174.09843
699.358	19210.61018
699.554	18914.4974
699.749	19374.92952
699.945	19301.89536
700.141	19431.73757
700.337	19243.06618
700.532	19466.22976
700.728	19466.22976
700.924	19028.06468
701.119	19275.52323
701.315	19099.05067
701.511	18719.83986
701.706	19614.35696
701.902	19427.67975
702.097	19239.00912
702.293	19717.85628
702.489	19399.27543
702.684	19486.51985
702.88	19389.13123
703.075	19157.87142
703.271	18997.64363
703.466	19165.98489
703.662	19054.43033
703.857	19137.58801
704.053	19265.38029
704.248	18922.60893
704.443	18963.16755
704.639	18624.55205
704.834	19310.01
705.03	18642.79798
705.225	18916.52528
705.42	18894.21886
705.616	19153.8147
705.811	18991.55953
706.006	19092.96596
706.202	18955.05569
706.397	19030.09278
706.592	19050.37403
706.787	18979.39144
706.983	18809.05335
707.178	18924.63683
707.373	18851.63522
707.568	18804.99802
707.763	18517.11017
707.959	18577.92499
708.154	18468.46081
708.349	18827.30251
708.544	18746.19759
708.739	18723.89485
708.934	18557.653
709.129	18938.83218
709.324	18898.27454
709.519	19052.40217
709.714	18788.77688
709.909	18723.89485
710.104	18367.11504
710.299	18620.49744
710.494	18573.87056
710.689	18821.21942
710.884	19011.84001
711.079	18845.55199
711.274	18545.48999
711.469	18423.8675
711.664	18464.4068
711.859	18472.51484
712.054	18650.90739
712.249	18263.75207
712.443	18300.23201
712.638	18328.60613
712.833	18387.38344
713.028	18669.15377
713.223	18423.8675
713.417	18316.4457
713.612	18454.27183
713.807	18590.08837
714.002	18612.38827
714.196	18338.73992
714.391	18284.01855
714.586	18209.03442
714.78	18050.97622
714.975	18298.20531
715.17	18215.11403
715.364	18284.01855
715.559	18533.32712
715.754	18200.92833
715.948	18186.74282
716.143	18162.42521
716.337	17949.66837
716.532	18030.71393
716.726	18288.07189
716.921	17980.05979
717.115	18186.74282
717.31	18257.6722
717.504	17965.87703
717.699	18144.18735
717.893	17473.63621
718.088	17785.56824
718.282	17690.35992
718.476	17765.31053
718.671	17702.51376
718.865	17848.36931
719.059	17876.73217
719.254	17986.13817
719.448	17595.15895
719.642	17868.62843
719.837	17700.48811
720.031	17969.92923
720.225	17738.97601
720.419	17953.72051
720.614	17580.9807
720.808	17990.19044
721.002	17635.66912
721.196	17982.08591
721.39	17633.64358
721.585	17943.59018
721.779	17698.46247
721.973	17637.69466
722.167	17696.43683
722.361	17953.72051
722.555	17738.97601
722.749	17524.26929
722.943	17599.20991
723.137	17617.43938
723.331	17763.28477
723.525	17955.74659
723.719	17710.61639
723.913	17793.67142
724.107	17666.0526
724.301	17516.16786
724.495	17643.77131
724.689	17722.77043
724.883	17568.82805
725.077	17495.91452
725.271	17536.42152
725.465	17459.4593
725.659	17147.60504
725.853	17254.92354
726.046	17157.72908
726.24	17184.05193
726.434	17289.3482
726.628	17370.3508
726.822	17086.86227
727.015	17536.42152
727.209	17198.22596
727.403	17589.08254
727.596	17131.40672
727.79	17504.01582
727.984	17694.41119
728.177	17734.92459
728.371	17560.72634
728.565	17653.89912
728.758	17309.5984
728.952	17072.68932
729.146	17066.61524
729.339	17283.2732
729.533	17042.31917
729.726	17080.78814
729.92	17080.78814
730.113	17222.52465
730.307	17335.9241
730.5	17252.89859
730.694	17056.49183
730.887	16904.64874
731.081	17408.82873
731.274	16902.62426
731.468	16661.72959
731.661	17115.20858
731.854	16894.52639
732.048	16876.30633
732.241	17046.36849
732.435	17137.48107
732.628	17054.46716
732.821	17084.83756
733.014	17062.56587
733.208	17135.45629
733.401	17042.31917
733.594	16910.72218
733.788	17293.39821
733.981	17538.44691
734.174	17439.20684
734.367	17633.64358
734.56	17420.97989
734.754	17508.06649
734.947	17167.8532
735.14	17038.26986
735.333	17473.63621
735.526	17094.96116
735.719	16862.13532
735.912	16736.62594
736.105	16985.62985
736.298	16724.48036
736.491	17101.03536
736.684	17028.14664
736.877	16896.55086
737.07	16766.99025
737.263	17099.01063
737.456	17188.10164
737.649	16910.72218
737.842	16955.26144
738.035	17056.49183
738.228	16708.2864
738.421	17269.0983
738.614	17418.95469
738.807	17327.82383
739	17028.14664
739.192	16406.70004
739.385	16477.53821
739.578	16560.5233
739.771	16475.51422
739.964	16615.174
740.156	16704.23793
740.349	16548.37891
740.542	16633.39126
740.735	16641.48788
740.927	16623.27054
741.12	16378.36545
741.313	16552.42703
741.505	16522.06635
741.698	16449.20264
741.891	16617.19813
742.083	16594.93281
742.276	16590.8846
742.468	16588.8605
742.661	16400.62831
742.854	16505.87418
743.046	16590.8846
743.239	16455.27451
743.431	16483.61017
743.624	16485.63416
743.816	16388.4849
744.009	16797.3551
744.201	16305.50682
744.393	16564.57144
744.586	16305.50682
744.778	16501.82616
744.971	16398.6044
745.163	16613.14987
745.355	16289.31635
745.548	16222.53184
745.74	16503.85017
745.932	16493.73014
746.125	16386.46101
746.317	16477.53821
746.509	16216.46062
746.702	16449.20264
746.894	16256.93574
747.086	16216.46062
747.278	15993.85913
747.471	16032.30716
747.663	15971.59997
747.855	16020.16562
748.047	16216.46062
748.239	16515.99427
748.431	15983.74131
748.623	16271.1022
748.815	16230.62683
749.008	16119.32309
749.2	16256.93574
749.392	16704.23793
749.584	16234.67434
749.776	16495.75414
749.968	15921.01159
750.16	16378.36545
750.352	16115.27578
750.544	16090.99201
750.736	15829.9545
750.928	16256.93574
751.12	16145.6308
751.311	15831.97796
751.503	15959.45868
751.695	16317.64976
751.887	16003.97698
752.079	16030.28356
752.271	15678.19768
752.463	16171.93878
752.654	15916.96455
752.846	15973.62352
753.038	15722.71242
753.23	15965.52932
753.421	15550.72592
753.613	15690.33802
753.805	16139.55976
753.997	15615.47308
754.188	15815.79027
754.38	15856.25963
754.572	15896.72946
754.763	15807.69646
754.955	15975.64708
755.146	15977.67063
755.338	15815.79027
755.53	15686.29123
755.721	15611.42636
755.913	15878.51797
756.104	15704.50179
756.296	15635.70673
756.487	15852.21267
756.679	15860.30659
756.87	15322.09236
757.062	15204.74238
757.253	15611.42636
757.445	15382.79096
757.636	15437.42001
757.827	15374.69779
758.019	15273.53367
758.21	15010.50813
758.401	14959.92599
758.593	15071.20646
758.784	14965.99586
758.975	14834.4811
759.167	14937.66977
759.358	15352.44162
759.549	15133.9279
759.74	15558.81927
759.932	15338.27862
760.123	15148.0908
760.314	15139.99772
760.505	15188.55621
760.696	15103.57883
760.888	14901.2504
761.079	15069.18318
761.27	14994.32187
761.461	15069.18318
761.652	14923.5067
761.843	14802.10787
762.034	15346.37176
762.225	14791.9912
762.416	15065.13663
762.607	14660.47263
762.798	14794.01453
762.989	14664.51941
763.18	14953.85612
763.371	14745.45426
763.562	14654.40244
763.753	14549.18444
763.944	14937.66977
764.135	14664.51941
764.326	14947.78624
764.517	14737.36084
764.708	14613.93434
764.899	14233.50801
765.089	14767.71111
765.28	14494.55074
765.471	14733.31413
765.662	14490.50377
765.853	14864.83086
766.043	14433.84548
766.234	14820.31783
766.425	14018.98422
766.615	14399.44525
766.806	14304.33632
766.997	14435.86901
767.187	14344.80865
767.378	14514.78556
767.569	14352.90304
767.759	14342.78505
767.95	14334.69063
768.141	14166.72488
768.331	14249.69754
768.522	14409.56301
768.712	14186.96242
768.903	13923.85681
769.093	13875.27889
769.284	13976.48118
769.474	13952.19323
769.665	13812.53004
769.855	13792.28789
770.046	14106.01099
770.236	13911.71248
770.426	14045.29509
770.617	13456.22097
770.807	13640.46193
770.998	13703.21882
771.188	13644.51086
771.378	13563.52973
771.569	13375.22618
771.759	13504.8149
771.949	13126.12539
772.139	13565.55433
772.33	13328.65128
772.52	13757.87554
772.71	13826.69938
772.9	13674.87738
773.09	13844.91689
773.281	13589.8492
773.471	13417.74923
773.661	13549.35746
773.851	13689.04818
774.041	13233.4696
774.231	13512.91368
774.421	13000.53615
774.611	12872.90148
774.802	13095.7426
774.992	13160.55795
775.182	13389.40072
775.372	13523.03707
775.562	13265.87294
775.752	13280.04905
775.942	12915.44867
776.131	13028.89666
776.321	12868.84924
776.511	12990.40717
776.701	13053.20489
776.891	13190.93851
777.081	12785.77357
777.271	12777.66812
777.461	12712.82129
777.651	13095.7426
777.84	12789.82626
778.03	13278.02391
778.22	13115.99791
778.41	13045.10222
778.599	12712.82129
778.789	12609.45922
778.979	12554.73172
779.169	12696.60865
779.358	12672.28899
779.548	12980.27805
779.738	12587.16337
779.927	12710.79473
780.117	12876.95369
780.307	12757.40412
780.496	12469.59089
780.686	12656.07541
780.875	12343.88561
781.065	12631.75432
781.254	12339.83017
781.444	12453.3723
781.633	12398.63141
781.823	12577.02865
782.012	12633.78111
782.202	12806.03678
782.391	12552.70468
782.581	12380.38337
782.77	12167.44763
782.96	12499.99963
783.149	12264.79943
783.338	12388.49368
783.528	12297.24634
783.717	12420.93384
783.906	12134.99326
784.096	12264.79943
784.285	12461.48165
784.474	12039.6473
784.663	12120.79387
784.853	12132.9648
785.042	12043.70492
785.231	12116.73683
785.42	12260.74344
785.61	12191.78716
785.799	11932.10875
785.988	11822.51762
786.177	11349.35563
786.366	11682.44834
786.555	11526.08887
786.744	11668.23607
786.933	11883.40457
787.122	11617.47438
787.312	11721.02229
787.501	11536.24375
787.69	11649.96251
787.879	11597.16811
788.068	11314.81286
788.257	11418.43255
788.445	11373.73703
788.634	11599.19877
788.823	11347.32378
789.012	11599.19877
789.201	11625.59663
789.39	11654.02337
789.579	11444.84132
789.768	11479.3734
789.957	11416.40104
790.145	11641.8407
790.334	11526.08887
790.523	11469.21719
790.712	11400.14859
790.9	11503.74732
791.089	11316.84487
791.278	11688.53918
791.467	11434.6843
791.655	11339.19629
791.844	10873.61724
792.033	11095.29521
792.221	11113.59304
792.41	11184.74306
792.599	10930.57476
792.787	11310.74881
792.976	11347.32378
793.164	11331.06864
793.353	11381.86384
793.541	11379.83215
793.73	11192.87367
793.918	11257.91251
794.107	10965.15177
794.295	11123.75813
794.484	10889.89173
794.672	10965.15177
794.861	11052.59685
795.049	11111.55999
795.238	10893.96024
795.426	11026.16212
795.614	10631.44529
795.803	11081.06295
795.991	10875.65159
796.179	10839.0315
796.368	10745.42959
796.556	10694.54844
796.744	10712.86652
796.932	10745.42959
797.121	10664.01612
797.309	10590.72731
797.497	10448.17486
797.685	10843.10058
797.874	10922.43852
798.062	10883.78889
798.25	10207.72778
798.438	10883.78889
798.626	10374.83769
798.814	10537.7865
799.002	10680.30036
799.19	10503.16675
799.378	10558.14936
799.566	10570.36646
799.755	10344.27552
799.943	10668.08725
800.131	10444.10102
800.318	10564.25797
800.506	10460.39609
800.694	10417.61976
800.882	10374.83769
801.07	10332.04982
801.258	10517.42238
801.446	10462.43292
801.634	10038.48615
801.822	9954.84887
802.01	10095.59049
802.197	10370.7629
802.385	10058.88183
802.573	10295.36984
802.761	10028.28777
802.949	10323.89909
803.136	10238.30344
803.324	10641.62401
803.512	10411.50839
803.699	10773.91977
803.887	10358.53823
804.075	10570.36646
804.262	10440.02712
804.45	10666.05169
804.638	10228.1119
804.825	10460.39609
805.013	10097.62973
805.201	10511.3129
805.388	10032.36716
805.576	10085.3941
805.763	10150.64496
805.951	10556.11313
806.138	10452.24866
806.326	10666.05169
806.513	10409.47124
806.701	10356.50074
806.888	10460.39609
807.075	10635.51681
807.263	10435.95317
807.45	10437.99015
807.638	10539.82284
807.825	10600.90727
808.012	10352.42572
808.2	10354.46324
808.387	10444.10102
808.574	10639.58829
808.761	10164.91668
808.949	10519.45885
809.136	10382.9871
809.323	10395.21082
809.51	10440.02712
809.698	10552.04063
809.885	10397.24806
810.072	10885.82318
810.259	10568.33031
810.446	10468.54332
810.633	10158.80031
810.82	10729.14844
811.008	10533.71378
811.195	10586.65524
811.382	10529.64101
811.569	10558.14936
811.756	10272.95216
811.943	10623.30209
812.13	10415.58265
812.317	10686.40675
812.504	10452.24866
812.691	10908.19966
812.878	10773.91977
813.064	10615.15869
813.251	10330.01216
813.438	10802.40763
813.625	10427.80512
813.812	10545.93179
813.999	10246.45643
814.186	10327.97448
814.372	10346.31309
814.559	10488.91049
814.746	10258.68551
814.933	10513.34941
815.12	10285.18019
815.306	10058.88183
815.493	10323.89909
815.68	10509.27638
815.866	10297.40773
816.053	10354.46324
816.24	10313.71037
816.426	10272.95216
816.613	10291.29402
816.799	10458.35925
816.986	10427.80512
817.173	10395.21082
817.359	10046.64459
817.546	10152.68381
817.732	9879.35038
817.919	10215.88159
818.105	9907.91973
818.292	10136.37255
818.478	9895.67608
818.665	10087.43341
818.851	10101.70816
819.037	10071.11856
819.224	9865.06462
819.41	9971.17024
819.597	9852.8191
819.783	9991.57065
819.969	9873.228
820.156	10022.16857
820.342	10205.6893
820.528	10248.49465
820.714	10028.28777
820.901	10175.11035
821.087	9995.65056
821.273	10368.72549
821.459	10299.44561
821.646	10435.95317
821.832	10226.07355
822.018	10160.83911
822.204	9783.4177
822.39	10171.03292
822.576	9628.22173
822.762	9709.91485
822.948	9560.80616
823.134	9924.24379
823.32	9775.25168
823.507	9881.39114
823.693	10065.00026
823.879	9983.41066
824.065	9611.88013
824.25	9607.79457
824.436	9409.56896
824.622	9597.58041
824.808	9632.30697
824.994	9730.33429
825.18	9233.69465
825.366	9497.46071
825.552	9450.45256
825.738	9589.40879
825.923	9327.78218
826.109	9691.53605
826.295	9609.83736
826.481	9632.30697
826.667	9548.54694
826.852	9771.16859
827.038	9791.58347
827.224	9662.94433
827.409	9538.33049
827.595	9711.95686
827.781	9413.65761
827.966	9722.1667
828.152	9211.1902
828.338	9505.63518
828.523	9184.5914
828.709	9303.241
828.894	9157.98974
829.08	9260.28818
829.266	9029.03286
829.451	9145.71107
829.637	8777.05875
829.822	8852.8843
830.008	8818.04861
830.193	8869.27577
830.378	8832.39335
830.564	9033.12778
830.749	9006.50951
830.935	9072.02611
831.12	8918.44329
831.305	9256.19706
831.491	8746.31157
831.676	9061.79031
831.861	9096.59024
832.047	9035.17522
832.232	8754.51122
832.417	9121.15189
832.602	8900.00667
832.788	9333.9171
832.973	9133.43179
833.158	9139.57151
833.343	8883.61736
833.528	9237.78615
833.714	9129.33856
833.899	9335.96204
834.084	8998.31868
834.269	9067.93184
834.454	8684.80483
834.639	8916.39485
834.824	8744.26161
835.009	8818.04861
835.194	8631.48554
835.379	8719.66068
835.564	8502.23631
835.749	8785.2573
835.934	8684.80483
836.119	8738.11162
836.304	8682.75432
836.489	8854.9333
836.674	8479.66129
836.859	8516.60103
837.044	8656.096
837.228	8705.30892
837.413	8393.44444
837.598	8842.63905
837.783	8623.28145
837.968	8904.10382
838.152	8512.49692
838.337	8416.02832
838.522	7988.58476
838.707	8407.81627
838.891	8031.77936
839.076	8218.85325
839.261	8046.17558
839.445	8315.40937
839.63	7976.24179
839.815	8202.41382
839.999	8021.49575
840.184	8245.56461
840.368	8309.24751
840.553	8253.78282
840.737	8274.32697
840.922	8286.65251
841.106	8097.58253
841.291	7856.88837
841.475	8079.07748
841.66	8202.41382
841.844	8056.45798
842.029	7968.01274
842.213	7965.95542
842.397	7852.7715
842.582	7568.50483
842.766	7972.1273
842.951	7828.06852
843.135	7906.28439
843.319	7519.0259
843.504	7898.05255
843.688	7817.77472
843.872	7990.64185
844.056	7828.06852
844.241	8237.34609
844.425	7712.74821
844.609	8101.69454
844.793	7644.76072
844.977	7671.54642
845.161	7675.66698
845.346	7646.82128
845.53	7533.45853
845.714	7704.50853
845.898	7760.11985
846.082	7453.03472
846.266	7570.56618
846.45	7387.02137
846.634	7232.21496
846.818	7461.28482
847.002	7360.19709
847.186	7403.5268
847.37	7263.18613
847.554	7471.59697
847.738	7333.36911
847.922	7521.08777
848.106	7354.00635
848.29	7364.32414
848.473	7221.89013
848.657	7217.76005
848.841	7077.28431
849.025	7232.21496
849.209	7176.45433
849.392	7287.95949
849.576	6967.7242
849.76	7174.38881
849.944	7267.31524
850.127	7545.82852
850.311	6978.06276
850.495	7327.17752
850.678	7126.87574
850.862	7356.06995
851.046	7073.15111
851.229	7172.32327
851.413	6876.72052
851.596	7141.33748
851.78	6893.2699
851.964	7064.88444
852.147	6973.9274
852.331	7007.00772
852.514	6820.85561
852.698	6735.99193
852.881	6464.58317
853.065	6802.23028
853.248	6642.80453
853.431	6949.11337
853.615	6605.51653
853.798	6777.39364
853.982	6733.9216
854.165	6851.89371
854.348	6717.35817
854.532	7021.47855
854.715	6725.64007
854.898	6969.79195
855.081	6530.91809
855.265	6791.88208
855.448	6418.96411
855.631	6491.53459
855.814	6779.46349
855.997	6630.37603
856.181	6371.25942
856.364	6651.08974
856.547	6338.06627
856.73	6497.7536
856.913	6107.62383
857.096	6510.19098
857.279	6041.13626
857.462	6190.69944
857.645	6261.2842
857.828	6232.22317
858.011	6182.39357
858.194	6252.98152
858.377	6350.5144
858.56	6464.58317
858.743	6132.55046
858.926	6132.55046
859.109	6039.05813
859.292	5997.49069
859.475	6074.38305
859.658	6105.54646
859.841	5876.89178
860.023	5899.77008
860.206	5970.46679
860.389	6147.08943
860.572	5654.1993
860.755	6028.66715
860.937	5770.78234
861.12	5856.09084
861.303	5962.15095
861.486	5991.25476
861.668	5600.04631
861.851	6032.82361
862.034	5643.7865
862.216	5914.32751
862.399	5697.92661
862.581	6063.99408
862.764	5764.53869
862.947	5785.35001
863.129	5379.10394
863.312	5637.53854
863.494	5379.10394
863.677	5656.28179
863.859	5447.91622
864.042	5510.45063
864.224	5212.18032
864.406	5431.23681
864.589	5314.43882
864.771	5608.37858
864.954	5289.40111
865.136	5454.17062
865.318	5339.47315
865.501	5337.38708
865.683	5337.38708
865.865	5518.78695
866.048	5312.35247
866.23	5614.62753
866.412	5466.67877
866.594	5464.59413
866.777	5295.66085
866.959	5253.92526
867.141	5370.76132
867.323	5366.58987
867.505	4963.60564
867.687	5299.8339
867.869	5061.8214
868.052	5337.38708
868.234	5049.28606
868.416	5147.45723
868.598	5065.99966
868.78	5170.42605
868.962	5038.83931
869.144	5122.39712
869.326	5011.67504
869.508	5147.45723
869.69	5053.4646
869.872	5088.97845
870.054	4942.7021
870.236	5095.2449
870.417	4810.9571
870.599	5076.44491
870.781	4882.06885
870.963	5249.75118
871.145	5053.4646
871.327	5212.18032
871.508	5047.19676
871.69	5153.72173
871.872	4756.55976
872.054	5379.10394
872.235	4790.03686
872.417	4994.95664
872.599	4873.70414
872.78	5074.35591
872.962	4829.78336
873.144	4785.85254
873.325	4785.85254
873.507	4771.20671
873.689	4551.38666
873.87	4898.79719
874.052	4440.33659
874.233	4760.74472
874.415	4618.40563
874.596	4938.52112
874.778	4574.427
874.959	4737.72635
875.141	4685.40169
875.322	5030.48149
875.503	4844.42474
875.685	5013.76474
875.866	4980.32682
876.048	4907.16081
876.229	4616.31163
876.41	4836.05838
876.592	4660.28086
876.773	4718.8911
876.954	4551.38666
877.136	4821.41636
877.317	4689.58818
877.498	5116.13157
877.679	4718.8911
877.86	4978.23675
878.042	4662.37439
878.223	4750.28216
878.404	4773.29904
878.585	4909.25166
878.766	4601.65302
878.947	4877.88654
879.128	4519.96369
879.309	4930.15888
879.49	4760.74472
879.672	4882.06885
879.853	4566.04901
880.034	4919.70555
880.215	4553.48135
880.396	4687.49495
880.576	4683.30841
880.757	4792.12899
880.938	4714.70524
881.119	4976.14666
881.3	4610.0295
881.481	4957.33482
881.662	4708.42628
881.843	4854.88218
882.023	4647.71923
882.204	4781.66813
882.385	4651.90653
882.566	4869.52164
882.747	4635.15679
882.927	4997.04652
883.108	4700.05402
883.289	4758.65225
883.469	4672.84168
883.65	4610.0295
883.831	4480.15411
884.011	4905.06994
884.192	4649.81289
884.373	4865.33905
884.553	4746.09698
884.734	4794.22109
884.914	4756.55976
885.095	4756.55976
885.275	4806.77323
885.456	4836.05838
885.636	4892.52424
885.817	4750.28216
885.997	4630.96914
886.178	4848.60778
886.358	5024.21288
886.538	5043.01808
886.719	4877.88654
886.899	4980.32682
887.08	5026.30244
887.26	5074.35591
887.44	4691.6814
887.621	5084.80069
887.801	4647.71923
887.981	4988.68685
888.161	4781.66813
888.342	4884.15998
888.522	4781.66813
888.702	5203.83021
888.882	4802.58928
889.062	5105.68853
889.242	4980.32682
889.423	5237.2284
889.603	4848.60778
889.783	5022.1233
889.963	4689.58818
890.143	4902.97905
890.323	4710.51929
890.503	5130.75086
890.683	4848.60778
890.863	4932.24947
891.043	4869.52164
891.223	4988.68685
891.403	4819.32456
891.583	5109.86581
891.763	4900.88813
891.943	4852.79074
892.122	4647.71923
892.302	4846.51627
892.482	4718.8911
892.662	4509.48826
892.842	4647.71923
893.022	4626.78139
893.201	4459.19851
893.381	4672.84168
893.561	4398.41486
893.741	4654.00015
893.92	4551.38666
894.1	4626.78139
894.28	4392.12585
894.459	4681.21511
894.639	4557.67066
894.819	4603.74718
894.998	4287.28024
895.178	4817.23273
895.357	4467.58101
895.537	4473.86766
895.716	4528.34364
895.896	4618.40563
896.075	4417.28072
896.255	4230.64124
896.434	4257.91381
896.614	4410.99229
896.793	4329.22497
896.973	4729.35535
897.152	4375.35419
897.331	4641.43811
897.511	4455.00712
897.69	4484.34497
897.87	4383.74019
898.049	4274.69514
898.228	4295.66987
898.407	4473.86766
898.587	4043.83317
898.766	4398.41486
898.945	3831.63983
899.124	4167.69082
899.304	4096.32409
899.483	4295.66987
899.662	3898.89168
899.841	4264.20697
900.02	4083.72745
900.199	4033.33344
900.378	3919.90368
900.557	4119.41598
900.737	3716.00354
900.916	3993.42975
901.095	3728.62127
901.274	3713.90051
901.453	3554.01516
901.632	3865.26831
901.811	3608.72503
901.989	3808.51731
902.168	3581.37167
902.347	3795.90402
902.526	3627.66011
902.705	3627.66011
902.884	3402.44629
903.063	3551.91068
903.242	3404.55206
903.42	3648.69731
903.599	3316.09503
903.778	3770.67533
903.957	3492.97788
904.135	3425.60869
904.314	3181.24541
904.493	3438.24181
904.672	3326.62724
904.85	3158.06129
905.029	3050.54591
905.207	3366.64567
905.386	3231.82206
905.565	3436.13633
905.743	2989.3916
905.922	3132.76728
906.1	2810.07441
906.279	3052.65445
906.457	2837.50609
906.636	2947.2088
906.814	2854.38595
906.993	2915.5678
907.171	2894.47198
907.35	2812.18462
907.528	2649.65907
907.707	3096.93015
907.885	2778.41958
908.063	2970.41008
908.242	2607.43216
908.42	2848.05611
908.598	2446.92661
908.777	2826.95572
908.955	2634.88022
909.133	2850.16607
909.311	2666.54844
909.49	2772.08824
909.668	2660.21502
909.846	2871.2649
910.024	2721.43323
910.202	2799.52314
910.38	2520.8519
910.559	2712.98998
910.737	2438.47715
910.915	2759.42521
911.093	2493.39553
911.271	2877.59428
911.449	2786.86117
911.627	2940.88086
911.805	2491.28343
911.983	2658.10385
912.161	2446.92661
912.339	2734.0977
912.517	2643.32535
912.695	2860.71566
912.872	2649.65907
913.05	2841.72614
913.228	2700.32472
913.406	2913.45828
913.584	2717.21163
913.762	2601.0977
913.939	2615.87794
914.117	2579.98204
914.295	2339.18341
914.473	2708.76828
914.65	2639.10281
914.828	2776.30915
915.006	2704.54653
915.184	2879.70404
915.361	2658.10385
915.539	2820.62534
915.716	2484.94704
915.894	2890.25264
916.072	2577.87041
916.249	2769.97777
916.427	2417.35274
916.604	2586.31687
916.782	2430.02752
916.959	2497.61971
917.137	2324.39307
917.314	2674.99282
917.492	2322.28012
917.669	2548.30632
917.847	2425.80264
918.024	2510.29198
918.201	2129.96413
918.379	2387.77681
918.556	2091.91543
918.733	2246.20781
918.911	2140.53276
919.088	2214.50754
919.265	2172.23748
919.442	2404.67759
919.62	2100.37091
919.797	2214.50754
919.974	1914.32511
920.151	2229.30125
920.328	2155.32852
920.506	2309.60225
920.683	2032.72383
920.86	2210.28068
921.037	1882.60804
921.214	2246.20781
921.391	2091.91543
921.568	2349.74764
921.745	2239.86792
921.922	2193.37293
922.099	2151.1012
922.276	2159.55581
922.453	2041.18011
922.63	2201.82687
922.807	1965.06978
922.984	2024.26744
923.161	1981.98391
923.338	2113.0539
923.514	1994.66924
923.691	1886.83705
923.868	1804.3678
924.045	1882.60804
924.222	1717.66231
924.399	1901.63843
924.575	1726.12166
924.752	1922.78278
924.929	1781.10599
925.105	1924.89719
925.282	1757.8437
925.459	1829.74372
925.635	1804.3678
925.812	1914.32511
925.989	1778.99126
926.165	1804.3678
926.342	1673.24993
926.518	1690.16909
926.695	1554.81161
926.871	1669.02012
927.048	1372.91786
927.224	1664.79029
927.401	1341.19251
927.577	1476.55518
927.754	1449.0595
927.93	1537.8914
928.107	1453.28961
928.283	1400.41337
928.459	1518.85609
928.636	1398.29832
928.812	1292.54764
928.988	1389.83816
929.165	1296.77759
929.341	1413.10364
929.517	1360.22769
929.693	1389.83816
929.87	1275.62793
930.046	1368.6878
930.222	1093.7538
930.398	1114.90044
930.574	1161.42464
930.751	1381.378
930.927	1104.32706
931.103	1277.74289
931.279	1140.27702
931.455	1248.13374
931.631	1277.74289
931.807	1281.9728
931.983	1068.37849
932.159	1271.39803
932.335	952.08568
932.511	1148.73602
932.687	930.94368
932.863	1093.7538
933.039	903.4602
933.215	1112.78575
933.391	979.57133
933.566	1026.08805
933.742	808.3358
933.918	875.97805
934.094	816.79058
934.27	821.01802
934.445	721.68333
934.621	772.40468
934.797	654.06461
934.973	837.92817
935.148	649.83884
935.324	797.76753
935.5	692.09872
935.675	732.24978
935.851	628.71068
936.027	594.90821
936.202	501.96892
936.378	620.25976
936.553	499.85698
936.729	501.96892
936.904	468.17963
937.08	430.17133
937.255	339.39489
937.431	409.05781
937.606	248.65082
937.782	411.16909
937.957	354.17033
938.133	428.0599
938.308	366.83566
938.483	358.39204
938.659	309.84661
938.834	288.74285
939.009	233.8818
939.185	309.84661
939.36	240.21127
939.535	269.75104
939.71	227.55252
939.886	269.75104
940.061	229.66226
940.236	176.92467
940.411	217.0041
940.586	265.53084
940.761	198.0182
940.937	138.96154
941.112	179.03394
941.287	244.431
941.462	90.46319
941.637	206.45618
941.812	198.0182
941.987	128.41744
942.162	185.36184
942.337	191.68993
942.512	181.14322
942.687	96.7884
942.862	217.0041
943.037	210.67529
943.212	88.35483
943.386	219.11374
943.561	113.65661
943.736	130.52622
943.911	101.00532
944.086	60.94819
944.26	92.57157
944.435	179.03394
944.61	90.46319
944.785	198.0182
944.959	217.0041
945.134	157.94226
945.309	98.89685
945.483	172.70621
945.658	109.43943
945.833	185.36184
946.007	141.07043
946.182	37.76098
946.357	138.96154
946.531	162.16043
946.706	181.14322
946.88	219.11374
947.055	147.39721
947.229	166.37868
947.404	143.17933
947.578	168.48784
947.752	151.61516
947.927	265.53084
948.101	88.35483
948.276	172.70621
948.45	157.94226
948.624	153.72418
948.799	155.83321
948.973	168.48784
949.147	198.0182
949.321	105.22233
949.496	124.19996
949.67	153.72418
949.844	134.74384
950.018	147.39721
950.193	147.39721
950.367	198.0182
950.541	183.25252
950.715	181.14322
950.889	181.14322
951.063	115.76524
951.237	210.67529
951.411	183.25252
951.585	157.94226
951.759	147.39721
951.933	149.50617
952.107	206.45618
952.281	189.58055
952.455	147.39721
952.629	132.63502
952.803	206.45618
952.977	172.70621
953.151	151.61516
953.325	107.33087
953.499	191.68993
953.672	200.12766
953.846	166.37868
954.02	113.65661
954.194	149.50617
954.368	181.14322
954.541	223.33309
954.715	79.92161
954.889	164.26954
955.062	136.85268
955.236	172.70621
955.41	113.65661
955.583	174.81543
955.757	229.66226
955.93	172.70621
956.104	259.20069
956.278	248.65082
956.451	181.14322
956.625	200.12766
956.798	214.89448
956.972	71.48875
957.145	147.39721
957.319	136.85268
957.492	88.35483
957.665	168.48784
957.839	242.32113
958.012	147.39721
958.185	134.74384
958.359	149.50617
958.532	172.70621
958.705	208.56572
958.879	155.83321
959.052	143.17933
959.225	126.30869
959.398	124.19996
959.572	79.92161
959.745	132.63502
959.918	155.83321
960.091	225.4428
960.264	82.02988
960.438	206.45618
960.611	82.02988
960.784	174.81543
960.957	172.70621
961.13	130.52622
961.303	88.35483
961.476	181.14322
961.649	138.96154
961.822	166.37868
961.995	117.87389
962.168	149.50617
962.341	202.23715
962.514	149.50617
962.686	117.87389
962.859	147.39721
963.032	157.94226
963.205	183.25252
963.378	96.7884
963.551	96.7884
963.723	208.56572
963.896	147.39721
964.069	128.41744
964.242	122.09124
964.414	115.76524
964.587	109.43943
964.76	132.63502
964.932	198.0182
965.105	124.19996
965.278	170.59702
965.45	157.94226
965.623	130.52622
965.795	202.23715
965.968	86.24649
966.14	119.98255
966.313	107.33087
966.485	96.7884
966.658	84.13817
966.83	122.09124
967.003	132.63502
967.175	101.00532
967.348	155.83321
967.52	103.11382
967.692	109.43943
967.865	138.96154
968.037	141.07043
968.209	126.30869
968.382	162.16043
968.554	105.22233
968.726	168.48784
968.898	126.30869
969.071	164.26954
969.243	168.48784
969.415	75.70514
969.587	181.14322
969.759	113.65661
969.932	117.87389
970.104	202.23715
970.276	191.68993
970.448	63.05626
970.62	132.63502
970.792	96.7884
970.964	54.62413
971.136	143.17933
971.308	143.17933
971.48	119.98255
971.652	96.7884
971.824	168.48784
971.996	181.14322
972.168	113.65661
972.339	-2.28298
972.511	96.7884
972.683	88.35483
972.855	115.76524
973.027	151.61516
973.199	98.89685
973.37	124.19996
973.542	130.52622
973.714	105.22233
973.886	149.50617
974.057	141.07043
974.229	37.76098
974.401	82.02988
974.572	147.39721
974.744	109.43943
974.915	54.62413
975.087	147.39721
975.259	153.72418
975.43	132.63502
975.602	33.54542
975.773	71.48875
975.945	155.83321
976.116	96.7884
976.288	130.52622
976.459	92.57157
976.63	75.70514
976.802	82.02988
976.973	98.89685
977.145	105.22233
977.316	63.05626
977.487	67.27246
977.659	189.58055
977.83	162.16043
978.001	79.92161
978.172	41.97663
978.344	79.92161
978.515	88.35483
978.686	46.19237
978.857	130.52622
979.028	92.57157
979.2	98.89685
979.371	153.72418
979.542	145.28826
979.713	124.19996
979.884	71.48875
980.055	25.11459
980.226	48.30027
980.397	67.27246
980.568	75.70514
980.739	75.70514
980.91	126.30869
981.081	111.54801
981.252	107.33087
981.423	105.22233
981.594	132.63502
981.765	122.09124
981.936	107.33087
982.106	63.05626
982.277	58.84015
982.448	79.92161
982.619	46.19237
982.79	56.73213
982.96	50.4082
983.131	79.92161
983.302	122.09124
983.472	105.22233
983.643	73.59693
983.814	73.59693
983.984	101.00532
984.155	46.19237
984.326	75.70514
984.496	54.62413
984.667	58.84015
984.837	69.38059
985.008	109.43943
985.178	65.16435
985.349	90.46319
985.519	136.85268
985.69	56.73213
985.86	96.7884
986.031	48.30027
986.201	-2.28298
986.371	71.48875
986.542	48.30027
986.712	67.27246
986.882	65.16435
987.053	111.54801
987.223	71.48875
987.393	98.89685
987.563	109.43943
987.734	-57.06577
987.904	-12.81942
988.074	105.22233
988.244	12.46906
988.414	143.17933
988.585	71.48875
988.755	65.16435
988.925	94.67998
989.095	63.05626
989.265	-21.24814
989.435	82.02988
989.605	79.92161
989.775	96.7884
989.945	14.57659
990.115	107.33087
990.285	39.86879
990.455	71.48875
990.625	96.7884
990.795	41.97663
990.965	29.32996
991.134	37.76098
991.304	-4.39031
991.474	6.14661
991.644	-10.71218
991.814	98.89685
991.984	8.25407
992.153	60.94819
992.323	58.84015
992.493	25.11459
992.662	41.97663
992.832	71.48875
993.002	77.81336
993.171	37.76098
993.341	73.59693
993.511	79.92161
993.68	29.32996
993.85	-17.03383
994.019	39.86879
994.189	46.19237
994.358	31.43768
994.528	25.11459
994.697	92.57157
994.867	54.62413
995.036	14.57659
995.206	20.89932
995.375	84.13817
995.544	65.16435
995.714	41.97663
995.883	33.54542
996.052	-27.56942
996.222	4.03918
996.391	-0.17561
996.56	31.43768
996.73	82.02988
996.899	63.05626
997.068	23.00695
997.237	23.00695
997.406	12.46906
997.576	12.46906
997.745	35.65319
997.914	33.54542
998.083	-0.17561
998.252	37.76098
998.421	20.89932
998.59	71.48875
998.759	-17.03383
998.928	31.43768
999.097	54.62413
999.266	48.30027
999.435	-4.39031
999.604	35.65319
999.773	88.35483
999.942	54.62413
1000.111	63.05626
1000.28	54.62413
1000.448	-2.28298
1000.617	14.57659
1000.786	58.84015
1000.955	-21.24814
1001.124	20.89932
1001.292	33.54542
1001.461	37.76098
1001.63	71.48875
1001.798	44.08449
1001.967	6.14661
1002.136	46.19237
1002.304	16.68414
1002.473	63.05626
1002.642	54.62413
1002.81	54.62413
1002.979	20.89932
1003.147	31.43768
1003.316	27.22227
1003.484	20.89932
1003.653	-0.17561
1003.821	79.92161
1003.99	23.00695
1004.158	37.76098
1004.327	14.57659
1004.495	12.46906
1004.663	39.86879
1004.832	50.4082
1005	101.00532
1005.168	65.16435
1005.337	-12.81942
1005.505	14.57659
1005.673	71.48875
1005.842	31.43768
1006.01	39.86879
1006.178	50.4082
1006.346	63.05626
1006.514	41.97663
1006.683	82.02988
1006.851	63.05626
1007.019	33.54542
1007.187	14.57659
1007.355	48.30027
1007.523	29.32996
1007.691	54.62413
1007.859	65.16435
1008.027	14.57659
1008.195	73.59693
1008.363	39.86879
1008.531	-35.99745
1008.699	73.59693
1008.867	-33.89048
1009.035	65.16435
1009.203	44.08449
1009.37	4.03918
1009.538	65.16435
1009.706	20.89932
1009.874	12.46906
1010.042	4.03918
1010.209	71.48875
1010.377	82.02988
1010.545	16.68414
1010.713	-17.03383
1010.88	8.25407
1011.048	71.48875
1011.216	33.54542
1011.383	-29.67646
1011.551	50.4082
1011.718	52.51615
1011.886	4.03918
1012.054	90.46319
1012.221	67.27246
1012.389	52.51615
1012.556	37.76098
1012.724	65.16435
1012.891	-19.141
1013.058	63.05626
1013.226	46.19237
1013.393	65.16435
1013.561	18.79172
1013.728	-54.95905
1013.895	-23.35526
1014.063	8.25407
1014.23	20.89932
1014.397	-23.35526
1014.565	63.05626
1014.732	50.4082
1014.899	4.03918
1015.066	63.05626
1015.233	20.89932
1015.401	-44.42508
1015.568	-46.53192
1015.735	25.11459
1015.902	33.54542
1016.069	-27.56942
1016.236	12.46906
1016.403	-10.71218
1016.57	37.76098
1016.737	14.57659
1016.904	25.11459
1017.071	4.03918
1017.238	39.86879
1017.405	-2.28298
1017.572	14.57659
1017.739	23.00695
1017.906	46.19237
1018.073	14.57659
1018.24	-29.67646
1018.407	33.54542
1018.573	29.32996
1018.74	71.48875
1018.907	58.84015
1019.074	-10.71218
1019.241	1.93177
1019.407	41.97663
1019.574	67.27246
1019.741	29.32996
1019.907	79.92161
1020.074	-21.24814
1020.241	-27.56942
1020.407	-40.21131
1020.574	-27.56942
1020.74	25.11459
1020.907	48.30027
1021.073	-27.56942
1021.24	88.35483
1021.406	50.4082
1021.573	6.14661
1021.739	35.65319
1021.906	10.36155
1022.072	84.13817
1022.239	6.14661
1022.405	46.19237
1022.571	37.76098
1022.738	27.22227
1022.904	31.43768
1023.07	-12.81942
1023.237	12.46906
1023.403	23.00695
1023.569	-0.17561
1023.735	39.86879
1023.902	20.89932
1024.068	-4.39031
1024.234	-42.31821
1024.4	8.25407
1024.566	14.57659
1024.732	12.46906
1024.898	-0.17561
1025.065	41.97663
1025.231	-21.24814
1025.397	-52.8523
1025.563	-0.17561
1025.729	-31.78348
1025.895	71.48875
1026.061	37.76098
1026.227	-21.24814
1026.392	54.62413
1026.558	6.14661
1026.724	-2.28298
1026.89	39.86879
1027.056	20.89932
1027.222	29.32996
1027.388	67.27246
1027.553	88.35483
1027.719	77.81336
1027.885	20.89932
1028.051	63.05626
1028.216	14.57659
1028.382	8.25407
1028.548	56.73213
1028.713	14.57659
1028.879	-12.81942
1029.045	-29.67646
1029.21	52.51615
1029.376	58.84015
1029.541	37.76098
1029.707	6.14661
1029.873	14.57659
1030.038	-6.49763
1030.204	-6.49763
1030.369	-8.60492
1030.534	63.05626
1030.7	75.70514
1030.865	-29.67646
1031.031	46.19237
1031.196	37.76098
1031.361	4.03918
1031.527	37.76098
1031.692	-25.46235
1031.857	31.43768
1032.023	4.03918
1032.188	20.89932
1032.353	46.19237
1032.518	-10.71218
1032.684	117.87389
1032.849	14.57659
1033.014	46.19237
1033.179	58.84015
1033.344	31.43768
1033.509	-4.39031
1033.674	10.36155
1033.839	-59.17246
1034.004	-21.24814
1034.17	12.46906
1034.335	20.89932
1034.5	29.32996
1034.664	-23.35526
1034.829	63.05626
1034.994	20.89932
1035.159	63.05626
1035.324	84.13817
1035.489	-27.56942
1035.654	58.84015
1035.819	46.19237
1035.984	18.79172
1036.148	8.25407
1036.313	79.92161
1036.478	77.81336
1036.643	54.62413
1036.807	-8.60492
1036.972	-27.56942
1037.137	-2.28298
1037.301	6.14661
1037.466	20.89932
1037.631	-61.27913
1037.795	14.57659
1037.96	-27.56942
1038.124	23.00695
1038.289	8.25407
1038.454	-35.99745
1038.618	-4.39031
1038.783	71.48875
1038.947	67.27246
1039.111	96.7884
1039.276	4.03918
1039.44	14.57659
1039.605	23.00695
1039.769	65.16435
1039.933	16.68414
1040.098	-21.24814
1040.262	35.65319
1040.426	48.30027
1040.591	67.27246
1040.755	-0.17561
1040.919	-17.03383
1041.083	23.00695
1041.248	88.35483
1041.412	46.19237
1041.576	50.4082
1041.74	35.65319
1041.904	71.48875
1042.068	-12.81942
1042.232	-10.71218
1042.397	-10.71218
1042.561	16.68414
1042.725	71.48875
1042.889	65.16435
1043.053	101.00532
1043.217	44.08449
1043.381	92.57157
1043.544	16.68414
1043.708	46.19237
1043.872	25.11459
1044.036	6.14661
1044.2	29.32996
1044.364	48.30027
1044.528	33.54542
1044.691	71.48875
1044.855	33.54542
1045.019	-63.38577
1045.183	82.02988
1045.346	-44.42508
1045.51	101.00532
1045.674	39.86879
1045.837	82.02988
1046.001	29.32996
1046.165	115.76524
1046.328	-80.238
1046.492	-31.78348
1046.655	-17.03383
1046.819	-27.56942
1046.983	65.16435
1047.146	8.25407
1047.31	31.43768
1047.473	23.00695
1047.636	20.89932
1047.8	29.32996
1047.963	-10.71218
1048.127	-46.53192
1048.29	27.22227
