Data from mixed_try1_USB4F045381__21__00246.txt Node

Date: Thu Apr 03 20:25:39 EDT 2025
User: mmckonesweet
Spectrometer: USB4F04538
Trigger mode: 4
Integration Time (sec): 2.700000E-3
Scans to average: 1
Electric dark correction enabled: true
Nonlinearity correction enabled: true
Boxcar width: 0
XAxis mode: Wavelengths
Number of Pixels in Spectrum: 3648
>>>>>Begin Spectral Data<<<<<
345.52	39.86879
345.736	39.86879
345.952	39.86879
346.168	18.79172
346.384	-46.53192
346.6	-6.49763
346.816	-44.42508
347.032	-42.31821
347.248	52.51615
347.464	-61.27913
347.68	23.00695
347.896	10.36155
348.112	77.81336
348.328	-2.28298
348.544	-23.35526
348.76	31.43768
348.975	-14.92664
349.191	-4.39031
349.407	10.36155
349.623	12.46906
349.839	54.62413
350.055	-12.81942
350.27	-21.24814
350.486	-12.81942
350.702	23.00695
350.918	44.08449
351.133	52.51615
351.349	-31.78348
351.565	-38.10439
351.781	1.93177
351.996	20.89932
352.212	56.73213
352.428	-4.39031
352.644	86.24649
352.859	1.93177
353.075	1.93177
353.291	4.03918
353.506	-25.46235
353.722	-14.92664
353.938	-40.21131
354.153	-38.10439
354.369	-33.89048
354.584	-14.92664
354.8	18.79172
355.016	12.46906
355.231	60.94819
355.447	-23.35526
355.662	10.36155
355.878	6.14661
356.093	-90.7698
356.309	52.51615
356.524	-10.71218
356.74	37.76098
356.955	-19.141
357.171	12.46906
357.386	-2.28298
357.602	-52.8523
357.817	-38.10439
358.033	-46.53192
358.248	-4.39031
358.464	73.59693
358.679	-21.24814
358.895	27.22227
359.11	-46.53192
359.325	-31.78348
359.541	10.36155
359.756	39.86879
359.972	-65.49239
360.187	-46.53192
360.402	44.08449
360.618	79.92161
360.833	27.22227
361.048	52.51615
361.264	-2.28298
361.479	-0.17561
361.694	-46.53192
361.909	16.68414
362.125	39.86879
362.34	16.68414
362.555	14.57659
362.77	-61.27913
362.986	10.36155
363.201	23.00695
363.416	4.03918
363.631	10.36155
363.847	-2.28298
364.062	-88.66349
364.277	6.14661
364.492	6.14661
364.707	-14.92664
364.922	37.76098
365.138	46.19237
365.353	-86.55716
365.568	69.38059
365.783	-23.35526
365.998	23.00695
366.213	-27.56942
366.428	-4.39031
366.643	27.22227
366.858	-31.78348
367.073	-48.63874
367.288	-2.28298
367.503	79.92161
367.718	10.36155
367.933	27.22227
368.148	35.65319
368.363	-2.28298
368.578	6.14661
368.793	27.22227
369.008	27.22227
369.223	-19.141
369.438	-14.92664
369.653	6.14661
369.868	-6.49763
370.083	31.43768
370.298	-29.67646
370.513	18.79172
370.728	35.65319
370.943	39.86879
371.157	-69.70555
371.372	27.22227
371.587	-69.70555
371.802	29.32996
372.017	-52.8523
372.232	1.93177
372.446	73.59693
372.661	-21.24814
372.876	-65.49239
373.091	4.03918
373.306	14.57659
373.52	44.08449
373.735	-42.31821
373.95	-14.92664
374.165	20.89932
374.379	12.46906
374.594	-12.81942
374.809	46.19237
375.023	-23.35526
375.238	35.65319
375.453	84.13817
375.667	18.79172
375.882	-23.35526
376.097	-48.63874
376.311	-97.08857
376.526	-31.78348
376.741	-4.39031
376.955	16.68414
377.17	-46.53192
377.384	14.57659
377.599	35.65319
377.813	-31.78348
378.028	27.22227
378.242	-14.92664
378.457	-38.10439
378.672	8.25407
378.886	-19.141
379.101	20.89932
379.315	14.57659
379.53	14.57659
379.744	94.67998
379.958	-25.46235
380.173	-23.35526
380.387	54.62413
380.602	-78.13156
380.816	-14.92664
381.031	-4.39031
381.245	37.76098
381.459	37.76098
381.674	52.51615
381.888	10.36155
382.103	-48.63874
382.317	103.11382
382.531	12.46906
382.746	4.03918
382.96	-61.27913
383.174	-2.28298
383.388	4.03918
383.603	-38.10439
383.817	-2.28298
384.031	-6.49763
384.246	-29.67646
384.46	-4.39031
384.674	-46.53192
384.888	-40.21131
385.103	23.00695
385.317	44.08449
385.531	-14.92664
385.745	-99.19478
385.959	-23.35526
386.174	-6.49763
386.388	-6.49763
386.602	-69.70555
386.816	-21.24814
387.03	-46.53192
387.244	-17.03383
387.458	-31.78348
387.672	-14.92664
387.887	-14.92664
388.101	18.79172
388.315	4.03918
388.529	52.51615
388.743	54.62413
388.957	-31.78348
389.171	-35.99745
389.385	-14.92664
389.599	25.11459
389.813	-19.141
390.027	12.46906
390.241	69.38059
390.455	-33.89048
390.669	-73.91861
390.883	-61.27913
391.097	44.08449
391.311	27.22227
391.525	14.57659
391.738	-19.141
391.952	1.93177
392.166	-69.70555
392.38	29.32996
392.594	-35.99745
392.808	-12.81942
393.022	14.57659
393.236	-31.78348
393.449	-25.46235
393.663	4.03918
393.877	54.62413
394.091	27.22227
394.305	-6.49763
394.518	10.36155
394.732	1.93177
394.946	35.65319
395.16	1.93177
395.373	-17.03383
395.587	-8.60492
395.801	-4.39031
396.015	37.76098
396.228	12.46906
396.442	-10.71218
396.656	-29.67646
396.869	20.89932
397.083	-10.71218
397.297	-12.81942
397.51	18.79172
397.724	16.68414
397.938	-27.56942
398.151	-29.67646
398.365	1.93177
398.578	23.00695
398.792	-84.4508
399.005	-6.49763
399.219	18.79172
399.433	-2.28298
399.646	-71.81209
399.86	18.79172
400.073	27.22227
400.287	-48.63874
400.5	54.62413
400.714	31.43768
400.927	27.22227
401.141	58.84015
401.354	37.76098
401.567	54.62413
401.781	31.43768
401.994	-4.39031
402.208	-14.92664
402.421	-33.89048
402.635	77.81336
402.848	10.36155
403.061	-12.81942
403.275	-76.0251
403.488	35.65319
403.701	71.48875
403.915	-46.53192
404.128	23.00695
404.341	20.89932
404.555	8.25407
404.768	-29.67646
404.981	20.89932
405.195	-33.89048
405.408	27.22227
405.621	56.73213
405.834	-14.92664
406.048	52.51615
406.261	1.93177
406.474	-2.28298
406.687	18.79172
406.9	-10.71218
407.114	37.76098
407.327	-35.99745
407.54	-23.35526
407.753	6.14661
407.966	-19.141
408.179	18.79172
408.392	-86.55716
408.605	18.79172
408.819	-23.35526
409.032	52.51615
409.245	1.93177
409.458	-90.7698
409.671	-19.141
409.884	-10.71218
410.097	-23.35526
410.31	-40.21131
410.523	-14.92664
410.736	29.32996
410.949	1.93177
411.162	4.03918
411.375	35.65319
411.588	4.03918
411.801	119.98255
412.014	-67.59898
412.227	-86.55716
412.44	35.65319
412.653	-10.71218
412.865	31.43768
413.078	37.76098
413.291	46.19237
413.504	23.00695
413.717	-10.71218
413.93	6.14661
414.143	-52.8523
414.356	-23.35526
414.568	-12.81942
414.781	46.19237
414.994	-33.89048
415.207	-44.42508
415.42	84.13817
415.632	23.00695
415.845	6.14661
416.058	4.03918
416.271	6.14661
416.483	35.65319
416.696	23.00695
416.909	-12.81942
417.121	29.32996
417.334	69.38059
417.547	92.57157
417.759	-4.39031
417.972	-23.35526
418.185	-44.42508
418.397	33.54542
418.61	-23.35526
418.823	6.14661
419.035	-29.67646
419.248	-14.92664
419.46	10.36155
419.673	35.65319
419.885	-78.13156
420.098	-23.35526
420.311	-52.8523
420.523	52.51615
420.736	52.51615
420.948	-23.35526
421.161	-40.21131
421.373	-52.8523
421.586	75.70514
421.798	-12.81942
422.01	12.46906
422.223	31.43768
422.435	6.14661
422.648	52.51615
422.86	23.00695
423.073	39.86879
423.285	73.59693
423.497	6.14661
423.71	-40.21131
423.922	6.14661
424.134	50.4082
424.347	60.94819
424.559	4.03918
424.771	6.14661
424.984	1.93177
425.196	23.00695
425.408	63.05626
425.621	29.32996
425.833	4.03918
426.045	122.09124
426.257	1.93177
426.47	18.79172
426.682	20.89932
426.894	-29.67646
427.106	29.32996
427.318	35.65319
427.531	27.22227
427.743	60.94819
427.955	10.36155
428.167	-54.95905
428.379	14.57659
428.591	82.02988
428.804	1.93177
429.016	35.65319
429.228	52.51615
429.44	-6.49763
429.652	10.36155
429.864	29.32996
430.076	-2.28298
430.288	-19.141
430.5	52.51615
430.712	-40.21131
430.924	48.30027
431.136	6.14661
431.348	1.93177
431.56	60.94819
431.772	-2.28298
431.984	-14.92664
432.196	-73.91861
432.408	56.73213
432.62	39.86879
432.832	71.48875
433.044	-14.92664
433.256	67.27246
433.468	-73.91861
433.679	23.00695
433.891	-40.21131
434.103	-12.81942
434.315	46.19237
434.527	31.43768
434.739	-48.63874
434.95	-52.8523
435.162	12.46906
435.374	29.32996
435.586	4.03918
435.798	35.65319
436.009	-54.95905
436.221	29.32996
436.433	29.32996
436.645	128.41744
436.856	35.65319
437.068	20.89932
437.28	31.43768
437.491	46.19237
437.703	-4.39031
437.915	-6.49763
438.126	16.68414
438.338	27.22227
438.55	-80.238
438.761	71.48875
438.973	48.30027
439.184	27.22227
439.396	65.16435
439.608	46.19237
439.819	37.76098
440.031	-10.71218
440.242	27.22227
440.454	14.57659
440.665	35.65319
440.877	71.48875
441.088	-46.53192
441.3	27.22227
441.511	-6.49763
441.723	14.57659
441.934	-46.53192
442.146	-21.24814
442.357	23.00695
442.569	1.93177
442.78	31.43768
442.991	52.51615
443.203	-46.53192
443.414	1.93177
443.626	23.00695
443.837	8.25407
444.048	12.46906
444.26	20.89932
444.471	-19.141
444.682	35.65319
444.894	10.36155
445.105	82.02988
445.316	29.32996
445.528	54.62413
445.739	54.62413
445.95	63.05626
446.161	6.14661
446.373	18.79172
446.584	56.73213
446.795	-10.71218
447.006	60.94819
447.217	-57.06577
447.429	63.05626
447.64	-48.63874
447.851	35.65319
448.062	27.22227
448.273	16.68414
448.484	-4.39031
448.695	29.32996
448.907	-8.60492
449.118	-2.28298
449.329	-8.60492
449.54	10.36155
449.751	29.32996
449.962	-8.60492
450.173	65.16435
450.384	119.98255
450.595	56.73213
450.806	-6.49763
451.017	29.32996
451.228	-23.35526
451.439	-14.92664
451.65	98.89685
451.861	18.79172
452.072	44.08449
452.283	-19.141
452.494	44.08449
452.705	-69.70555
452.915	-4.39031
453.126	10.36155
453.337	1.93177
453.548	27.22227
453.759	27.22227
453.97	29.32996
454.181	-14.92664
454.391	10.36155
454.602	29.32996
454.813	35.65319
455.024	-12.81942
455.235	46.19237
455.445	77.81336
455.656	44.08449
455.867	111.54801
456.078	-63.38577
456.288	-0.17561
456.499	-57.06577
456.71	16.68414
456.921	12.46906
457.131	14.57659
457.342	46.19237
457.553	31.43768
457.763	39.86879
457.974	-19.141
458.184	31.43768
458.395	86.24649
458.606	52.51615
458.816	-6.49763
459.027	82.02988
459.237	27.22227
459.448	86.24649
459.659	46.19237
459.869	27.22227
460.08	-67.59898
460.29	86.24649
460.501	-0.17561
460.711	-2.28298
460.922	48.30027
461.132	103.11382
461.343	23.00695
461.553	63.05626
461.764	86.24649
461.974	-2.28298
462.184	-23.35526
462.395	-38.10439
462.605	39.86879
462.816	88.35483
463.026	8.25407
463.236	35.65319
463.447	65.16435
463.657	48.30027
463.867	35.65319
464.078	88.35483
464.288	-40.21131
464.498	71.48875
464.709	44.08449
464.919	71.48875
465.129	27.22227
465.339	4.03918
465.55	88.35483
465.76	-12.81942
465.97	-31.78348
466.18	-10.71218
466.391	12.46906
466.601	44.08449
466.811	107.33087
467.021	46.19237
467.231	73.59693
467.441	8.25407
467.651	10.36155
467.862	119.98255
468.072	35.65319
468.282	82.02988
468.492	86.24649
468.702	79.92161
468.912	105.22233
469.122	20.89932
469.332	35.65319
469.542	37.76098
469.752	69.38059
469.962	69.38059
470.172	54.62413
470.382	94.67998
470.592	71.48875
470.802	82.02988
471.012	58.84015
471.222	41.97663
471.432	79.92161
471.642	54.62413
471.852	37.76098
472.062	103.11382
472.272	103.11382
472.482	136.85268
472.691	111.54801
472.901	52.51615
473.111	128.41744
473.321	179.03394
473.531	50.4082
473.741	119.98255
473.95	103.11382
474.16	132.63502
474.37	172.70621
474.58	52.51615
474.79	77.81336
474.999	98.89685
475.209	147.39721
475.419	136.85268
475.628	56.73213
475.838	52.51615
476.048	77.81336
476.258	136.85268
476.467	147.39721
476.677	170.59702
476.886	179.03394
477.096	170.59702
477.306	145.28826
477.515	179.03394
477.725	130.52622
477.935	145.28826
478.144	185.36184
478.354	238.10143
478.563	214.89448
478.773	181.14322
478.982	195.90876
479.192	204.34665
479.401	122.09124
479.611	202.23715
479.82	254.98069
480.03	297.18413
480.239	225.4428
480.449	122.09124
480.658	221.22341
480.868	181.14322
481.077	290.85314
481.287	307.73615
481.496	301.40489
481.705	333.06283
481.915	257.09068
482.124	316.17809
482.333	276.08147
482.543	381.61266
482.752	280.30186
482.961	373.16856
483.171	366.83566
483.38	314.06758
483.589	394.2793
483.799	368.94661
484.008	482.96198
484.217	406.94654
484.426	432.28277
484.636	430.17133
484.845	457.62127
485.054	392.16815
485.263	525.20123
485.472	487.18564
485.682	542.09852
485.891	495.63314
486.1	518.86497
486.309	514.64087
486.518	567.44613
486.727	537.87412
486.936	635.049
487.146	550.54751
487.355	694.21183
487.564	580.12066
487.773	664.62926
487.982	550.54751
488.191	668.85521
488.4	584.34561
488.609	698.43809
488.818	618.14706
489.027	632.93621
489.236	689.98561
489.445	873.8641
489.654	702.6644
489.863	766.06419
490.072	774.5182
490.281	795.65391
490.49	685.75944
490.698	854.83888
490.907	721.68333
491.116	1023.97359
491.325	941.51459
491.534	947.85722
491.743	850.61115
491.952	1066.26392
492.16	1000.71491
492.369	1117.01513
492.578	933.05785
492.787	971.11408
492.996	905.57427
493.204	1064.14935
493.413	1186.80231
493.622	1157.19508
493.831	1081.06605
494.039	1286.20273
494.248	1047.23299
494.457	1159.30986
494.665	1040.88944
494.874	1377.14793
495.083	1235.44426
495.291	1284.08777
495.5	1271.39803
495.709	1256.59344
495.917	1252.36358
496.126	1396.18328
496.335	1489.24548
496.543	1508.28089
496.752	1296.77759
496.96	1457.51971
497.169	1265.05319
497.377	1525.2012
497.586	1383.49304
497.794	1607.68664
498.003	1442.71435
498.211	1599.22671
498.42	1455.40466
498.628	1607.68664
498.837	1605.57166
499.045	1633.06625
499.254	1603.45668
499.462	1751.49935
499.671	1683.82443
499.879	1747.26977
500.087	1787.45017
500.296	1713.43262
500.504	1753.61414
500.713	1688.05421
500.921	1751.49935
501.129	1897.40949
501.338	1713.43262
501.546	1973.52689
501.754	1688.05421
501.962	1878.37901
502.171	1876.26449
502.379	1992.55503
502.587	1734.58094
502.795	1929.12598
503.004	2017.92508
503.212	2108.82627
503.42	1810.71184
503.628	2140.53276
503.837	2117.2815
504.045	2075.00412
504.253	2140.53276
504.461	2165.89668
504.669	2157.44217
504.877	2132.07787
505.085	2203.94034
505.294	2218.73435
505.502	2239.86792
505.71	2423.69018
505.918	2174.35106
506.126	2294.81097
506.334	2227.18788
506.542	2512.40399
506.75	2292.69789
506.958	2491.28343
507.166	2254.66088
507.374	2489.17131
507.582	2453.2636
507.79	2396.22728
507.998	2459.60048
508.206	2512.40399
508.414	2478.61055
508.622	2617.98935
508.83	2413.12774
509.037	2655.99268
509.245	2419.46523
509.453	2757.31466
509.661	2571.53545
509.869	2746.76169
510.077	2624.32352
510.285	2763.64628
510.492	2579.98204
510.7	2708.76828
510.908	2430.02752
511.116	2814.29482
511.324	2588.42845
511.531	2795.30254
511.739	2613.76651
511.947	2655.99268
512.155	2721.43323
512.362	2702.43563
512.57	2801.63342
512.778	2759.42521
512.985	2959.86426
513.193	2706.65741
513.401	2812.18462
513.608	3029.45967
513.816	2976.73739
514.024	2807.96419
514.231	3103.25469
514.439	3075.84735
514.646	2869.15508
514.854	3113.79526
515.061	3033.67705
515.269	3130.65934
515.477	3044.2202
515.684	3223.39328
515.892	3105.36283
516.099	3254.99982
516.307	3046.32879
516.514	3246.57178
516.722	3233.92921
516.929	3297.13598
517.136	3398.23472
517.344	3313.98854
517.551	3208.64228
517.759	3299.24261
517.966	3318.20151
518.173	3400.34052
518.381	3254.99982
518.588	3404.55206
518.796	3377.17579
519.003	3482.45266
519.21	3398.23472
519.418	3606.62104
519.625	3410.86923
519.832	3802.21076
520.039	3482.45266
520.247	3625.55629
520.454	3642.38635
520.661	3854.75995
520.868	3610.829
521.076	3888.38493
521.283	3684.45618
521.49	3879.97916
521.697	3697.07564
521.904	3869.47151
522.112	3873.67463
522.319	3848.4547
522.526	3667.62916
522.733	4029.1334
522.94	3791.69944
523.147	4138.30746
523.354	3873.67463
523.561	4045.93306
523.768	4029.1334
523.975	4159.296
524.183	3861.06503
524.39	4056.43218
524.597	3928.30792
524.804	4190.77486
525.011	3957.7202
525.218	4041.73327
525.425	4012.33242
525.632	4083.72745
525.838	4056.43218
526.045	4245.32692
526.252	4045.93306
526.459	4234.83725
526.666	4018.63294
526.873	4392.12585
527.08	4203.36507
527.287	4431.95294
527.494	4090.02587
527.701	4475.96317
527.907	4121.51512
528.114	4448.71988
528.321	4337.61288
528.528	4119.41598
528.735	4180.28243
528.941	4540.91289
529.148	4316.64245
529.355	4421.47289
529.562	4291.4751
529.768	4605.84131
529.975	4356.48441
530.182	4603.74718
530.388	4591.18192
530.595	4867.43036
530.802	4486.44037
531.008	4737.72635
531.215	4727.26254
531.422	4741.91171
531.628	4750.28216
531.835	4894.61525
532.042	4938.52112
532.248	4994.95664
532.455	4714.70524
532.661	4879.97771
532.868	4905.06994
533.074	4850.69927
533.281	4808.86518
533.487	4934.34004
533.694	4917.61482
533.9	5178.77765
534.107	4936.43059
534.313	5210.09283
534.52	4971.96641
534.726	5385.36066
534.933	5157.89795
535.139	5272.70743
535.345	5251.83823
535.552	5318.61144
535.758	5260.18619
535.965	5233.05396
536.171	5331.12875
536.377	5404.12955
536.584	5295.66085
536.79	5418.72626
536.996	5414.55589
537.203	5545.87738
537.409	5326.9564
537.615	5479.18607
537.821	5212.18032
538.028	5837.36798
538.234	5520.87097
538.44	5747.88794
538.646	5435.4068
538.853	5575.04725
539.059	5443.74651
539.265	5529.20682
539.471	5587.5472
539.677	5700.00861
539.883	5485.43941
540.09	5814.48189
540.296	5683.352
540.502	5841.52878
540.708	5622.95914
540.914	5910.16837
541.12	5928.88379
541.326	5978.78226
541.532	5937.20115
541.738	5814.48189
541.944	5822.80444
542.15	6030.7454
542.356	6014.11879
542.562	6209.38628
542.768	6047.37049
542.974	6080.61616
543.18	6001.64785
543.386	6275.81299
543.592	5997.49069
543.798	6105.54646
544.004	6140.85859
544.21	6269.58651
544.415	6151.24321
544.621	6474.94956
544.827	6306.94226
545.033	6369.18502
545.239	6211.46248
545.445	6495.68062
545.651	6074.38305
545.856	6543.35324
546.062	6228.07122
546.268	6261.2842
546.474	6126.31912
546.679	6296.56642
546.885	6284.11464
547.091	6358.81268
547.297	6427.25932
547.502	6551.64289
547.708	6427.25932
547.914	6591.01363
548.119	6626.23301
548.325	6458.36305
548.531	6454.21619
548.736	6694.58105
548.942	6503.97239
549.147	6566.14887
549.353	6758.764
549.559	6649.01847
549.764	6528.84548
549.97	6771.18397
550.175	6545.42569
550.381	6963.58862
550.586	6973.9274
550.792	6922.22783
550.997	6905.68099
551.203	7116.54525
551.408	6779.46349
551.614	6909.81783
551.819	6814.64737
552.025	7161.99523
552.23	7021.47855
552.435	6998.73818
552.641	7087.61692
552.846	7238.40959
553.052	6957.38507
553.257	7124.80968
553.462	7004.94037
553.668	7234.27986
553.873	7318.92175
554.078	7292.08808
554.283	7180.5853
554.489	7327.17752
554.694	7457.15981
554.899	7298.2808
555.105	7217.76005
555.31	7496.34392
555.515	7327.17752
555.72	7587.05624
555.925	7376.70478
556.131	7440.65891
556.336	7378.76814
556.541	7626.21467
556.746	7201.23882
556.951	7438.5962
557.156	7304.47331
557.361	7735.4056
557.567	7422.09373
557.772	7733.34594
557.977	7597.36184
558.182	7389.08463
558.387	7562.32063
558.592	7801.30357
558.797	7607.6669
559.002	7784.83109
559.207	7599.42289
559.412	7772.47585
559.617	7595.30076
559.822	7842.47895
560.027	7653.00285
560.232	7813.65706
560.437	7817.77472
560.642	8089.35827
560.847	7681.84766
561.051	8013.26849
561.256	7727.16684
561.461	7939.20847
561.666	7826.0098
561.871	7947.43867
562.076	7920.68932
562.281	8011.21162
562.485	7823.95106
562.69	8081.13368
562.895	7854.82994
563.1	8257.89181
563.305	7916.57373
563.509	8325.67875
563.714	8037.94929
563.919	8317.46328
564.123	8050.2886
564.328	8251.7283
564.533	8208.57876
564.737	8046.17558
564.942	8183.91796
565.147	8307.19351
565.351	8140.75465
565.556	8303.08547
565.761	8241.45539
565.965	8294.86915
566.17	7904.22646
566.374	8042.06247
566.579	8111.97422
566.784	8370.85822
566.988	8305.1395
567.193	8703.25859
567.397	8465.29416
567.602	8588.41076
567.806	8479.66129
568.011	8498.13193
568.215	8528.91292
568.42	8561.74127
568.624	8491.97522
568.828	8602.76993
569.033	8510.44484
569.237	8881.56861
569.442	8553.53464
569.646	8426.29295
569.85	8426.29295
570.055	8686.85532
570.259	8477.6089
570.463	8897.95807
570.668	8736.06159
570.872	8690.95625
571.076	8785.2573
571.281	8865.17801
571.485	8811.90059
571.689	8637.6384
571.893	8578.15364
572.098	8883.61736
572.302	8731.96148
572.506	8822.1472
572.71	8738.11162
572.914	8844.68814
573.119	8895.90945
573.323	8910.24942
573.527	8670.45087
573.731	8922.54012
573.935	9104.77773
574.139	9043.36479
574.343	8926.63688
574.547	9131.38518
574.751	8988.07975
574.955	9076.1203
575.159	9106.82456
575.364	9143.66457
575.568	8967.60056
575.772	9385.03568
575.976	8932.78188
576.18	9014.70006
576.383	9176.40658
576.587	9317.55698
576.791	9168.22149
576.995	9080.21443
577.199	9078.16737
577.403	9049.50679
577.607	9160.03612
577.811	9194.82205
578.015	9137.52495
578.219	9389.12472
578.422	9194.82205
578.626	9495.41706
578.83	9325.73717
579.034	9444.32043
579.238	9174.36033
579.442	9344.14164
579.645	9280.74282
579.849	9497.46071
580.053	9548.54694
580.257	9462.71637
580.46	9466.80418
580.664	9583.27991
580.868	9464.76029
581.071	9540.37381
581.275	9703.78872
581.479	9930.36507
581.682	9773.21014
581.886	9834.44982
582.09	9528.11364
582.293	9642.51981
582.497	9609.83736
582.7	9415.70191
582.904	9885.47263
583.107	9858.94192
583.311	9799.749
583.515	9940.5669
583.718	9748.71047
583.922	9920.16286
584.125	9779.33472
584.329	9903.83857
584.532	9693.5782
584.735	10036.4465
584.939	9834.44982
585.142	10162.8779
585.346	10001.77032
585.549	9926.28423
585.753	10003.81021
585.956	10348.35065
586.159	10154.72266
586.363	10030.32747
586.566	10195.49666
586.769	10115.98222
586.973	10030.32747
587.176	10279.06623
587.379	10164.91668
587.582	10444.10102
587.786	10183.26504
587.989	10285.18019
588.192	10030.32747
588.395	10419.65686
588.599	10435.95317
588.802	10417.61976
589.005	10358.53823
589.208	10588.69129
589.411	10649.76677
589.615	10399.28529
589.818	10515.3859
590.021	10566.29415
590.224	10258.68551
590.427	10393.17357
590.63	10621.26626
590.833	10415.58265
591.036	10321.86137
591.239	10865.47972
591.442	10519.45885
591.645	10611.08692
591.848	10472.61686
592.051	10845.13511
592.254	10279.06623
592.457	10609.05102
592.66	10566.29415
592.863	10965.15177
593.066	10788.16399
593.269	10767.81493
593.472	10539.82284
593.675	10859.37646
593.878	10743.39449
594.081	11146.12038
594.284	10769.84989
594.486	11048.53009
594.689	11005.82645
594.892	10891.92599
595.095	11115.62608
595.298	10987.52339
595.5	10887.85746
595.703	11288.39583
595.906	10981.42217
596.109	11300.58852
596.311	11166.44858
596.514	11209.13438
596.717	10932.60879
596.92	11257.91251
597.122	11298.55643
597.325	11188.80839
597.528	11121.72513
597.73	11221.32947
597.933	11070.89673
598.136	11184.74306
598.338	11093.26206
598.541	11550.46018
598.743	11272.13835
598.946	11339.19629
599.148	11454.9981
599.351	11542.33656
599.554	11312.78084
599.756	11251.81557
599.959	11670.26643
600.161	11751.47317
600.363	11438.74714
600.566	11704.78102
600.768	11381.86384
600.971	11605.29072
601.173	11444.84132
601.376	11548.42929
601.578	11544.36748
601.78	11889.49285
601.983	11658.08419
602.185	11682.44834
602.388	11729.14272
602.59	11848.90289
602.792	11743.35313
602.995	11771.77266
603.197	11509.84058
603.399	11913.84524
603.601	11631.68822
603.804	11621.53552
604.006	11800.19049
604.208	11783.95194
604.41	11572.79937
604.613	11923.99172
604.815	11915.87455
605.017	12134.99326
605.219	11591.07605
605.421	11491.56053
605.623	11688.53918
605.826	11982.83728
606.028	11824.5473
606.23	11820.48792
606.432	11718.99216
606.634	12055.8776
606.836	11678.38774
607.038	11960.51735
607.24	11641.8407
607.442	11861.08023
607.644	11863.10976
607.846	12007.18519
608.048	11895.58106
608.25	11970.66289
608.452	12005.15624
608.654	12270.88336
608.856	11883.40457
609.058	12143.10703
609.26	12141.0786
609.462	12143.10703
609.664	12291.16268
609.866	12451.34494
610.067	12289.13478
610.269	12317.52474
610.471	12262.77144
610.673	12256.68742
610.875	11978.77918
611.077	12347.94103
611.278	12084.27944
611.48	12203.95653
611.682	12063.99257
611.884	12449.31758
612.085	12114.7083
612.287	12244.51918
612.489	12084.27944
612.69	12351.99642
612.892	12230.32258
613.094	12587.16337
613.295	12130.93633
613.497	12686.47556
613.699	12420.93384
613.9	12289.13478
614.102	12238.43497
614.304	12242.49112
614.505	12151.22069
614.707	12108.62267
614.908	12033.56081
615.11	12356.05178
615.311	12066.02129
615.513	12035.58965
615.714	12236.40688
615.916	12238.43497
616.117	11905.72791
616.319	12360.10711
616.52	12485.80907
616.722	12307.38563
616.923	12193.81541
617.124	12534.46111
617.326	12360.10711
617.527	12562.83978
617.729	12424.98874
617.93	12447.29022
618.131	12169.47597
618.333	12506.0812
618.534	12512.16272
618.735	12429.04362
618.937	12611.48607
619.138	12676.34233
619.339	12489.86355
619.54	12629.72752
619.742	12702.68843
619.943	12686.47556
620.144	12431.07104
620.345	12641.88821
620.546	12577.02865
620.748	12881.00589
620.949	12593.24413
621.15	12868.84924
621.351	12455.39964
621.552	12400.65894
621.753	12441.20808
621.954	12625.67391
622.155	12388.49368
622.356	12674.31566
622.558	12471.61819
622.759	12814.14191
622.96	12404.71398
623.161	12733.08656
623.362	12577.02865
623.563	12635.80789
623.764	12491.89077
623.965	12949.88994
624.166	12575.00169
624.366	12615.53977
624.567	12461.48165
624.768	12816.16818
624.969	12384.43854
625.17	12889.11021
625.371	12485.80907
625.572	12856.6924
625.773	12708.76816
625.973	12964.0712
626.174	12749.29836
626.375	13000.53615
626.576	12921.52665
626.777	12970.14881
626.977	12686.47556
627.178	13113.9724
627.379	12649.99522
627.58	12897.21445
627.78	12639.86145
627.981	13113.9724
628.182	12951.91585
628.382	12899.2405
628.583	12637.83467
628.784	12394.57634
628.984	12546.62355
629.185	12891.13628
629.386	12637.83467
629.586	12907.34463
629.787	12670.26232
629.987	12895.1884
630.188	12907.34463
630.388	12765.50979
630.589	12777.66812
630.79	12710.79473
630.99	12700.66185
631.191	12862.77085
631.391	12704.71502
631.591	12866.82312
631.792	12710.79473
631.992	13006.61349
632.193	13057.25619
632.393	13111.94689
632.594	12771.58898
632.794	13002.56194
632.994	12964.0712
633.195	13134.22729
633.395	13043.07654
633.595	13028.89666
633.796	13209.16636
633.996	13107.89584
634.196	13053.20489
634.397	13446.09696
634.597	13016.74228
634.797	13188.91317
634.997	12741.1925
635.198	12822.24696
635.398	12953.94175
635.598	13357.00148
635.798	13201.06514
635.998	13020.79376
636.199	13211.19166
636.399	12838.45677
636.599	12986.35553
636.799	13087.64034
636.999	12838.45677
637.199	13168.65953
637.399	13194.98918
637.599	12937.73437
637.799	12913.42267
637.999	13500.76549
638.199	13286.12446
638.399	13510.88899
638.599	13097.76815
638.799	13486.59243
638.999	13610.09455
639.199	13697.14571
639.399	13393.45056
639.599	13470.39442
639.799	13223.34333
639.999	13431.92319
640.199	13391.42564
640.399	13357.00148
640.599	12757.40412
640.799	13642.48639
640.998	13359.02646
641.198	13385.35088
641.398	13429.89835
641.598	13464.32011
641.798	13237.52008
641.997	13867.18242
642.197	13737.63258
642.397	13529.11106
642.597	13693.09695
642.796	13689.04818
642.996	13448.12177
643.196	13968.38524
643.395	13419.77409
643.595	13772.04544
643.795	13454.19618
643.994	13800.38479
644.194	13772.04544
644.394	13676.90179
644.593	13660.70643
644.793	13980.52913
644.992	13557.45592
645.192	13646.53531
645.392	13755.85126
645.591	13946.12118
645.791	13751.80268
645.99	13539.23431
646.19	13551.38208
646.389	13296.25007
646.589	13905.64028
646.788	13832.77191
646.987	13525.06174
647.187	13705.24318
647.386	13456.22097
647.586	13747.7541
647.785	13705.24318
647.984	13877.303
648.184	13846.94104
648.383	13808.48164
648.582	13826.69938
648.782	14201.12858
648.981	13982.55311
649.18	13875.27889
649.38	13877.303
649.579	14097.91565
649.778	13944.09716
649.977	13946.12118
650.177	13844.91689
650.376	13697.14571
650.575	13521.0124
650.774	13968.38524
650.973	13895.51988
651.173	14172.79617
651.372	13654.63311
651.571	14118.15392
651.77	13923.85681
651.969	14278.02892
652.168	13927.9049
652.367	14215.29465
652.566	14201.12858
652.765	14308.38358
652.964	14142.43955
653.163	14363.02098
653.362	14031.12775
653.561	14039.22339
653.76	14172.79617
653.959	14488.48028
654.158	14140.41576
654.357	14150.5347
654.556	13988.62502
654.755	14284.09989
654.954	14140.41576
655.153	14273.98161
655.352	14241.60279
655.551	14150.5347
655.749	14296.24177
655.948	14172.79617
656.147	14051.36678
656.346	14219.34207
656.545	14103.98716
656.743	14209.22349
656.942	14304.33632
657.141	14261.83961
657.34	14067.55783
657.538	14411.58656
657.737	14071.60557
657.936	14369.09173
658.135	14085.77258
658.333	14532.99678
658.532	13992.67294
658.731	14524.90291
658.929	14106.01099
659.128	14350.87944
659.326	14097.91565
659.525	14822.34116
659.724	14486.45678
659.922	14379.20961
660.121	14514.78556
660.319	14559.30169
660.518	14166.72488
660.716	14191.00991
660.915	14492.52726
661.113	14367.06815
661.312	14253.7449
661.51	14097.91565
661.709	14435.86901
661.907	14288.14719
662.105	14365.04457
662.304	14512.76208
662.502	14427.77488
662.701	14186.96242
662.899	14166.72488
663.097	14717.12723
663.296	14508.71513
663.494	14717.12723
663.692	14569.41891
663.891	15093.46247
664.089	14520.85598
664.287	14599.7704
664.485	14253.7449
664.684	14439.91607
664.882	14680.7065
665.08	14589.65327
665.278	14737.36084
665.476	14620.00458
665.675	14516.80903
665.873	14330.64341
666.071	14282.07624
666.269	14340.76145
666.467	14154.58226
666.665	14322.54895
666.863	14093.86797
667.061	14735.33748
667.259	14267.91061
667.457	14642.26206
667.655	14441.93959
667.853	14484.43329
668.051	14207.19977
668.249	14342.78505
668.447	14427.77488
668.645	14522.87945
668.843	14405.51591
669.041	14532.99678
669.239	14280.05258
669.437	14581.55954
669.635	14678.68311
669.833	14563.34858
670.031	14373.13889
670.229	14632.14504
670.426	14375.16246
670.624	14632.14504
670.822	14848.64434
671.02	14676.65973
671.218	14907.32031
671.415	14822.34116
671.613	14421.70427
671.811	14589.65327
672.009	14528.94985
672.206	14666.5428
672.404	14551.2079
672.602	14267.91061
672.799	14166.72488
672.997	14346.83225
673.195	14338.73785
673.392	14456.10423
673.59	14377.18604
673.788	14636.19185
673.985	14383.25675
674.183	14658.44923
674.38	14694.87015
674.578	14445.98664
674.775	14286.12354
674.973	14278.02892
675.17	14599.7704
675.368	14320.52533
675.565	14298.26541
675.763	14263.86328
675.96	14178.86743
676.158	14184.93868
676.355	14110.05864
676.553	14668.56619
676.75	14138.39197
676.947	14468.24529
677.145	14326.59619
677.342	14464.19827
677.539	14603.81724
677.737	14830.43446
677.934	14595.72355
678.131	14617.98117
678.329	14213.27093
678.526	14450.03368
678.723	14450.03368
678.92	14646.30886
679.118	14611.91092
679.315	14433.84548
679.512	14326.59619
679.709	14021.00815
679.906	14247.67386
680.104	14174.81992
680.301	13950.16921
680.498	14053.39067
680.695	14276.00527
680.892	14172.79617
681.089	14130.29678
681.286	14191.00991
681.483	13824.6752
681.68	14407.53946
681.877	14273.98161
682.075	14124.22536
682.272	13893.4958
682.469	14128.27297
682.665	13986.60105
682.862	14140.41576
683.059	13905.64028
683.256	14154.58226
683.453	13923.85681
683.65	14077.67716
683.847	14257.79226
684.044	14176.84368
684.241	14174.81992
684.438	14437.89254
684.635	14112.08246
684.831	14551.2079
685.028	14057.43844
685.225	14267.91061
685.422	13842.89273
685.619	14049.34289
685.815	14148.51091
686.012	14053.39067
686.209	13763.94837
686.405	13982.55311
686.602	14000.76877
686.799	14000.76877
686.996	14023.03208
687.192	13846.94104
687.389	13976.48118
687.586	14328.6198
687.782	14154.58226
687.979	14166.72488
688.175	13822.65101
688.372	14118.15392
688.568	14004.81666
688.765	13907.66435
688.962	13804.43322
689.158	13850.98934
689.355	14393.37457
689.551	14356.95022
689.748	13996.72086
689.944	13923.85681
690.14	13923.85681
690.337	13804.43322
690.533	13901.59213
690.73	13767.99691
690.926	13980.52913
691.123	13899.56805
691.319	13834.79608
691.515	13986.60105
691.712	13737.63258
691.908	13741.68119
692.104	13638.43746
692.301	13915.7606
692.497	13940.04911
692.693	13972.43321
692.889	13767.99691
693.086	13693.09695
693.282	13875.27889
693.478	13834.79608
693.674	13747.7541
693.87	14128.27297
694.067	13828.72356
694.263	14081.72488
694.459	13691.07257
694.655	14000.76877
694.851	13767.99691
695.047	13749.77839
695.243	13729.5353
695.439	13705.24318
695.635	13938.02508
695.831	13838.84441
696.027	13591.87375
696.224	13646.53531
696.42	13332.70136
696.615	13990.64898
696.811	13565.55433
697.007	13709.2919
697.203	13496.71606
697.399	13567.57892
697.595	13549.35746
697.791	13444.07215
697.987	13636.41299
698.183	13865.15829
698.379	13492.66662
698.575	13723.46231
698.77	13442.04733
698.966	13551.38208
699.162	13363.07642
699.358	13585.80009
699.554	13559.48053
699.749	13632.36404
699.945	13533.16037
700.141	13563.52973
700.337	13749.77839
700.532	13614.14358
700.728	13660.70643
700.924	13452.17138
701.119	13437.99769
701.315	13454.19618
701.511	13124.09991
701.706	13616.16809
701.902	13765.97264
702.097	13624.26609
702.293	13850.98934
702.489	13826.69938
702.684	13440.02251
702.88	13646.53531
703.075	13393.45056
703.271	13462.29533
703.466	13237.52008
703.662	13664.75529
703.857	13450.14658
704.053	13583.77553
704.248	13172.7103
704.443	13413.69949
704.639	13397.50038
704.834	13719.41364
705.03	13518.98772
705.225	13606.04551
705.42	13294.22495
705.616	13421.79895
705.811	13103.84478
706.006	13239.54531
706.202	13156.50713
706.397	13381.30101
706.592	13437.99769
706.787	13624.26609
706.983	13213.21695
707.178	13616.16809
707.373	13496.71606
707.568	13567.57892
707.763	13265.87294
707.959	13263.84776
708.154	13203.09045
708.349	13407.62485
708.544	13324.60119
708.739	13357.00148
708.934	13334.72639
709.129	13403.57507
709.324	13557.45592
709.519	13484.56769
709.714	13391.42564
709.909	13504.8149
710.104	13446.09696
710.299	13357.00148
710.494	13448.12177
710.689	13192.96385
710.884	13083.58918
711.079	13458.24576
711.274	13124.09991
711.469	13656.65756
711.664	13255.74702
711.859	13405.59996
712.054	13118.02342
712.249	13251.69662
712.443	13010.66502
712.638	13308.40065
712.833	13000.53615
713.028	13527.0864
713.223	12968.12294
713.417	13318.52602
713.612	13051.17923
713.807	13383.32594
714.002	13308.40065
714.196	13103.84478
714.391	12599.32484
714.586	12656.07541
714.78	12878.97979
714.975	13081.5636
715.17	13111.94689
715.364	13269.92328
715.559	13000.53615
715.754	13241.57054
715.948	12716.87439
716.143	13020.79376
716.337	13004.58771
716.532	13134.22729
716.726	13067.38436
716.921	13225.3686
717.115	12757.40412
717.31	12808.06308
717.504	12838.45677
717.699	13243.59577
717.893	12720.92746
718.088	12775.64175
718.282	12629.72752
718.476	12757.40412
718.671	12544.59649
718.865	12804.01049
719.059	12775.64175
719.254	12955.96765
719.448	12587.16337
719.642	12856.6924
719.837	12433.09846
720.031	12907.34463
720.225	12534.46111
720.419	12850.61391
720.614	12868.84924
720.808	13263.84776
721.002	12962.04532
721.196	12830.35191
721.39	12688.50219
721.585	13049.15356
721.779	12479.7273
721.973	12791.85259
722.167	12741.1925
722.361	13004.58771
722.555	12623.64709
722.749	12704.71502
722.943	12605.40548
723.137	12735.11305
723.331	12743.21897
723.525	13026.87094
723.719	12666.20894
723.913	12893.16234
724.107	12522.29845
724.301	12534.46111
724.495	12313.46911
724.689	12429.04362
724.883	12502.02683
725.077	12822.24696
725.271	12461.48165
725.465	12727.00704
725.659	12445.26284
725.853	12536.4882
726.046	12467.56359
726.24	12510.13555
726.434	12323.60812
726.628	12727.00704
726.822	12354.0241
727.015	12801.98419
727.209	12262.77144
727.403	12534.46111
727.596	12424.98874
727.79	12747.2719
727.984	12349.96873
728.177	12617.56661
728.371	12722.95399
728.565	12822.24696
728.758	12856.6924
728.952	12402.68646
729.146	12351.99642
729.339	12846.56155
729.533	12546.62355
729.726	12422.9613
729.92	12449.31758
730.113	12570.94774
730.307	12489.86355
730.5	12591.21722
730.694	12307.38563
730.887	12570.94774
731.081	12797.93156
731.274	12724.98052
731.468	12262.77144
731.661	12461.48165
731.854	12475.67276
732.048	12516.21703
732.241	12354.0241
732.435	12516.21703
732.628	12749.29836
732.821	12499.99963
733.014	12577.02865
733.208	12510.13555
733.401	12481.75456
733.594	12315.49693
733.788	12449.31758
733.981	12429.04362
734.174	12368.2177
734.367	12491.89077
734.56	12619.59345
734.754	12463.50897
734.947	12366.19006
735.14	12270.88336
735.333	12449.31758
735.526	12424.98874
735.719	12100.50838
735.912	12232.35069
736.105	12112.67976
736.298	12396.60388
736.491	12248.57529
736.684	12185.70238
736.877	12297.24634
737.07	12343.88561
737.263	12132.9648
737.456	12234.37879
737.649	12141.0786
737.842	12429.04362
738.035	12262.77144
738.228	12035.58965
738.421	12132.9648
738.614	12278.99517
738.807	12295.21846
739	12258.71543
739.192	11865.13928
739.385	12116.73683
739.578	12134.99326
739.771	12161.36258
739.964	12195.84365
740.156	12433.09846
740.349	12155.27747
740.542	12295.21846
740.735	11899.63983
740.927	11779.89221
741.12	11834.69561
741.313	11936.16722
741.505	12070.07871
741.698	11745.38315
741.891	11992.98238
742.083	12126.87937
742.276	12230.32258
742.468	12266.82741
742.661	12289.13478
742.854	12165.41929
743.046	12238.43497
743.239	12165.41929
743.431	12244.51918
743.624	11895.58106
743.816	11844.84371
744.009	12043.70492
744.201	11984.86631
744.393	12001.09832
744.586	12090.36535
744.778	11968.6338
744.971	12015.30091
745.163	12029.50311
745.355	11865.13928
745.548	11753.50315
745.74	11743.35313
745.932	12161.36258
746.125	12013.27199
746.317	12173.53262
746.509	12169.47597
746.702	11921.96244
746.894	12118.76535
747.086	12047.76251
747.278	11988.92436
747.471	12143.10703
747.663	12045.73372
747.855	11960.51735
748.047	11907.75725
748.239	11952.40077
748.431	11741.32309
748.623	11859.0507
748.815	11710.87156
749.008	12009.21413
749.2	11812.36905
749.392	11633.71874
749.584	11664.17535
749.776	11621.53552
749.968	11686.50891
750.16	11806.27981
750.352	11700.72061
750.544	11700.72061
750.736	11889.49285
750.928	11854.9916
751.12	11867.16879
751.311	11848.90289
751.503	11828.60665
751.695	11615.44379
751.887	11550.46018
752.079	11587.01463
752.271	11156.28461
752.463	11546.39839
752.654	11444.84132
752.846	11459.06075
753.038	11312.78084
753.23	11412.33799
753.421	11505.77842
753.613	11672.29677
753.805	11584.9839
753.997	11688.53918
754.188	11702.75082
754.38	11306.68473
754.572	11745.38315
754.763	11499.68509
754.955	11595.13743
755.146	11948.34243
755.338	11651.99295
755.53	11946.31325
755.721	11467.18592
755.913	11658.08419
756.104	11477.34218
756.296	11775.83245
756.487	11513.90271
756.679	11729.14272
756.87	11296.52433
757.062	11442.80994
757.253	11268.07387
757.445	11302.6206
757.636	11473.27971
757.827	11085.12937
758.019	11463.12336
758.21	11322.94083
758.401	11115.62608
758.593	11294.49222
758.784	11192.87367
758.975	11178.645
759.167	10969.21943
759.358	11020.06153
759.549	11288.39583
759.74	11062.76356
759.932	11363.57829
760.123	11243.68617
760.314	11044.46328
760.505	11101.39458
760.696	11060.73024
760.888	11365.61005
761.079	11144.0875
761.27	11335.13249
761.461	11101.39458
761.652	11024.1286
761.843	10751.53482
762.034	11087.16256
762.225	10847.16962
762.416	11239.62141
762.607	10686.40675
762.798	11030.22912
762.989	11044.46328
763.18	11022.09507
763.371	10761.70998
763.562	11026.16212
763.753	10647.7311
763.944	10889.89173
764.135	10710.83122
764.326	11166.44858
764.517	11081.06295
764.708	10987.52339
764.899	10682.33584
765.089	10873.61724
765.28	10851.23861
765.471	10873.61724
765.662	10810.54659
765.853	10588.69129
766.043	10407.43407
766.234	10723.04281
766.425	10295.36984
766.615	10417.61976
766.806	10360.57571
766.997	10254.60921
767.187	10260.72365
767.378	10484.83716
767.569	10205.6893
767.759	10397.24806
767.95	10177.14904
768.141	10256.64737
768.331	10044.605
768.522	10128.21659
768.712	10221.99681
768.903	10120.0604
769.093	9967.08998
769.284	10340.20034
769.474	10120.0604
769.665	10077.23673
769.855	10079.2761
770.046	10279.06623
770.236	10189.38091
770.426	10421.69394
770.617	10118.02132
770.807	10115.98222
770.998	10168.99419
771.188	9820.16177
771.378	9756.87727
771.569	9914.04136
771.759	9920.16286
771.949	9946.68783
772.139	10124.13852
772.33	10065.00026
772.52	10067.03971
772.71	9956.88909
772.9	9883.43189
773.09	10254.60921
773.281	10126.17756
773.471	10115.98222
773.661	10001.77032
773.851	10111.90399
774.041	10018.08904
774.231	10120.0604
774.421	9783.4177
774.611	9671.1137
774.802	9701.74665
774.992	9497.46071
775.182	9630.26436
775.372	9687.4517
775.562	9685.40951
775.752	9695.62034
775.942	9448.40853
776.131	9444.32043
776.321	9474.97961
776.511	9303.241
776.701	9640.47728
776.891	9695.62034
777.081	9458.6285
777.271	9634.34957
777.461	9618.00835
777.651	9722.1667
777.84	9583.27991
778.03	9509.72232
778.22	9456.58454
778.41	9699.70456
778.599	9560.80616
778.789	9650.68981
778.979	9577.1509
779.169	9448.40853
779.358	9642.51981
779.548	9438.18816
779.738	9290.96952
779.927	9579.19392
780.117	9485.19853
780.307	9348.23134
780.496	9198.91419
780.686	9568.97865
780.875	9421.83472
781.065	9290.96952
781.254	9155.94334
781.444	9276.65203
781.633	9180.49903
781.823	9409.56896
782.012	9225.51145
782.202	9317.55698
782.391	9180.49903
782.581	9092.49639
782.77	8996.27093
782.96	9319.60205
783.149	8824.19647
783.338	9282.7882
783.528	9119.10518
783.717	9233.69465
783.906	9026.98537
784.096	9299.15057
784.285	8986.03191
784.474	9024.93786
784.663	9029.03286
784.853	9055.64863
785.042	8953.26407
785.231	8967.60056
785.42	8998.31868
785.61	8822.1472
785.799	8809.85122
785.988	8754.51122
786.177	8487.87065
786.366	8766.81014
786.555	8717.61048
786.744	8785.2573
786.933	8409.86931
787.122	8649.94364
787.312	8473.50406
787.501	8809.85122
787.69	8756.56108
787.879	8674.55209
788.068	8660.19748
788.257	8684.80483
788.445	8600.71868
788.634	8826.24571
788.823	8647.89281
789.012	8553.53464
789.201	8686.85532
789.39	8500.18413
789.579	8596.61611
789.768	8539.1723
789.957	8430.39867
790.145	8555.58632
790.334	8604.82117
790.523	8401.65703
790.712	8487.87065
790.9	8629.43454
791.089	8151.03243
791.278	8668.40023
791.467	8403.71013
791.655	8528.91292
791.844	8202.41382
792.033	8151.03243
792.221	8210.6337
792.41	8313.35543
792.599	8200.35881
792.787	8292.81502
792.976	8140.75465
793.164	8413.97534
793.353	8159.25429
793.541	8274.32697
793.73	8231.18198
793.918	8161.3097
794.107	7928.92026
794.295	7990.64185
794.484	7873.35503
794.672	7887.76228
794.861	8068.79619
795.049	8146.92138
795.238	7963.89809
795.426	8249.67375
795.614	7828.06852
795.803	8128.42066
795.991	7912.45806
796.179	8183.91796
796.368	8029.72268
796.556	8025.60925
796.744	7908.3423
796.932	7994.75596
797.121	7970.07003
797.309	7838.36179
797.497	7774.53511
797.685	7714.80808
797.874	7891.87845
798.062	7906.28439
798.25	7768.35727
798.438	7840.42038
798.626	7549.95168
798.814	7584.99506
799.002	7718.92775
799.19	7848.65454
799.378	7928.92026
799.566	7640.63952
799.755	7718.92775
799.943	7828.06852
800.131	7756.00102
800.318	8044.11904
800.506	7749.82261
800.694	7885.70416
800.882	7811.5982
801.07	7828.06852
801.258	7655.06333
801.446	7813.65706
801.634	7323.04968
801.822	7370.51456
802.01	7512.84016
802.197	7735.4056
802.385	7411.77898
802.573	7436.53347
802.761	7273.50875
802.949	7401.46369
803.136	7389.08463
803.324	7516.96401
803.512	7574.68882
803.699	7566.44345
803.887	7578.81138
804.075	8040.00589
804.262	7521.08777
804.45	7826.0098
804.638	7566.44345
804.825	7887.76228
805.013	7665.36542
805.201	7640.63952
805.388	7609.72785
805.576	7679.78745
805.763	7935.09325
805.951	7780.71276
806.138	7906.28439
806.326	7690.08827
806.513	7609.72785
806.701	7566.44345
806.888	7580.87263
807.075	7963.89809
807.263	7640.63952
807.45	8005.0409
807.638	7506.65423
807.825	7832.18589
808.012	7617.97143
808.2	7494.28179
808.387	7751.8821
808.574	7424.15662
808.761	7376.70478
808.949	7640.63952
809.136	7368.45111
809.323	7924.80484
809.51	7737.46524
809.698	7731.28626
809.885	7648.88183
810.072	7891.87845
810.259	7694.20845
810.446	7747.7631
810.633	7883.64602
810.82	8111.97422
811.008	7904.22646
811.195	7848.65454
811.382	7698.32854
811.569	7891.87845
811.756	7533.45853
811.943	7677.72723
812.13	7516.96401
812.317	7883.64602
812.504	7533.45853
812.691	8161.3097
812.878	8058.5144
813.064	8120.1976
813.251	8029.72268
813.438	8169.53117
813.625	7809.53931
813.812	8079.07748
813.999	7714.80808
814.186	7856.88837
814.372	7568.50483
814.559	7858.94677
814.746	7568.50483
814.933	7677.72723
815.12	7640.63952
815.306	7714.80808
815.493	7801.30357
815.68	7681.84766
815.866	7578.81138
816.053	7675.66698
816.24	7380.83148
816.426	7591.17855
816.613	7502.53017
816.799	7572.62751
816.986	7283.83082
817.173	7908.3423
817.359	7560.2592
817.546	7778.65356
817.732	7479.8463
817.919	7708.62841
818.105	7337.49674
818.292	7341.62427
818.478	7477.784
818.665	7611.78878
818.851	7710.68832
819.037	7939.20847
819.224	7475.72168
819.41	7504.59221
819.597	7463.3473
819.783	7634.45757
819.969	7558.19773
820.156	7856.88837
820.342	7492.21964
820.528	7648.88183
820.714	7549.95168
820.901	7562.32063
821.087	7453.03472
821.273	7409.71597
821.459	7533.45853
821.646	7486.03307
821.832	7374.64139
822.018	7234.27986
822.204	7205.36926
822.39	7073.15111
822.576	7002.873
822.762	7170.2577
822.948	7054.55061
823.134	7188.84697
823.32	6980.1304
823.507	7000.8056
823.693	7329.24141
823.879	7131.00778
824.065	7246.66879
824.25	7265.2507
824.436	7120.67751
824.622	7312.72969
824.808	7038.0153
824.994	7190.91234
825.18	6978.06276
825.366	7275.57321
825.552	7164.06088
825.738	7393.21107
825.923	7075.21772
826.109	7203.30405
826.295	7071.08448
826.481	7166.12651
826.667	6965.65642
826.852	6980.1304
827.038	6916.02294
827.224	7161.99523
827.409	7040.08229
827.595	7415.90495
827.781	6978.06276
827.966	7110.34669
828.152	6996.67074
828.338	7215.69497
828.523	6835.34069
828.709	7141.33748
828.894	6851.89371
829.08	6971.85969
829.266	6814.64737
829.451	7031.81419
829.637	6837.4099
829.822	6988.40075
830.008	6905.68099
830.193	6913.95459
830.378	6673.87217
830.564	6944.97738
830.749	6698.72255
830.935	6715.28763
831.12	6593.08554
831.305	6653.16099
831.491	6493.60762
831.676	6727.71048
831.861	6667.65905
832.047	6839.47909
832.232	6665.58797
832.417	6624.16147
832.602	6450.06923
832.788	6547.49811
832.973	6518.4821
833.158	7009.07505
833.343	6748.4134
833.528	6767.04407
833.714	6609.66001
833.899	6814.64737
834.084	6649.01847
834.269	6758.764
834.454	6468.7298
834.639	6715.28763
834.824	6466.65649
835.009	6499.82655
835.194	6392.0021
835.379	6704.93463
835.564	6296.56642
835.749	6715.28763
835.934	6462.50982
836.119	6532.99067
836.304	6147.08943
836.489	6487.38848
836.674	6418.96411
836.859	6360.8872
837.044	6344.29044
837.228	6483.24226
837.413	6248.83003
837.598	6499.82655
837.783	5955.91381
837.968	6387.85375
838.152	6084.77144
838.337	6223.91917
838.522	6130.47337
838.707	6323.54238
838.891	5937.20115
839.076	6014.11879
839.261	5901.84978
839.445	6205.23382
839.63	5897.69035
839.815	6147.08943
839.999	5968.38787
840.184	6311.09243
840.368	6134.62753
840.553	6201.08126
840.737	6267.51096
840.922	6221.84312
841.106	6030.7454
841.291	6298.64163
841.475	5976.70343
841.66	6315.24251
841.844	6228.07122
842.029	6271.66202
842.213	6001.64785
842.397	5955.91381
842.582	5885.21149
842.766	5968.38787
842.951	5801.99737
843.135	5895.6106
843.319	5718.74548
843.504	5893.53083
843.688	5552.12846
843.872	5791.59295
844.056	5702.09058
844.241	5976.70343
844.425	5801.99737
844.609	5752.05077
844.793	5799.91653
844.977	5876.89178
845.161	5602.12941
845.346	5862.33137
845.53	5550.04479
845.714	5683.352
845.898	5452.08584
846.082	5595.88004
846.266	5710.41822
846.45	5704.17252
846.634	5387.44618
846.818	5614.62753
847.002	5602.12941
847.186	5639.62122
847.37	5504.19814
847.554	5479.18607
847.738	5285.22783
847.922	5314.43882
848.106	5241.40276
848.29	5285.22783
848.473	5239.31559
848.657	5318.61144
848.841	4915.52407
849.025	5195.47973
849.209	5134.92759
849.392	5264.36003
849.576	5143.28077
849.76	5410.38542
849.944	5043.01808
850.127	5278.96774
850.311	5155.80985
850.495	5159.98602
850.678	5036.74989
850.862	5485.43941
851.046	5101.51115
851.229	5224.70478
851.413	5003.31602
851.596	5132.83924
851.78	5047.19676
851.964	5333.21488
852.147	4850.69927
852.331	5151.63358
852.514	4884.15998
852.698	5126.57404
852.881	5013.76474
853.065	5170.42605
853.248	4967.78607
853.431	5043.01808
853.615	5013.76474
853.798	5107.77718
853.982	5068.08876
854.165	4963.60564
854.348	4892.52424
854.532	5068.08876
854.715	5011.67504
854.898	4842.33318
855.081	4873.70414
855.265	4808.86518
855.448	4702.14712
855.631	4695.86775
855.814	4802.58928
855.997	4907.16081
856.181	4371.16106
856.364	4928.06826
856.547	4534.62836
856.73	4538.81807
856.913	4431.95294
857.096	4656.09374
857.279	4348.09728
857.462	4494.82173
857.645	4406.7999
857.828	4576.52145
858.011	4589.08764
858.194	4532.53348
858.377	4482.24955
858.56	4693.77459
858.743	4622.59355
858.926	4371.16106
859.109	4274.69514
859.292	4379.54723
859.475	4341.8067
859.658	4417.28072
859.841	4226.44514
860.023	4524.15371
860.206	4140.40641
860.389	4264.20697
860.572	4205.46336
860.755	4218.05268
860.937	4090.02587
861.12	4205.46336
861.303	4083.72745
861.486	4415.1846
861.668	4008.13197
861.851	4289.37768
862.034	4348.09728
862.216	4482.24955
862.399	4314.54529
862.581	4343.90358
862.764	4180.28243
862.947	4532.53348
863.129	4232.73926
863.312	4413.08846
863.494	4062.7314
863.677	4213.85633
863.859	4146.70313
864.042	3970.32424
864.224	3861.06503
864.406	4050.13277
864.589	4087.92642
864.771	4016.53279
864.954	3875.77616
865.136	3911.49912
865.318	3783.29003
865.501	3955.61945
865.683	3884.18209
865.865	3821.12989
866.048	3617.14081
866.23	3928.30792
866.412	3959.82092
866.594	3619.24471
866.777	3705.48823
866.959	3810.61946
867.141	3568.74598
867.323	3795.90402
867.505	3585.58008
867.687	3896.79037
867.869	3730.72415
868.052	4048.03292
868.234	3585.58008
868.416	3867.36992
868.598	3659.21519
868.78	3758.05993
868.962	3591.89257
869.144	3728.62127
869.326	3450.87429
869.508	3566.64163
869.69	3547.70168
869.872	3655.0081
870.054	3522.44608
870.236	3600.30895
870.417	3558.22406
870.599	3652.90452
870.781	3448.76892
870.963	3610.829
871.145	3539.28344
871.327	3640.28266
871.508	3501.39773
871.69	3739.13551
871.872	3537.17883
872.054	3522.44608
872.235	3379.28176
872.417	3676.04282
872.599	3261.32068
872.78	3619.24471
872.962	3326.62724
873.144	3490.87288
873.325	3208.64228
873.507	3667.62916
873.689	3419.29188
873.87	3469.8218
874.052	3343.47787
874.233	3311.88203
874.415	3288.70929
874.596	3629.76392
874.778	3313.98854
874.959	3406.6578
875.141	3349.79657
875.322	3617.14081
875.503	3322.41441
875.685	3444.55813
875.866	3217.07152
876.048	3217.07152
876.229	3265.53449
876.41	3408.76352
876.592	3128.55139
876.773	3417.18625
876.954	3273.96193
877.136	3499.2928
877.317	3204.42756
877.498	3461.40087
877.679	3507.71243
877.86	3560.32848
878.042	3461.40087
878.223	3692.86923
878.404	3402.44629
878.585	3560.32848
878.766	3537.17883
878.947	3638.17895
879.128	3389.81136
879.309	3492.97788
879.49	3457.19029
879.672	3764.36772
879.853	3495.08287
880.034	3650.80092
880.215	3389.81136
880.396	3650.80092
880.576	3396.12891
880.757	3713.90051
880.938	3318.20151
881.119	3716.00354
881.3	3575.05891
881.481	3579.26743
881.662	3442.45271
881.843	3486.66281
882.023	3166.49211
882.204	3543.49259
882.385	3406.6578
882.566	3575.05891
882.747	3461.40087
882.927	3667.62916
883.108	3305.5624
883.289	3448.76892
883.469	3417.18625
883.65	3507.71243
883.831	3311.88203
884.011	3568.74598
884.192	3457.19029
884.373	3482.45266
884.553	3499.2928
884.734	3583.47588
884.914	3240.25057
885.095	3400.34052
885.275	3389.81136
885.456	3768.57281
885.636	3415.08059
885.817	3743.34107
885.997	3419.29188
886.178	3684.45618
886.358	3419.29188
886.538	3562.43288
886.719	3492.97788
886.899	3699.17882
887.08	3593.99669
887.26	3568.74598
887.44	3604.51702
887.621	3579.26743
887.801	3490.87288
887.981	3697.07564
888.161	3423.5031
888.342	3566.64163
888.522	3469.8218
888.702	3776.98277
888.882	3391.91723
889.062	3474.03216
889.242	3389.81136
889.423	3551.91068
889.603	3463.50613
889.783	3663.42221
889.963	3476.13731
890.143	3697.07564
890.323	3398.23472
890.503	3751.75196
890.683	3541.38803
890.863	3585.58008
891.043	3537.17883
891.223	3377.17579
891.403	3492.97788
891.583	3398.23472
891.763	3389.81136
891.943	3448.76892
892.122	3326.62724
892.302	3516.13177
892.482	3558.22406
892.662	3322.41441
892.842	3408.76352
893.022	3526.65553
893.201	3181.24541
893.381	3366.64567
893.561	3427.71425
893.741	3419.29188
893.92	3297.13598
894.1	3503.50265
894.28	3240.25057
894.459	3303.45582
894.639	3151.73801
894.819	3347.69035
894.998	3208.64228
895.178	3345.58412
895.357	3162.27673
895.537	3143.30673
895.716	2989.3916
895.896	3229.71489
896.075	2989.3916
896.255	3035.78571
896.434	2835.39605
896.614	3223.39328
896.793	2782.6404
896.973	3067.41378
897.152	3086.38895
897.331	3415.08059
897.511	2991.50058
897.69	3221.28604
897.87	2976.73739
898.049	3257.10679
898.228	2757.31466
898.407	2961.97346
898.587	2799.52314
898.766	2850.16607
898.945	2742.54041
899.124	2886.03324
899.304	2864.9354
899.483	3061.08845
899.662	2818.51518
899.841	2856.49587
900.02	2677.10388
900.199	2757.31466
900.378	2660.21502
900.557	2869.15508
900.737	2689.76999
900.916	2765.75679
901.095	2461.71276
901.274	2820.62534
901.453	2537.74716
901.632	2541.97086
901.811	2461.71276
901.989	2702.43563
902.168	2516.62797
902.347	2788.97153
902.526	2573.64711
902.705	2634.88022
902.884	2622.21214
903.063	2664.43731
903.242	2425.80264
903.42	2470.16174
903.599	2368.76263
903.778	2558.86519
903.957	2396.22728
904.135	2413.12774
904.314	2258.88736
904.493	2539.85902
904.672	2326.506
904.85	2385.66416
905.029	2123.62285
905.207	2263.11381
905.386	2055.97834
905.565	2157.44217
905.743	2030.60975
905.922	2024.26744
906.1	1855.11898
906.279	2117.2815
906.457	1734.58094
906.636	2022.15333
906.814	1736.69576
906.993	1825.51444
907.171	1914.32511
907.35	1886.83705
907.528	1759.95847
907.707	1753.61414
907.885	1696.51373
908.063	1812.82651
908.242	1607.68664
908.42	1939.69786
908.598	1669.02012
908.777	1950.2696
908.955	1751.49935
909.133	1924.89719
909.311	1707.08806
909.49	1819.17049
909.668	1713.43262
909.846	2022.15333
910.024	1903.75289
910.202	1916.43953
910.38	1884.72255
910.559	1914.32511
910.737	1607.68664
910.915	1842.43143
911.093	1637.29615
911.271	1888.95155
911.449	1548.46654
911.627	1776.87652
911.805	1633.06625
911.983	1643.64099
912.161	1449.0595
912.339	1956.61257
912.517	1740.92537
912.695	1840.31682
912.872	1683.82443
913.05	1914.32511
913.228	1692.28397
913.406	1962.95549
913.584	1609.80162
913.762	1671.13503
913.939	1620.37648
914.117	1702.85834
914.295	1470.21003
914.473	1719.77715
914.65	1531.54631
914.828	1772.64703
915.006	1497.70566
915.184	1785.33545
915.361	1639.4111
915.539	1872.03543
915.716	1664.79029
915.894	1802.25311
916.072	1675.36484
916.249	1789.56489
916.427	1582.30675
916.604	1652.10074
916.782	1311.58247
916.959	1520.97113
917.137	1465.97992
917.314	1620.37648
917.492	1518.85609
917.669	1594.99673
917.847	1451.17456
918.024	1588.65175
918.201	1544.23649
918.379	1540.00643
918.556	1430.02404
918.733	1573.84674
918.911	1336.96248
919.088	1702.85834
919.265	1360.22769
919.442	1630.95129
919.62	1235.44426
919.797	1398.29832
919.974	1231.21446
920.151	1465.97992
920.328	1328.50245
920.506	1368.6878
920.683	1334.84747
920.86	1550.58156
921.037	1193.14681
921.214	1355.99764
921.391	1303.12252
921.568	1423.67889
921.745	1210.06564
921.922	1366.57277
922.099	1144.50651
922.276	1362.34271
922.453	1104.32706
922.63	1355.99764
922.807	1081.06605
922.984	1375.0329
923.161	1140.27702
923.338	1303.12252
923.514	1097.98309
923.691	1269.28308
923.868	1095.86844
924.045	1182.57266
924.222	1174.11341
924.399	1286.20273
924.575	1102.2124
924.752	1146.62126
924.929	1104.32706
925.105	1059.92022
925.282	1074.72225
925.459	1169.8838
925.635	1112.78575
925.812	1243.9039
925.989	943.62879
926.165	1062.03478
926.342	871.75015
926.518	1161.42464
926.695	907.68835
926.871	1114.90044
927.048	892.88998
927.224	952.08568
927.401	804.10846
927.577	926.71537
927.754	770.29117
927.93	1011.28694
928.107	878.09201
928.283	956.31416
928.459	808.3358
928.636	947.85722
928.812	658.29044
928.988	899.23209
929.165	751.27006
929.341	939.40039
929.517	782.97236
929.693	888.66195
929.87	685.75944
930.046	880.20598
930.222	630.82344
930.398	833.70058
930.574	605.47113
930.751	774.5182
930.927	592.79566
931.103	770.29117
931.279	605.47113
931.455	782.97236
931.631	584.34561
931.807	668.85521
931.983	542.09852
932.159	660.40337
932.335	499.85698
932.511	626.59793
932.687	607.58375
932.863	694.21183
933.039	508.30483
933.215	618.14706
933.391	609.69639
933.566	584.34561
933.742	459.73291
933.918	573.78333
934.094	423.8371
934.27	485.0738
934.445	373.16856
934.621	537.87412
934.797	432.28277
934.973	504.08088
935.148	366.83566
935.324	375.27956
935.5	358.39204
935.675	385.8348
935.851	360.50292
936.027	419.61437
936.202	339.39489
936.378	390.05702
936.553	375.27956
936.729	383.72372
936.904	233.8818
937.08	280.30186
937.255	248.65082
937.431	276.08147
937.606	200.12766
937.782	181.14322
937.957	250.76076
938.133	170.59702
938.308	204.34665
938.483	273.97131
938.659	138.96154
938.834	191.68993
939.009	145.28826
939.185	231.77202
939.36	79.92161
939.535	105.22233
939.71	157.94226
939.886	189.58055
940.061	164.26954
940.236	160.05133
940.411	130.52622
940.586	107.33087
940.761	185.36184
940.937	31.43768
941.112	136.85268
941.287	111.54801
941.462	138.96154
941.637	136.85268
941.812	69.38059
941.987	130.52622
942.162	88.35483
942.337	145.28826
942.512	-40.21131
942.687	103.11382
942.862	134.74384
943.037	52.51615
943.212	31.43768
943.386	44.08449
943.561	73.59693
943.736	27.22227
943.911	128.41744
944.086	75.70514
944.26	128.41744
944.435	52.51615
944.61	71.48875
944.785	101.00532
944.959	126.30869
945.134	48.30027
945.309	98.89685
945.483	92.57157
945.658	101.00532
945.833	60.94819
946.007	77.81336
946.182	63.05626
946.357	8.25407
946.531	155.83321
946.706	29.32996
946.88	77.81336
947.055	18.79172
947.229	138.96154
947.404	48.30027
947.578	115.76524
947.752	90.46319
947.927	103.11382
948.101	67.27246
948.276	105.22233
948.45	122.09124
948.624	109.43943
948.799	60.94819
948.973	63.05626
949.147	111.54801
949.321	105.22233
949.496	73.59693
949.67	141.07043
949.844	77.81336
950.018	111.54801
950.193	27.22227
950.367	111.54801
950.541	98.89685
950.715	96.7884
950.889	90.46319
951.063	77.81336
951.237	119.98255
951.411	67.27246
951.585	96.7884
951.759	86.24649
951.933	109.43943
952.107	50.4082
952.281	98.89685
952.455	52.51615
952.629	179.03394
952.803	31.43768
952.977	44.08449
953.151	101.00532
953.325	82.02988
953.499	162.16043
953.672	69.38059
953.846	60.94819
954.02	88.35483
954.194	160.05133
954.368	69.38059
954.541	82.02988
954.715	128.41744
954.889	52.51615
955.062	122.09124
955.236	162.16043
955.41	39.86879
955.583	119.98255
955.757	92.57157
955.93	90.46319
956.104	170.59702
956.278	126.30869
956.451	90.46319
956.625	98.89685
956.798	130.52622
956.972	138.96154
957.145	73.59693
957.319	65.16435
957.492	109.43943
957.665	73.59693
957.839	86.24649
958.012	77.81336
958.185	166.37868
958.359	124.19996
958.532	88.35483
958.705	138.96154
958.879	155.83321
959.052	124.19996
959.225	65.16435
959.398	90.46319
959.572	90.46319
959.745	88.35483
959.918	86.24649
960.091	39.86879
960.264	35.65319
960.438	136.85268
960.611	71.48875
960.784	88.35483
960.957	94.67998
961.13	71.48875
961.303	86.24649
961.476	170.59702
961.649	35.65319
961.822	128.41744
961.995	71.48875
962.168	111.54801
962.341	119.98255
962.514	77.81336
962.686	39.86879
962.859	115.76524
963.032	113.65661
963.205	124.19996
963.378	52.51615
963.551	155.83321
963.723	86.24649
963.896	119.98255
964.069	63.05626
964.242	96.7884
964.414	84.13817
964.587	101.00532
964.76	105.22233
964.932	88.35483
965.105	94.67998
965.278	52.51615
965.45	44.08449
965.623	94.67998
965.795	69.38059
965.968	79.92161
966.14	115.76524
966.313	105.22233
966.485	119.98255
966.658	39.86879
966.83	44.08449
967.003	60.94819
967.175	46.19237
967.348	90.46319
967.52	122.09124
967.692	69.38059
967.865	73.59693
968.037	82.02988
968.209	119.98255
968.382	86.24649
968.554	65.16435
968.726	41.97663
968.898	103.11382
969.071	63.05626
969.243	119.98255
969.415	33.54542
969.587	69.38059
969.759	86.24649
969.932	69.38059
970.104	98.89685
970.276	29.32996
970.448	77.81336
970.62	50.4082
970.792	130.52622
970.964	63.05626
971.136	52.51615
971.308	128.41744
971.48	-0.17561
971.652	94.67998
971.824	69.38059
971.996	23.00695
972.168	54.62413
972.339	-4.39031
972.511	94.67998
972.683	136.85268
972.855	4.03918
973.027	98.89685
973.199	52.51615
973.37	90.46319
973.542	82.02988
973.714	119.98255
973.886	60.94819
974.057	86.24649
974.229	79.92161
974.401	44.08449
974.572	54.62413
974.744	65.16435
974.915	52.51615
975.087	73.59693
975.259	46.19237
975.43	86.24649
975.602	48.30027
975.773	52.51615
975.945	88.35483
976.116	-12.81942
976.288	48.30027
976.459	35.65319
976.63	4.03918
976.802	52.51615
976.973	115.76524
977.145	29.32996
977.316	63.05626
977.487	44.08449
977.659	-6.49763
977.83	60.94819
978.001	82.02988
978.172	54.62413
978.344	111.54801
978.515	23.00695
978.686	79.92161
978.857	27.22227
979.028	44.08449
979.2	54.62413
979.371	27.22227
979.542	69.38059
979.713	77.81336
979.884	94.67998
980.055	50.4082
980.226	29.32996
980.397	37.76098
980.568	86.24649
980.739	12.46906
980.91	103.11382
981.081	31.43768
981.252	35.65319
981.423	10.36155
981.594	6.14661
981.765	98.89685
981.936	27.22227
982.106	-6.49763
982.277	94.67998
982.448	18.79172
982.619	71.48875
982.79	69.38059
982.96	46.19237
983.131	77.81336
983.302	82.02988
983.472	27.22227
983.643	31.43768
983.814	18.79172
983.984	98.89685
984.155	60.94819
984.326	56.73213
984.496	18.79172
984.667	77.81336
984.837	63.05626
985.008	103.11382
985.178	48.30027
985.349	37.76098
985.519	92.57157
985.69	6.14661
985.86	-12.81942
986.031	35.65319
986.201	35.65319
986.371	65.16435
986.542	94.67998
986.712	-2.28298
986.882	50.4082
987.053	52.51615
987.223	-12.81942
987.393	54.62413
987.563	44.08449
987.734	63.05626
987.904	134.74384
988.074	20.89932
988.244	54.62413
988.414	35.65319
988.585	46.19237
988.755	27.22227
988.925	33.54542
989.095	1.93177
989.265	18.79172
989.435	-99.19478
989.605	-46.53192
989.775	4.03918
989.945	79.92161
990.115	77.81336
990.285	60.94819
990.455	54.62413
990.625	35.65319
990.795	35.65319
990.965	-25.46235
991.134	-4.39031
991.304	82.02988
991.474	71.48875
991.644	88.35483
991.814	31.43768
991.984	20.89932
992.153	94.67998
992.323	18.79172
992.493	20.89932
992.662	119.98255
992.832	10.36155
993.002	48.30027
993.171	124.19996
993.341	12.46906
993.511	37.76098
993.68	-6.49763
993.85	35.65319
994.019	46.19237
994.189	10.36155
994.358	103.11382
994.528	52.51615
994.697	-50.74553
994.867	4.03918
995.036	-4.39031
995.206	73.59693
995.375	-0.17561
995.544	-10.71218
995.714	77.81336
995.883	-14.92664
996.052	-0.17561
996.222	-6.49763
996.391	54.62413
996.56	58.84015
996.73	-29.67646
996.899	41.97663
997.068	37.76098
997.237	52.51615
997.406	27.22227
997.576	12.46906
997.745	10.36155
997.914	-19.141
998.083	-6.49763
998.252	-29.67646
998.421	27.22227
998.59	20.89932
998.759	14.57659
998.928	35.65319
999.097	18.79172
999.266	-2.28298
999.435	39.86879
999.604	71.48875
999.773	31.43768
999.942	25.11459
1000.111	-2.28298
1000.28	10.36155
1000.448	77.81336
1000.617	75.70514
1000.786	54.62413
1000.955	-6.49763
1001.124	-6.49763
1001.292	6.14661
1001.461	-48.63874
1001.63	-19.141
1001.798	31.43768
1001.967	-57.06577
1002.136	-12.81942
1002.304	-31.78348
1002.473	23.00695
1002.642	44.08449
1002.81	60.94819
1002.979	37.76098
1003.147	31.43768
1003.316	-6.49763
1003.484	25.11459
1003.653	-10.71218
1003.821	-25.46235
1003.99	-31.78348
1004.158	-6.49763
1004.327	77.81336
1004.495	44.08449
1004.663	-23.35526
1004.832	1.93177
1005	44.08449
1005.168	-12.81942
1005.337	71.48875
1005.505	-14.92664
1005.673	35.65319
1005.842	1.93177
1006.01	-0.17561
1006.178	46.19237
1006.346	-46.53192
1006.514	31.43768
1006.683	44.08449
1006.851	-6.49763
1007.019	20.89932
1007.187	-4.39031
1007.355	18.79172
1007.523	-2.28298
1007.691	44.08449
1007.859	71.48875
1008.027	27.22227
1008.195	1.93177
1008.363	-6.49763
1008.531	-29.67646
1008.699	6.14661
1008.867	37.76098
1009.035	31.43768
1009.203	65.16435
1009.37	48.30027
1009.538	-14.92664
1009.706	52.51615
1009.874	27.22227
1010.042	35.65319
1010.209	46.19237
1010.377	1.93177
1010.545	-29.67646
1010.713	37.76098
1010.88	27.22227
1011.048	18.79172
1011.216	27.22227
1011.383	-12.81942
1011.551	14.57659
1011.718	27.22227
1011.886	52.51615
1012.054	-19.141
1012.221	65.16435
1012.389	-12.81942
1012.556	35.65319
1012.724	10.36155
1012.891	-14.92664
1013.058	69.38059
1013.226	84.13817
1013.393	44.08449
1013.561	1.93177
1013.728	10.36155
1013.895	-10.71218
1014.063	-31.78348
1014.23	-35.99745
1014.397	94.67998
1014.565	86.24649
1014.732	-35.99745
1014.899	23.00695
1015.066	-8.60492
1015.233	-48.63874
1015.401	1.93177
1015.568	37.76098
1015.735	56.73213
1015.902	18.79172
1016.069	-23.35526
1016.236	-38.10439
1016.403	-46.53192
1016.57	10.36155
1016.737	-48.63874
1016.904	-2.28298
1017.071	44.08449
1017.238	-8.60492
1017.405	14.57659
1017.572	52.51615
1017.739	44.08449
1017.906	-40.21131
1018.073	-23.35526
1018.24	-27.56942
1018.407	35.65319
1018.573	-46.53192
1018.74	46.19237
1018.907	77.81336
1019.074	-38.10439
1019.241	29.32996
1019.407	-31.78348
1019.574	1.93177
1019.741	39.86879
1019.907	10.36155
1020.074	35.65319
1020.241	-27.56942
1020.407	6.14661
1020.574	44.08449
1020.74	-21.24814
1020.907	18.79172
1021.073	20.89932
1021.24	29.32996
1021.406	-6.49763
1021.573	60.94819
1021.739	-0.17561
1021.906	18.79172
1022.072	-4.39031
1022.239	-23.35526
1022.405	8.25407
1022.571	6.14661
1022.738	-14.92664
1022.904	-29.67646
1023.07	73.59693
1023.237	29.32996
1023.403	-48.63874
1023.569	31.43768
1023.735	-94.98234
1023.902	35.65319
1024.068	63.05626
1024.234	-0.17561
1024.4	16.68414
1024.566	37.76098
1024.732	-21.24814
1024.898	60.94819
1025.065	-69.70555
1025.231	-2.28298
1025.397	-65.49239
1025.563	44.08449
1025.729	-23.35526
1025.895	27.22227
1026.061	-35.99745
1026.227	14.57659
1026.392	1.93177
1026.558	1.93177
1026.724	4.03918
1026.89	117.87389
1027.056	-23.35526
1027.222	58.84015
1027.388	1.93177
1027.553	37.76098
1027.719	-14.92664
1027.885	4.03918
1028.051	20.89932
1028.216	29.32996
1028.382	46.19237
1028.548	33.54542
1028.713	86.24649
1028.879	92.57157
1029.045	10.36155
1029.21	10.36155
1029.376	29.32996
1029.541	39.86879
1029.707	-29.67646
1029.873	63.05626
1030.038	31.43768
1030.204	-33.89048
1030.369	-27.56942
1030.534	1.93177
1030.7	1.93177
1030.865	-65.49239
1031.031	6.14661
1031.196	-80.238
1031.361	-17.03383
1031.527	-78.13156
1031.692	-23.35526
1031.857	48.30027
1032.023	-35.99745
1032.188	44.08449
1032.353	-23.35526
1032.518	60.94819
1032.684	14.57659
1032.849	-48.63874
1033.014	-14.92664
1033.179	10.36155
1033.344	-14.92664
1033.509	10.36155
1033.674	-27.56942
1033.839	31.43768
1034.004	29.32996
1034.17	-14.92664
1034.335	52.51615
1034.5	-29.67646
1034.664	63.05626
1034.829	-29.67646
1034.994	-14.92664
1035.159	-23.35526
1035.324	60.94819
1035.489	-27.56942
1035.654	39.86879
1035.819	-6.49763
1035.984	4.03918
1036.148	-46.53192
1036.313	-38.10439
1036.478	27.22227
1036.643	18.79172
1036.807	-29.67646
1036.972	-19.141
1037.137	25.11459
1037.301	8.25407
1037.466	35.65319
1037.631	-35.99745
1037.795	-65.49239
1037.96	88.35483
1038.124	-44.42508
1038.289	-6.49763
1038.454	-54.95905
1038.618	60.94819
1038.783	-29.67646
1038.947	-82.34441
1039.111	-6.49763
1039.276	-12.81942
1039.44	-48.63874
1039.605	6.14661
1039.769	-31.78348
1039.933	16.68414
1040.098	37.76098
1040.262	58.84015
1040.426	-4.39031
1040.591	52.51615
1040.755	-107.61934
1040.919	60.94819
1041.083	-35.99745
1041.248	31.43768
1041.412	37.76098
1041.576	-50.74553
1041.74	10.36155
1041.904	-25.46235
1042.068	12.46906
1042.232	-92.87609
1042.397	-4.39031
1042.561	-52.8523
1042.725	46.19237
1042.889	29.32996
1043.053	27.22227
1043.217	14.57659
1043.381	23.00695
1043.544	-4.39031
1043.708	4.03918
1043.872	-14.92664
1044.036	10.36155
1044.2	88.35483
1044.364	-33.89048
1044.528	-48.63874
1044.691	4.03918
1044.855	-38.10439
1045.019	-17.03383
1045.183	-52.8523
1045.346	-40.21131
1045.51	-6.49763
1045.674	16.68414
1045.837	50.4082
1046.001	-27.56942
1046.165	10.36155
1046.328	-14.92664
1046.492	25.11459
1046.655	-14.92664
1046.819	48.30027
1046.983	-27.56942
1047.146	58.84015
1047.31	25.11459
1047.473	-25.46235
1047.636	29.32996
1047.8	-0.17561
1047.963	-14.92664
1048.127	-35.99745
1048.29	12.46906
