Data from mixed_try6.1_USB4F045381__16__00300.txt Node

Date: Thu Apr 03 20:32:37 EDT 2025
User: mmckonesweet
Spectrometer: USB4F04538
Trigger mode: 4
Integration Time (sec): 2.700000E-3
Scans to average: 1
Electric dark correction enabled: true
Nonlinearity correction enabled: true
Boxcar width: 0
XAxis mode: Wavelengths
Number of Pixels in Spectrum: 3648
>>>>>Begin Spectral Data<<<<<
345.52	10.53718
345.736	10.53718
345.952	10.53718
346.168	48.47593
346.384	61.12386
346.6	-27.39383
346.816	-40.03573
347.032	21.07496
347.248	46.36803
347.464	-2.10736
347.68	63.23193
347.896	-18.9654
348.112	-8.42931
348.328	27.39791
348.544	-18.9654
348.76	-25.28676
348.975	-16.85823
349.191	27.39791
349.407	18.96735
349.623	10.53718
349.839	23.18258
350.055	-40.03573
350.27	31.61332
350.486	35.82884
350.702	-31.6079
350.918	69.55627
351.133	46.36803
351.349	-14.75104
351.565	25.29023
351.781	-4.2147
351.996	-6.32202
352.212	10.53718
352.428	27.39791
352.644	10.53718
352.859	99.07256
353.075	80.0973
353.291	-29.50088
353.506	27.39791
353.722	-96.91306
353.938	-4.2147
354.153	25.29023
354.369	21.07496
354.584	-73.74306
354.8	-31.6079
355.016	-14.75104
355.231	29.5056
355.447	-65.31684
355.662	-82.16888
355.878	54.79979
356.093	44.26014
356.309	-14.75104
356.524	-14.75104
356.74	-23.17966
356.955	10.53718
357.171	-2.10736
357.386	-84.27527
357.602	69.55627
357.817	-56.89021
358.033	31.61332
358.248	-52.67674
358.464	-69.53
358.679	-21.07254
358.895	-21.07254
359.11	-12.64382
359.325	4.2148
359.541	40.04444
359.756	21.07496
359.972	2.10739
360.187	18.96735
360.402	-71.63655
360.618	18.96735
360.833	23.18258
361.048	-12.64382
361.264	16.85977
361.479	25.29023
361.694	-12.64382
361.909	8.4297
362.125	33.72107
362.34	75.88082
362.555	35.82884
362.77	18.96735
362.986	23.18258
363.201	54.79979
363.416	21.07496
363.631	-0
363.847	21.07496
364.062	4.2148
364.277	6.32224
364.492	23.18258
364.707	2.10739
364.922	52.69182
365.138	-4.2147
365.353	90.63889
365.568	27.39791
365.783	-14.75104
365.998	-58.9969
366.213	4.2148
366.428	-23.17966
366.643	-61.10358
366.858	40.04444
367.073	-73.74306
367.288	14.75222
367.503	-25.28676
367.718	-40.03573
367.933	40.04444
368.148	6.32224
368.363	27.39791
368.578	12.64469
368.793	50.58386
369.008	-37.92881
369.223	2.10739
369.438	44.26014
369.653	35.82884
369.868	63.23193
370.083	-14.75104
370.298	-35.82187
370.513	6.32224
370.728	18.96735
370.943	37.93663
371.157	111.72373
371.372	44.26014
371.587	33.72107
371.802	6.32224
372.017	10.53718
372.232	-14.75104
372.446	27.39791
372.661	-12.64382
372.876	44.26014
373.091	14.75222
373.306	-27.39383
373.52	-2.10736
373.735	-35.82187
373.95	-10.53658
374.165	6.32224
374.379	-42.14263
374.594	37.93663
374.809	54.79979
375.023	-35.82187
375.238	2.10739
375.453	-29.50088
375.667	48.47593
375.882	-82.16888
376.097	-10.53658
376.311	-65.31684
376.526	-14.75104
376.741	-31.6079
376.955	10.53718
377.17	-0
377.384	42.15228
377.599	-29.50088
377.813	46.36803
378.028	-37.92881
378.242	35.82884
378.457	-40.03573
378.672	-48.46317
378.886	-14.75104
379.101	59.01582
379.315	-46.35635
379.53	-6.32202
379.744	-40.03573
379.958	31.61332
380.173	-14.75104
380.387	-6.32202
380.602	-44.2495
380.816	-29.50088
381.031	-4.2147
381.245	-2.10736
381.459	-6.32202
381.674	44.26014
381.888	-48.46317
382.103	16.85977
382.317	52.69182
382.531	-14.75104
382.746	18.96735
382.96	56.90779
383.174	-46.35635
383.388	52.69182
383.603	-23.17966
383.817	-4.2147
384.031	14.75222
384.246	16.85977
384.46	21.07496
384.674	-37.92881
384.888	-25.28676
385.103	2.10739
385.317	-31.6079
385.531	-2.10736
385.745	-31.6079
385.959	37.93663
386.174	31.61332
386.388	35.82884
386.602	-8.42931
386.816	61.12386
387.03	44.26014
387.244	-37.92881
387.458	-35.82187
387.672	31.61332
387.887	-29.50088
388.101	-6.32202
388.315	31.61332
388.529	-2.10736
388.743	44.26014
388.957	86.42218
389.171	73.77262
389.385	-40.03573
389.599	-10.53658
389.813	48.47593
390.027	-48.46317
390.241	65.34002
390.455	31.61332
390.669	8.4297
390.883	-44.2495
391.097	-4.2147
391.311	35.82884
391.525	-10.53658
391.738	61.12386
391.952	-6.32202
392.166	-21.07254
392.38	-48.46317
392.594	77.98905
392.808	-80.06246
393.022	-46.35635
393.236	-12.64382
393.449	-10.53658
393.663	52.69182
393.877	18.96735
394.091	21.07496
394.305	61.12386
394.518	-4.2147
394.732	-6.32202
394.946	6.32224
395.16	-35.82187
395.373	23.18258
395.587	10.53718
395.801	-56.89021
396.015	35.82884
396.228	-44.2495
396.442	44.26014
396.656	10.53718
396.869	2.10739
397.083	4.2148
397.297	-50.56997
397.51	44.26014
397.724	18.96735
397.938	-48.46317
398.151	-54.78349
398.365	37.93663
398.578	4.2148
398.792	52.69182
399.005	31.61332
399.219	33.72107
399.433	23.18258
399.646	18.96735
399.86	-25.28676
400.073	-6.32202
400.287	37.93663
400.5	40.04444
400.714	-42.14263
400.927	2.10739
401.141	35.82884
401.354	35.82884
401.567	10.53718
401.781	-27.39383
401.994	-35.82187
402.208	27.39791
402.421	-10.53658
402.635	-2.10736
402.848	4.2148
403.061	96.96411
403.275	31.61332
403.488	35.82884
403.701	21.07496
403.915	-8.42931
404.128	-35.82187
404.341	21.07496
404.555	-27.39383
404.768	-2.10736
404.981	6.32224
405.195	21.07496
405.408	69.55627
405.621	-14.75104
405.834	-21.07254
406.048	-132.71498
406.261	-8.42931
406.474	-27.39383
406.687	-61.10358
406.9	31.61332
407.114	-56.89021
407.327	-69.53
407.54	10.53718
407.753	44.26014
407.966	29.5056
408.179	44.26014
408.392	-21.07254
408.605	-42.14263
408.819	2.10739
409.032	-40.03573
409.245	21.07496
409.458	50.58386
409.671	18.96735
409.884	-8.42931
410.097	-27.39383
410.31	82.20557
410.523	-52.67674
410.736	-14.75104
410.949	-18.9654
411.162	-6.32202
411.375	18.96735
411.588	10.53718
411.801	10.53718
412.014	69.55627
412.227	16.85977
412.44	35.82884
412.653	37.93663
412.865	-21.07254
413.078	12.64469
413.291	40.04444
413.504	-18.9654
413.717	52.69182
413.93	-25.28676
414.143	52.69182
414.356	14.75222
414.568	-14.75104
414.781	18.96735
414.994	-10.53658
415.207	-52.67674
415.42	-6.32202
415.632	16.85977
415.845	-33.71489
416.058	-14.75104
416.271	35.82884
416.483	128.59318
416.696	54.79979
416.909	29.5056
417.121	96.96411
417.334	31.61332
417.547	10.53718
417.759	-6.32202
417.972	-88.48797
418.185	-14.75104
418.397	-33.71489
418.61	4.2148
418.823	48.47593
419.035	-10.53658
419.248	48.47593
419.46	14.75222
419.673	40.04444
419.885	-21.07254
420.098	-48.46317
420.311	48.47593
420.523	35.82884
420.736	52.69182
420.948	-6.32202
421.161	86.42218
421.373	-4.2147
421.586	-103.2316
421.798	-61.10358
422.01	27.39791
422.223	18.96735
422.435	35.82884
422.648	69.55627
422.86	54.79979
423.073	-12.64382
423.285	65.34002
423.497	40.04444
423.71	-14.75104
423.922	-2.10736
424.134	-4.2147
424.347	33.72107
424.559	-65.31684
424.771	29.5056
424.984	-6.32202
425.196	46.36803
425.408	10.53718
425.621	4.2148
425.833	-21.07254
426.045	31.61332
426.257	31.61332
426.47	37.93663
426.682	-14.75104
426.894	25.29023
427.106	21.07496
427.318	-21.07254
427.531	-4.2147
427.743	27.39791
427.955	40.04444
428.167	10.53718
428.379	-6.32202
428.591	18.96735
428.804	12.64469
429.016	80.0973
429.228	12.64469
429.44	35.82884
429.652	-0
429.864	48.47593
430.076	14.75222
430.288	6.32224
430.5	10.53718
430.712	-12.64382
430.924	4.2148
431.136	-40.03573
431.348	16.85977
431.56	4.2148
431.772	-18.9654
431.984	37.93663
432.196	23.18258
432.408	35.82884
432.62	35.82884
432.832	10.53718
433.044	44.26014
433.256	29.5056
433.468	-46.35635
433.679	-14.75104
433.891	40.04444
434.103	4.2148
434.315	-23.17966
434.527	31.61332
434.739	23.18258
434.95	-4.2147
435.162	-12.64382
435.374	-27.39383
435.586	27.39791
435.798	-84.27527
436.009	-63.21022
436.221	37.93663
436.433	-12.64382
436.645	-31.6079
436.856	12.64469
437.068	-21.07254
437.28	-50.56997
437.491	18.96735
437.703	-14.75104
437.915	71.66443
438.126	-44.2495
438.338	33.72107
438.55	33.72107
438.761	2.10739
438.973	54.79979
439.184	35.82884
439.396	-48.46317
439.608	10.53718
439.819	14.75222
440.031	4.2148
440.242	65.34002
440.454	-71.63655
440.665	10.53718
440.877	-6.32202
441.088	14.75222
441.3	-31.6079
441.511	-21.07254
441.723	31.61332
441.934	-16.85823
442.146	42.15228
442.357	52.69182
442.569	-6.32202
442.78	-29.50088
442.991	-18.9654
443.203	86.42218
443.414	2.10739
443.626	-12.64382
443.837	61.12386
444.048	29.5056
444.26	4.2148
444.471	31.61332
444.682	71.66443
444.894	40.04444
445.105	29.5056
445.316	-56.89021
445.528	35.82884
445.739	40.04444
445.95	37.93663
446.161	-44.2495
446.373	54.79979
446.584	14.75222
446.795	50.58386
447.006	40.04444
447.217	10.53718
447.429	12.64469
447.64	48.47593
447.851	44.26014
448.062	37.93663
448.273	-48.46317
448.484	29.5056
448.695	-33.71489
448.907	-40.03573
449.118	35.82884
449.329	134.91958
449.54	27.39791
449.751	61.12386
449.962	21.07496
450.173	54.79979
450.384	109.61514
450.595	48.47593
450.806	16.85977
451.017	10.53718
451.228	-52.67674
451.439	12.64469
451.65	6.32224
451.861	-71.63655
452.072	14.75222
452.283	2.10739
452.494	-29.50088
452.705	18.96735
452.915	-14.75104
453.126	77.98905
453.337	77.98905
453.548	84.31387
453.759	-35.82187
453.97	52.69182
454.181	-14.75104
454.391	-52.67674
454.602	25.29023
454.813	35.82884
455.024	94.85568
455.235	12.64469
455.445	10.53718
455.656	29.5056
455.867	61.12386
456.078	44.26014
456.288	48.47593
456.499	44.26014
456.71	42.15228
456.921	-6.32202
457.131	-14.75104
457.342	-23.17966
457.553	14.75222
457.763	40.04444
457.974	12.64469
458.184	-23.17966
458.395	-16.85823
458.606	-29.50088
458.816	35.82884
459.027	-8.42931
459.237	25.29023
459.448	2.10739
459.659	-10.53658
459.869	54.79979
460.08	-6.32202
460.29	-18.9654
460.501	-94.80682
460.711	107.50658
460.922	44.26014
461.132	50.58386
461.343	94.85568
461.553	52.69182
461.764	4.2148
461.974	73.77262
462.184	-18.9654
462.395	65.34002
462.605	18.96735
462.816	-42.14263
463.026	-10.53658
463.236	4.2148
463.447	54.79979
463.657	18.96735
463.867	40.04444
464.078	44.26014
464.288	-23.17966
464.498	67.44814
464.709	52.69182
464.919	40.04444
465.129	56.90779
465.339	46.36803
465.55	21.07496
465.76	77.98905
465.97	14.75222
466.18	69.55627
466.391	29.5056
466.601	10.53718
466.811	-8.42931
467.021	23.18258
467.231	-40.03573
467.441	-23.17966
467.651	-37.92881
467.862	-2.10736
468.072	27.39791
468.282	2.10739
468.492	21.07496
468.702	33.72107
468.912	52.69182
469.122	-14.75104
469.332	21.07496
469.542	48.47593
469.752	42.15228
469.962	12.64469
470.172	6.32224
470.382	37.93663
470.592	10.53718
470.802	35.82884
471.012	18.96735
471.222	6.32224
471.432	-73.74306
471.642	27.39791
471.852	35.82884
472.062	14.75222
472.272	-25.28676
472.482	-27.39383
472.691	69.55627
472.901	12.64469
473.111	128.59318
473.321	61.12386
473.531	46.36803
473.741	27.39791
473.95	-54.78349
474.16	-27.39383
474.37	-27.39383
474.58	46.36803
474.79	-0
474.999	94.85568
475.209	105.39804
475.419	27.39791
475.628	10.53718
475.838	77.98905
476.048	63.23193
476.258	46.36803
476.467	63.23193
476.677	-27.39383
476.886	23.18258
477.096	-2.10736
477.306	12.64469
477.515	16.85977
477.725	14.75222
477.935	-8.42931
478.144	44.26014
478.354	-10.53658
478.563	23.18258
478.773	73.77262
478.982	46.36803
479.192	52.69182
479.401	8.4297
479.611	18.96735
479.82	52.69182
480.03	82.20557
480.239	2.10739
480.449	-4.2147
480.658	56.90779
480.868	130.70195
481.077	103.28953
481.287	80.0973
481.496	16.85977
481.705	-4.2147
481.915	65.34002
482.124	96.96411
482.333	25.29023
482.543	77.98905
482.752	96.96411
482.961	77.98905
483.171	63.23193
483.38	54.79979
483.589	35.82884
483.799	77.98905
484.008	77.98905
484.217	69.55627
484.426	77.98905
484.636	80.0973
484.845	88.53052
485.054	29.5056
485.263	63.23193
485.472	111.72373
485.682	37.93663
485.891	63.23193
486.1	61.12386
486.309	80.0973
486.518	14.75222
486.727	71.66443
486.936	84.31387
487.146	120.15828
487.355	61.12386
487.564	46.36803
487.773	145.464
487.982	73.77262
488.191	124.37568
488.4	137.02842
488.609	162.33619
488.818	134.91958
489.027	158.11802
489.236	128.59318
489.445	113.83233
489.654	86.42218
489.863	63.23193
490.072	179.20971
490.281	149.68192
490.49	103.28953
490.698	166.55444
490.907	73.77262
491.116	158.11802
491.325	71.66443
491.534	130.70195
491.743	168.6636
491.952	204.52245
492.16	137.02842
492.369	141.24617
492.578	99.07256
492.787	185.53762
492.996	170.77278
493.204	139.13728
493.413	132.81075
493.622	164.4453
493.831	162.33619
494.039	189.75633
494.248	158.11802
494.457	215.07028
494.665	215.07028
494.874	225.6186
495.083	145.464
495.291	105.39804
495.5	200.30345
495.709	164.4453
495.917	137.02842
496.126	166.55444
496.335	261.48656
496.543	227.72833
496.752	147.57295
496.96	229.83807
497.169	210.85109
497.377	160.22709
497.586	204.52245
497.794	272.03701
498.003	212.96067
498.211	272.03701
498.42	263.59661
498.628	189.75633
498.837	234.05762
499.045	166.55444
499.254	240.38709
499.462	257.26651
499.671	261.48656
499.879	267.81677
500.087	229.83807
500.296	341.68151
500.504	189.75633
500.713	212.96067
500.921	240.38709
501.129	257.26651
501.338	297.36
501.546	196.08454
501.754	244.60683
501.962	274.14716
502.171	333.23872
502.379	348.0138
502.587	267.81677
502.795	326.9068
503.004	312.13296
503.212	428.23586
503.42	297.36
503.628	356.45708
503.837	231.94784
504.045	375.45547
504.253	339.57079
504.461	345.90302
504.669	250.93658
504.877	284.69817
505.085	324.7962
505.294	364.90064
505.502	339.57079
505.71	398.67758
505.918	379.67753
506.126	331.12806
506.334	388.12183
506.542	407.12248
506.75	383.89964
506.958	377.56649
507.166	301.58075
507.374	468.35561
507.582	447.23925
507.79	419.79031
507.998	360.67883
508.206	417.67897
508.414	411.34503
508.622	426.12445
508.83	438.79314
509.037	443.01617
509.245	364.90064
509.453	432.45872
509.661	394.45523
509.869	415.56764
510.077	419.79031
510.285	451.4624
510.492	426.12445
510.7	440.90465
510.908	510.59283
511.116	464.13222
511.324	459.90888
511.531	487.36163
511.739	398.67758
511.947	544.38677
512.155	466.24391
512.362	527.48935
512.57	542.27454
512.778	504.25687
512.985	592.97171
513.193	491.58535
513.401	586.63414
513.608	546.49901
513.816	453.574
514.024	540.16233
514.231	504.25687
514.439	592.97171
514.646	483.13796
514.854	633.11228
515.061	512.70485
515.269	721.85944
515.477	622.54853
515.684	576.0718
515.892	550.72353
516.099	595.08425
516.307	614.09776
516.514	637.33786
516.722	645.78918
516.929	711.29325
517.136	592.97171
517.344	647.90204
517.551	628.88674
517.759	787.37564
517.966	673.25728
518.173	762.01336
518.381	685.93553
518.588	702.8405
518.796	679.59635
519.003	759.89991
519.21	715.51969
519.418	719.74618
519.625	652.12779
519.832	759.89991
520.039	753.55959
520.247	831.76294
520.454	806.39826
520.661	848.67345
520.868	732.42589
521.076	787.37564
521.283	787.37564
521.49	751.44618
521.697	918.43502
521.904	880.38215
522.112	787.37564
522.319	869.81237
522.526	838.10432
522.733	863.47061
522.94	846.55961
523.147	882.49613
523.354	948.03341
523.561	986.09053
523.768	905.75044
523.975	916.3209
524.183	867.69844
524.39	916.3209
524.597	967.06169
524.804	950.14763
525.011	842.33194
525.218	1066.44013
525.425	1051.63825
525.632	1057.98188
525.838	835.99052
526.045	1096.04466
526.252	986.09053
526.459	1053.75279
526.666	1026.26425
526.873	1123.53545
527.08	964.94741
527.287	1138.33851
527.494	964.94741
527.701	1201.78244
527.907	1106.61795
528.114	1216.58649
528.321	1155.25654
528.528	1197.55274
528.735	931.11986
528.941	1256.76969
529.148	1178.51926
529.355	1193.32305
529.562	1057.98188
529.768	1235.6205
529.975	1144.68274
530.182	1210.24188
530.388	1191.20821
530.595	1313.87371
530.802	1161.60087
531.008	1480.96153
531.215	1328.6787
531.422	1280.03409
531.628	1286.37898
531.835	1523.26242
532.042	1320.2187
532.248	1406.93476
532.455	1284.26401
532.661	1440.77555
532.868	1354.05887
533.074	1487.30668
533.281	1349.82882
533.487	1559.2179
533.694	1523.26242
533.9	1571.90798
534.107	1476.73143
534.313	1542.29771
534.52	1411.16485
534.726	1633.24249
534.933	1390.01441
535.139	1569.79297
535.345	1428.08524
535.552	1561.33292
535.758	1464.04112
535.965	1675.54108
536.171	1618.43776
536.377	1677.65598
536.584	1508.45714
536.79	1650.16205
536.996	1548.64279
537.203	1734.75718
537.409	1510.57218
537.615	1719.95339
537.821	1819.34672
538.028	1758.01993
538.234	1576.13799
538.44	1736.87199
538.646	1662.85161
538.853	1766.479
539.059	1684.00067
539.265	1954.67445
539.471	1810.88806
539.677	1889.12776
539.883	1779.16748
540.09	1789.74111
540.296	1819.34672
540.502	2083.63599
540.708	1781.28222
540.914	2085.7499
541.12	1891.24225
541.326	1929.30218
541.532	1906.04355
541.738	1990.61701
541.944	1887.01326
542.15	1874.32617
542.356	1736.87199
542.562	2026.55773
542.768	1965.24597
542.974	2094.20547
543.18	2208.34336
543.386	2149.16367
543.592	2018.10126
543.798	2214.68365
544.004	1971.58881
544.21	2111.11624
544.415	1988.50279
544.621	2193.54905
544.827	2047.69842
545.033	2216.79707
545.239	2056.15451
545.445	2284.42157
545.651	1925.07339
545.856	2166.07282
546.062	2043.47034
546.268	2216.79707
546.474	2187.20851
546.679	2305.5523
546.885	2199.88952
547.091	2402.74108
547.297	2058.26851
547.502	2368.93869
547.708	2250.61047
547.914	2316.11731
548.119	2261.17669
548.325	2483.0109
548.531	2271.74269
548.736	2489.34732
548.942	2447.10264
549.147	2440.76557
549.353	2335.13372
549.559	2491.45944
549.764	2311.89134
549.97	2497.79572
550.175	2381.6149
550.381	2683.61291
550.586	2269.62951
550.792	2683.61291
550.997	2506.24394
551.203	2734.27359
551.408	2550.5941
551.614	2757.49054
551.819	2649.83501
552.025	2723.7199
552.23	2487.23519
552.435	2867.22107
552.641	2613.94246
552.846	2711.05504
553.052	2639.27875
553.257	2778.59545
553.462	2700.50063
553.668	2896.75743
553.873	2708.94419
554.078	2875.66032
554.283	2552.70589
554.489	3044.39592
554.694	2685.72392
554.899	3035.96143
555.105	2761.71163
555.31	2938.9473
555.515	2715.27671
555.72	2892.53812
555.925	2795.4784
556.131	3149.80586
556.336	2879.87985
556.541	2928.40038
556.746	2998.00319
556.951	2926.29095
557.156	2723.7199
557.361	3044.39592
557.567	2932.61919
557.772	2966.36756
557.977	2846.12196
558.182	3132.94294
558.387	3156.12919
558.592	3107.64664
558.797	3080.23973
559.002	3128.72705
559.207	2892.53812
559.412	3160.34466
559.617	3067.58949
559.822	3297.31153
560.027	3063.37261
560.232	3255.1754
560.437	3094.99763
560.642	3305.73794
560.847	3122.4031
561.051	3175.0983
561.256	2964.2584
561.461	3124.5111
561.666	3162.45237
561.871	3400.516
562.076	3288.88485
562.281	3379.45726
562.485	3061.26415
562.69	3537.35422
562.895	3255.1754
563.1	3318.37705
563.305	3156.12919
563.509	3381.56321
563.714	3141.37453
563.919	3295.20489
564.123	3242.53324
564.328	3387.88097
564.533	3413.15039
564.737	3339.44084
564.942	3457.36573
565.147	3509.99269
565.351	3484.73317
565.556	3476.31274
565.761	3501.57314
565.965	3615.21222
566.17	3394.19856
566.374	3545.77252
566.579	3448.94437
566.784	3625.73161
566.988	3642.56165
567.193	3392.09272
567.397	3482.62809
567.602	3701.45724
567.806	3406.83328
568.011	3676.2181
568.215	3549.98156
568.42	3827.61108
568.624	3600.48428
568.828	3629.93923
569.033	3425.78415
569.237	3827.61108
569.442	3760.33776
569.646	3663.59751
569.85	3642.56165
570.055	3871.74821
570.259	3598.38022
570.463	4109.09492
570.668	3758.23515
570.872	3854.9351
571.076	3695.14771
571.281	3936.88691
571.485	3924.28093
571.689	4023.0082
571.893	3970.49929
572.098	4088.10137
572.302	3800.28372
572.506	3978.90158
572.71	3764.54293
572.914	4130.08637
573.119	3667.80445
573.323	3890.66143
573.527	3745.61905
573.731	3846.52806
573.935	4027.20835
574.139	4020.90809
574.343	3871.74821
574.547	4104.89638
574.751	3920.07877
574.955	4163.66834
575.159	4165.76704
575.364	4029.3084
575.568	4102.79707
575.772	4134.28441
575.976	3985.20307
576.18	4046.10805
576.383	4113.29338
576.587	4358.75587
576.791	3972.59989
576.995	4104.89638
577.199	4075.50425
577.403	4193.04815
577.607	4272.77235
577.811	4398.58955
578.015	4358.75587
578.219	4450.9903
578.422	4205.63822
578.626	4515.94817
578.83	4438.41537
579.034	4362.94925
579.238	4333.59371
579.442	4360.85257
579.645	4247.59961
579.849	4373.43235
580.053	4344.07832
580.257	4484.51959
580.46	4507.5677
580.664	4522.23329
580.868	4266.47945
581.071	4402.78211
581.275	4083.90241
581.479	4641.61259
581.682	4534.80294
581.886	4566.22355
582.09	4415.35928
582.293	4511.75798
582.497	4601.82754
582.7	4742.0861
582.904	4482.42417
583.107	4763.01153
583.311	4658.36178
583.515	4773.4734
583.718	4551.56122
583.922	4903.15329
584.125	4645.80002
584.329	4955.4187
584.532	4616.48613
584.735	4758.82663
584.939	4637.42507
585.142	4809.0395
585.346	4549.46651
585.549	4643.70632
585.753	4901.06238
585.956	4974.23073
586.159	4783.9347
586.363	4967.96026
586.566	4861.33065
586.769	4875.96962
586.973	4911.51672
587.176	5093.33017
587.379	4909.4259
587.582	4993.04089
587.786	4819.49887
587.989	4819.49887
588.192	4961.68958
588.395	5268.70768
588.599	4961.68958
588.802	5099.59648
589.005	5013.93888
589.208	5252.01215
589.411	5155.98386
589.615	5289.57499
589.818	4903.15329
590.021	5302.09426
590.224	5053.6387
590.427	5260.36011
590.63	4984.68105
590.833	5235.31513
591.036	5158.07195
591.239	5293.74818
591.442	5222.79137
591.645	5354.24878
591.848	5208.17927
592.051	5308.35357
592.254	5013.93888
592.457	5308.35357
592.66	5130.92489
592.863	5370.93513
593.066	5241.57669
593.269	5354.24878
593.472	5310.43996
593.675	5552.3021
593.878	5395.96184
594.081	5496.03485
594.284	5404.30333
594.486	5437.66551
594.689	5312.52633
594.892	5698.10011
595.095	5385.53445
595.298	5496.03485
595.5	5318.7853
595.703	5608.55216
595.906	5393.87641
596.109	5410.55919
596.311	5373.02082
596.514	5593.97046
596.717	5473.10624
596.92	5762.63087
597.122	5558.55295
597.325	5760.54959
597.528	5593.97046
597.73	5704.34602
597.933	5493.95055
598.136	5829.21948
598.338	5718.91896
598.541	5825.0584
598.743	5768.87458
598.946	5818.8166
599.148	5652.29033
599.351	5618.96696
599.554	5698.10011
599.756	5723.08245
599.959	5671.03208
600.161	5752.22422
600.363	5610.63517
600.566	5960.24518
600.768	5787.60443
600.971	5729.32751
601.173	5843.78251
601.376	6246.92724
601.578	5693.93606
601.78	5943.61218
601.983	5850.02346
602.185	5943.61218
602.388	5789.68541
602.59	5997.6639
602.792	5802.17077
602.995	5962.3242
603.197	5976.87667
603.399	6253.15449
603.601	5837.54135
603.804	6101.56476
604.006	5929.05707
604.208	6101.56476
604.41	5912.42125
604.613	6186.7196
604.815	6080.7893
605.017	6255.2302
605.219	5997.6639
605.421	5866.66495
605.623	6136.87766
605.826	6209.5593
606.028	6107.79694
606.23	6234.4721
606.432	6057.93357
606.634	6280.13682
606.836	6041.30943
607.038	6275.98595
607.24	6093.25486
607.442	6305.04007
607.644	6168.03045
607.846	6298.81457
608.048	5881.22501
608.25	6155.56997
608.452	6111.95161
608.654	6533.16339
608.856	6209.5593
609.058	6595.33009
609.26	6460.60923
609.462	6425.35837
609.664	6334.0896
609.866	6437.80062
610.067	6441.94784
610.269	6450.24202
610.471	6251.07876
610.673	6616.0477
610.875	6311.26535
611.077	6547.67081
611.278	6431.5796
611.48	6259.38153
611.682	6294.66412
611.884	6640.90579
612.085	6398.39729
612.287	6533.16339
612.489	6342.38863
612.69	6450.24202
612.892	6404.61943
613.094	6541.45348
613.295	6087.02218
613.497	6311.26535
613.699	6244.85144
613.9	6582.89841
614.102	6188.79605
614.304	6441.94784
614.505	6390.10079
614.707	6587.04239
614.908	6209.5593
615.11	6417.06307
615.311	6599.47379
615.513	6441.94784
615.714	6222.01612
615.916	6562.1771
616.117	6307.11518
616.319	6682.32857
616.52	6709.24845
616.722	6684.39947
616.923	6553.88793
617.124	6686.47034
617.326	6419.13693
617.527	6758.93651
617.729	6508.29088
617.93	6719.60122
618.131	6607.76093
618.333	6576.68226
618.534	6396.3232
618.735	6752.72622
618.937	6512.43653
619.138	6703.03652
619.339	6717.53071
619.54	6709.24845
619.742	6655.40481
619.943	6893.44228
620.144	6570.4659
620.345	6785.84537
620.546	6804.47232
620.748	6854.13516
620.949	6419.13693
621.15	6823.09742
621.351	6568.39374
621.552	6721.6717
621.753	6410.84136
621.954	6725.8126
622.155	6468.90257
622.356	6872.75534
622.558	6773.42637
622.759	6986.50549
622.96	6814.81982
623.161	6843.78981
623.362	6872.75534
623.563	6891.37369
623.764	6843.78981
623.965	6974.09971
624.166	7000.97789
624.366	6899.64792
624.567	6524.87292
624.768	6965.82873
624.969	6603.61741
625.17	6740.30503
625.371	6847.92802
625.572	6920.33191
625.773	6616.0477
625.973	6961.69311
626.174	6789.98485
626.375	6920.33191
626.576	7013.38192
626.777	7003.04528
626.977	6827.23608
627.178	7079.52309
627.379	6816.88926
627.58	6980.3027
627.78	6835.51313
627.981	7141.50964
628.182	6794.12424
628.382	7046.45537
628.583	6963.76093
628.784	7114.65127
628.984	6816.88926
629.185	7009.24733
629.386	6787.91512
629.586	7352.11469
629.787	6758.93651
629.987	7029.91936
630.188	7079.52309
630.388	7343.85998
630.589	7184.8883
630.79	7215.86706
630.99	6988.57305
631.191	7191.08445
631.391	7050.58915
631.591	7104.32012
631.792	7052.65601
631.992	7335.60492
632.193	7149.773
632.393	7141.50964
632.594	7153.90454
632.794	7141.50964
632.994	6994.77557
633.195	7333.5411
633.395	7261.29359
633.595	7230.32212
633.796	7139.44374
633.996	7374.81334
634.196	7296.3886
634.397	7372.74994
634.597	7393.383
634.797	7609.89959
634.997	7164.23302
635.198	7360.36905
635.398	7031.98644
635.598	7286.0672
635.798	7368.62306
635.998	7457.33169
636.199	7343.85998
636.399	7620.20401
636.599	7162.16737
636.799	7350.05105
636.999	7151.83878
637.199	7290.19582
637.399	7143.57551
637.599	7414.01389
637.799	7137.37783
637.999	7502.70201
638.199	7263.35818
638.399	7477.95586
638.599	7317.02975
638.799	7537.75375
638.999	7401.63562
639.199	7546.00032
639.399	7362.43259
639.599	7747.93473
639.799	7510.95004
639.999	7704.68019
640.199	7453.2066
640.399	7939.37994
640.599	7327.34951
640.799	7706.74014
640.998	7624.32562
641.198	7698.50021
641.398	7585.16683
641.598	7690.25995
641.798	7469.70645
641.997	7832.35744
642.197	7616.08231
642.397	7760.29147
642.597	7614.02142
642.796	7822.06387
642.996	7420.20273
643.196	7900.28204
643.395	7733.51758
643.595	7758.23206
643.795	7537.75375
643.994	7789.12093
644.194	7609.89959
644.394	7764.41021
644.593	7566.61523
644.793	7719.0994
644.992	7735.57724
645.192	7953.78256
645.392	7752.05373
645.591	7887.93379
645.791	7826.18136
645.99	7758.23206
646.19	7752.05373
646.389	7914.68739
646.589	7667.59747
646.788	7941.43752
646.987	7941.43752
647.187	8046.34695
647.386	7675.83867
647.586	7982.5848
647.785	7881.75938
647.984	8085.41736
648.184	7836.47473
648.383	8101.86588
648.582	7867.35171
648.782	7873.52655
648.981	7922.91857
649.18	7996.98441
649.38	7966.12687
649.579	8062.79854
649.778	7714.97973
649.977	8196.41997
650.177	8138.87034
650.376	8038.12068
650.575	7642.87185
650.774	8249.84497
650.973	8040.17728
651.173	7962.01218
651.372	7834.41609
651.571	8188.19955
651.77	7824.12262
651.969	8066.91123
652.168	8036.06405
652.367	8177.92358
652.566	7889.99188
652.765	8360.76211
652.964	7972.29874
653.163	8085.41736
653.362	7976.41323
653.561	7937.32234
653.76	7826.18136
653.959	8052.51645
654.158	7873.52655
654.357	8165.59176
654.556	8087.47349
654.755	8235.46263
654.954	7900.28204
655.153	8089.52961
655.352	8023.72391
655.551	8130.64769
655.749	8161.48099
655.948	8524.98003
656.147	8284.76949
656.346	8282.71526
656.545	8266.28074
656.743	8430.56974
656.942	8438.78093
657.141	8401.82812
657.34	8169.70244
657.538	8167.64711
657.737	8340.2262
657.936	8637.80931
658.135	8233.40793
658.333	8366.92251
658.532	8184.08922
658.731	8405.9343
658.929	8184.08922
659.128	8512.66793
659.326	8344.33353
659.525	8481.88469
659.724	8268.33513
659.922	8648.06371
660.121	8510.61585
660.319	8290.93205
660.518	8011.38303
660.716	8299.14852
660.915	8184.08922
661.113	8506.51162
661.312	8329.95751
661.51	8654.21613
661.709	8210.80494
661.907	8529.08391
662.105	8297.09443
662.304	8611.1457
662.502	8383.34938
662.701	8549.60218
662.899	8325.8499
663.097	8430.56974
663.296	8377.18944
663.494	8459.30758
663.692	8066.91123
663.891	8572.1701
664.089	8253.95403
664.287	8639.86023
664.485	8613.19686
664.684	8851.00604
664.882	8334.06504
665.08	8604.9921
665.278	8451.09715
665.476	8615.248
665.675	8350.4944
665.873	8592.68442
666.071	8130.64769
666.269	8364.86906
666.467	8455.2024
666.665	8522.92806
666.863	8442.88642
667.061	8553.70561
667.259	8416.1994
667.457	8615.248
667.655	8508.56374
667.853	8754.68204
668.051	8643.96201
668.249	8512.66793
668.447	8249.84497
668.645	8590.63307
668.843	8518.82406
669.041	8723.93186
669.239	8358.70861
669.437	8664.46978
669.635	8543.4469
669.833	8572.1701
670.031	8274.49816
670.229	8604.9921
670.426	8492.14624
670.624	8846.90796
670.822	8414.14642
671.02	8545.49868
671.218	8288.87788
671.415	8264.22634
671.613	8147.09267
671.811	8617.29912
672.009	8407.98736
672.206	8580.37605
672.404	8463.41268
672.602	8463.41268
672.799	8580.37605
672.997	8730.08223
673.195	8432.62256
673.392	8744.43244
673.59	8463.41268
673.788	8912.46862
673.985	8237.51731
674.183	8703.42945
674.38	8658.31765
674.578	8766.98096
674.775	8639.86023
674.973	8676.77356
675.17	8535.23959
675.368	8748.53233
675.565	8434.67537
675.763	8672.67237
675.96	8391.56234
676.158	8586.53032
676.355	8317.63444
676.553	8621.40131
676.75	8210.80494
676.947	8611.1457
677.145	8424.41114
677.342	8594.73574
677.539	8662.41909
677.737	8758.78175
677.934	8490.09397
678.131	8664.46978
678.329	8512.66793
678.526	8514.71999
678.723	8625.50342
678.92	8906.32308
679.118	8537.29145
679.315	8594.73574
679.512	8461.36014
679.709	8797.72538
679.906	8648.06371
680.104	8873.54419
680.301	8766.98096
680.498	8691.12712
680.695	8114.20142
680.892	8572.1701
681.089	8549.60218
681.286	8529.08391
681.483	8241.62661
681.68	8588.5817
681.877	8436.72816
682.075	8496.25073
682.272	8446.99182
682.469	8678.82412
682.665	8613.19686
682.862	8717.78133
683.059	8512.66793
683.256	8451.09715
683.453	8506.51162
683.65	8668.57112
683.847	8438.78093
684.044	8533.18772
684.241	8572.1701
684.438	8689.07667
684.635	8399.77501
684.831	8451.09715
685.028	8553.70561
685.225	8580.37605
685.422	8282.71526
685.619	8648.06371
685.815	8520.87607
686.012	8440.83368
686.209	8282.71526
686.405	8648.06371
686.602	8529.08391
686.799	8336.11878
686.996	8627.55445
687.192	8407.98736
687.389	8290.93205
687.586	8356.65508
687.782	8518.82406
687.979	8609.09452
688.175	8332.01129
688.372	8479.83232
688.568	8545.49868
688.765	8416.1994
688.962	8087.47349
689.158	8344.33353
689.355	8385.40265
689.551	8438.78093
689.748	8449.0445
689.944	8520.87607
690.14	8233.40793
690.337	8467.51771
690.533	8426.46402
690.73	8282.71526
690.926	8196.41997
691.123	8192.3098
691.319	8225.18894
691.515	8198.47502
691.712	8288.87788
691.908	8208.75
692.104	8274.49816
692.301	8471.62265
692.497	8202.58508
692.693	8377.18944
692.889	8114.20142
693.086	8184.08922
693.282	8177.92358
693.478	8397.72187
693.674	8313.5266
693.87	8512.66793
694.067	8315.58053
694.263	8319.68833
694.459	8309.41867
694.655	8342.27987
694.851	8029.89407
695.047	8229.29847
695.243	7929.09174
695.439	8496.25073
695.635	8233.40793
695.831	8110.08965
696.027	8147.09267
696.224	8249.84497
696.42	8290.93205
696.615	8284.76949
696.811	8295.04032
697.007	8342.27987
697.203	8325.8499
697.399	8463.41268
697.595	8340.2262
697.791	8321.74221
697.987	8145.03712
698.183	8553.70561
698.379	8235.46263
698.575	8389.50913
698.77	8089.52961
698.966	8379.24277
699.162	8332.01129
699.358	8410.0404
699.554	8019.61036
699.749	8430.56974
699.945	8260.11747
700.141	8309.41867
700.337	8171.75776
700.532	8368.97593
700.728	8114.20142
700.924	8251.89951
701.119	8081.30503
701.315	8153.25921
701.511	8052.51645
701.706	8650.11454
701.902	8303.25664
702.097	8056.62935
702.293	8167.64711
702.489	8321.74221
702.684	8142.98155
702.88	8377.18944
703.075	8114.20142
703.271	8309.41867
703.466	8315.58053
703.662	8258.06301
703.857	8243.68123
704.053	8463.41268
704.248	8317.63444
704.443	8422.35823
704.639	8029.89407
704.834	8200.53006
705.03	8038.12068
705.225	8379.24277
705.42	7889.99188
705.616	8366.92251
705.811	8173.81305
706.006	8303.25664
706.202	7994.92738
706.397	8062.79854
706.592	7974.35599
706.787	8003.15537
706.983	7927.03404
707.178	8379.24277
707.373	8157.37014
707.568	8221.07932
707.763	7964.06953
707.959	8348.44079
708.154	8153.25921
708.349	8424.41114
708.544	8354.60154
708.739	8237.51731
708.934	8223.13414
709.129	8506.51162
709.324	8114.20142
709.519	8323.79606
709.714	8031.95075
709.909	8120.36892
710.104	7955.84
710.299	8003.15537
710.494	7990.81327
710.689	8216.96963
710.884	7813.82863
711.079	8099.80988
711.274	7922.91857
711.469	8200.53006
711.664	8011.38303
711.859	8056.62935
712.054	8126.53624
712.249	7945.55262
712.443	7817.94629
712.638	7949.66763
712.833	7848.82608
713.028	8124.48049
713.223	7791.18002
713.417	8019.61036
713.612	7941.43752
713.807	8128.59197
714.002	7889.99188
714.196	7999.04142
714.391	7937.32234
714.586	7980.52763
714.78	7747.93473
714.975	8064.8549
715.17	7712.91987
715.364	8184.08922
715.559	8068.96755
715.754	8079.24883
715.948	8114.20142
716.143	8173.81305
716.337	7865.29339
716.532	8031.95075
716.726	7859.11831
716.921	8093.64178
717.115	7883.81754
717.31	7988.75618
717.504	7846.76757
717.699	8216.96963
717.893	8060.74216
718.088	7931.14942
718.282	8198.47502
718.476	8029.89407
718.671	7618.14317
718.865	7976.41323
719.059	7663.47674
719.254	7840.59193
719.448	7739.69649
719.642	8011.38303
719.837	7591.35031
720.031	7904.39796
720.225	7541.87708
720.419	7626.3864
720.614	7682.01934
720.808	7898.22405
721.002	7632.5686
721.196	7881.75938
721.39	7708.80007
721.585	7774.70671
721.779	7735.57724
721.973	7855.00148
722.167	7626.3864
722.361	7803.53412
722.555	7609.89959
722.749	7630.50789
722.943	7607.83865
723.137	7883.81754
723.331	7642.87185
723.525	7817.94629
723.719	7498.57787
723.913	7667.59747
724.107	7486.20492
724.301	7801.47515
724.495	7372.74994
724.689	7780.88436
724.883	7321.15772
725.077	7793.23909
725.271	7733.51758
725.465	7799.41617
725.659	7517.13583
725.853	7791.18002
726.046	7646.993
726.24	7737.63687
726.434	7378.94009
726.628	8015.49674
726.822	7531.5686
727.015	7883.81754
727.209	7752.05373
727.403	7797.35716
727.596	7752.05373
727.79	7962.01218
727.984	7550.12347
728.177	7616.08231
728.371	7624.32562
728.565	7519.19772
728.758	7682.01934
728.952	7857.0599
729.146	7616.08231
729.339	7904.39796
729.533	7653.17456
729.726	7782.94353
729.92	7541.87708
730.113	7644.93243
730.307	7488.26713
730.5	7558.36952
730.694	7554.24654
730.887	7500.63995
731.081	7688.19983
731.274	7692.32004
731.468	7434.64261
731.661	7747.93473
731.854	7710.85998
732.048	7756.17264
732.241	7665.53712
732.435	7739.69649
732.628	7659.35593
732.821	7463.51917
733.014	7562.49242
733.208	7778.82516
733.401	7789.12093
733.594	7624.32562
733.788	7401.63562
733.981	7391.31979
734.174	7574.8606
734.367	7496.51576
734.56	7566.61523
734.754	7566.61523
734.947	7572.79929
735.14	7766.46956
735.333	7813.82863
735.526	7682.01934
735.719	7436.70536
735.912	7605.77768
736.105	7638.75061
736.298	7461.4567
736.491	7284.00285
736.684	7356.24192
736.877	7535.69206
737.07	7471.76884
737.263	7690.25995
737.456	7609.89959
737.649	7463.51917
737.842	7414.01389
738.035	7811.76977
738.228	7634.62929
738.421	7486.20492
738.614	7665.53712
738.807	7657.2955
739	7593.41142
739.192	7525.38326
739.385	7424.32852
739.578	7550.12347
739.771	7599.59465
739.964	7405.7618
740.156	7661.41635
740.349	7364.4961
740.542	7630.50789
740.735	7546.00032
740.927	7467.64405
741.12	7397.50935
741.313	7541.87708
741.505	7531.5686
741.698	7428.45422
741.891	7558.36952
742.083	7597.53359
742.276	7632.5686
742.468	7725.27875
742.661	7601.65568
742.854	7570.73796
743.046	7362.43259
743.239	7399.5725
743.431	7525.38326
743.624	7583.10562
743.816	7599.59465
744.009	7484.14269
744.201	7162.16737
744.393	7533.63034
744.586	7317.02975
744.778	7378.94009
744.971	7219.99719
745.163	7480.01816
745.355	7414.01389
745.548	7401.63562
745.74	7224.12723
745.932	7502.70201
746.125	7329.4134
746.317	7277.80968
746.509	7215.86706
746.702	7434.64261
746.894	7273.68079
747.086	7587.22801
747.278	7292.2601
747.471	7314.96574
747.663	7393.383
747.855	7217.93214
748.047	7166.29864
748.239	7209.67171
748.431	7122.91578
748.623	7265.42274
748.815	7269.55181
749.008	7312.9017
749.2	7306.70945
749.392	7414.01389
749.584	7428.45422
749.776	7436.70536
749.968	6988.57305
750.16	7333.5411
750.352	7139.44374
750.544	7240.64649
750.736	7164.23302
750.928	7261.29359
751.12	7042.32151
751.311	7158.036
751.503	7129.11394
751.695	7106.38639
751.887	7131.17994
752.079	7294.32436
752.271	7135.31189
752.463	7352.11469
752.654	7162.16737
752.846	6994.77557
753.038	6852.06613
753.23	7222.06222
753.421	6852.06613
753.613	7137.37783
753.805	7273.68079
753.997	7172.49539
754.188	7050.58915
754.38	7168.36425
754.572	7137.37783
754.763	7034.0535
754.955	6715.46018
755.146	6988.57305
755.338	6963.76093
755.53	6732.02378
755.721	6798.26354
755.913	6854.13516
756.104	6756.86644
756.296	7062.98995
756.487	7038.18755
756.679	7050.58915
756.87	6866.54882
757.062	6901.71642
757.253	6986.50549
757.445	6920.33191
757.636	6986.50549
757.827	7186.9537
758.019	7083.65615
758.21	7046.45537
758.401	7062.98995
758.593	6767.21657
758.784	6924.46844
758.975	6887.23644
759.167	6835.51313
759.358	6967.89651
759.549	6634.69158
759.74	6717.53071
759.932	6649.19108
760.123	6839.65152
760.314	6771.35646
760.505	6889.30508
760.696	6682.32857
760.888	6852.06613
761.079	6626.40564
761.27	6864.47993
761.461	6893.44228
761.652	6721.6717
761.843	6734.09413
762.034	6800.33316
762.225	6651.26235
762.416	6895.51085
762.607	6574.61016
762.798	6827.23608
762.989	6713.38963
763.18	6841.72068
763.371	6684.39947
763.562	6682.32857
763.753	6491.70735
763.944	6692.68283
764.135	6516.58208
764.326	6843.78981
764.517	6638.83441
764.708	6572.53805
764.899	6261.45717
765.089	6483.41503
765.28	6423.28458
765.471	6392.17495
765.662	6161.80032
765.853	6379.72963
766.043	6327.86509
766.234	6305.04007
766.425	6251.07876
766.615	6479.26873
766.806	6336.16439
766.997	6553.88793
767.187	6336.16439
767.378	6232.39616
767.569	6215.78782
767.759	6305.04007
767.95	6423.28458
768.141	6388.0266
768.331	6143.10864
768.522	6228.24422
768.712	6302.96492
768.903	6363.13456
769.093	6084.94458
769.284	6332.01479
769.474	6263.53278
769.665	6313.3404
769.855	6394.24909
770.046	6450.24202
770.236	6259.38153
770.426	6232.39616
770.617	6172.18376
770.807	6195.02527
770.998	6230.3202
771.188	6126.49222
771.378	5966.48216
771.569	6292.58886
771.759	5852.10373
771.949	6045.46561
772.139	6180.49009
772.33	5810.49387
772.52	6022.60548
772.71	5910.34167
772.9	5981.0343
773.09	6039.23131
773.281	5874.98512
773.471	6217.86394
773.661	6026.76208
773.851	6045.46561
774.041	5891.62435
774.231	6209.5593
774.421	6141.03167
774.611	6257.30588
774.802	6053.77768
774.992	5995.58528
775.182	5929.05707
775.372	5704.34602
775.562	5872.90511
775.752	5937.37442
775.942	5693.93606
776.131	5997.6639
776.321	5677.2789
776.511	5974.79781
776.701	5860.42457
776.891	5926.97768
777.081	5693.93606
777.271	5929.05707
777.461	6026.76208
777.651	5718.91896
777.84	5783.44241
778.03	5918.65986
778.22	5554.38574
778.41	5881.22501
778.599	5627.29837
778.789	5883.30492
778.979	5541.88353
779.169	5477.27529
779.358	5523.12863
779.548	5646.04266
779.738	5671.03208
779.927	5658.53779
780.117	5468.93709
780.307	5437.66551
780.496	5543.96729
780.686	5752.22422
780.875	5621.04984
781.065	5621.04984
781.254	5587.72081
781.444	5712.67356
781.633	5539.79975
781.823	5487.6975
782.012	5473.10624
782.202	5635.6294
782.391	5339.64699
782.581	5362.59214
782.77	5506.45601
782.96	5610.63517
783.149	5337.56092
783.338	5435.58055
783.528	5281.22835
783.717	5498.11913
783.906	5206.09173
784.096	5414.72965
784.285	5304.18072
784.474	5325.04405
784.663	5243.66383
784.853	5402.21799
785.042	5335.47484
785.231	5256.18618
785.42	5360.50633
785.61	5347.99101
785.799	5262.44704
785.988	5279.14163
786.177	5145.54303
786.366	5147.63124
786.555	5114.21706
786.744	5318.7853
786.933	5051.54945
787.122	5391.79096
787.312	5151.8076
787.501	5187.30285
787.69	5066.17376
787.879	5160.16003
788.068	4836.23268
788.257	5143.45479
788.445	4967.96026
788.634	5222.79137
788.823	4775.5657
789.012	5122.57116
789.201	4905.24418
789.39	4988.86102
789.579	4867.60463
789.768	5089.15252
789.957	5076.619
790.145	5135.10162
790.334	4754.64163
790.523	4976.32084
790.712	5101.68521
790.9	5020.20783
791.089	5039.01343
791.278	5068.26285
791.467	4859.23928
791.655	5057.81715
791.844	5039.01343
792.033	4942.87631
792.221	4800.6716
792.41	5118.39416
792.599	4626.95588
792.787	4775.5657
792.976	4796.48751
793.164	4773.4734
793.353	4878.06081
793.541	5068.26285
793.73	4999.31053
793.918	4978.41092
794.107	4719.0655
794.295	4921.97049
794.484	4733.71529
794.672	4727.43694
794.861	4859.23928
795.049	4792.30333
795.238	4658.36178
795.426	4846.69057
795.614	4593.45071
795.803	4679.29623
795.991	4593.45071
796.179	4817.40705
796.368	4802.76361
796.556	4878.06081
796.744	4645.80002
796.932	4752.5491
797.121	4386.01134
797.309	4681.38956
797.497	4610.20401
797.685	4647.8937
797.874	4704.41461
798.062	4771.38107
798.25	4394.3969
798.438	4700.22844
798.626	4360.85257
798.814	4578.7904
799.002	4400.68584
799.19	4582.97917
799.378	4616.48613
799.566	4652.081
799.755	4383.9149
799.943	4582.97917
800.131	4635.33128
800.318	4557.84521
800.506	4419.55149
800.694	4624.86197
800.882	4274.86994
801.07	4721.1584
801.258	4494.99633
801.446	4767.19635
801.634	4576.69598
801.822	4746.27136
802.01	4411.16698
802.197	4775.5657
802.385	4444.70293
802.573	4559.93983
802.761	4643.70632
802.949	4585.07352
803.136	4463.56444
803.324	4631.14362
803.512	4402.78211
803.699	4570.41259
803.887	4708.6007
804.075	4871.78717
804.262	4369.23917
804.45	4649.98736
804.638	4390.20416
804.825	4763.01153
805.013	4427.93565
805.201	4742.0861
805.388	4444.70293
805.576	4518.04323
805.763	4555.75057
805.951	4417.45539
806.138	4411.16698
806.326	4693.94902
806.513	4411.16698
806.701	4677.20289
806.888	4417.45539
807.075	4633.23746
807.263	4716.97259
807.45	4645.80002
807.638	4601.82754
807.825	4834.14103
808.012	4375.5289
808.2	4633.23746
808.387	4620.6741
808.574	4591.35645
808.761	4608.10993
808.949	4633.23746
809.136	4568.31808
809.323	4641.61259
809.51	4710.6937
809.698	4635.33128
809.885	4702.32154
810.072	4683.48286
810.259	4582.97917
810.446	4624.86197
810.633	4490.8057
810.82	4763.01153
811.008	4501.28212
811.195	4574.60154
811.382	4409.07079
811.569	4834.14103
811.756	4557.84521
811.943	4990.95096
812.13	4779.75025
812.317	4848.78208
812.504	4775.5657
812.691	4783.9347
812.878	4526.42326
813.064	4660.45532
813.251	4386.01134
813.438	4804.8556
813.625	4536.8978
813.812	4786.02689
813.999	4719.0655
814.186	4679.29623
814.372	4528.51821
814.559	4783.9347
814.746	4188.85128
814.933	4587.16785
815.12	4744.17874
815.306	4505.47253
815.493	4511.75798
815.68	4754.64163
815.866	4557.84521
816.053	4685.57613
816.24	4675.10952
816.426	4549.46651
816.613	4635.33128
816.799	4859.23928
816.986	4608.10993
817.173	4691.85583
817.359	4476.13779
817.546	4503.37733
817.732	4450.9903
817.919	4840.4159
818.105	4585.07352
818.292	4557.84521
818.478	4606.01582
818.665	4574.60154
818.851	4557.84521
819.037	4641.61259
819.224	4423.74362
819.41	4509.66285
819.597	4411.16698
819.783	4427.93565
819.969	4509.66285
820.156	4742.0861
820.342	4838.3243
820.528	4729.52975
820.714	4409.07079
820.901	4733.71529
821.087	4400.68584
821.273	4515.94817
821.459	4574.60154
821.646	4880.15197
821.832	4643.70632
822.018	4585.07352
822.204	4367.14256
822.39	4601.82754
822.576	4264.38178
822.762	4562.03443
822.948	4224.5219
823.134	4515.94817
823.32	4411.16698
823.507	4419.55149
823.693	4314.72005
823.879	4354.56239
824.065	4161.56963
824.25	4402.78211
824.436	4306.3312
824.622	4614.39211
824.808	4348.27201
824.994	4205.63822
825.18	4193.04815
825.366	4237.11006
825.552	4190.94973
825.738	4526.42326
825.923	4134.28441
826.109	4289.55246
826.295	4073.40465
826.481	4329.39972
826.667	4321.01147
826.852	4249.69746
827.038	4281.16258
827.224	4339.88454
827.409	4306.3312
827.595	4457.27747
827.781	4113.29338
827.966	4237.11006
828.152	4062.90637
828.338	4232.91409
828.523	4092.30025
828.709	4390.20416
828.894	4029.3084
829.08	4419.55149
829.266	4138.48237
829.451	4165.76704
829.637	3968.39867
829.822	4165.76704
830.008	3894.86415
830.193	4125.88825
830.378	3941.08874
830.564	4255.99087
830.749	3995.70516
830.935	4035.60842
831.12	3863.34181
831.305	4071.30504
831.491	4046.10805
831.676	3947.39134
831.861	3617.31614
832.047	3903.26935
832.232	3934.78596
832.417	3917.97767
832.602	3747.72178
832.788	3812.89676
832.973	3760.33776
833.158	4010.40723
833.343	3777.15797
833.528	4081.8029
833.714	3793.97693
833.899	4056.60716
834.084	3829.71305
834.269	4031.40843
834.454	3781.36283
834.639	3953.69375
834.824	3749.82449
835.009	3999.90585
835.194	3667.80445
835.379	3922.17986
835.564	3608.90036
835.749	3714.07577
835.934	3619.42003
836.119	3894.86415
836.304	3665.70099
836.489	3686.73474
836.674	3451.04974
836.859	3650.97622
837.044	3659.39049
837.228	3718.28179
837.413	3566.81699
837.598	3886.45863
837.783	3579.44279
837.968	3827.61108
838.152	3516.30717
838.337	3722.48773
838.522	3488.94327
838.707	3693.0445
838.891	3478.41788
839.076	3684.63145
839.261	3491.04829
839.445	3575.23426
839.63	3457.36573
839.815	3585.75543
839.999	3345.75964
840.184	3678.32147
840.368	3434.2063
840.553	3520.51672
840.737	3331.01553
840.922	3425.78415
841.106	3476.31274
841.291	3392.09272
841.475	3231.99765
841.66	3501.57314
841.844	3267.81695
842.029	3556.29499
842.213	3261.49625
842.397	3505.78296
842.582	3135.05086
842.766	3600.48428
842.951	3223.56888
843.135	3381.56321
843.319	3246.74736
843.504	3440.52272
843.688	3238.31906
843.872	3398.4102
844.056	3326.80277
844.241	3419.46735
844.425	3206.71054
844.609	3434.2063
844.793	3086.56464
844.977	3301.52477
845.161	3069.6979
845.346	3505.78296
845.53	3052.83016
845.714	3196.17354
845.898	2972.69496
846.082	3124.5111
846.266	2985.34934
846.45	3147.69805
846.634	2989.56735
846.818	3175.0983
847.002	2850.3419
847.186	3141.37453
847.37	2987.45835
847.554	3183.52859
847.738	2985.34934
847.922	3113.97093
848.106	2863.00136
848.29	3090.78116
848.473	3050.72162
848.657	3050.72162
848.841	3057.04719
849.025	3012.76531
849.209	2841.90197
849.392	3094.99763
849.576	2675.16874
849.76	3116.079
849.944	2854.56178
850.127	3130.83501
850.311	2926.29095
850.495	2909.415
850.678	2656.16861
850.862	2951.60312
851.046	2979.02222
851.229	2934.72857
851.413	2751.1588
851.596	2938.9473
851.78	2803.91955
851.964	3014.87413
852.147	2689.9459
852.331	3054.93868
852.514	2597.05063
852.698	2951.60312
852.881	2768.04316
853.065	2972.69496
853.248	2791.25774
853.431	2818.69103
853.615	2753.26939
853.798	2869.3309
853.982	2567.48805
854.165	2673.05766
854.348	2396.40333
854.532	2793.36808
854.715	2556.92942
854.898	2573.82309
855.081	2286.53469
855.265	2525.25178
855.448	2352.03652
855.631	2639.27875
855.814	2343.5852
855.997	2466.11329
856.181	2518.91593
856.364	2512.57999
856.547	2419.64127
856.73	2563.26463
856.913	2525.25178
857.096	2732.16288
857.279	2394.29073
857.462	2428.09112
857.645	2176.64077
857.828	2373.16413
858.011	2176.64077
858.194	2468.22553
858.377	2428.09112
858.56	2413.30378
858.743	2404.85364
858.926	2601.27366
859.109	2483.0109
859.292	2502.01985
859.475	2311.89134
859.658	2478.78656
859.841	2149.16367
860.023	2478.78656
860.206	2246.38392
860.389	2421.75375
860.572	2058.26851
860.755	2210.4568
860.937	2193.54905
861.12	2337.2466
861.303	2233.70405
861.486	2294.98706
861.668	2225.25063
861.851	2402.74108
862.034	2250.61047
862.216	2140.70891
862.399	2039.24223
862.581	2182.98144
862.764	2134.36775
862.947	2233.70405
863.129	2191.43555
863.312	2182.98144
863.494	1946.21712
863.677	2087.86381
863.859	2235.81739
864.042	2151.27734
864.224	1939.87406
864.406	2212.57023
864.589	1963.13168
864.771	1988.50279
864.954	1842.60765
865.136	1988.50279
865.318	1874.32617
865.501	2174.52719
865.683	1855.29519
865.865	1980.04585
866.048	1781.28222
866.23	1887.01326
866.412	1880.66974
866.594	1937.7597
866.777	1802.42933
866.959	1939.87406
867.141	1686.11556
867.323	2026.55773
867.505	1599.40296
867.687	1950.44579
867.869	1823.57602
868.052	1880.66974
868.234	1677.65598
868.416	1760.1347
868.598	1633.24249
868.78	1787.6264
868.962	1796.08524
869.144	1927.18779
869.326	1859.52433
869.508	1982.1601
869.69	1684.00067
869.872	1755.90515
870.054	1624.78266
870.236	1698.80484
870.417	1764.36423
870.599	1887.01326
870.781	1654.39191
870.963	1941.98842
871.145	1876.4407
871.327	1912.38688
871.508	1751.67558
871.69	1793.97054
871.872	1552.87284
872.054	1810.88806
872.235	1571.90798
872.417	1709.37915
872.599	1703.03457
872.78	1673.42618
872.962	1660.73669
873.144	1912.38688
873.325	1618.43776
873.507	1660.73669
873.689	1764.36423
873.87	1745.33121
874.052	1802.42933
874.233	1925.07339
874.415	1609.97787
874.596	1922.95898
874.778	1557.10288
874.959	1897.5857
875.141	1641.70229
875.322	1802.42933
875.503	1639.58735
875.685	1709.37915
875.866	1673.42618
876.048	1730.52754
876.229	1457.69597
876.41	1703.03457
876.592	1542.29771
876.773	1633.24249
876.954	1565.56294
877.136	1675.54108
877.317	1595.17298
877.498	1696.68997
877.679	1616.32279
877.86	1810.88806
878.042	1533.83759
878.223	1671.31127
878.404	1667.08145
878.585	1686.11556
878.766	1499.99696
878.947	1743.21641
879.128	1832.03457
879.309	1980.04585
879.49	1692.46021
879.672	1753.79037
879.853	1715.72371
880.034	1671.31127
880.215	1550.75782
880.396	1793.97054
880.576	1590.943
880.757	1766.479
880.938	1675.54108
881.119	1793.97054
881.3	1736.87199
881.481	1734.75718
881.662	1684.00067
881.843	1698.80484
882.023	1686.11556
882.204	1726.29789
882.385	1787.6264
882.566	1726.29789
882.747	1565.56294
882.927	1804.54402
883.108	1603.63293
883.289	1675.54108
883.469	1582.483
883.65	1758.01993
883.831	1607.86289
884.011	1679.77088
884.192	1595.17298
884.373	1870.0971
884.553	1774.938
884.734	1895.47122
884.914	1734.75718
885.095	1846.83685
885.275	1696.68997
885.456	1783.39695
885.636	1724.18306
885.817	1958.90308
885.997	1567.67796
886.178	1768.59375
886.358	1787.6264
886.538	1846.83685
886.719	1726.29789
886.899	1899.70017
887.08	1912.38688
887.26	1887.01326
887.44	1667.08145
887.621	1963.13168
887.801	1664.96653
887.981	1813.00273
888.161	1694.57509
888.342	1817.23206
888.522	1609.97787
888.702	1690.34533
888.882	1779.16748
889.062	1844.72225
889.242	1641.70229
889.423	1726.29789
889.603	1732.64236
889.783	1637.4724
889.963	1696.68997
890.143	1952.56012
890.323	1557.10288
890.503	1738.9868
890.683	1565.56294
890.863	1717.83855
891.043	1658.62177
891.223	1836.26381
891.403	1827.8053
891.583	1891.24225
891.763	1662.85161
891.943	1931.41657
892.122	1705.14944
892.302	1863.75345
892.482	1700.91971
892.662	1692.46021
892.842	1684.00067
893.022	1810.88806
893.201	1508.45714
893.381	1726.29789
893.561	1565.56294
893.741	1948.33146
893.92	1705.14944
894.1	1768.59375
894.28	1641.70229
894.459	1641.70229
894.639	1455.58092
894.819	1709.37915
894.998	1597.28797
895.178	1645.93217
895.357	1483.07658
895.537	1544.41274
895.716	1552.87284
895.896	1690.34533
896.075	1489.42173
896.255	1497.88192
896.434	1557.10288
896.614	1724.18306
896.793	1468.27123
896.973	1603.63293
897.152	1514.80227
897.331	1747.446
897.511	1751.67558
897.69	1798.19994
897.87	1406.93476
898.049	1571.90798
898.228	1453.46586
898.407	1423.85514
898.587	1574.02299
898.766	1540.18269
898.945	1459.81102
899.124	1514.80227
899.304	1254.65476
899.483	1578.253
899.662	1406.93476
899.841	1425.97019
900.02	1296.95383
900.199	1290.60891
900.378	1222.93113
900.557	1449.23576
900.737	1345.59879
900.916	1354.05887
901.095	1280.03409
901.274	1370.97908
901.453	1216.58649
901.632	1311.75872
901.811	1241.96523
901.989	1362.51897
902.168	1129.87959
902.347	1404.81971
902.526	1172.17484
902.705	1184.86372
902.884	1127.76487
903.063	1176.40445
903.242	1087.58612
903.42	1079.12766
903.599	1070.66929
903.778	1108.73262
903.957	992.4336
904.135	1125.65016
904.314	1032.60768
904.493	1231.3907
904.672	1024.14979
904.85	1153.14177
905.029	929.0057
905.207	1159.48609
905.386	1093.93002
905.565	1087.58612
905.743	926.89155
905.922	829.64917
906.1	916.3209
906.279	939.57658
906.457	840.21813
906.636	939.57658
906.814	671.14428
906.993	907.86452
907.171	888.83812
907.35	880.38215
907.528	762.01336
907.707	795.83004
907.885	671.14428
908.063	914.20679
908.242	821.19417
908.42	859.24281
908.598	738.76589
908.777	852.90117
908.955	764.12683
909.133	876.15421
909.311	719.74618
909.49	967.06169
909.668	662.69239
909.846	855.01504
910.024	721.85944
910.202	736.65255
910.38	711.29325
910.559	821.19417
910.737	588.74665
910.915	882.49613
911.093	696.50105
911.271	804.2846
911.449	616.21043
911.627	753.55959
911.805	711.29325
911.983	804.2846
912.161	692.27481
912.339	838.10432
912.517	730.31258
912.695	884.61012
912.872	717.63293
913.05	871.92631
913.228	745.10599
913.406	948.03341
913.584	867.69844
913.762	916.3209
913.939	711.29325
914.117	874.04026
914.295	800.0573
914.473	916.3209
914.65	685.93553
914.828	637.33786
915.006	635.22506
915.184	715.51969
915.361	614.09776
915.539	795.83004
915.716	662.69239
915.894	734.53922
916.072	660.57945
916.249	829.64917
916.427	616.21043
916.604	707.06685
916.782	688.04861
916.959	681.7094
917.137	645.78918
917.314	730.31258
917.492	538.05013
917.669	700.72734
917.847	639.45067
918.024	683.82246
918.201	559.17274
918.379	605.64718
918.556	618.32312
918.733	647.90204
918.911	559.17274
919.088	605.64718
919.265	533.82578
919.442	677.48332
919.62	483.13796
919.797	660.57945
919.974	597.19681
920.151	715.51969
920.328	516.92892
920.506	592.97171
920.683	443.01617
920.86	614.09776
921.037	529.60148
921.214	487.36163
921.391	519.04098
921.568	542.27454
921.745	497.92105
921.922	660.57945
922.099	548.61126
922.276	618.32312
922.453	451.4624
922.63	618.32312
922.807	521.15305
922.984	510.59283
923.161	459.90888
923.338	544.38677
923.514	478.91436
923.691	576.0718
923.868	453.574
924.045	525.37723
924.222	411.34503
924.399	455.68561
924.575	415.56764
924.752	508.48083
924.929	398.67758
925.105	538.05013
925.282	402.9
925.459	538.05013
925.635	481.02615
925.812	491.58535
925.989	426.12445
926.165	544.38677
926.342	483.13796
926.518	415.56764
926.695	345.90302
926.871	348.0138
927.048	352.2354
927.224	449.35082
927.401	339.57079
927.577	432.45872
927.754	381.78858
927.93	424.01305
928.107	360.67883
928.283	430.34728
928.459	449.35082
928.636	449.35082
928.812	472.57906
928.988	394.45523
929.165	371.23349
929.341	343.79226
929.517	318.4645
929.693	388.12183
929.87	373.34447
930.046	375.45547
930.222	333.23872
930.398	415.56764
930.574	246.71673
930.751	348.0138
930.927	272.03701
931.103	339.57079
931.279	303.69116
931.455	301.58075
931.631	272.03701
931.807	215.07028
931.983	322.68561
932.159	274.14716
932.335	305.80158
932.511	267.81677
932.687	265.70668
932.863	291.029
933.039	248.82665
933.215	257.26651
933.391	187.64696
933.566	322.68561
933.742	261.48656
933.918	170.77278
934.094	221.39921
934.27	255.15652
934.445	200.30345
934.621	255.15652
934.797	181.31899
934.973	170.77278
935.148	137.02842
935.324	145.464
935.5	198.19399
935.675	189.75633
935.851	107.50658
936.027	124.37568
936.202	187.64696
936.378	149.68192
936.553	162.33619
936.729	124.37568
936.904	124.37568
937.08	156.00896
937.255	80.0973
937.431	153.89993
937.606	80.0973
937.782	143.35507
937.957	128.59318
938.133	101.18103
938.308	86.42218
938.483	132.81075
938.659	61.12386
938.834	103.28953
939.009	25.29023
939.185	8.4297
939.36	52.69182
939.535	71.66443
939.71	69.55627
939.886	105.39804
940.061	10.53718
940.236	86.42218
940.411	18.96735
940.586	54.79979
940.761	-27.39383
940.937	27.39791
941.112	23.18258
941.287	59.01582
941.462	105.39804
941.637	-6.32202
941.812	80.0973
941.987	29.5056
942.162	56.90779
942.337	14.75222
942.512	143.35507
942.687	-10.53658
942.862	63.23193
943.037	23.18258
943.212	124.37568
943.386	88.53052
943.561	61.12386
943.736	73.77262
943.911	99.07256
944.086	128.59318
944.26	21.07496
944.435	56.90779
944.61	27.39791
944.785	94.85568
944.959	113.83233
945.134	115.94096
945.309	8.4297
945.483	61.12386
945.658	52.69182
945.833	86.42218
946.007	31.61332
946.182	56.90779
946.357	149.68192
946.531	-21.07254
946.706	27.39791
946.88	25.29023
947.055	162.33619
947.229	-29.50088
947.404	111.72373
947.578	77.98905
947.752	61.12386
947.927	-18.9654
948.101	44.26014
948.276	27.39791
948.45	21.07496
948.624	-56.89021
948.799	10.53718
948.973	52.69182
949.147	-2.10736
949.321	99.07256
949.496	88.53052
949.67	33.72107
949.844	42.15228
950.018	42.15228
950.193	137.02842
950.367	61.12386
950.541	61.12386
950.715	56.90779
950.889	65.34002
951.063	52.69182
951.237	67.44814
951.411	99.07256
951.585	18.96735
951.759	86.42218
951.933	56.90779
952.107	96.96411
952.281	90.63889
952.455	52.69182
952.629	10.53718
952.803	54.79979
952.977	77.98905
953.151	61.12386
953.325	124.37568
953.499	29.5056
953.672	35.82884
953.846	10.53718
954.02	33.72107
954.194	21.07496
954.368	27.39791
954.541	37.93663
954.715	35.82884
954.889	109.61514
955.062	61.12386
955.236	88.53052
955.41	115.94096
955.583	137.02842
955.757	-2.10736
955.93	88.53052
956.104	96.96411
956.278	52.69182
956.451	-6.32202
956.625	115.94096
956.798	69.55627
956.972	40.04444
957.145	50.58386
957.319	37.93663
957.492	6.32224
957.665	122.26697
957.839	63.23193
958.012	94.85568
958.185	82.20557
958.359	107.50658
958.532	-4.2147
958.705	27.39791
958.879	82.20557
959.052	18.96735
959.225	94.85568
959.398	48.47593
959.572	29.5056
959.745	63.23193
959.918	44.26014
960.091	113.83233
960.264	86.42218
960.438	132.81075
960.611	156.00896
960.784	33.72107
960.957	-4.2147
961.13	128.59318
961.303	23.18258
961.476	48.47593
961.649	35.82884
961.822	99.07256
961.995	82.20557
962.168	14.75222
962.341	61.12386
962.514	71.66443
962.686	109.61514
962.859	99.07256
963.032	44.26014
963.205	69.55627
963.378	52.69182
963.551	65.34002
963.723	35.82884
963.896	-23.17966
964.069	-29.50088
964.242	59.01582
964.414	69.55627
964.587	90.63889
964.76	40.04444
964.932	105.39804
965.105	-0
965.278	73.77262
965.45	52.69182
965.623	-18.9654
965.795	14.75222
965.968	18.96735
966.14	120.15828
966.313	23.18258
966.485	44.26014
966.658	25.29023
966.83	124.37568
967.003	-44.2495
967.175	73.77262
967.348	115.94096
967.52	88.53052
967.692	42.15228
967.865	69.55627
968.037	2.10739
968.209	-31.6079
968.382	35.82884
968.554	18.96735
968.726	69.55627
968.898	69.55627
969.071	37.93663
969.243	27.39791
969.415	103.28953
969.587	10.53718
969.759	67.44814
969.932	54.79979
970.104	-23.17966
970.276	54.79979
970.448	82.20557
970.62	33.72107
970.792	120.15828
970.964	90.63889
971.136	27.39791
971.308	86.42218
971.48	18.96735
971.652	27.39791
971.824	29.5056
971.996	14.75222
972.168	10.53718
972.339	18.96735
972.511	44.26014
972.683	86.42218
972.855	35.82884
973.027	-0
973.199	29.5056
973.37	88.53052
973.542	52.69182
973.714	46.36803
973.886	44.26014
974.057	77.98905
974.229	90.63889
974.401	103.28953
974.572	33.72107
974.744	52.69182
974.915	77.98905
975.087	-58.9969
975.259	63.23193
975.43	27.39791
975.602	35.82884
975.773	27.39791
975.945	71.66443
976.116	40.04444
976.288	18.96735
976.459	48.47593
976.63	-6.32202
976.802	10.53718
976.973	-10.53658
977.145	71.66443
977.316	18.96735
977.487	94.85568
977.659	33.72107
977.83	80.0973
978.001	80.0973
978.172	56.90779
978.344	12.64469
978.515	8.4297
978.686	2.10739
978.857	94.85568
979.028	48.47593
979.2	35.82884
979.371	63.23193
979.542	35.82884
979.713	111.72373
979.884	27.39791
980.055	10.53718
980.226	10.53718
980.397	88.53052
980.568	59.01582
980.739	2.10739
980.91	27.39791
981.081	50.58386
981.252	35.82884
981.423	-56.89021
981.594	59.01582
981.765	2.10739
981.936	-63.21022
982.106	37.93663
982.277	35.82884
982.448	18.96735
982.619	10.53718
982.79	86.42218
982.96	27.39791
983.131	35.82884
983.302	101.18103
983.472	73.77262
983.643	16.85977
983.814	37.93663
983.984	23.18258
984.155	56.90779
984.326	-10.53658
984.496	-23.17966
984.667	-12.64382
984.837	-14.75104
985.008	139.13728
985.178	2.10739
985.349	6.32224
985.519	29.5056
985.69	-37.92881
985.86	31.61332
986.031	56.90779
986.201	27.39791
986.371	69.55627
986.542	2.10739
986.712	69.55627
986.882	2.10739
987.053	-4.2147
987.223	-6.32202
987.393	4.2148
987.563	37.93663
987.734	101.18103
987.904	73.77262
988.074	46.36803
988.244	4.2148
988.414	59.01582
988.585	65.34002
988.755	-4.2147
988.925	10.53718
989.095	65.34002
989.265	27.39791
989.435	29.5056
989.605	29.5056
989.775	18.96735
989.945	27.39791
990.115	50.58386
990.285	27.39791
990.455	73.77262
990.625	10.53718
990.795	35.82884
990.965	52.69182
991.134	48.47593
991.304	-10.53658
991.474	-23.17966
991.644	-35.82187
991.814	46.36803
991.984	4.2148
992.153	33.72107
992.323	44.26014
992.493	52.69182
992.662	31.61332
992.832	44.26014
993.002	44.26014
993.171	27.39791
993.341	8.4297
993.511	37.93663
993.68	31.61332
993.85	-56.89021
994.019	44.26014
994.189	2.10739
994.358	-40.03573
994.528	14.75222
994.697	118.04961
994.867	35.82884
995.036	-12.64382
995.206	29.5056
995.375	18.96735
995.544	40.04444
995.714	42.15228
995.883	-48.46317
996.052	86.42218
996.222	29.5056
996.391	35.82884
996.56	-4.2147
996.73	29.5056
996.899	35.82884
997.068	-6.32202
997.237	42.15228
997.406	-14.75104
997.576	63.23193
997.745	69.55627
997.914	84.31387
998.083	82.20557
998.252	18.96735
998.421	35.82884
998.59	-2.10736
998.759	37.93663
998.928	71.66443
999.097	27.39791
999.266	111.72373
999.435	31.61332
999.604	-54.78349
999.773	2.10739
999.942	29.5056
1000.111	52.69182
1000.28	18.96735
1000.448	-0
1000.617	50.58386
1000.786	31.61332
1000.955	46.36803
1001.124	35.82884
1001.292	52.69182
1001.461	-23.17966
1001.63	31.61332
1001.798	27.39791
1001.967	84.31387
1002.136	48.47593
1002.304	27.39791
1002.473	-46.35635
1002.642	18.96735
1002.81	52.69182
1002.979	-40.03573
1003.147	-25.28676
1003.316	2.10739
1003.484	29.5056
1003.653	-18.9654
1003.821	61.12386
1003.99	-27.39383
1004.158	8.4297
1004.327	-77.95602
1004.495	61.12386
1004.663	52.69182
1004.832	65.34002
1005	18.96735
1005.168	44.26014
1005.337	16.85977
1005.505	-10.53658
1005.673	-14.75104
1005.842	14.75222
1006.01	10.53718
1006.178	-6.32202
1006.346	4.2148
1006.514	63.23193
1006.683	-10.53658
1006.851	-2.10736
1007.019	-40.03573
1007.187	2.10739
1007.355	14.75222
1007.523	29.5056
1007.691	-56.89021
1007.859	27.39791
1008.027	54.79979
1008.195	59.01582
1008.363	6.32224
1008.531	42.15228
1008.699	2.10739
1008.867	18.96735
1009.035	21.07496
1009.203	-48.46317
1009.37	4.2148
1009.538	18.96735
1009.706	-40.03573
1009.874	-33.71489
1010.042	-40.03573
1010.209	27.39791
1010.377	52.69182
1010.545	-35.82187
1010.713	-14.75104
1010.88	31.61332
1011.048	8.4297
1011.216	-35.82187
1011.383	35.82884
1011.551	2.10739
1011.718	10.53718
1011.886	10.53718
1012.054	10.53718
1012.221	-12.64382
1012.389	33.72107
1012.556	-18.9654
1012.724	63.23193
1012.891	71.66443
1013.058	-23.17966
1013.226	65.34002
1013.393	56.90779
1013.561	54.79979
1013.728	-61.10358
1013.895	2.10739
1014.063	-21.07254
1014.23	56.90779
1014.397	-10.53658
1014.565	40.04444
1014.732	12.64469
1014.899	56.90779
1015.066	94.85568
1015.233	2.10739
1015.401	-14.75104
1015.568	29.5056
1015.735	71.66443
1015.902	-31.6079
1016.069	40.04444
1016.236	-29.50088
1016.403	44.26014
1016.57	37.93663
1016.737	-6.32202
1016.904	-67.42343
1017.071	29.5056
1017.238	31.61332
1017.405	16.85977
1017.572	6.32224
1017.739	23.18258
1017.906	80.0973
1018.073	128.59318
1018.24	35.82884
1018.407	52.69182
1018.573	-4.2147
1018.74	52.69182
1018.907	-14.75104
1019.074	-10.53658
1019.241	54.79979
1019.407	52.69182
1019.574	10.53718
1019.741	-4.2147
1019.907	23.18258
1020.074	-23.17966
1020.241	-2.10736
1020.407	21.07496
1020.574	46.36803
1020.74	54.79979
1020.907	-27.39383
1021.073	21.07496
1021.24	-35.82187
1021.406	4.2148
1021.573	56.90779
1021.739	-63.21022
1021.906	48.47593
1022.072	10.53718
1022.239	18.96735
1022.405	-56.89021
1022.571	21.07496
1022.738	-35.82187
1022.904	-23.17966
1023.07	21.07496
1023.237	-21.07254
1023.403	-48.46317
1023.569	27.39791
1023.735	44.26014
1023.902	-25.28676
1024.068	44.26014
1024.234	-23.17966
1024.4	115.94096
1024.566	27.39791
1024.732	35.82884
1024.898	-6.32202
1025.065	37.93663
1025.231	48.47593
1025.397	44.26014
1025.563	-48.46317
1025.729	21.07496
1025.895	-0
1026.061	44.26014
1026.227	46.36803
1026.392	-63.21022
1026.558	25.29023
1026.724	29.5056
1026.89	12.64469
1027.056	25.29023
1027.222	-23.17966
1027.388	2.10739
1027.553	25.29023
1027.719	-56.89021
1027.885	-35.82187
1028.051	10.53718
1028.216	-14.75104
1028.382	4.2148
1028.548	14.75222
1028.713	29.5056
1028.879	44.26014
1029.045	-48.46317
1029.21	-67.42343
1029.376	52.69182
1029.541	-2.10736
1029.707	-61.10358
1029.873	21.07496
1030.038	48.47593
1030.204	-12.64382
1030.369	-14.75104
1030.534	-23.17966
1030.7	23.18258
1030.865	6.32224
1031.031	-16.85823
1031.196	-6.32202
1031.361	-35.82187
1031.527	29.5056
1031.692	-58.9969
1031.857	2.10739
1032.023	-14.75104
1032.188	18.96735
1032.353	44.26014
1032.518	-14.75104
1032.684	-0
1032.849	46.36803
1033.014	69.55627
1033.179	-35.82187
1033.344	29.5056
1033.509	37.93663
1033.674	-4.2147
1033.839	-10.53658
1034.004	31.61332
1034.17	18.96735
1034.335	14.75222
1034.5	54.79979
1034.664	-2.10736
1034.829	-10.53658
1034.994	80.0973
1035.159	-14.75104
1035.324	-6.32202
1035.489	4.2148
1035.654	10.53718
1035.819	-14.75104
1035.984	12.64469
1036.148	-2.10736
1036.313	-10.53658
1036.478	59.01582
1036.643	-8.42931
1036.807	29.5056
1036.972	54.79979
1037.137	65.34002
1037.301	4.2148
1037.466	96.96411
1037.631	-52.67674
1037.795	-6.32202
1037.96	12.64469
1038.124	25.29023
1038.289	-29.50088
1038.454	4.2148
1038.618	44.26014
1038.783	31.61332
1038.947	46.36803
1039.111	-10.53658
1039.276	54.79979
1039.44	37.93663
1039.605	-4.2147
1039.769	18.96735
1039.933	-2.10736
1040.098	14.75222
1040.262	18.96735
1040.426	23.18258
1040.591	-12.64382
1040.755	-67.42343
1040.919	-27.39383
1041.083	52.69182
1041.248	40.04444
1041.412	10.53718
1041.576	37.93663
1041.74	2.10739
1041.904	44.26014
1042.068	-25.28676
1042.232	4.2148
1042.397	4.2148
1042.561	10.53718
1042.725	69.55627
1042.889	-8.42931
1043.053	-23.17966
1043.217	52.69182
1043.381	-6.32202
1043.544	-14.75104
1043.708	-8.42931
1043.872	31.61332
1044.036	-35.82187
1044.2	44.26014
1044.364	-27.39383
1044.528	46.36803
1044.691	-4.2147
1044.855	56.90779
1045.019	-44.2495
1045.183	-29.50088
1045.346	-0
1045.51	10.53718
1045.674	101.18103
1045.837	86.42218
1046.001	-44.2495
1046.165	4.2148
1046.328	-16.85823
1046.492	-14.75104
1046.655	82.20557
1046.819	52.69182
1046.983	-40.03573
1047.146	-48.46317
1047.31	-35.82187
1047.473	80.0973
1047.636	-27.39383
1047.8	61.12386
1047.963	6.32224
1048.127	2.10739
1048.29	29.5056
