Data from mixed_try6.1_USB4F045381__36__00320.txt Node

Date: Thu Apr 03 20:34:46 EDT 2025
User: mmckonesweet
Spectrometer: USB4F04538
Trigger mode: 4
Integration Time (sec): 2.700000E-3
Scans to average: 1
Electric dark correction enabled: true
Nonlinearity correction enabled: true
Boxcar width: 0
XAxis mode: Wavelengths
Number of Pixels in Spectrum: 3648
>>>>>Begin Spectral Data<<<<<
345.52	-68.82782
345.736	-68.82782
345.952	-68.82782
346.168	-73.04089
346.384	-75.1474
346.6	-66.72124
346.816	-5.61958
347.032	-37.2265
347.248	17.5623
347.464	13.34719
347.68	-3.51226
347.896	38.63923
348.112	-62.50801
348.328	7.02472
348.544	42.8549
348.76	25.99279
348.975	30.20817
349.191	-24.5844
349.407	47.07066
349.623	-18.26301
349.839	51.28651
350.055	63.93463
350.27	7.02472
350.486	-9.83416
350.702	-3.51226
350.918	99.77538
351.133	-20.37016
351.349	40.74705
351.565	-45.65407
351.781	4.91728
351.996	61.82655
352.212	-9.83416
352.428	23.88513
352.644	63.93463
352.859	2.80986
353.075	-51.97449
353.291	-33.01256
353.506	15.45473
353.722	-9.83416
353.938	30.20817
354.153	7.02472
354.369	-11.94141
354.584	-37.2265
354.8	0.70246
355.016	-26.69148
355.231	-16.15583
355.447	-7.72688
355.662	72.36716
355.878	59.7185
356.093	-35.11954
356.309	42.8549
356.524	53.39447
356.74	23.88513
356.955	-16.15583
357.171	4.91728
357.386	-54.08124
357.602	-1.40491
357.817	-45.65407
358.033	9.13219
358.248	-20.37016
358.464	17.5623
358.679	-18.26301
358.895	-11.94141
359.11	7.02472
359.325	-3.51226
359.541	-7.72688
359.756	-20.37016
359.972	59.7185
360.187	13.34719
360.402	-9.83416
360.618	-26.69148
360.833	4.91728
361.048	0.70246
361.264	-18.26301
361.479	21.7775
361.694	-9.83416
361.909	-20.37016
362.125	30.20817
362.34	30.20817
362.555	-18.26301
362.77	0.70246
362.986	-49.86771
363.201	47.07066
363.416	30.20817
363.631	4.91728
363.847	15.45473
364.062	-1.40491
364.277	15.45473
364.492	15.45473
364.707	-20.37016
364.922	-18.26301
365.138	-1.40491
365.353	66.04272
365.568	-3.51226
365.783	49.17857
365.998	9.13219
366.213	74.47535
366.428	7.02472
366.643	34.42366
366.858	38.63923
367.073	-45.65407
367.288	-9.83416
367.503	7.02472
367.718	51.28651
367.933	47.07066
368.148	82.90833
368.363	-11.94141
368.578	21.7775
368.793	72.36716
369.008	4.91728
369.223	-33.01256
369.438	-1.40491
369.653	-1.40491
369.868	7.02472
370.083	-45.65407
370.298	-11.94141
370.513	-75.1474
370.728	4.91728
370.943	40.74705
371.157	68.15085
371.372	-5.61958
371.587	-16.15583
371.802	-33.01256
372.017	-9.83416
372.232	-3.51226
372.446	30.20817
372.661	36.53143
372.876	-33.01256
373.091	32.3159
373.306	-7.72688
373.52	74.47535
373.735	-28.79853
373.95	7.02472
374.165	-35.11954
374.379	23.88513
374.594	-24.5844
374.809	-37.2265
375.023	-18.26301
375.238	-37.2265
375.453	-58.29468
375.667	93.45007
375.882	-18.26301
376.097	0.70246
376.311	7.02472
376.526	4.91728
376.741	59.7185
376.955	85.01664
377.17	0.70246
377.384	2.80986
377.599	-18.26301
377.813	-28.79853
378.028	-28.79853
378.242	17.5623
378.457	-5.61958
378.672	-7.72688
378.886	25.99279
379.101	11.23968
379.315	13.34719
379.53	40.74705
379.744	118.75249
379.958	63.93463
380.173	21.7775
380.387	34.42366
380.602	-20.37016
380.816	-41.44034
381.031	9.13219
381.245	74.47535
381.459	13.34719
381.674	30.20817
381.888	30.20817
382.103	-1.40491
382.317	7.02472
382.531	47.07066
382.746	34.42366
382.96	-11.94141
383.174	21.7775
383.388	-18.26301
383.603	-7.72688
383.817	97.66692
384.031	-16.15583
384.246	21.7775
384.46	13.34719
384.674	40.74705
384.888	4.91728
385.103	-26.69148
385.317	-9.83416
385.531	34.42366
385.745	30.20817
385.959	-7.72688
386.174	34.42366
386.388	11.23968
386.602	34.42366
386.816	55.50246
387.03	-54.08124
387.244	-28.79853
387.458	59.7185
387.672	-11.94141
387.887	-35.11954
388.101	-62.50801
388.315	-43.54722
388.529	66.04272
388.743	23.88513
388.957	21.7775
389.171	-16.15583
389.385	-3.51226
389.599	25.99279
389.813	25.99279
390.027	40.74705
390.241	-14.04863
390.455	-54.08124
390.669	-1.40491
390.883	-7.72688
391.097	-28.79853
391.311	-45.65407
391.525	-9.83416
391.738	34.42366
391.952	51.28651
392.166	23.88513
392.38	55.50246
392.594	13.34719
392.808	13.34719
393.022	-35.11954
393.236	-37.2265
393.449	-3.51226
393.663	25.99279
393.877	-87.78586
394.091	47.07066
394.305	11.23968
394.518	4.91728
394.732	-58.29468
394.946	36.53143
395.16	-3.51226
395.373	42.8549
395.587	-28.79853
395.801	-28.79853
396.015	74.47535
396.228	34.42366
396.442	-26.69148
396.656	36.53143
396.869	-3.51226
397.083	21.7775
397.297	-7.72688
397.51	38.63923
397.724	-37.2265
397.938	30.20817
398.151	-70.93437
398.365	-49.86771
398.578	21.7775
398.792	23.88513
399.005	4.91728
399.219	32.3159
399.433	-11.94141
399.646	4.91728
399.86	4.91728
400.073	25.99279
400.287	51.28651
400.5	30.20817
400.714	-39.33343
400.927	-11.94141
401.141	-9.83416
401.354	13.34719
401.567	49.17857
401.781	-66.72124
401.994	38.63923
402.208	-37.2265
402.421	-11.94141
402.635	7.02472
402.848	89.23331
403.061	38.63923
403.275	-3.51226
403.488	-33.01256
403.701	-1.40491
403.915	74.47535
404.128	-30.90556
404.341	-9.83416
404.555	9.13219
404.768	40.74705
404.981	11.23968
405.195	122.96987
405.408	55.50246
405.621	21.7775
405.834	-7.72688
406.048	40.74705
406.261	-37.2265
406.474	82.90833
406.687	116.64384
406.9	32.3159
407.114	25.99279
407.327	-9.83416
407.54	23.88513
407.753	59.7185
407.966	21.7775
408.179	42.8549
408.392	36.53143
408.605	15.45473
408.819	61.82655
409.032	38.63923
409.245	11.23968
409.458	-3.51226
409.671	-20.37016
409.884	9.13219
410.097	57.61047
410.31	7.02472
410.523	-49.86771
410.736	47.07066
410.949	-7.72688
411.162	15.45473
411.375	55.50246
411.588	9.13219
411.801	21.7775
412.014	59.7185
412.227	-3.51226
412.44	15.45473
412.653	-24.5844
412.865	30.20817
413.078	32.3159
413.291	0.70246
413.504	-77.25387
413.717	-68.82782
413.93	15.45473
414.143	51.28651
414.356	21.7775
414.568	66.04272
414.781	7.02472
414.994	72.36716
415.207	13.34719
415.42	17.5623
415.632	-3.51226
415.845	-33.01256
416.058	-26.69148
416.271	59.7185
416.483	-1.40491
416.696	49.17857
416.909	-60.40135
417.121	-70.93437
417.334	59.7185
417.547	-54.08124
417.759	61.82655
417.972	-60.40135
418.185	4.91728
418.397	4.91728
418.61	7.02472
418.823	63.93463
419.035	19.66988
419.248	51.28651
419.46	21.7775
419.673	-11.94141
419.885	32.3159
420.098	-24.5844
420.311	13.34719
420.523	-37.2265
420.736	-28.79853
420.948	-9.83416
421.161	19.66988
421.373	13.34719
421.586	-45.65407
421.798	4.91728
422.01	40.74705
422.223	38.63923
422.435	9.13219
422.648	40.74705
422.86	-51.97449
423.073	-3.51226
423.285	-3.51226
423.497	36.53143
423.71	47.07066
423.922	-35.11954
424.134	63.93463
424.347	-5.61958
424.559	97.66692
424.771	38.63923
424.984	-14.04863
425.196	-1.40491
425.408	38.63923
425.621	34.42366
425.833	49.17857
426.045	-11.94141
426.257	21.7775
426.47	47.07066
426.682	-28.79853
426.894	49.17857
427.106	-1.40491
427.318	55.50246
427.531	40.74705
427.743	-11.94141
427.955	9.13219
428.167	-26.69148
428.379	99.77538
428.591	-37.2265
428.804	66.04272
429.016	32.3159
429.228	13.34719
429.44	66.04272
429.652	28.10047
429.864	-1.40491
430.076	32.3159
430.288	47.07066
430.5	21.7775
430.712	-35.11954
430.924	-47.7609
431.136	0.70246
431.348	4.91728
431.56	57.61047
431.772	38.63923
431.984	4.91728
432.196	-51.97449
432.408	66.04272
432.62	40.74705
432.832	38.63923
433.044	28.10047
433.256	32.3159
433.468	85.01664
433.679	7.02472
433.891	4.91728
434.103	34.42366
434.315	25.99279
434.527	74.47535
434.739	63.93463
434.95	32.3159
435.162	15.45473
435.374	38.63923
435.586	25.99279
435.798	32.3159
436.009	38.63923
436.221	-16.15583
436.433	38.63923
436.645	57.61047
436.856	4.91728
437.068	66.04272
437.28	-54.08124
437.491	-11.94141
437.703	66.04272
437.915	63.93463
438.126	-33.01256
438.338	21.7775
438.55	38.63923
438.761	-11.94141
438.973	40.74705
439.184	7.02472
439.396	15.45473
439.608	30.20817
439.819	28.10047
440.031	-11.94141
440.242	47.07066
440.454	9.13219
440.665	-24.5844
440.877	51.28651
441.088	-43.54722
441.3	49.17857
441.511	25.99279
441.723	34.42366
441.934	17.5623
442.146	-28.79853
442.357	82.90833
442.569	55.50246
442.78	30.20817
442.991	7.02472
443.203	21.7775
443.414	30.20817
443.626	-20.37016
443.837	30.20817
444.048	9.13219
444.26	74.47535
444.471	114.5352
444.682	-9.83416
444.894	55.50246
445.105	106.10089
445.316	30.20817
445.528	32.3159
445.739	2.80986
445.95	59.7185
446.161	108.20943
446.373	23.88513
446.584	57.61047
446.795	19.66988
447.006	-9.83416
447.217	40.74705
447.429	-3.51226
447.64	47.07066
447.851	-60.40135
448.062	72.36716
448.273	36.53143
448.484	49.17857
448.695	49.17857
448.907	97.66692
449.118	21.7775
449.329	40.74705
449.54	72.36716
449.751	66.04272
449.962	51.28651
450.173	-30.90556
450.384	-7.72688
450.595	-3.51226
450.806	116.64384
451.017	-11.94141
451.228	23.88513
451.439	89.23331
451.65	49.17857
451.861	47.07066
452.072	21.7775
452.283	9.13219
452.494	30.20817
452.705	23.88513
452.915	25.99279
453.126	47.07066
453.337	-28.79853
453.548	34.42366
453.759	114.5352
453.97	4.91728
454.181	97.66692
454.391	25.99279
454.602	-66.72124
454.813	47.07066
455.024	66.04272
455.235	49.17857
455.445	-79.36032
455.656	34.42366
455.867	-11.94141
456.078	-11.94141
456.288	-26.69148
456.499	74.47535
456.71	89.23331
456.921	91.34168
457.131	80.80005
457.342	80.80005
457.553	49.17857
457.763	-30.90556
457.974	21.7775
458.184	21.7775
458.395	17.5623
458.606	13.34719
458.816	34.42366
459.027	-1.40491
459.237	47.07066
459.448	34.42366
459.659	133.51369
459.869	42.8549
460.08	72.36716
460.29	55.50246
460.501	30.20817
460.711	72.36716
460.922	40.74705
461.132	19.66988
461.343	114.5352
461.553	55.50246
461.764	82.90833
461.974	53.39447
462.184	30.20817
462.395	-5.61958
462.605	114.5352
462.816	11.23968
463.026	-3.51226
463.236	42.8549
463.447	25.99279
463.657	53.39447
463.867	15.45473
464.078	25.99279
464.288	72.36716
464.498	89.23331
464.709	80.80005
464.919	89.23331
465.129	49.17857
465.339	53.39447
465.55	139.84024
465.76	47.07066
465.97	38.63923
466.18	74.47535
466.391	74.47535
466.601	99.77538
466.811	15.45473
467.021	59.7185
467.231	30.20817
467.441	91.34168
467.651	21.7775
467.862	89.23331
468.072	101.88386
468.282	144.05805
468.492	173.58505
468.702	78.6918
468.912	89.23331
469.122	194.67826
469.332	116.64384
469.542	131.40488
469.752	125.07859
469.962	148.27594
470.172	82.90833
470.382	118.75249
470.592	72.36716
470.802	188.35008
471.012	133.51369
471.222	76.58356
471.432	122.96987
471.642	85.01664
471.852	114.5352
472.062	215.77348
472.272	106.10089
472.482	137.73137
472.691	133.51369
472.901	80.80005
473.111	118.75249
473.321	169.36666
473.531	203.11611
473.741	154.60294
473.95	158.82104
474.16	158.82104
474.37	156.71198
474.58	217.88312
474.79	133.51369
474.999	257.96985
475.209	190.45945
475.419	188.35008
475.628	196.78769
475.838	234.76089
476.048	175.69428
476.258	177.80353
476.467	226.32184
476.677	243.20024
476.886	241.09037
477.096	266.41005
477.306	163.03922
477.515	268.52014
477.725	272.74039
477.935	268.52014
478.144	369.82618
478.354	285.40159
478.563	361.38246
478.773	283.29134
478.982	346.60661
479.192	333.94227
479.401	308.61551
479.611	371.93715
479.82	462.72443
480.03	403.60374
480.239	395.15895
480.449	384.60334
480.658	365.60428
480.868	386.71443
481.077	496.5131
481.287	365.60428
481.496	511.29683
481.705	485.95373
481.915	473.28298
482.124	532.41767
482.333	549.31535
482.543	542.97862
482.752	646.49347
482.961	570.43868
483.171	701.43172
483.38	633.81654
483.589	663.39671
483.799	515.52089
484.008	714.11087
484.217	629.59099
484.426	682.41375
484.636	589.45082
484.845	726.79042
485.054	809.21649
485.263	866.28916
485.472	692.97918
485.682	794.42096
485.891	714.11087
486.1	781.73945
486.309	851.49193
486.518	910.6833
486.727	940.28131
486.936	1111.55219
487.146	891.6568
487.355	1045.99952
487.564	1071.37415
487.773	1086.17637
487.982	1026.96908
488.191	1196.14284
488.4	1103.0935
488.609	1145.38765
488.818	1145.38765
489.027	1204.60224
489.236	1221.52121
489.445	1232.09567
489.654	1069.25957
489.863	1276.50916
490.072	1145.38765
490.281	1272.27926
490.49	1255.35973
490.698	1356.8789
490.907	1297.65883
491.116	1566.26795
491.325	1365.339
491.534	1509.16216
491.743	1304.00377
491.952	1483.7816
492.16	1327.2687
492.369	1619.14275
492.578	1483.7816
492.787	1707.96925
492.996	1466.86119
493.204	1485.89665
493.413	1610.68286
493.622	1597.99297
493.831	1691.05029
494.039	1686.82052
494.248	1794.67544
494.457	1771.41342
494.665	1746.03614
494.874	1900.40499
495.083	1796.79014
495.291	1923.66379
495.5	1856.00005
495.709	1908.86281
495.917	1906.74836
496.126	2058.97318
496.335	2008.23524
496.543	2092.79622
496.752	2122.38982
496.96	2151.9819
497.169	2027.26243
497.377	2156.20921
497.586	2141.41348
497.794	2120.27604
498.003	2151.9819
498.211	2295.69141
498.42	2067.42911
498.628	2295.69141
498.837	2342.17663
499.045	2333.72512
499.254	2130.84485
499.462	2280.89969
499.671	2420.34543
499.879	2388.65707
500.087	2337.9509
500.296	2523.84382
500.504	2504.83592
500.713	2504.83592
500.921	2458.36832
501.129	2570.30363
501.338	2405.55782
501.546	2604.08899
501.754	2456.25603
501.962	2654.76115
502.171	2525.95575
502.379	2772.9676
502.587	2597.75447
502.795	2739.19853
503.004	2610.4234
503.212	2722.31272
503.42	2848.93526
503.628	2840.4953
503.837	2889.02199
504.045	2819.39441
504.253	2933.32232
504.461	2897.46064
504.669	2897.46064
504.877	3019.79463
505.085	2952.3062
505.294	3123.10576
505.502	2836.27523
505.71	3234.80719
505.918	3026.12088
506.126	3072.50909
506.334	2867.92435
506.542	3285.37365
506.75	3093.59215
506.958	3302.22697
507.166	3207.41299
507.374	3245.34267
507.582	3169.47796
507.79	3350.67415
507.998	3232.70004
508.206	3401.21793
508.414	3257.98469
508.622	3375.9473
508.83	3272.73295
509.037	3375.9473
509.245	3249.55674
509.453	3380.15925
509.661	3287.48038
509.869	3561.20532
510.077	3375.9473
510.285	3527.53249
510.492	3449.64616
510.7	3546.47403
510.908	3502.27478
511.116	3588.561
511.324	3554.89202
511.531	3872.44873
511.739	3641.1592
511.947	3502.27478
512.155	3514.90397
512.362	3824.10776
512.57	3657.98813
512.778	3653.78101
512.985	3706.36452
513.193	3773.65386
513.401	3695.84878
513.608	3927.08232
513.816	3838.82134
514.024	3769.44886
514.231	3723.18872
514.439	3849.33044
514.646	3805.18887
514.854	3914.47577
515.061	3662.19517
515.269	4006.90683
515.477	3830.4137
515.684	4002.70627
515.892	3779.96122
516.099	3998.50563
516.307	3979.60175
516.514	4036.30842
516.722	4218.92691
516.929	4124.48886
517.136	4143.37988
517.344	4111.8939
517.551	3948.09161
517.759	4200.04272
517.966	4250.39673
518.173	4107.69541
518.381	4149.67651
518.588	4141.28096
518.796	4235.71141
519.003	4359.45477
519.21	4137.08306
519.418	4208.43591
519.625	4403.48086
519.832	4434.92219
520.039	4460.0717
520.247	4392.99933
520.454	4437.0181
520.661	4468.45417
520.868	4579.48854
521.076	4746.9689
521.283	4711.39137
521.49	4744.87628
521.697	4621.37208
521.904	4828.5632
522.112	4554.35413
522.319	4744.87628
522.526	4596.24303
522.733	4803.46094
522.94	4675.80731
523.147	4742.78365
523.354	4866.21043
523.561	4891.30447
523.768	4728.13455
523.975	4845.29621
524.183	4627.65384
524.39	4922.66739
524.597	4983.2877
524.804	4956.11547
525.011	4920.57669
525.218	4870.393
525.425	4828.5632
525.632	4918.48596
525.838	5008.36631
526.045	5160.85605
526.252	4872.48425
526.459	5106.5588
526.666	4895.48649
526.873	5108.64745
527.08	5100.29273
527.287	5198.43723
527.494	4968.65699
527.701	5315.30812
527.907	5112.82467
528.114	5361.2016
528.321	5148.32731
528.528	5321.56699
528.735	5306.96263
528.941	5438.36049
529.148	5139.97435
529.355	5388.31515
529.562	5233.92364
529.768	5538.41054
529.975	5162.94409
530.182	5244.35953
530.388	5321.56699
530.595	5482.13906
530.802	5413.33951
531.008	5496.72961
531.215	5440.44542
531.422	5546.7456
531.628	5423.76533
531.835	5609.2465
532.042	5336.1702
532.248	5627.99263
532.455	5457.12401
532.661	5809.10672
532.868	5442.53033
533.074	5727.93973
533.281	5686.30172
533.487	5865.27821
533.694	5486.30791
533.9	5938.06752
534.107	5738.34776
534.313	5929.7502
534.52	5852.79714
534.726	5963.0172
534.933	5913.11444
535.139	5698.79411
535.345	5540.49434
535.552	5975.49077
535.758	5940.14679
535.965	6012.90638
536.171	5931.82957
536.377	5942.22603
536.584	6185.33528
536.79	6106.41203
536.996	6033.68953
537.203	6382.49533
537.409	6193.64102
537.615	6201.94638
537.821	6004.59246
538.028	6403.23675
538.234	6050.31436
538.44	6394.94046
538.646	6392.86633
538.853	6380.42106
539.059	6195.71739
539.265	6270.45131
539.471	6274.6023
539.677	6517.273
539.883	6224.78419
540.09	6253.8464
540.296	6631.23915
540.502	6440.56545
540.708	6320.25706
540.914	6540.07183
541.12	6438.49183
541.326	6486.17917
541.532	6772.04643
541.738	6809.30123
541.944	6560.7956
542.15	6803.09261
542.356	6680.94796
542.562	6668.522
542.768	6448.85969
542.974	7005.80177
543.18	6734.78424
543.386	6740.99512
543.592	6726.50274
543.798	6991.32975
544.004	6908.61126
544.21	6875.51373
544.415	6687.16063
544.621	7119.47228
544.827	6836.20287
545.033	6980.99191
545.239	7055.41178
545.445	7189.70754
545.651	6935.49874
545.856	7311.52566
546.062	7346.61159
546.268	7249.59384
546.474	7185.57677
546.679	6993.39725
546.885	6780.32592
547.091	7239.26994
547.297	7038.87655
547.502	7098.80995
547.708	7028.5413
547.914	7208.29494
548.119	7396.13391
548.325	7412.63857
548.531	7088.47795
548.736	7352.80257
548.942	7231.01043
549.147	7412.63857
549.353	7325.97357
549.559	7259.91718
549.764	7297.07667
549.97	7358.99335
550.175	7107.07515
550.381	7629.13407
550.586	7472.45629
550.792	7530.1941
550.997	7249.59384
551.203	7550.81066
551.408	7639.43749
551.614	7478.64329
551.819	7594.09846
552.025	7750.68074
552.23	7660.04274
552.435	7791.86638
552.641	7865.9795
552.846	7849.51225
553.052	7589.97622
553.257	7861.86281
553.462	7802.16148
553.668	7874.21263
553.873	7820.69135
554.078	7865.9795
554.283	7828.92631
554.489	8088.15887
554.694	7857.74604
554.899	8102.5512
555.105	7822.75012
555.31	8018.23916
555.515	7878.32908
555.72	8141.61115
555.925	7841.27812
556.131	8219.70943
556.336	7701.24689
556.541	8215.59971
556.746	8129.27721
556.951	8188.8846
557.156	8092.27106
557.361	8147.77785
557.567	8073.76554
557.772	8269.01992
557.977	8195.04992
558.182	8351.17893
558.387	8059.37123
558.592	8236.14752
558.797	7966.81264
559.002	8361.44661
559.207	7989.44188
559.412	7993.55602
559.617	8180.66389
559.822	8207.38003
560.027	8145.72231
560.232	8277.23723
560.437	8219.70943
560.642	8457.9392
560.847	8511.29988
561.051	8258.74784
561.256	8110.77495
561.461	8691.8106
561.666	8433.30684
561.871	8453.834
562.076	8429.20117
562.281	8525.66401
562.485	8225.87387
562.69	8412.77775
562.895	8357.33959
563.1	8423.04253
563.305	8593.36819
563.509	8755.36533
563.714	8478.46406
563.919	8591.31685
564.123	8260.80229
564.328	8377.87389
564.533	8548.23436
564.737	8679.50764
564.942	8449.72872
565.147	8845.54192
565.351	8517.45605
565.556	8792.26
565.761	8425.09543
565.965	8628.23812
566.17	8761.51485
566.374	8691.8106
566.579	8646.69649
566.784	8523.61205
566.988	8523.61205
567.193	8886.51972
567.397	8761.51485
567.602	8913.15144
567.806	8747.16571
568.011	8904.95739
568.215	9038.07572
568.42	8909.05445
568.624	8823.00106
568.828	8900.86025
569.033	8587.21412
569.237	8884.471
569.442	8736.91578
569.646	8847.59098
569.85	8825.05032
570.055	9197.72066
570.259	8941.8284
570.463	9310.22866
570.668	9093.34928
570.872	9064.6905
571.076	8927.49036
571.281	9277.50428
571.485	8980.74157
571.689	9261.14049
571.893	9195.67459
572.098	9443.12805
572.302	9293.86701
572.506	9138.37769
572.71	9115.86453
572.914	9230.4555
573.119	9105.63058
573.323	9167.02781
573.527	9130.19132
573.731	9412.46509
573.935	9185.44397
574.139	9606.60294
574.343	9111.771
574.547	9400.19888
574.751	9436.99575
574.955	9496.26858
575.159	9328.63426
575.364	9445.17212
575.568	9484.00635
575.772	9457.43619
575.976	9547.35504
576.18	9531.00846
576.383	9486.05009
576.587	9725.05941
576.791	9531.00846
576.995	9620.90218
577.199	9608.64573
577.403	9561.65747
577.607	9706.68163
577.811	9436.99575
578.015	9396.11002
578.219	9772.01924
578.422	9357.26252
578.626	9598.4316
578.83	9420.64224
579.034	9443.12805
579.238	9737.31058
579.442	9800.59956
579.645	9580.04517
579.849	9725.05941
580.053	9890.40434
580.257	9947.53795
580.46	9855.71045
580.664	9923.05352
580.868	9639.28579
581.071	9972.02028
581.275	9900.60761
581.479	10037.29635
581.682	9631.11545
581.886	9694.42909
582.09	9804.68222
582.293	9986.30068
582.497	9818.97107
582.7	9955.69896
582.904	10029.13765
583.107	10053.61308
583.311	9967.94004
583.515	10332.89884
583.718	9808.76482
583.922	10063.81057
584.125	10182.07583
584.329	10059.73162
584.532	10074.00771
584.735	10298.25685
584.939	10106.63619
585.142	10281.95339
585.346	10210.61562
585.549	10367.537
585.753	10249.3439
585.956	10192.26892
586.159	10175.95981
586.363	10459.20794
586.566	10290.10523
586.769	10725.92603
586.973	10241.19099
587.176	10446.98666
587.379	10167.80492
587.582	10451.06047
587.786	10210.61562
587.989	10660.7931
588.192	10420.50564
588.395	10583.43149
588.599	10526.41669
588.802	10442.9128
589.005	10471.42875
589.208	10526.41669
589.411	10389.94789
589.615	10416.43145
589.818	10673.00647
590.021	10758.48788
590.224	10483.64909
590.427	10611.93521
590.63	10705.57332
590.833	10729.99643
591.036	10713.71455
591.239	10929.38824
591.442	10821.56781
591.645	10485.68577
591.848	10707.60865
592.051	10888.70508
592.254	10565.10638
592.457	10945.66023
592.66	10650.61496
592.863	10780.87238
593.066	10786.97699
593.269	11059.54413
593.472	10689.29029
593.675	11394.90027
593.878	10968.03304
594.081	10917.18377
594.284	10607.8634
594.486	11220.14385
594.689	11035.14336
594.892	10965.9992
595.095	10748.31263
595.298	11035.14336
595.5	10970.06686
595.703	11340.04292
595.906	10892.7736
596.109	11132.73707
596.311	10909.04723
596.514	11319.72353
596.717	11088.00972
596.92	11344.10667
597.122	11055.47745
597.325	11283.14609
597.528	11214.04633
597.73	11429.43641
597.933	11344.10667
598.136	11374.58358
598.338	11246.56535
598.541	11439.59356
598.743	11502.56251
598.946	11189.65532
599.148	11301.43522
599.351	11201.85102
599.554	11218.11136
599.756	11275.01733
599.959	11230.30617
600.161	11394.90027
600.363	11772.61845
600.566	11874.10289
600.768	11344.10667
600.971	11423.342
601.173	11364.42486
601.376	11541.15186
601.578	11350.20223
601.78	11762.46883
601.983	11506.6247
602.185	11780.73799
602.388	11762.46883
602.59	11717.80792
602.792	11681.264
602.995	11541.15186
603.197	11494.438
603.399	11744.19897
603.601	11602.07554
603.804	11589.89147
604.006	11738.10886
604.208	11902.51476
604.41	11628.47323
604.613	12083.09606
604.815	11636.59528
605.017	11770.58854
605.219	11634.56478
605.421	11681.264
605.623	11701.56653
605.826	12241.30808
606.028	11595.98355
606.23	11790.88722
606.432	11638.62577
606.634	12103.3822
606.836	11803.06602
607.038	11971.50834
607.24	11415.21599
607.442	11983.68271
607.644	11691.41538
607.846	11721.86818
608.048	11524.90412
608.25	11616.28987
608.452	11665.02133
608.654	11788.85739
608.856	11579.73782
609.058	11658.93019
609.26	11628.47323
609.462	12024.26186
609.664	12054.69416
609.866	12095.26784
610.067	11979.62462
610.269	11766.52871
610.471	11729.98859
610.673	11839.60055
610.875	11827.42268
611.077	11876.13236
611.278	11833.51166
611.48	11742.16894
611.682	11656.89979
611.884	12233.19573
612.085	11888.30903
612.287	12127.72457
612.489	11697.5061
612.69	12251.44835
612.892	12056.72292
613.094	11967.45016
613.295	11792.91704
613.497	11979.62462
613.699	12012.08845
613.9	12176.40606
614.102	12060.78041
614.304	12245.36421
614.505	12087.15335
614.707	12006.00164
614.908	11983.68271
615.11	12008.03058
615.311	12072.9527
615.513	11721.86818
615.714	11957.30455
615.916	12156.12263
616.117	11719.83805
616.319	12218.99885
616.52	12178.43436
616.722	12253.47638
616.923	12054.69416
617.124	12038.46382
617.326	12064.83787
617.527	12034.40616
617.729	12105.41077
617.93	12038.46382
618.131	11748.259
618.333	12072.9527
618.534	11904.54412
618.735	11851.77813
618.937	11900.4854
619.138	12174.37775
619.339	11985.71174
619.54	12111.49645
619.742	12188.57576
619.943	12338.64733
620.144	12095.26784
620.345	12267.67241
620.546	12074.98138
620.748	12081.0674
620.949	11953.24625
621.15	12460.29904
621.351	12235.22383
621.552	12285.92392
621.753	12176.40606
621.954	12375.1454
622.155	11813.21477
622.356	12298.09128
622.558	11955.2754
622.759	12306.20272
622.96	11886.2796
623.161	12517.06167
623.362	11941.07116
623.563	12257.53242
623.764	11831.48201
623.965	12565.71136
624.166	12383.25578
624.366	12277.81221
624.567	12062.80914
624.768	12306.20272
624.969	12176.40606
625.17	12326.48081
625.371	12160.17937
625.572	12227.1114
625.773	12178.43436
625.973	12330.53634
626.174	12401.50374
626.375	12354.86897
626.576	12632.59882
626.777	12352.84129
626.977	12178.43436
627.178	12721.77185
627.379	12302.14702
627.58	12316.34185
627.78	12486.65375
627.981	12431.9158
628.182	12285.92392
628.382	12440.02543
628.583	12172.34943
628.784	12322.42525
628.984	11955.2754
629.185	12440.02543
629.386	12267.67241
629.586	12464.35368
629.787	12216.9707
629.987	12245.36421
630.188	12294.03553
630.388	12484.6265
630.589	12223.05514
630.79	12356.89664
630.99	12131.78153
631.191	12099.32503
631.391	12310.25839
631.591	12362.97962
631.792	12277.81221
631.992	12731.90443
632.193	12588.00793
632.393	12644.75946
632.594	12695.42647
632.794	12569.76534
632.994	12235.22383
633.195	12496.78989
633.395	12470.4356
633.595	12480.57199
633.796	12306.20272
633.996	12711.63913
634.196	12480.57199
634.397	12748.11626
634.597	12541.38697
634.797	12833.22239
634.997	12496.78989
635.198	12800.80217
635.398	12316.34185
635.598	12975.04462
635.798	12484.6265
635.998	12393.39361
636.199	12160.17937
636.399	12531.25154
636.599	12620.43796
636.799	12806.88107
636.999	12320.39745
637.199	12679.21343
637.399	12573.81929
637.599	12817.01246
637.799	12425.83351
637.999	12871.71958
638.199	12735.95742
638.399	12567.73835
638.599	12567.73835
638.799	12786.61788
638.999	12590.03485
639.199	12958.83767
639.399	12742.03687
639.599	12849.43197
639.799	12504.89868
639.999	12841.32723
640.199	12539.3599
640.399	13110.76534
640.599	12437.99803
640.799	13416.56806
640.998	12744.06334
641.198	12756.22203
641.398	12675.16011
641.598	12885.90226
641.798	12683.26672
641.997	12946.68224
642.197	12904.13675
642.397	12829.16994
642.597	12794.72322
642.796	12950.73407
642.996	12740.01039
643.196	13019.61208
643.395	12679.21343
643.595	12910.21482
643.795	12677.18677
643.994	12827.14371
644.194	12794.72322
644.394	12806.88107
644.593	12746.0898
644.793	12993.27706
644.992	13003.40601
645.192	13005.43179
645.392	13005.43179
645.591	13072.2796
645.791	12975.04462
645.99	12679.21343
646.19	12752.16916
646.389	12717.71878
646.589	12721.77185
646.788	12958.83767
646.987	12849.43197
647.187	13325.44496
647.386	13043.92058
647.586	13155.32564
647.785	12794.72322
647.984	13035.81782
648.184	12879.824
648.383	12970.99292
648.582	12952.75998
648.782	13135.07123
648.981	13076.33081
649.18	12956.81178
649.38	12946.68224
649.579	13169.50344
649.778	13056.07456
649.977	13060.12585
650.177	13045.94625
650.376	13120.89288
650.575	12894.00653
650.774	12630.57202
650.973	12973.01877
651.173	13021.63781
651.372	13224.18719
651.571	13282.918
651.77	13106.71429
651.969	13345.69525
652.168	13177.60495
652.367	12995.30286
652.566	12979.09631
652.765	13118.86738
652.964	13189.75707
653.163	13054.04891
653.362	13181.65567
653.561	13268.74193
653.76	13098.61213
653.959	13185.70638
654.158	13193.80774
654.357	13461.11421
654.556	13003.40601
654.755	13311.26951
654.954	13092.53547
655.153	13392.26936
655.352	13367.97009
655.551	13453.01505
655.749	13173.5542
655.948	13228.23771
656.147	13153.30022
656.346	13493.51025
656.545	13214.06082
656.743	13507.68322
656.942	13303.16917
657.141	13619.03613
657.34	13323.41991
657.538	13325.44496
657.737	13313.29459
657.936	13531.97932
658.135	13173.5542
658.333	13384.16967
658.532	13442.89101
658.731	13293.04364
658.929	13043.92058
659.128	13203.93433
659.326	13327.47001
659.525	13554.25029
659.724	13153.30022
659.922	13183.68103
660.121	13222.16193
660.319	13197.85839
660.518	13293.04364
660.716	13374.04496
660.915	13222.16193
661.113	13448.96544
661.312	13165.45266
661.51	13118.86738
661.709	13216.0861
661.907	13424.6675
662.105	13141.1476
662.304	13566.39791
662.502	13501.60912
662.701	13633.20757
662.899	13240.38916
663.097	13827.54279
663.296	13400.36899
663.494	13542.10254
663.692	13224.18719
663.891	13400.36899
664.089	13212.03553
664.287	13238.36393
664.485	13197.85839
664.684	13461.11421
664.882	13171.52883
665.08	13361.89518
665.278	13479.3371
665.476	13386.1946
665.675	13311.26951
665.873	13442.89101
666.071	13349.74525
666.269	13248.49004
666.467	13351.77025
666.665	13550.20106
666.863	13477.31235
667.061	13487.43607
667.259	13274.81742
667.457	13501.60912
667.655	13633.20757
667.853	13695.96482
668.051	13102.66322
668.249	13321.39485
668.447	13286.96827
668.645	13274.81742
668.843	13284.94314
669.041	13614.98712
669.239	13094.56103
669.437	13252.54045
669.635	13096.58658
669.833	13363.92015
670.031	13307.21935
670.229	13718.23277
670.426	13420.61778
670.624	13683.8185
670.822	13248.49004
671.02	13374.04496
671.218	13250.51525
671.415	13088.48433
671.613	12964.91532
671.811	13343.67024
672.009	13471.23808
672.206	13422.64264
672.404	13363.92015
672.602	13122.91837
672.799	13327.47001
672.997	13467.18854
673.195	13280.89286
673.392	13428.71719
673.59	13151.27479
673.788	13288.99339
673.985	13299.11897
674.183	13199.88371
674.38	13570.44709
674.578	13665.5988
674.775	13256.59085
674.973	13453.01505
675.17	13236.33869
675.368	12920.34483
675.565	12817.01246
675.763	13463.13899
675.96	13503.63382
676.158	13266.71676
676.355	12766.35412
676.553	13325.44496
676.75	13135.07123
676.947	13507.68322
677.145	12970.99292
677.342	13394.29427
677.539	13197.85839
677.737	13453.01505
677.934	13307.21935
678.131	13359.8702
678.329	13171.52883
678.526	13448.96544
678.723	13116.84187
678.92	13442.89101
679.118	12916.29284
679.315	13090.5099
679.512	13054.04891
679.709	13210.01024
679.906	12924.3968
680.104	13313.29459
680.301	13222.16193
680.498	13303.16917
680.695	12983.14798
680.892	13369.99505
681.089	13212.03553
681.286	13505.65852
681.483	12918.31884
681.68	13157.35105
681.877	12952.75998
682.075	13214.06082
682.272	12654.89316
682.469	13426.69235
682.665	12914.26684
682.862	12970.99292
683.059	12954.78588
683.256	13173.5542
683.453	12800.80217
683.65	12912.24083
683.847	12681.24008
684.044	12922.37081
684.241	12598.14248
684.438	12806.88107
684.635	12837.27482
684.831	12744.06334
685.028	12841.32723
685.225	12932.50067
685.422	12705.55942
685.619	12843.35342
685.815	12517.06167
686.012	12839.30103
686.209	12841.32723
686.405	12654.89316
686.602	12590.03485
686.799	12689.34662
686.996	12707.586
687.192	12735.95742
687.389	12833.22239
687.586	12737.98391
687.782	12845.37961
687.979	13011.50908
688.175	12683.26672
688.372	12843.35342
688.568	12598.14248
688.765	12565.71136
688.962	12330.53634
689.158	12602.19626
689.355	12673.13344
689.551	12964.91532
689.748	12764.32772
689.944	12472.46289
690.14	12371.09017
690.337	12527.19733
690.533	12727.85142
690.73	12614.35745
690.926	12474.49018
691.123	12638.67916
691.319	12583.95406
691.515	12610.30374
691.712	12354.86897
691.908	12371.09017
692.104	12287.95184
692.301	12346.7582
692.497	12427.86095
692.693	12541.38697
692.889	12737.98391
693.086	12715.69224
693.282	12731.90443
693.478	12594.08868
693.674	12421.77862
693.87	12737.98391
694.067	12464.35368
694.263	12389.3385
694.459	12391.36605
694.655	12494.76267
694.851	12340.67506
695.047	12239.28
695.243	12326.48081
695.439	12369.06254
695.635	12435.97063
695.831	12249.42031
696.027	12196.68874
696.224	12342.70278
696.42	12350.8136
696.615	12385.28336
696.811	12328.50858
697.007	12492.73545
697.203	12324.45303
697.399	12202.77341
697.595	12186.54749
697.791	12279.84015
697.987	11847.71897
698.183	12253.47638
698.379	12216.9707
698.575	12590.03485
698.77	12310.25839
698.966	12275.78426
699.162	12235.22383
699.358	12176.40606
699.554	12312.28622
699.749	12283.89601
699.945	12058.75167
700.141	12241.30808
700.337	11969.47925
700.532	12208.858
700.728	12101.35362
700.924	11918.7494
701.119	11807.12554
701.315	11943.10036
701.511	12028.3196
701.706	12462.32636
701.902	12022.23298
702.097	11953.24625
702.293	11813.21477
702.489	12003.97268
702.684	11922.80797
702.88	12350.8136
703.075	12070.924
703.271	12016.14629
703.466	12113.52499
703.662	12042.52145
703.857	11861.92587
704.053	12257.53242
704.248	12111.49645
704.443	12241.30808
704.639	11825.39301
704.834	12062.80914
705.03	11768.55863
705.225	12162.20773
705.42	11715.77778
705.616	12018.17519
705.811	11912.66147
706.006	12141.92378
706.202	11762.46883
706.397	11961.36282
706.592	11843.65978
706.787	11853.80769
706.983	11981.65367
707.178	12139.89535
707.373	12164.23609
707.568	11900.4854
707.763	11782.76785
707.959	11847.71897
708.154	11535.05903
708.349	11736.0788
708.544	11799.00645
708.739	11541.15186
708.934	11575.6763
709.129	12241.30808
709.324	11646.74765
709.519	11969.47925
709.714	11634.56478
709.909	11782.76785
710.104	11508.65579
710.299	11681.264
710.494	11695.47587
710.689	11667.0517
710.884	11516.78003
711.079	11782.76785
711.274	11522.87311
711.469	11717.80792
711.664	11632.53427
711.859	11701.56653
712.054	11888.30903
712.249	11762.46883
712.443	11662.99096
712.638	11675.17307
712.833	11478.18852
713.028	11918.7494
713.223	11096.14235
713.417	11547.2446
713.612	11632.53427
713.807	11752.319
714.002	11665.02133
714.196	11537.08998
714.391	11390.83701
714.586	11431.46786
714.78	11279.08173
714.975	11740.1389
715.17	11585.83004
715.364	12072.9527
715.559	11725.9284
715.754	11431.46786
715.948	11268.92064
716.143	11636.59528
716.337	11616.28987
716.532	11644.71719
716.726	11559.42984
716.921	11429.43641
717.115	11563.49151
717.31	11482.25095
717.504	11295.33894
717.699	11413.18446
717.893	11494.438
718.088	11742.16894
718.282	11624.41214
718.476	11260.79159
718.671	11106.3079
718.865	11159.16443
719.059	11340.04292
719.254	11575.6763
719.448	11035.14336
719.642	11561.46068
719.837	10892.7736
720.031	11262.82387
720.225	11146.96741
720.419	11466.00101
720.614	10968.03304
720.808	11461.93843
721.002	11275.01733
721.196	11092.07605
721.39	11020.90884
721.585	11096.14235
721.779	10957.86375
721.973	11027.00942
722.167	10770.69778
722.361	10520.30738
722.555	10927.35419
722.749	10915.14965
722.943	11197.78583
723.137	10870.39616
723.331	10927.35419
723.525	11350.20223
723.719	10868.36178
723.913	11049.37733
724.107	10984.30332
724.301	11018.8753
724.495	10681.14848
724.689	11108.34097
724.883	10740.17222
725.077	10799.1859
725.271	11000.57288
725.465	11067.67737
725.659	10984.30332
725.853	11214.04633
726.046	10907.01306
726.24	10789.01184
726.434	10772.73273
726.628	10760.52289
726.822	10937.52432
727.015	11376.61529
727.209	11006.67379
727.403	11203.8836
727.596	10945.66023
727.79	10919.21787
727.984	10965.9992
728.177	11016.84174
728.371	10695.39652
728.565	10925.32012
728.758	10412.3572
728.952	10994.47188
729.146	10866.32739
729.339	10843.9483
729.533	10770.69778
729.726	10723.89082
729.92	10705.57332
730.113	10636.36504
730.307	10927.35419
730.5	10843.9483
730.694	10591.57566
730.887	10644.50793
731.081	10565.10638
731.274	10878.53357
731.468	10683.18395
731.661	11061.57746
731.854	10866.32739
732.048	10949.72811
732.241	11071.74393
732.435	11000.57288
732.628	10791.04668
732.821	10878.53357
733.014	10528.4531
733.208	10900.9105
733.401	10852.08631
733.594	10707.60865
733.788	11010.741
733.981	10880.5679
734.174	10843.9483
734.367	10577.32323
734.56	10414.39433
734.754	10485.68577
734.947	10681.14848
735.14	10837.84467
735.333	10823.60246
735.526	10876.49924
735.719	10554.92532
735.912	10662.8287
736.105	10740.17222
736.298	10616.00697
736.491	10691.32571
736.684	10666.89984
736.877	10575.28712
737.07	10632.29353
737.263	10636.36504
737.456	10489.75909
737.649	10701.50264
737.842	10618.04283
738.035	10353.27469
738.228	10259.53474
738.421	10465.3184
738.614	10463.28159
738.807	10446.98666
739	10778.83748
739.192	10497.90558
739.385	10579.35933
739.578	10687.25485
739.771	10528.4531
739.964	10304.37042
740.156	10520.30738
740.349	10339.01173
740.542	10504.01532
740.735	10355.3122
740.927	10461.24477
741.12	10347.16207
741.313	10196.34606
741.505	10463.28159
741.698	10283.99137
741.891	10277.8774
742.083	10373.64921
742.276	10359.38719
742.468	10449.02358
742.661	10151.49448
742.854	10300.29472
743.046	10078.08647
743.239	10220.80775
743.431	10149.45561
743.624	10216.73094
743.816	10167.80492
744.009	10145.37784
744.201	10322.71042
744.393	10408.28289
744.586	10430.69091
744.778	10237.11445
744.971	10404.20854
745.163	10506.05187
745.355	10253.42028
745.548	10080.12583
745.74	10349.19963
745.932	10047.49441
746.125	9963.85974
746.317	10074.00771
746.509	10004.66016
746.702	10347.16207
746.894	10155.57217
747.086	10212.65407
747.278	10012.81955
747.471	10145.37784
747.663	10143.33893
747.855	10208.57715
748.047	10220.80775
748.239	10485.68577
748.431	10137.22212
748.623	10534.56227
748.815	9925.09397
749.008	9990.38067
749.2	10465.3184
749.392	10467.35519
749.584	10428.65388
749.776	10351.23716
749.968	10298.25685
750.16	10387.9106
750.352	10098.47941
750.544	10233.03785
750.736	10214.69251
750.928	10074.00771
751.12	10137.22212
751.311	10124.98812
751.503	10025.05821
751.695	10196.34606
751.887	9743.43595
752.079	9904.68882
752.271	9963.85974
752.463	9865.91498
752.654	9937.33636
752.846	9806.72353
753.038	9849.58755
753.23	10177.99849
753.421	9712.8077
753.613	9839.38243
753.805	9814.88861
753.997	9739.35238
754.188	9951.61849
754.38	10000.58037
754.572	9923.05352
754.763	10065.85003
754.955	9965.8999
755.146	9769.97767
755.338	9745.47772
755.53	9614.77403
755.721	9827.13579
755.913	9586.17412
756.104	9606.60294
756.296	9714.84969
756.487	9704.63958
756.679	9782.22683
756.87	9559.61431
757.062	9680.13376
757.253	9492.18123
757.445	9528.96506
757.636	9443.12805
757.827	9720.97557
758.019	9857.75139
758.21	9573.91608
758.401	9406.33206
758.593	9357.26252
758.784	9561.65747
758.975	9649.49836
759.167	9563.70061
759.358	9624.98753
759.549	9580.04517
759.74	9573.91608
759.932	9514.66085
760.123	9314.31891
760.314	9457.43619
760.505	9398.15446
760.696	9162.93514
760.888	9357.26252
761.079	9130.19132
761.27	9500.35587
761.461	9083.11439
761.652	9185.44397
761.843	9244.77563
762.034	9426.77493
762.225	9295.91227
762.416	9285.68578
762.607	9134.28454
762.798	9187.49013
762.989	9158.8424
763.18	9203.85877
763.371	9187.49013
763.562	9091.30234
763.753	8990.98082
763.944	9261.14049
764.135	9109.72421
764.326	9023.74347
764.517	8933.63534
764.708	9238.63853
764.899	8909.05445
765.089	8835.29635
765.28	8909.05445
765.471	8966.40588
765.662	8679.50764
765.853	8835.29635
766.043	8630.28913
766.234	8710.26379
766.425	8663.10266
766.615	8839.39463
766.806	8671.3053
766.997	8802.50748
767.187	8603.62462
767.378	8728.7155
767.569	8517.45605
767.759	8695.91144
767.95	8632.34011
768.141	8814.80384
768.331	8687.70969
768.522	8730.76559
768.712	8691.8106
768.903	8697.96183
769.093	8708.21351
769.284	8227.92864
769.474	8546.1826
769.665	8697.96183
769.855	8439.46518
770.046	8679.50764
770.236	8190.93972
770.426	8295.72503
770.617	8336.80335
770.807	8336.80335
770.998	8371.7138
771.188	8515.40401
771.378	8172.44286
771.569	8289.5626
771.759	8209.43498
771.949	8049.08897
772.139	8529.76788
772.33	7981.21335
772.52	8390.19354
772.71	8336.80335
772.9	8141.61115
773.09	8363.50009
773.281	8242.31148
773.471	8402.51249
773.661	8143.66674
773.851	8293.67091
774.041	8137.49992
774.231	8381.98052
774.421	8007.95488
774.611	8125.16574
774.802	7956.5258
774.992	8100.49522
775.182	8055.25839
775.372	8232.03812
775.562	7870.09611
775.752	8114.88671
775.942	7886.56171
776.131	8133.38861
776.321	8022.35273
776.511	8170.38755
776.701	7843.33668
776.891	7785.68906
777.081	7938.00821
777.271	8020.29596
777.461	8123.10997
777.651	7851.57073
777.84	7795.98448
778.03	7865.9795
778.22	7791.86638
778.41	7977.09896
778.599	7767.156
778.789	7915.37334
778.979	7604.40369
779.169	7855.68762
779.358	7554.93371
779.548	7808.33829
779.738	7546.68752
779.927	7594.09846
780.117	7651.8009
780.307	7738.32341
780.496	7519.88501
780.686	7427.079
780.875	7266.11093
781.065	7528.13232
781.254	7577.60898
781.444	7503.38936
781.633	7387.88107
781.823	7697.12686
782.012	7330.10135
782.202	7472.45629
782.391	7373.43774
782.581	7602.34268
782.77	7488.95453
782.96	7680.64587
783.149	7251.65855
783.338	7447.70634
783.528	7249.59384
783.717	7462.14419
783.906	7462.14419
784.096	7592.03735
784.285	7540.50264
784.474	7392.00753
784.663	7259.91718
784.853	7282.62661
785.042	6993.39725
785.231	7094.67721
785.42	7412.63857
785.61	7272.30447
785.799	7295.01244
785.988	7266.11093
786.177	7036.80954
786.366	7340.42041
786.555	7024.40704
786.744	7138.06647
786.933	7007.86911
787.122	7016.13826
787.312	6970.65351
787.501	7125.67054
787.69	6902.40592
787.879	7115.33999
788.068	7009.93643
788.257	7109.14139
788.445	6933.4306
788.634	7389.94431
788.823	7082.27848
789.012	7282.62661
789.201	6904.47439
789.39	7018.20549
789.579	6858.96279
789.768	6817.57906
789.957	6817.57906
790.145	6813.44019
790.334	6784.46552
790.523	6817.57906
790.712	6709.93865
790.9	6660.23757
791.089	6625.02461
791.278	6875.51373
791.467	6823.7872
791.655	6821.71785
791.844	6980.99191
792.033	6827.92585
792.221	6500.69028
792.41	6511.05465
792.599	6486.17917
792.787	6496.54436
792.976	6709.93865
793.164	6678.87702
793.353	6647.81022
793.541	6680.94796
793.73	6809.30123
793.918	6738.92485
794.107	6502.7632
794.295	6805.16217
794.484	6925.15785
794.672	6788.60503
794.861	6604.308
795.049	6712.00924
795.238	6527.63645
795.426	6714.07981
795.614	6500.69028
795.803	6687.16063
795.991	6529.70907
796.179	6469.59366
796.368	6436.41819
796.556	6330.63156
796.744	6386.6438
796.932	6440.56545
797.121	6195.71739
797.309	6241.39173
797.497	6297.4311
797.685	6355.52799
797.874	6415.68049
798.062	6546.2892
798.25	6241.39173
798.438	6453.00667
798.626	6322.33201
798.814	6392.86633
799.002	6206.09892
799.19	6170.79934
799.378	6255.92209
799.566	6303.65664
799.755	6237.23998
799.943	6303.65664
800.131	6421.90204
800.318	6282.90401
800.506	6012.90638
800.694	6260.07341
800.882	6266.30022
801.07	6453.00667
801.258	6575.30087
801.446	6593.94883
801.634	6118.87585
801.822	6208.17516
802.01	5948.46363
802.197	6477.8866
802.385	6017.0632
802.573	6372.12374
802.761	6191.56462
802.949	6430.19712
803.136	6262.14904
803.324	6303.65664
803.512	6280.82862
803.699	6174.95258
803.887	6189.4882
804.075	6050.31436
804.262	6220.63207
804.45	6253.8464
804.638	5942.22603
804.825	6172.87597
805.013	5942.22603
805.201	6341.00548
805.388	6098.10235
805.576	6311.95704
805.763	6278.7532
805.951	6332.70639
806.138	6189.4882
806.326	6363.82605
806.513	6411.53267
806.701	6075.24878
806.888	6226.86022
807.075	6197.79375
807.263	6064.85985
807.45	6330.63156
807.638	6160.41581
807.825	6220.63207
808.012	6253.8464
808.2	6355.52799
808.387	6330.63156
808.574	6353.45342
808.761	6141.72399
808.949	6150.0317
809.136	5931.82957
809.323	6253.8464
809.51	6077.32649
809.698	6062.78199
809.885	6204.02266
810.072	6336.85599
810.259	6440.56545
810.446	6264.22464
810.633	6104.33465
810.82	6486.17917
811.008	6262.14904
811.195	6461.30035
811.382	6533.85424
811.569	6546.2892
811.756	6257.99776
811.943	6245.54338
812.13	6187.41175
812.317	6357.60254
812.504	6245.54338
812.691	6436.41819
812.878	6195.71739
813.064	6276.67776
813.251	6014.9848
813.438	6253.8464
813.625	5938.06752
813.812	6293.28062
813.999	6087.71471
814.186	6450.93319
814.372	6189.4882
814.559	6455.08012
814.746	6162.49256
814.933	6357.60254
815.12	6102.25724
815.306	6278.7532
815.493	5990.04219
815.68	6170.79934
815.866	6087.71471
816.053	6255.92209
816.24	6131.33883
816.426	6062.78199
816.613	6154.18542
816.799	6299.5063
816.986	5985.88476
817.173	6125.10745
817.359	5856.9576
817.546	6222.70814
817.732	5867.35831
817.919	6012.90638
818.105	6062.78199
818.292	6066.93768
818.478	5931.82957
818.665	6129.26172
818.851	5671.72618
819.037	5973.4119
819.224	5863.19809
819.41	5935.98822
819.597	6262.14904
819.783	6160.41581
819.969	5935.98822
820.156	6170.79934
820.342	5838.23483
820.528	6056.54828
820.714	5757.08073
820.901	5938.06752
821.087	5879.83839
821.273	6025.37655
821.459	5896.47717
821.646	5942.22603
821.832	5663.39678
822.018	5996.27816
822.204	5867.35831
822.39	5956.7801
822.576	6017.0632
822.762	6031.61132
822.948	5732.10302
823.134	5775.81178
823.32	5500.89813
823.507	5854.87738
823.693	5967.17515
823.879	5990.04219
824.065	5555.08028
824.25	5771.64949
824.436	5596.74802
824.622	6048.23634
824.808	5798.7027
824.994	5871.51843
825.18	5596.74802
825.366	5730.02139
825.552	5530.07511
825.738	5671.72618
825.923	5350.77226
826.109	5467.54736
826.295	5413.33951
826.481	5636.32363
826.667	5596.74802
826.852	5817.42951
827.038	5379.97294
827.224	5565.4981
827.409	5367.45893
827.595	5436.27554
827.781	5500.89813
827.966	5590.49846
828.152	5613.41247
828.338	5407.08374
828.523	5071.04827
828.709	5413.33951
828.894	5396.65698
829.08	5421.68021
829.266	5290.27053
829.451	5430.02054
829.637	5144.15088
829.822	5271.49013
830.008	5112.82467
830.193	5008.36631
830.378	5171.29602
830.564	5373.71604
830.749	5075.22633
830.935	5192.17423
831.12	5236.01087
831.305	5394.57155
831.491	5323.65323
831.676	5350.77226
831.861	5379.97294
832.047	5384.14409
832.232	5098.20399
832.417	5482.13906
832.602	5246.44664
832.788	5246.44664
832.973	5169.20807
833.158	5025.08353
833.343	4991.64761
833.528	5173.38395
833.714	4995.82742
833.899	5085.67107
834.084	4937.30165
834.269	5213.0501
834.454	4805.55292
834.639	5117.0018
834.824	4966.56679
835.009	5114.91325
835.194	4887.12236
835.379	5077.31532
835.564	4908.032
835.749	5194.26192
835.934	4807.64488
836.119	5014.63544
836.304	4767.89381
836.489	4901.75935
836.674	4703.01923
836.859	4834.83825
837.044	4600.43143
837.228	4931.02996
837.413	4736.5056
837.598	5091.93763
837.783	4870.393
837.968	5062.69188
838.152	4734.41287
838.337	4721.85602
838.522	4690.46036
838.707	4811.82873
838.891	4443.30571
839.076	4736.5056
839.261	4520.83662
839.445	4644.40422
839.63	4569.01626
839.815	4636.02921
839.999	4361.55147
840.184	4740.69099
840.368	4397.19201
840.553	4753.24661
840.737	4325.90466
840.922	4661.15317
841.106	4279.76423
841.291	4598.33724
841.475	4556.44879
841.66	4755.33913
841.844	4623.46603
842.029	4654.87248
842.213	4359.45477
842.397	4679.99401
842.582	4518.74158
842.766	4445.40154
842.951	4319.61339
843.135	4422.34625
843.319	4153.87416
843.504	4395.09568
843.688	4363.64814
843.872	4552.25945
844.056	4522.93163
844.241	4694.64674
844.425	4520.83662
844.609	4386.71015
844.793	4300.73844
844.977	4353.16454
845.161	3948.09161
845.346	4059.40683
845.53	4044.70813
845.714	4218.92691
845.898	3908.17223
846.082	4401.3846
846.266	4048.90786
846.45	4155.97295
846.634	3784.16602
846.818	4218.92691
847.002	4015.30769
847.186	4279.76423
847.37	3939.68814
847.554	4113.99311
847.738	4132.88508
847.922	4158.07172
848.106	3996.40528
848.29	4025.80831
848.473	3636.95177
848.657	4048.90786
848.841	3880.85478
849.025	4111.8939
849.209	3790.47309
849.392	3649.57382
849.576	3750.52539
849.76	3771.55137
849.944	3737.90887
850.127	3800.98446
850.311	3527.53249
850.495	3822.00574
850.678	3876.65179
850.862	4101.39753
851.046	3853.53395
851.229	3960.69622
851.413	3655.88458
851.596	3771.55137
851.78	3559.1009
851.964	3830.4137
852.147	3843.02504
852.331	3807.29105
852.514	3824.10776
852.698	3742.11446
852.881	3519.11355
853.065	3782.06363
853.248	3630.6405
853.431	3594.8734
853.615	3546.47403
853.798	3641.1592
853.982	3533.8465
854.165	3628.5367
854.348	3470.69897
854.532	3462.27806
854.715	3291.69377
854.898	3527.53249
855.081	3116.78168
855.265	3613.8096
855.448	3451.75152
855.631	3502.27478
855.814	3397.00633
855.997	3378.05328
856.181	3108.34935
856.364	3319.0792
856.547	3352.78034
856.73	3468.59377
856.913	3215.84227
857.096	3386.47704
857.279	3359.09881
857.462	3411.7466
857.645	3321.18565
857.828	3428.59156
858.011	3182.12356
858.194	3171.5856
858.377	2772.9676
858.56	3228.4857
858.743	3272.73295
858.926	3061.96698
859.109	3163.15494
859.292	3308.54669
859.475	3190.55363
859.658	3397.00633
859.841	3099.91676
860.023	3198.98344
860.206	2992.37932
860.389	3260.09163
860.572	3175.80083
860.755	3207.41299
860.937	3099.91676
861.12	3133.64559
861.303	2920.66574
861.486	3078.83417
861.668	2990.27035
861.851	3114.67362
862.034	2937.54106
862.216	2945.97837
862.399	2922.7752
862.581	3045.09878
862.764	2760.3046
862.947	3146.29284
863.129	2939.65041
863.312	2920.66574
863.494	2937.54106
863.677	2937.54106
863.859	2870.03418
864.042	2810.95367
864.224	2734.97716
864.406	2751.86233
864.589	2593.5314
864.771	2601.97749
864.954	2312.59567
865.136	2593.5314
865.318	2405.55782
865.501	2589.30827
865.683	2490.05136
865.865	2701.20427
866.048	2380.20645
866.23	2540.73895
866.412	2439.35731
866.594	2853.15516
866.777	2639.98251
866.959	2709.64781
867.141	2481.60279
867.323	2616.75769
867.505	2449.91909
867.687	2671.65027
867.869	2578.75026
868.052	2658.98351
868.234	2308.36966
868.416	2572.41531
868.598	2380.20645
868.78	2591.41984
868.962	2437.24492
869.144	2574.52697
869.326	2367.5302
869.508	2528.06767
869.69	2244.97506
869.872	2551.29803
870.054	2399.22012
870.236	2494.27557
870.417	2420.34543
870.599	2540.73895
870.781	2422.45791
870.963	2485.8271
871.145	2462.59287
871.327	2502.72387
871.508	2149.86823
871.69	2475.26625
871.872	2244.97506
872.054	2380.20645
872.235	2244.97506
872.417	2397.10753
872.599	2154.09556
872.78	2534.40336
872.962	2287.23906
873.144	2329.49931
873.325	2215.38813
873.507	2371.75566
873.689	2242.86177
873.87	2473.15405
874.052	2219.61494
874.233	2570.30363
874.415	2321.04757
874.596	2494.27557
874.778	2130.84485
874.959	2340.06377
875.141	2145.64087
875.322	2340.06377
875.503	2139.29977
875.685	2253.42815
875.866	2052.63115
876.048	2323.16052
876.229	2035.71878
876.41	2202.70749
876.592	2058.97318
876.773	2397.10753
876.954	2160.43649
877.136	2306.25664
877.317	2086.45454
877.498	2321.04757
877.679	1982.86484
877.86	2348.51516
878.042	1923.66379
878.223	2244.97506
878.404	1940.57885
878.585	2232.29516
878.766	2198.48054
878.947	2414.00795
879.128	2190.02654
879.309	2230.18181
879.49	1999.77855
879.672	2585.08511
879.853	2094.91009
880.034	2270.3339
880.215	2206.9344
880.396	2283.01282
880.576	2120.27604
880.757	2367.5302
880.938	2447.80676
881.119	2428.79526
881.3	2314.70866
881.481	2414.00795
881.662	2018.80597
881.843	2346.40233
882.023	2052.63115
882.204	2342.17663
882.385	2367.5302
882.566	2327.38639
882.747	2232.29516
882.927	2439.35731
883.108	2105.47937
883.289	2340.06377
883.469	2101.25168
883.65	2348.51516
883.831	2234.4085
884.011	2532.29148
884.192	2137.18605
884.373	2321.04757
884.553	2075.88493
884.734	2261.8811
884.914	2179.45885
885.095	2418.23295
885.275	2211.16128
885.456	2337.9509
885.636	2263.99431
885.817	2460.4806
885.997	2354.8536
886.178	2407.67037
886.358	2346.40233
886.538	2549.18624
886.719	2156.20921
886.899	2439.35731
887.08	2456.25603
887.26	2642.09378
887.44	2257.65464
887.621	2557.63334
887.801	2187.91302
887.981	2373.86837
888.161	2280.89969
888.342	2331.61222
888.522	2352.74079
888.702	2578.75026
888.882	2323.16052
889.062	2369.64294
889.242	2202.70749
889.423	2536.51524
889.603	2405.55782
889.783	2468.92961
889.963	2285.12595
890.143	2509.05998
890.323	2221.72833
890.503	2363.30471
890.683	2337.9509
890.863	2333.72512
891.043	2263.99431
891.223	2519.61992
891.403	2181.57241
891.583	2519.61992
891.763	2314.70866
891.943	2515.39598
892.122	2086.45454
892.302	2566.08025
892.482	2135.07233
892.662	2308.36966
892.842	2052.63115
893.022	2342.17663
893.201	1991.32175
893.381	2255.5414
893.561	2314.70866
893.741	2447.80676
893.92	2154.09556
894.1	2371.75566
894.28	2162.55012
894.459	2433.02012
894.639	2101.25168
894.819	2249.20163
894.998	2196.36705
895.178	2183.68595
895.357	2105.47937
895.537	2109.70703
895.716	2168.89096
895.896	2158.32286
896.075	1972.29357
896.255	2050.51713
896.434	2052.63115
896.614	2219.61494
896.793	1982.86484
896.973	2234.4085
897.152	2035.71878
897.331	2190.02654
897.511	1959.60784
897.69	2084.34063
897.87	1883.48909
898.049	2008.23524
898.228	1741.80654
898.407	2035.71878
898.587	1760.83962
898.766	1934.23574
898.945	1875.03101
899.124	2168.89096
899.304	1949.03624
899.483	1968.06502
899.662	1877.14554
899.841	2069.54308
900.02	1676.24605
900.199	1968.06502
900.378	1758.72485
900.557	1843.31252
900.737	1731.23248
900.916	1923.66379
901.095	1593.76299
901.274	1868.6874
901.453	1676.24605
901.632	1834.85407
901.811	1756.61008
901.989	1872.91648
902.168	1703.73953
902.347	1729.11766
902.526	1568.38296
902.705	1638.17738
902.884	1458.40099
903.063	1746.03614
903.242	1526.08247
903.42	1631.83252
903.599	1471.0913
903.778	1530.31254
903.957	1249.01495
904.135	1625.48765
904.314	1316.6937
904.493	1496.47189
904.672	1420.33006
904.85	1240.55529
905.029	1179.2242
905.207	1348.41881
905.386	1316.6937
905.565	1416.09996
905.743	1210.94683
905.922	1306.11875
906.1	1270.16431
906.279	1335.72873
906.457	988.90967
906.636	1217.29145
906.814	1056.57218
906.993	1172.87977
907.171	1039.65598
907.35	1162.3058
907.528	853.60579
907.707	1183.45384
907.885	1029.08355
908.063	1105.20817
908.242	1001.59591
908.42	1128.46978
908.598	900.11294
908.777	1187.68349
908.955	1048.11404
909.133	1164.42059
909.311	917.0256
909.49	1056.57218
909.668	978.33798
909.846	1139.04342
910.024	1001.59591
910.202	976.22366
910.38	1012.16795
910.559	1037.54148
910.737	944.50971
910.915	955.08085
911.093	931.82458
911.271	1158.07624
911.449	1126.35506
911.627	1052.3431
911.805	993.13839
911.983	1151.73193
912.161	1018.51126
912.339	1094.6349
912.517	940.28131
912.695	1225.75098
912.872	1056.57218
913.05	1215.17657
913.228	933.93875
913.406	1077.71793
913.584	993.13839
913.762	1056.57218
913.939	1043.885
914.117	1124.24035
914.295	1054.45764
914.473	1132.69922
914.65	942.39551
914.828	1100.97885
915.006	1003.71031
915.184	1139.04342
915.361	957.1951
915.539	1088.291
915.716	1026.96908
915.894	1098.86419
916.072	976.22366
916.249	1160.19102
916.427	942.39551
916.604	1037.54148
916.782	1026.96908
916.959	1039.65598
917.137	971.99504
917.314	1132.69922
917.492	914.9115
917.669	1122.12565
917.847	849.37807
918.024	952.96661
918.201	870.51702
918.379	910.6833
918.556	798.64821
918.733	931.82458
918.911	874.74491
919.088	1005.82471
919.265	895.88486
919.442	866.28916
919.62	815.55758
919.797	824.01248
919.974	769.0583
920.151	758.49094
920.328	697.20543
920.506	868.40308
920.683	883.20079
920.86	781.73945
921.037	621.14005
921.214	714.11087
921.391	566.21391
921.568	726.79042
921.745	752.15065
921.922	773.28531
922.099	807.10282
922.276	910.6833
922.453	792.30735
922.63	866.28916
922.807	629.59099
922.984	743.69707
923.161	747.92384
923.338	815.55758
923.514	703.54489
923.691	821.89874
923.868	711.99765
924.045	646.49347
924.222	663.39671
924.399	745.81045
924.575	578.88839
924.752	688.75297
924.929	597.901
925.105	775.39883
925.282	528.19339
925.459	705.65806
925.635	648.60633
925.812	616.91466
925.989	612.68931
926.165	638.04213
926.342	551.42762
926.518	589.45082
926.695	519.745
926.871	547.20309
927.048	665.50967
927.224	650.7192
927.401	536.64201
927.577	606.35139
927.754	460.61277
927.93	490.17744
928.107	521.85708
928.283	485.95373
928.459	477.5065
928.636	481.73009
928.812	388.82553
928.988	401.49252
929.165	507.07284
929.341	477.5065
929.517	488.06558
929.693	496.5131
929.87	384.60334
930.046	483.8419
930.222	399.38131
930.398	551.42762
930.574	435.274
930.751	490.17744
930.927	441.60848
931.103	462.72443
931.279	452.16626
931.455	502.8489
931.631	390.93666
931.807	504.96086
931.983	393.0478
932.159	477.5065
932.335	367.71522
932.511	422.60547
932.687	310.72597
932.863	304.39463
933.039	409.9375
933.215	352.93901
933.391	276.96072
933.566	352.93901
933.742	262.18991
933.918	346.60661
934.094	338.16365
934.27	371.93715
934.445	333.94227
934.621	274.85054
934.797	243.20024
934.973	272.74039
935.148	257.96985
935.324	224.21213
935.5	182.02209
935.675	304.39463
935.851	167.25749
936.027	304.39463
936.202	175.69428
936.378	209.44471
936.553	190.45945
936.729	156.71198
936.904	215.77348
937.08	57.61047
937.255	203.11611
937.431	158.82104
937.606	101.88386
937.782	173.58505
937.957	74.47535
938.133	194.67826
938.308	144.05805
938.483	177.80353
938.659	68.15085
938.834	87.12496
939.009	112.42659
939.185	80.80005
939.36	112.42659
939.535	150.38492
939.71	133.51369
939.886	139.84024
940.061	82.90833
940.236	85.01664
940.411	89.23331
940.586	127.18734
940.761	141.94913
940.937	25.99279
941.112	160.93012
941.287	49.17857
941.462	89.23331
941.637	55.50246
941.812	106.10089
941.987	74.47535
942.162	63.93463
942.337	165.14835
942.512	32.3159
942.687	82.90833
942.862	108.20943
943.037	144.05805
943.212	30.20817
943.386	47.07066
943.561	108.20943
943.736	63.93463
943.911	17.5623
944.086	131.40488
944.26	139.84024
944.435	9.13219
944.61	7.02472
944.785	21.7775
944.959	38.63923
945.134	55.50246
945.309	72.36716
945.483	17.5623
945.658	68.15085
945.833	32.3159
946.007	30.20817
946.182	21.7775
946.357	47.07066
946.531	133.51369
946.706	-20.37016
946.88	82.90833
947.055	99.77538
947.229	68.15085
947.404	93.45007
947.578	38.63923
947.752	127.18734
947.927	47.07066
948.101	63.93463
948.276	68.15085
948.45	30.20817
948.624	89.23331
948.799	36.53143
948.973	-3.51226
949.147	51.28651
949.321	63.93463
949.496	15.45473
949.67	148.27594
949.844	95.55848
950.018	85.01664
950.193	85.01664
950.367	78.6918
950.541	133.51369
950.715	101.88386
950.889	133.51369
951.063	103.99236
951.237	97.66692
951.411	68.15085
951.585	4.91728
951.759	80.80005
951.933	36.53143
952.107	61.82655
952.281	114.5352
952.455	72.36716
952.629	169.36666
952.803	21.7775
952.977	63.93463
953.151	21.7775
953.325	47.07066
953.499	125.07859
953.672	72.36716
953.846	129.2961
954.02	91.34168
954.194	85.01664
954.368	89.23331
954.541	30.20817
954.715	139.84024
954.889	55.50246
955.062	82.90833
955.236	34.42366
955.41	97.66692
955.583	114.5352
955.757	91.34168
955.93	89.23331
956.104	55.50246
956.278	97.66692
956.451	106.10089
956.625	-20.37016
956.798	85.01664
956.972	61.82655
957.145	158.82104
957.319	78.6918
957.492	112.42659
957.665	76.58356
957.839	122.96987
958.012	47.07066
958.185	110.318
958.359	80.80005
958.532	42.8549
958.705	30.20817
958.879	89.23331
959.052	38.63923
959.225	82.90833
959.398	-54.08124
959.572	-1.40491
959.745	95.55848
959.918	80.80005
960.091	57.61047
960.264	114.5352
960.438	28.10047
960.611	30.20817
960.784	78.6918
960.957	97.66692
961.13	106.10089
961.303	25.99279
961.476	74.47535
961.649	80.80005
961.822	-1.40491
961.995	47.07066
962.168	158.82104
962.341	32.3159
962.514	30.20817
962.686	78.6918
962.859	78.6918
963.032	63.93463
963.205	118.75249
963.378	91.34168
963.551	40.74705
963.723	89.23331
963.896	78.6918
964.069	38.63923
964.242	-43.54722
964.414	80.80005
964.587	59.7185
964.76	-3.51226
964.932	85.01664
965.105	99.77538
965.278	25.99279
965.45	114.5352
965.623	89.23331
965.795	55.50246
965.968	70.25899
966.14	152.49392
966.313	85.01664
966.485	70.25899
966.658	-20.37016
966.83	30.20817
967.003	47.07066
967.175	47.07066
967.348	51.28651
967.52	99.77538
967.692	17.5623
967.865	93.45007
968.037	106.10089
968.209	74.47535
968.382	122.96987
968.554	85.01664
968.726	51.28651
968.898	93.45007
969.071	15.45473
969.243	89.23331
969.415	97.66692
969.587	13.34719
969.759	158.82104
969.932	148.27594
970.104	15.45473
970.276	-45.65407
970.448	57.61047
970.62	93.45007
970.792	91.34168
970.964	55.50246
971.136	23.88513
971.308	110.318
971.48	110.318
971.652	114.5352
971.824	53.39447
971.996	25.99279
972.168	47.07066
972.339	89.23331
972.511	110.318
972.683	57.61047
972.855	89.23331
973.027	19.66988
973.199	44.96277
973.37	101.88386
973.542	78.6918
973.714	7.02472
973.886	51.28651
974.057	32.3159
974.229	49.17857
974.401	23.88513
974.572	51.28651
974.744	66.04272
974.915	47.07066
975.087	15.45473
975.259	63.93463
975.43	89.23331
975.602	-1.40491
975.773	38.63923
975.945	21.7775
976.116	17.5623
976.288	32.3159
976.459	7.02472
976.63	38.63923
976.802	51.28651
976.973	53.39447
977.145	55.50246
977.316	55.50246
977.487	-24.5844
977.659	-18.26301
977.83	49.17857
978.001	61.82655
978.172	47.07066
978.344	91.34168
978.515	-7.72688
978.686	0.70246
978.857	44.96277
979.028	-16.15583
979.2	38.63923
979.371	122.96987
979.542	72.36716
979.713	-3.51226
979.884	72.36716
980.055	38.63923
980.226	-3.51226
980.397	34.42366
980.568	57.61047
980.739	32.3159
980.91	30.20817
981.081	38.63923
981.252	103.99236
981.423	74.47535
981.594	63.93463
981.765	-41.44034
981.936	9.13219
982.106	59.7185
982.277	59.7185
982.448	4.91728
982.619	21.7775
982.79	66.04272
982.96	72.36716
983.131	-60.40135
983.302	0.70246
983.472	51.28651
983.643	47.07066
983.814	97.66692
983.984	32.3159
984.155	97.66692
984.326	4.91728
984.496	95.55848
984.667	125.07859
984.837	7.02472
985.008	17.5623
985.178	57.61047
985.349	21.7775
985.519	80.80005
985.69	15.45473
985.86	42.8549
986.031	66.04272
986.201	-7.72688
986.371	-18.26301
986.542	-37.2265
986.712	30.20817
986.882	57.61047
987.053	80.80005
987.223	13.34719
987.393	122.96987
987.563	-3.51226
987.734	9.13219
987.904	47.07066
988.074	47.07066
988.244	89.23331
988.414	51.28651
988.585	57.61047
988.755	47.07066
988.925	4.91728
989.095	30.20817
989.265	-3.51226
989.435	49.17857
989.605	-9.83416
989.775	32.3159
989.945	30.20817
990.115	59.7185
990.285	4.91728
990.455	11.23968
990.625	82.90833
990.795	55.50246
990.965	-26.69148
991.134	-28.79853
991.304	-3.51226
991.474	-9.83416
991.644	74.47535
991.814	72.36716
991.984	57.61047
992.153	23.88513
992.323	23.88513
992.493	101.88386
992.662	80.80005
992.832	13.34719
993.002	72.36716
993.171	63.93463
993.341	122.96987
993.511	28.10047
993.68	68.15085
993.85	63.93463
994.019	11.23968
994.189	23.88513
994.358	38.63923
994.528	13.34719
994.697	42.8549
994.867	66.04272
995.036	63.93463
995.206	28.10047
995.375	78.6918
995.544	15.45473
995.714	17.5623
995.883	51.28651
996.052	97.66692
996.222	91.34168
996.391	30.20817
996.56	23.88513
996.73	-3.51226
996.899	40.74705
997.068	47.07066
997.237	30.20817
997.406	-37.2265
997.576	63.93463
997.745	51.28651
997.914	66.04272
998.083	-35.11954
998.252	30.20817
998.421	38.63923
998.59	38.63923
998.759	9.13219
998.928	63.93463
999.097	57.61047
999.266	59.7185
999.435	32.3159
999.604	-35.11954
999.773	91.34168
999.942	-45.65407
1000.111	-49.86771
1000.28	-24.5844
1000.448	30.20817
1000.617	34.42366
1000.786	-18.26301
1000.955	23.88513
1001.124	-24.5844
1001.292	-16.15583
1001.461	101.88386
1001.63	72.36716
1001.798	-14.04863
1001.967	-11.94141
1002.136	13.34719
1002.304	47.07066
1002.473	-49.86771
1002.642	32.3159
1002.81	30.20817
1002.979	13.34719
1003.147	11.23968
1003.316	42.8549
1003.484	32.3159
1003.653	-54.08124
1003.821	38.63923
1003.99	7.02472
1004.158	40.74705
1004.327	42.8549
1004.495	30.20817
1004.663	9.13219
1004.832	-28.79853
1005	-28.79853
1005.168	-11.94141
1005.337	63.93463
1005.505	97.66692
1005.673	42.8549
1005.842	59.7185
1006.01	-11.94141
1006.178	13.34719
1006.346	59.7185
1006.514	2.80986
1006.683	76.58356
1006.851	4.91728
1007.019	13.34719
1007.187	97.66692
1007.355	-28.79853
1007.523	-9.83416
1007.691	-28.79853
1007.859	106.10089
1008.027	63.93463
1008.195	-18.26301
1008.363	63.93463
1008.531	-3.51226
1008.699	70.25899
1008.867	-35.11954
1009.035	-26.69148
1009.203	36.53143
1009.37	-11.94141
1009.538	21.7775
1009.706	34.42366
1009.874	15.45473
1010.042	68.15085
1010.209	13.34719
1010.377	63.93463
1010.545	28.10047
1010.713	80.80005
1010.88	-33.01256
1011.048	51.28651
1011.216	40.74705
1011.383	-28.79853
1011.551	59.7185
1011.718	-60.40135
1011.886	57.61047
1012.054	-85.67951
1012.221	51.28651
1012.389	38.63923
1012.556	106.10089
1012.724	42.8549
1012.891	-20.37016
1013.058	13.34719
1013.226	51.28651
1013.393	-1.40491
1013.561	-26.69148
1013.728	51.28651
1013.895	38.63923
1014.063	57.61047
1014.23	9.13219
1014.397	85.01664
1014.565	4.91728
1014.732	57.61047
1014.899	13.34719
1015.066	38.63923
1015.233	21.7775
1015.401	32.3159
1015.568	-24.5844
1015.735	4.91728
1015.902	30.20817
1016.069	-3.51226
1016.236	-37.2265
1016.403	57.61047
1016.57	30.20817
1016.737	47.07066
1016.904	17.5623
1017.071	21.7775
1017.238	21.7775
1017.405	47.07066
1017.572	-3.51226
1017.739	106.10089
1017.906	-58.29468
1018.073	38.63923
1018.24	13.34719
1018.407	-1.40491
1018.573	38.63923
1018.74	25.99279
1018.907	-73.04089
1019.074	72.36716
1019.241	-16.15583
1019.407	57.61047
1019.574	17.5623
1019.741	36.53143
1019.907	23.88513
1020.074	70.25899
1020.241	4.91728
1020.407	97.66692
1020.574	-43.54722
1020.74	-24.5844
1020.907	-39.33343
1021.073	-9.83416
1021.24	42.8549
1021.406	-1.40491
1021.573	23.88513
1021.739	-41.44034
1021.906	21.7775
1022.072	28.10047
1022.239	17.5623
1022.405	30.20817
1022.571	-33.01256
1022.738	-11.94141
1022.904	30.20817
1023.07	49.17857
1023.237	0.70246
1023.403	-3.51226
1023.569	42.8549
1023.735	38.63923
1023.902	9.13219
1024.068	11.23968
1024.234	0.70246
1024.4	23.88513
1024.566	74.47535
1024.732	63.93463
1024.898	17.5623
1025.065	25.99279
1025.231	49.17857
1025.397	40.74705
1025.563	7.02472
1025.729	4.91728
1025.895	-18.26301
1026.061	-51.97449
1026.227	55.50246
1026.392	42.8549
1026.558	-33.01256
1026.724	89.23331
1026.89	40.74705
1027.056	-45.65407
1027.222	13.34719
1027.388	30.20817
1027.553	55.50246
1027.719	74.47535
1027.885	23.88513
1028.051	21.7775
1028.216	55.50246
1028.382	51.28651
1028.548	40.74705
1028.713	30.20817
1028.879	-54.08124
1029.045	15.45473
1029.21	13.34719
1029.376	66.04272
1029.541	30.20817
1029.707	13.34719
1029.873	55.50246
1030.038	-26.69148
1030.204	34.42366
1030.369	-35.11954
1030.534	13.34719
1030.7	-24.5844
1030.865	4.91728
1031.031	34.42366
1031.196	-16.15583
1031.361	15.45473
1031.527	21.7775
1031.692	-7.72688
1031.857	28.10047
1032.023	32.3159
1032.188	15.45473
1032.353	63.93463
1032.518	-30.90556
1032.684	21.7775
1032.849	-20.37016
1033.014	47.07066
1033.179	13.34719
1033.344	21.7775
1033.509	-7.72688
1033.674	-35.11954
1033.839	42.8549
1034.004	38.63923
1034.17	44.96277
1034.335	36.53143
1034.5	-33.01256
1034.664	15.45473
1034.829	-45.65407
1034.994	-1.40491
1035.159	28.10047
1035.324	47.07066
1035.489	-14.04863
1035.654	47.07066
1035.819	55.50246
1035.984	-9.83416
1036.148	0.70246
1036.313	30.20817
1036.478	101.88386
1036.643	-3.51226
1036.807	9.13219
1036.972	4.91728
1037.137	-66.72124
1037.301	55.50246
1037.466	-33.01256
1037.631	53.39447
1037.795	-77.25387
1037.96	80.80005
1038.124	-85.67951
1038.289	-37.2265
1038.454	44.96277
1038.618	30.20817
1038.783	-16.15583
1038.947	51.28651
1039.111	25.99279
1039.276	4.91728
1039.44	-18.26301
1039.605	-33.01256
1039.769	-45.65407
1039.933	-45.65407
1040.098	-41.44034
1040.262	59.7185
1040.426	11.23968
1040.591	-9.83416
1040.755	55.50246
1040.919	-87.78586
1041.083	34.42366
1041.248	32.3159
1041.412	63.93463
1041.576	13.34719
1041.74	-18.26301
1041.904	34.42366
1042.068	7.02472
1042.232	17.5623
1042.397	-54.08124
1042.561	21.7775
1042.725	13.34719
1042.889	19.66988
1043.053	42.8549
1043.217	59.7185
1043.381	11.23968
1043.544	97.66692
1043.708	-1.40491
1043.872	76.58356
1044.036	-33.01256
1044.2	-1.40491
1044.364	4.91728
1044.528	-24.5844
1044.691	0.70246
1044.855	-37.2265
1045.019	-5.61958
1045.183	4.91728
1045.346	11.23968
1045.51	63.93463
1045.674	15.45473
1045.837	-26.69148
1046.001	63.93463
1046.165	-1.40491
1046.328	34.42366
1046.492	-37.2265
1046.655	30.20817
1046.819	21.7775
1046.983	-62.50801
1047.146	40.74705
1047.31	34.42366
1047.473	89.23331
1047.636	-43.54722
1047.8	-3.51226
1047.963	-5.61958
1048.127	57.61047
1048.29	-30.90556
