Data from mixed_try6.1_USB4F045381__35__00319.txt Node

Date: Thu Apr 03 20:34:46 EDT 2025
User: mmckonesweet
Spectrometer: USB4F04538
Trigger mode: 4
Integration Time (sec): 2.700000E-3
Scans to average: 1
Electric dark correction enabled: true
Nonlinearity correction enabled: true
Boxcar width: 0
XAxis mode: Wavelengths
Number of Pixels in Spectrum: 3648
>>>>>Begin Spectral Data<<<<<
345.52	35.65319
345.736	35.65319
345.952	35.65319
346.168	-29.67646
346.384	-6.49763
346.6	14.57659
346.816	20.89932
347.032	-33.89048
347.248	-44.42508
347.464	37.76098
347.68	1.93177
347.896	-2.28298
348.112	-25.46235
348.328	56.73213
348.544	-31.78348
348.76	14.57659
348.975	-8.60492
349.191	-44.42508
349.407	44.08449
349.623	23.00695
349.839	65.16435
350.055	56.73213
350.27	16.68414
350.486	31.43768
350.702	-23.35526
350.918	65.16435
351.133	-10.71218
351.349	35.65319
351.565	-0.17561
351.781	-38.10439
351.996	14.57659
352.212	-52.8523
352.428	-6.49763
352.644	18.79172
352.859	84.13817
353.075	-2.28298
353.291	-2.28298
353.506	-4.39031
353.722	35.65319
353.938	4.03918
354.153	65.16435
354.369	77.81336
354.584	33.54542
354.8	-19.141
355.016	-17.03383
355.231	31.43768
355.447	107.33087
355.662	10.36155
355.878	84.13817
356.093	6.14661
356.309	-10.71218
356.524	-6.49763
356.74	12.46906
356.955	48.30027
357.171	12.46906
357.386	27.22227
357.602	25.11459
357.817	33.54542
358.033	41.97663
358.248	56.73213
358.464	6.14661
358.679	25.11459
358.895	-25.46235
359.11	25.11459
359.325	14.57659
359.541	-31.78348
359.756	50.4082
359.972	-19.141
360.187	-35.99745
360.402	-31.78348
360.618	41.97663
360.833	-31.78348
361.048	-10.71218
361.264	-23.35526
361.479	23.00695
361.694	14.57659
361.909	23.00695
362.125	27.22227
362.34	-2.28298
362.555	27.22227
362.77	25.11459
362.986	27.22227
363.201	82.02988
363.416	-57.06577
363.631	-14.92664
363.847	33.54542
364.062	31.43768
364.277	37.76098
364.492	27.22227
364.707	31.43768
364.922	73.59693
365.138	10.36155
365.353	-44.42508
365.568	16.68414
365.783	39.86879
365.998	75.70514
366.213	73.59693
366.428	23.00695
366.643	-38.10439
366.858	-17.03383
367.073	14.57659
367.288	16.68414
367.503	25.11459
367.718	-27.56942
367.933	-21.24814
368.148	16.68414
368.363	-40.21131
368.578	-25.46235
368.793	-35.99745
369.008	14.57659
369.223	18.79172
369.438	-4.39031
369.653	56.73213
369.868	10.36155
370.083	12.46906
370.298	48.30027
370.513	-23.35526
370.728	41.97663
370.943	-23.35526
371.157	56.73213
371.372	18.79172
371.587	20.89932
371.802	12.46906
372.017	-57.06577
372.232	33.54542
372.446	-31.78348
372.661	10.36155
372.876	-27.56942
373.091	41.97663
373.306	25.11459
373.52	-19.141
373.735	50.4082
373.95	-0.17561
374.165	-29.67646
374.379	23.00695
374.594	-10.71218
374.809	8.25407
375.023	101.00532
375.238	90.46319
375.453	35.65319
375.667	-27.56942
375.882	10.36155
376.097	-17.03383
376.311	18.79172
376.526	67.27246
376.741	-19.141
376.955	-10.71218
377.17	-29.67646
377.384	-2.28298
377.599	27.22227
377.813	1.93177
378.028	37.76098
378.242	54.62413
378.457	88.35483
378.672	23.00695
378.886	-19.141
379.101	-6.49763
379.315	33.54542
379.53	-0.17561
379.744	8.25407
379.958	56.73213
380.173	-2.28298
380.387	6.14661
380.602	10.36155
380.816	6.14661
381.031	-69.70555
381.245	-84.4508
381.459	48.30027
381.674	124.19996
381.888	27.22227
382.103	16.68414
382.317	27.22227
382.531	10.36155
382.746	50.4082
382.96	-4.39031
383.174	18.79172
383.388	69.38059
383.603	48.30027
383.817	14.57659
384.031	1.93177
384.246	-38.10439
384.46	46.19237
384.674	56.73213
384.888	-4.39031
385.103	65.16435
385.317	-0.17561
385.531	98.89685
385.745	-33.89048
385.959	1.93177
386.174	8.25407
386.388	-14.92664
386.602	65.16435
386.816	-2.28298
387.03	-40.21131
387.244	-2.28298
387.458	27.22227
387.672	33.54542
387.887	52.51615
388.101	58.84015
388.315	14.57659
388.529	52.51615
388.743	50.4082
388.957	23.00695
389.171	-33.89048
389.385	94.67998
389.599	-0.17561
389.813	6.14661
390.027	6.14661
390.241	31.43768
390.455	39.86879
390.669	31.43768
390.883	101.00532
391.097	-0.17561
391.311	44.08449
391.525	-19.141
391.738	35.65319
391.952	50.4082
392.166	6.14661
392.38	6.14661
392.594	-48.63874
392.808	56.73213
393.022	25.11459
393.236	33.54542
393.449	-0.17561
393.663	84.13817
393.877	1.93177
394.091	12.46906
394.305	41.97663
394.518	6.14661
394.732	60.94819
394.946	18.79172
395.16	-8.60492
395.373	27.22227
395.587	14.57659
395.801	1.93177
396.015	20.89932
396.228	48.30027
396.442	44.08449
396.656	14.57659
396.869	39.86879
397.083	10.36155
397.297	-19.141
397.51	33.54542
397.724	41.97663
397.938	41.97663
398.151	33.54542
398.365	16.68414
398.578	-19.141
398.792	35.65319
399.005	67.27246
399.219	-44.42508
399.433	-10.71218
399.646	67.27246
399.86	50.4082
400.073	31.43768
400.287	-0.17561
400.5	16.68414
400.714	1.93177
400.927	46.19237
401.141	82.02988
401.354	46.19237
401.567	-44.42508
401.781	33.54542
401.994	35.65319
402.208	63.05626
402.421	92.57157
402.635	65.16435
402.848	39.86879
403.061	1.93177
403.275	41.97663
403.488	39.86879
403.701	60.94819
403.915	58.84015
404.128	25.11459
404.341	35.65319
404.555	14.57659
404.768	117.87389
404.981	27.22227
405.195	-17.03383
405.408	44.08449
405.621	-14.92664
405.834	82.02988
406.048	-19.141
406.261	52.51615
406.474	-6.49763
406.687	39.86879
406.9	14.57659
407.114	1.93177
407.327	14.57659
407.54	41.97663
407.753	82.02988
407.966	-0.17561
408.179	-2.28298
408.392	44.08449
408.605	35.65319
408.819	10.36155
409.032	41.97663
409.245	-25.46235
409.458	-80.238
409.671	39.86879
409.884	44.08449
410.097	65.16435
410.31	77.81336
410.523	-4.39031
410.736	65.16435
410.949	14.57659
411.162	-0.17561
411.375	-10.71218
411.588	63.05626
411.801	6.14661
412.014	10.36155
412.227	23.00695
412.44	60.94819
412.653	67.27246
412.865	94.67998
413.078	84.13817
413.291	39.86879
413.504	-52.8523
413.717	-2.28298
413.93	6.14661
414.143	16.68414
414.356	-48.63874
414.568	39.86879
414.781	65.16435
414.994	-35.99745
415.207	-2.28298
415.42	-8.60492
415.632	44.08449
415.845	23.00695
416.058	92.57157
416.271	41.97663
416.483	65.16435
416.696	58.84015
416.909	14.57659
417.121	75.70514
417.334	-6.49763
417.547	-57.06577
417.759	1.93177
417.972	41.97663
418.185	44.08449
418.397	10.36155
418.61	-46.53192
418.823	58.84015
419.035	-29.67646
419.248	-19.141
419.46	27.22227
419.673	23.00695
419.885	77.81336
420.098	77.81336
420.311	-10.71218
420.523	-2.28298
420.736	109.43943
420.948	58.84015
421.161	6.14661
421.373	63.05626
421.586	-27.56942
421.798	27.22227
422.01	56.73213
422.223	8.25407
422.435	6.14661
422.648	23.00695
422.86	41.97663
423.073	23.00695
423.285	46.19237
423.497	75.70514
423.71	-71.81209
423.922	14.57659
424.134	35.65319
424.347	27.22227
424.559	-0.17561
424.771	-10.71218
424.984	6.14661
425.196	65.16435
425.408	18.79172
425.621	69.38059
425.833	37.76098
426.045	14.57659
426.257	39.86879
426.47	-2.28298
426.682	23.00695
426.894	-8.60492
427.106	39.86879
427.318	41.97663
427.531	-31.78348
427.743	10.36155
427.955	79.92161
428.167	77.81336
428.379	-31.78348
428.591	4.03918
428.804	-23.35526
429.016	67.27246
429.228	1.93177
429.44	65.16435
429.652	41.97663
429.864	92.57157
430.076	56.73213
430.288	14.57659
430.5	-29.67646
430.712	-8.60492
430.924	23.00695
431.136	4.03918
431.348	-33.89048
431.56	65.16435
431.772	-6.49763
431.984	37.76098
432.196	46.19237
432.408	69.38059
432.62	35.65319
432.832	-17.03383
433.044	46.19237
433.256	44.08449
433.468	-0.17561
433.679	10.36155
433.891	48.30027
434.103	44.08449
434.315	103.11382
434.527	94.67998
434.739	31.43768
434.95	44.08449
435.162	27.22227
435.374	6.14661
435.586	31.43768
435.798	48.30027
436.009	10.36155
436.221	10.36155
436.433	60.94819
436.645	41.97663
436.856	69.38059
437.068	56.73213
437.28	8.25407
437.491	98.89685
437.703	44.08449
437.915	48.30027
438.126	35.65319
438.338	67.27246
438.55	23.00695
438.761	31.43768
438.973	-31.78348
439.184	-40.21131
439.396	39.86879
439.608	4.03918
439.819	-25.46235
440.031	103.11382
440.242	31.43768
440.454	73.59693
440.665	119.98255
440.877	82.02988
441.088	86.24649
441.3	35.65319
441.511	4.03918
441.723	-23.35526
441.934	44.08449
442.146	-19.141
442.357	84.13817
442.569	39.86879
442.78	31.43768
442.991	31.43768
443.203	96.7884
443.414	39.86879
443.626	109.43943
443.837	56.73213
444.048	44.08449
444.26	-2.28298
444.471	48.30027
444.682	-50.74553
444.894	69.38059
445.105	52.51615
445.316	33.54542
445.528	50.4082
445.739	-17.03383
445.95	75.70514
446.161	-0.17561
446.373	20.89932
446.584	48.30027
446.795	69.38059
447.006	18.79172
447.217	48.30027
447.429	20.89932
447.64	-2.28298
447.851	56.73213
448.062	33.54542
448.273	-17.03383
448.484	77.81336
448.695	-2.28298
448.907	14.57659
449.118	6.14661
449.329	54.62413
449.54	103.11382
449.751	-2.28298
449.962	44.08449
450.173	6.14661
450.384	-27.56942
450.595	73.59693
450.806	31.43768
451.017	16.68414
451.228	84.13817
451.439	35.65319
451.65	111.54801
451.861	65.16435
452.072	39.86879
452.283	-2.28298
452.494	75.70514
452.705	84.13817
452.915	-33.89048
453.126	37.76098
453.337	-8.60492
453.548	98.89685
453.759	92.57157
453.97	31.43768
454.181	6.14661
454.391	107.33087
454.602	27.22227
454.813	98.89685
455.024	92.57157
455.235	16.68414
455.445	6.14661
455.656	101.00532
455.867	134.74384
456.078	56.73213
456.288	41.97663
456.499	52.51615
456.71	25.11459
456.921	-4.39031
457.131	14.57659
457.342	90.46319
457.553	10.36155
457.763	60.94819
457.974	65.16435
458.184	-44.42508
458.395	98.89685
458.606	124.19996
458.816	-6.49763
459.027	90.46319
459.237	25.11459
459.448	44.08449
459.659	31.43768
459.869	63.05626
460.08	31.43768
460.29	31.43768
460.501	157.94226
460.711	18.79172
460.922	94.67998
461.132	39.86879
461.343	48.30027
461.553	84.13817
461.764	10.36155
461.974	65.16435
462.184	52.51615
462.395	6.14661
462.605	90.46319
462.816	-35.99745
463.026	58.84015
463.236	90.46319
463.447	84.13817
463.657	115.76524
463.867	35.65319
464.078	37.76098
464.288	103.11382
464.498	126.30869
464.709	86.24649
464.919	14.57659
465.129	73.59693
465.339	69.38059
465.55	65.16435
465.76	86.24649
465.97	75.70514
466.18	73.59693
466.391	54.62413
466.601	77.81336
466.811	82.02988
467.021	132.63502
467.231	-2.28298
467.441	101.00532
467.651	149.50617
467.862	124.19996
468.072	82.02988
468.282	98.89685
468.492	44.08449
468.702	136.85268
468.912	105.22233
469.122	124.19996
469.332	132.63502
469.542	105.22233
469.752	109.43943
469.962	35.65319
470.172	111.54801
470.382	119.98255
470.592	94.67998
470.802	124.19996
471.012	94.67998
471.222	107.33087
471.432	204.34665
471.642	126.30869
471.852	101.00532
472.062	141.07043
472.272	149.50617
472.482	77.81336
472.691	101.00532
472.901	134.74384
473.111	168.48784
473.321	141.07043
473.531	115.76524
473.741	191.68993
473.95	242.32113
474.16	191.68993
474.37	145.28826
474.58	138.96154
474.79	191.68993
474.999	170.59702
475.209	187.47118
475.419	238.10143
475.628	229.66226
475.838	168.48784
476.048	212.78487
476.258	132.63502
476.467	185.36184
476.677	166.37868
476.886	322.50973
477.096	223.33309
477.306	278.19166
477.515	343.61636
477.725	322.50973
477.935	385.8348
478.144	354.17033
478.354	284.52232
478.563	326.73092
478.773	341.50562
478.982	352.0595
479.192	326.73092
479.401	402.72406
479.611	320.39917
479.82	349.94869
480.03	470.29135
480.239	432.28277
480.449	320.39917
480.658	428.0599
480.868	529.42547
481.077	459.73291
481.287	409.05781
481.496	563.22139
481.705	487.18564
481.915	510.41683
482.124	504.08088
482.333	632.93621
482.543	639.27461
482.752	590.68313
482.961	649.83884
483.171	630.82344
483.38	563.22139
483.589	694.21183
483.799	692.09872
484.008	685.75944
484.217	624.48519
484.426	702.6644
484.636	681.53331
484.845	717.45683
485.054	770.29117
485.263	888.66195
485.472	698.43809
485.682	804.10846
485.891	863.29445
486.1	774.5182
486.309	780.85881
486.518	943.62879
486.727	833.70058
486.936	1004.94371
487.146	892.88998
487.355	968.99979
487.564	827.35926
487.773	992.2574
487.982	988.02869
488.191	1066.26392
488.4	1104.32706
488.609	1089.52453
488.818	1095.86844
489.027	1159.30986
489.236	1205.83591
489.445	1309.46748
489.654	1091.63916
489.863	1201.6062
490.072	1237.55917
490.281	1430.02404
490.49	1239.67408
490.698	1427.90899
490.907	1317.92745
491.116	1493.47557
491.325	1345.42254
491.534	1485.01538
491.743	1440.5993
491.952	1624.60641
492.16	1510.39593
492.369	1738.81057
492.578	1616.14654
492.787	1582.30675
492.996	1472.32508
493.204	1664.79029
493.413	1578.07675
493.622	1772.64703
493.831	1537.8914
494.039	1785.33545
494.248	1550.58156
494.457	1810.71184
494.665	1787.45017
494.874	1967.18407
495.083	1808.59716
495.291	2102.48476
495.5	1732.46613
495.709	1933.35475
495.917	1861.46268
496.126	1975.64116
496.335	1969.29835
496.543	2110.94009
496.752	1992.55503
496.96	2119.39529
497.169	2062.32033
497.377	2225.07451
497.586	2210.28068
497.794	2096.14319
498.003	2089.80154
498.211	2269.45341
498.42	2108.82627
498.628	2273.67976
498.837	2229.30125
499.045	2307.48924
499.254	2273.67976
499.462	2425.80264
499.671	2351.86046
499.879	2423.69018
500.087	2446.92661
500.296	2432.13994
500.504	2525.07578
500.713	2636.99152
500.921	2273.67976
501.129	2442.70191
501.338	2377.21348
501.546	2666.54844
501.754	2482.83489
501.962	2765.75679
502.171	2691.88096
502.379	2729.87626
502.587	2449.03895
502.795	2795.30254
503.004	2679.21493
503.212	2693.99192
503.42	2746.76169
503.628	2871.2649
503.837	2780.53
504.045	2888.14295
504.253	2938.77152
504.461	2978.84646
504.669	2938.77152
504.877	3094.82194
505.085	3014.69839
505.294	2989.3916
505.502	2905.02007
505.71	3309.7755
505.918	2959.86426
506.126	3136.98311
506.334	2957.75506
506.542	3233.92921
506.75	3006.26304
506.958	3267.64138
507.166	3149.63021
507.374	3398.23472
507.582	3151.73801
507.79	3362.4335
507.998	3149.63021
508.206	3436.13633
508.414	3284.49584
508.622	3389.81136
508.83	3343.47787
509.037	3554.01516
509.245	3158.06129
509.453	3471.92699
509.661	3431.92533
509.869	3638.17895
510.077	3303.45582
510.285	3606.62104
510.492	3368.75173
510.7	3623.45245
510.908	3509.81729
511.116	3604.51702
511.324	3501.39773
511.531	3623.45245
511.739	3457.19029
511.947	3665.5257
512.155	3528.76023
512.362	3827.43591
512.57	3638.17895
512.778	3753.85464
512.985	4001.83114
513.193	3814.82369
513.401	3743.34107
513.608	3919.90368
513.816	3848.4547
514.024	3892.58769
514.231	3633.97147
514.439	3926.20689
514.646	3739.13551
514.854	3722.31249
515.061	3678.14619
515.269	3728.62127
515.477	3659.21519
515.684	4062.7314
515.892	4018.63294
516.099	4092.1253
516.307	3781.18763
516.514	3940.91367
516.722	3848.4547
516.929	4167.69082
517.136	4033.33344
517.344	4041.73327
517.551	4098.42346
517.759	4243.22903
517.966	4157.19724
518.173	4222.24895
518.381	4148.80199
518.588	4402.60742
518.796	4134.1095
519.003	4431.95294
519.21	4100.5228
519.418	4398.41486
519.625	4182.38096
519.832	4446.62409
520.039	4545.10247
520.247	4522.05871
520.454	4421.47289
520.661	4434.04889
520.868	4343.90358
521.076	4674.93507
521.283	4501.10751
521.49	4677.02844
521.697	4438.24071
521.904	4775.39135
522.112	4343.90358
522.319	4555.57602
522.526	4534.62836
522.733	4710.51929
522.94	4622.59355
523.147	4693.77459
523.354	4712.61227
523.561	4833.96673
523.768	4725.16972
523.975	5003.31602
524.183	4758.65225
524.39	4932.24947
524.597	4884.15998
524.804	4948.97341
525.011	4875.79535
525.218	5051.37534
525.425	5084.80069
525.632	4846.51627
525.838	4871.6129
526.045	5076.44491
526.252	4879.97771
526.459	5086.88958
526.666	5147.45723
526.873	5208.00531
527.08	5076.44491
527.287	5147.45723
527.494	5199.65501
527.701	5381.18954
527.907	5103.59985
528.114	5264.36003
528.321	5139.10423
528.528	5339.47315
528.735	5297.74739
528.941	5406.21486
529.148	5293.57429
529.355	5522.95496
529.562	5274.79422
529.768	5522.95496
529.975	5304.00685
530.182	5443.74651
530.388	5201.74262
530.595	5531.29072
530.802	5406.21486
531.008	5443.74651
531.215	5316.52514
531.422	5664.61151
531.628	5543.79364
531.835	5645.86911
532.042	5618.79338
532.248	5668.77623
532.455	5543.79364
532.661	5797.83567
532.868	5579.21399
533.074	5851.93037
533.281	5893.53083
533.487	5872.73178
533.694	5906.00912
533.9	5933.04252
534.107	5758.29484
534.313	6005.80493
534.52	5870.65174
534.726	6034.90181
534.933	5833.20709
535.139	5918.48657
535.345	5681.26982
535.552	5756.21351
535.758	6176.16392
535.965	6009.96191
536.171	6039.05813
536.377	6136.70457
536.584	5980.86107
536.79	6242.60263
536.996	6159.55049
537.203	6088.92664
537.409	6190.69944
537.615	6284.11464
537.821	6109.70118
538.028	6255.05722
538.234	6207.31006
538.44	6447.99572
538.646	6387.85375
538.853	6445.92219
539.059	5947.59731
539.265	6354.66359
539.471	6321.46745
539.677	6381.63105
539.883	6313.16748
540.09	6682.156
540.296	6180.31705
540.502	6396.15036
540.708	6626.23301
540.914	6603.44476
541.12	6464.58317
541.326	6541.28078
541.532	6704.93463
541.738	6702.86396
541.944	6553.71524
542.15	6851.89371
542.356	6501.89948
542.562	6868.44528
542.768	6796.02143
542.974	6839.47909
543.18	6603.44476
543.386	6860.16968
543.592	6735.99193
543.798	6969.79195
544.004	6669.73012
544.21	7120.67751
544.415	6835.34069
544.621	7201.23882
544.827	7083.48394
545.033	7230.15004
545.239	6984.26562
545.445	7120.67751
545.651	6980.1304
545.856	7174.38881
546.062	7153.7324
546.268	7118.61139
546.474	7017.34414
546.679	6944.97738
546.885	6901.54405
547.091	7100.01531
547.297	7042.14926
547.502	7203.30405
547.708	7075.21772
547.914	7283.83082
548.119	7347.81541
548.325	7393.21107
548.531	7143.40336
548.736	7535.52025
548.942	7168.19212
549.147	7236.34474
549.353	7281.76645
549.559	7372.57799
549.764	7333.36911
549.97	7314.79373
550.175	7190.91234
550.381	7415.90495
550.586	7290.0238
550.792	7663.30505
550.997	7521.08777
551.203	7644.76072
551.408	7378.76814
551.614	7737.46524
551.819	7422.09373
552.025	7580.87263
552.23	7626.21467
552.435	7613.84968
552.641	7727.16684
552.846	7871.29677
553.052	7770.41657
553.257	7935.09325
553.462	7817.77472
553.668	7990.64185
553.873	7801.30357
554.078	7811.5982
554.283	7838.36179
554.489	8093.47044
554.694	7939.20847
554.899	7751.8821
555.105	8089.35827
555.31	7998.87
555.515	7776.59434
555.72	8105.80648
555.925	7933.03561
556.131	8035.89267
556.336	7926.86256
556.541	8377.01833
556.746	7968.01274
556.951	8130.47638
557.156	8120.1976
557.361	8097.58253
557.567	8218.85325
557.772	8179.80754
557.977	8000.92699
558.182	8329.78636
558.387	8068.79619
558.592	8393.44444
558.797	8048.2321
559.002	8344.1624
559.207	8079.07748
559.412	8138.69904
559.617	7959.78336
559.822	8144.86582
560.027	8270.21829
560.232	8522.75706
560.437	8196.24871
560.642	8307.19351
560.847	8120.1976
561.051	8524.80903
561.256	8301.03142
561.461	8485.81834
561.666	8352.37685
561.871	8405.76321
562.076	8262.00071
562.281	8582.25654
562.485	8557.63799
562.69	8557.63799
562.895	8348.26966
563.1	8676.60268
563.305	8528.91292
563.509	8654.04523
563.714	8290.76087
563.919	8643.7911
564.123	8442.71536
564.328	8666.34957
564.533	8377.01833
564.737	8750.41143
564.942	8547.37946
565.147	8791.40603
565.351	8672.50149
565.556	8865.17801
565.761	8713.51004
565.965	8811.90059
566.17	8654.04523
566.374	8508.39273
566.579	8727.86128
566.784	8629.43454
566.988	8731.96148
567.193	8893.86082
567.397	8840.58995
567.602	8918.44329
567.806	8969.64855
568.011	9196.86813
568.215	8924.58851
568.42	9016.74766
568.624	8926.63688
568.828	8979.88828
569.033	8594.5648
569.237	8965.55254
569.442	8754.51122
569.646	8910.24942
569.85	8934.83018
570.055	9053.60137
570.259	8967.60056
570.463	9072.02611
570.668	9012.65245
570.872	9000.36642
571.076	9104.77773
571.281	9233.69465
571.485	8992.17537
571.689	9115.01171
571.893	9393.2137
572.098	9200.96023
572.302	9288.92421
572.506	9293.01481
572.71	9065.88468
572.914	9364.58948
573.119	9053.60137
573.323	9198.91419
573.527	9000.36642
573.731	9280.74282
573.935	9108.87138
574.139	9517.8964
574.343	9053.60137
574.547	9581.23692
574.751	9425.92317
574.955	9626.17908
575.159	9256.19706
575.364	9237.78615
575.568	9370.72351
575.772	9507.67875
575.976	9489.28599
576.18	9534.2438
576.383	9501.54798
576.587	9585.32289
576.791	9640.47728
576.995	9609.83736
577.199	9693.5782
577.403	9581.23692
577.607	9548.54694
577.811	9789.54205
578.015	9556.71981
578.219	9891.59474
578.422	9595.53753
578.626	9791.58347
578.83	9679.28283
579.034	9769.12702
579.238	9632.30697
579.442	9973.21034
579.645	9538.33049
579.849	9730.33429
580.053	9472.93578
580.257	9605.75177
580.46	9948.72811
580.664	10236.26516
580.868	9720.12476
581.071	10293.33194
581.275	9893.63542
581.479	10067.03971
581.682	9842.61409
581.886	9967.08998
582.09	9752.7939
582.293	9826.28531
582.497	9830.3676
582.7	9926.28423
582.904	10164.91668
583.107	10175.11035
583.311	9830.3676
583.515	10217.92001
583.718	10030.32747
583.922	10144.5283
584.125	10018.08904
584.329	10203.6508
584.532	9979.33058
584.735	10113.94311
584.939	10050.72373
585.142	10270.91411
585.346	10018.08904
585.549	10244.41821
585.753	10189.38091
585.956	10095.59049
586.159	10299.44561
586.363	10372.8003
586.566	10266.83796
586.769	10346.31309
586.973	10236.26516
587.176	10710.83122
587.379	10162.8779
587.582	10552.04063
587.786	10340.20034
587.989	10600.90727
588.192	10323.89909
588.395	10511.3129
588.599	10372.8003
588.802	10617.19456
589.005	10488.91049
589.208	10584.61919
589.411	10659.94494
589.615	10429.84215
589.818	10350.38819
590.021	10521.49531
590.224	10706.7606
590.427	10468.54332
590.63	10672.15834
590.833	10759.67497
591.036	10566.29415
591.239	10944.81274
591.442	10710.83122
591.645	10637.55256
591.848	10747.46468
592.051	10979.38841
592.254	10773.91977
592.457	10832.92778
592.66	10718.97233
592.863	10830.89319
593.066	10615.15869
593.269	10997.69187
593.472	10869.5485
593.675	11272.13835
593.878	10881.75458
594.081	11022.09507
594.284	11117.65911
594.486	10983.45592
594.689	10993.62451
594.892	10987.52339
595.095	10836.99694
595.298	11146.12038
595.5	10999.72553
595.703	11164.41581
595.906	10889.89173
596.109	11363.57829
596.311	11081.06295
596.514	11268.07387
596.717	11152.21895
596.92	11349.35563
597.122	11162.38303
597.325	11398.11699
597.528	11040.39644
597.73	11357.48292
597.933	10997.69187
598.136	11416.40104
598.338	11129.85705
598.541	11593.10674
598.743	11440.77854
598.946	11324.9728
599.148	11430.62142
599.351	11335.13249
599.554	11479.3734
599.756	11479.3734
599.959	11404.21177
600.161	11268.07387
600.363	11251.81557
600.566	11333.10057
600.768	11385.92719
600.971	11483.43581
601.173	11452.96677
601.376	11727.11263
601.578	11544.36748
601.78	12053.84884
601.983	11566.70697
602.185	11617.47438
602.388	11753.50315
602.59	11816.4285
602.792	11550.46018
602.995	11605.29072
603.197	11686.50891
603.399	11739.29305
603.601	11485.46701
603.804	11631.68822
604.006	11615.44379
604.208	11658.08419
604.41	11834.69561
604.613	11836.72525
604.815	11696.66017
605.017	11982.83728
605.219	11570.76858
605.421	11757.5631
605.623	11950.3716
605.826	12061.96384
606.028	11361.54651
606.23	11938.19644
606.432	11487.49819
606.634	12049.7913
606.836	11708.84139
607.038	12082.25078
607.24	11662.14497
607.442	12023.4165
607.644	11450.93542
607.846	11617.47438
608.048	11759.59307
608.25	11739.29305
608.452	11751.47317
608.654	11743.35313
608.856	11235.55661
609.058	11629.6577
609.26	11727.11263
609.462	11942.25486
609.664	11997.04037
609.866	12090.36535
610.067	12033.56081
610.269	12037.61848
610.471	11621.53552
610.673	11952.40077
610.875	11621.53552
611.077	11852.96204
611.278	11928.05025
611.48	11930.0795
611.682	11893.55167
611.884	12230.32258
612.085	11759.59307
612.287	12244.51918
612.489	11891.52227
612.69	12055.8776
612.892	11986.89534
613.094	12175.56093
613.295	11832.66597
613.497	12171.5043
613.699	12084.27944
613.9	12019.35872
614.102	12351.99642
614.304	12224.23822
614.505	12090.36535
614.707	12153.24908
614.908	11840.7845
615.11	12177.58923
615.311	11731.1728
615.513	12007.18519
615.714	11915.87455
615.916	12260.74344
616.117	11863.10976
616.319	12122.82238
616.52	11958.48821
616.722	11877.31622
616.923	12203.95653
617.124	12110.65122
617.326	11820.48792
617.527	12088.33672
617.729	11928.05025
617.93	12084.27944
618.131	11921.96244
618.333	11891.52227
618.534	11881.37513
618.735	12210.04111
618.937	11990.95338
619.138	11828.60665
619.339	11893.55167
619.54	12218.15379
619.742	12195.84365
619.943	12339.83017
620.144	12145.13546
620.345	12254.6594
620.546	12274.93928
620.748	12349.96873
620.949	12461.48165
621.15	12388.49368
621.351	12201.92832
621.552	12311.44129
621.753	12090.36535
621.954	12145.13546
622.155	11964.57559
622.356	12281.02311
622.558	12226.26635
622.759	12246.54724
622.96	12161.36258
623.161	12305.35778
623.362	11934.13799
623.563	12088.33672
623.764	12161.36258
623.965	12607.43235
624.166	12384.43854
624.366	12230.32258
624.567	12343.88561
624.768	12390.52124
624.969	12276.96723
625.17	12315.49693
625.371	12187.73065
625.572	12252.63137
625.773	11966.6047
625.973	12098.47979
626.174	12220.18194
626.375	12252.63137
626.576	12412.82396
626.777	12437.15328
626.977	12122.82238
627.178	12534.46111
627.379	12276.96723
627.58	12451.34494
627.78	12441.20808
627.981	12560.81277
628.182	12323.60812
628.382	12295.21846
628.583	12349.96873
628.784	12222.21008
628.984	12189.75891
629.185	12530.40692
629.386	12250.60333
629.586	12528.37981
629.787	12169.47597
629.987	12281.02311
630.188	12540.54236
630.388	12795.90525
630.589	12167.44763
630.79	12469.59089
630.99	12023.4165
631.191	12621.62027
631.391	12445.26284
631.591	12431.07104
631.792	12270.88336
631.992	12771.58898
632.193	12607.43235
632.393	12643.91497
632.594	12722.95399
632.794	12550.67765
632.994	12410.79648
633.195	12595.27104
633.395	12388.49368
633.595	12441.20808
633.796	12447.29022
633.996	12570.94774
634.196	12591.21722
634.397	12913.42267
634.597	12447.29022
634.797	12933.68247
634.997	12420.93384
635.198	12836.43057
635.398	12471.61819
635.598	12818.19445
635.798	12720.92746
635.998	12688.50219
636.199	12358.07945
636.399	12390.52124
636.599	12354.0241
636.799	12477.70003
636.999	12404.71398
637.199	12664.18225
637.399	12538.51528
637.599	12708.76816
637.799	12331.7192
637.999	12611.48607
638.199	12562.83978
638.399	12674.31566
638.599	12550.67765
638.799	12716.87439
638.999	12990.40717
639.199	12682.42229
639.399	12710.79473
639.599	12982.30388
639.799	12593.24413
639.999	12724.98052
640.199	12530.40692
640.399	12686.47556
640.599	12341.8579
640.799	13158.53254
640.998	13045.10222
641.198	12672.28899
641.398	12842.50917
641.598	12996.48457
641.798	12658.10213
641.997	12980.27805
642.197	12641.88821
642.397	12933.68247
642.597	12639.86145
642.796	12913.42267
642.996	12546.62355
643.196	12733.08656
643.395	12447.29022
643.595	12874.92759
643.795	12688.50219
643.994	12808.06308
644.194	12988.38135
644.394	13115.99791
644.593	12735.11305
644.793	12765.50979
644.992	12951.91585
645.192	13409.64973
645.392	13120.04892
645.591	12917.47467
645.791	13073.46121
645.99	13073.46121
646.19	12781.72086
646.389	12818.19445
646.589	12631.75432
646.788	13055.23054
646.987	12881.00589
647.187	13111.94689
647.386	12836.43057
647.586	12953.94175
647.785	12990.40717
647.984	12941.78625
648.184	12658.10213
648.383	12747.2719
648.582	12947.86402
648.782	13077.51241
648.981	13197.0145
649.18	12933.68247
649.38	13012.69078
649.579	13071.4356
649.778	12581.08256
649.977	13217.26752
650.177	12915.44867
650.376	13320.55108
650.575	12974.20052
650.774	13190.93851
650.973	12915.44867
651.173	13059.28183
651.372	13101.81924
651.571	13207.14107
651.77	13249.67141
651.969	13296.25007
652.168	12836.43057
652.367	12806.03678
652.566	13140.30367
652.765	13190.93851
652.964	13172.7103
653.163	13259.7974
653.362	13377.25113
653.561	13176.76104
653.76	13338.77645
653.959	13280.04905
654.158	13267.89811
654.357	13322.57614
654.556	13024.84522
654.755	13577.70183
654.954	13275.99876
655.153	13233.4696
655.352	13506.8396
655.551	13423.82381
655.749	13354.97649
655.948	13292.19984
656.147	13306.37556
656.346	13529.11106
656.545	13231.44436
656.743	13393.45056
656.942	13476.4687
657.141	13591.87375
657.34	13563.52973
657.538	13565.55433
657.737	13411.67461
657.936	13612.11906
658.135	13344.85149
658.333	13328.65128
658.532	13192.96385
658.731	13030.92237
658.929	13170.68492
659.128	13367.12635
659.326	12960.01944
659.525	13531.13572
659.724	13231.44436
659.922	13361.05144
660.121	13132.20182
660.319	13304.35047
660.518	13014.71653
660.716	13235.49485
660.915	13239.54531
661.113	13417.74923
661.312	13280.04905
661.51	13427.87351
661.709	13383.32594
661.907	13334.72639
662.105	13318.52602
662.304	13628.31507
662.502	13393.45056
662.701	13832.77191
662.899	13389.40072
663.097	13676.90179
663.296	13259.7974
663.494	13670.82856
663.692	13259.7974
663.891	13359.02646
664.089	13152.45629
664.287	13561.50513
664.485	13032.94808
664.684	13523.03707
664.882	13296.25007
665.08	13302.32538
665.278	13308.40065
665.476	13342.82648
665.675	13231.44436
665.873	13468.36966
666.071	13300.30028
666.269	13541.25895
666.467	13383.32594
666.665	13480.51821
666.863	13425.84866
667.061	13557.45592
667.259	13442.04733
667.457	13733.58394
667.655	13460.27055
667.853	13537.20967
668.051	13184.86248
668.249	13446.09696
668.447	13039.02517
668.645	13209.16636
668.843	13474.44395
669.041	13626.29058
669.239	13172.7103
669.437	13067.38436
669.635	13053.20489
669.833	13180.81177
670.031	13073.46121
670.229	13861.11003
670.426	13403.57507
670.624	13508.8643
670.822	13286.12446
671.02	13431.92319
671.218	13397.50038
671.415	13079.53801
671.613	13154.48171
671.811	13320.55108
672.009	13498.74078
672.206	13401.55018
672.404	13328.65128
672.602	13348.9015
672.799	13111.94689
672.997	13338.77645
673.195	13241.57054
673.392	13510.88899
673.59	13140.30367
673.788	13288.14959
673.985	13172.7103
674.183	13087.64034
674.38	13107.89584
674.578	13587.82465
674.775	13660.70643
674.973	13486.59243
675.17	13225.3686
675.368	13354.97649
675.565	13144.35456
675.763	13387.3758
675.96	13322.57614
676.158	13565.55433
676.355	13186.88783
676.553	13199.03983
676.75	13083.58918
676.947	13197.0145
677.145	13174.73567
677.342	13288.14959
677.539	13036.99948
677.737	13241.57054
677.934	13267.89811
678.131	13223.34333
678.329	13263.84776
678.526	13318.52602
678.723	13399.52528
678.92	13375.22618
679.118	13186.88783
679.315	13235.49485
679.512	13296.25007
679.709	13223.34333
679.906	13217.26752
680.104	13209.16636
680.301	13261.82258
680.498	13419.77409
680.695	12854.66624
680.892	13328.65128
681.089	13101.81924
681.286	13474.44395
681.483	12870.87536
681.68	13077.51241
681.877	12947.86402
682.075	13101.81924
682.272	13004.58771
682.469	13158.53254
682.665	12731.06006
682.862	13152.45629
683.059	13087.64034
683.256	12968.12294
683.453	12753.35125
683.65	13097.76815
683.847	12968.12294
684.044	12664.18225
684.241	12735.11305
684.438	12988.38135
684.635	12712.82129
684.831	12737.13954
685.028	12745.24544
685.225	12846.56155
685.422	12737.13954
685.619	12915.44867
685.815	12887.08414
686.012	13012.69078
686.209	12463.50897
686.405	12905.3186
686.602	12716.87439
686.799	12639.86145
686.996	12826.29944
687.192	12799.95788
687.389	12729.03355
687.586	12939.76031
687.782	12583.1095
687.979	13028.89666
688.175	12874.92759
688.372	12945.8381
688.568	12670.26232
688.765	12735.11305
688.962	12508.10838
689.158	12550.67765
689.355	12686.47556
689.551	12972.17467
689.748	12745.24544
689.944	12514.18988
690.14	12390.52124
690.337	12382.41095
690.533	12532.43402
690.73	12311.44129
690.926	12692.55543
691.123	12497.97243
691.319	12266.82741
691.515	12856.6924
691.712	12641.88821
691.908	12550.67765
692.104	12258.71543
692.301	12562.83978
692.497	12128.90785
692.693	12781.72086
692.889	12763.48338
693.086	12627.70072
693.282	12366.19006
693.478	12558.78576
693.674	12583.1095
693.87	12933.68247
694.067	12471.61819
694.263	12534.46111
694.459	12303.32993
694.655	12834.40435
694.851	12226.26635
695.047	12246.54724
695.243	12566.89377
695.439	12534.46111
695.635	12208.01292
695.831	12205.98473
696.027	12287.10687
696.224	12512.16272
696.42	12214.09746
696.615	12542.56943
696.811	12222.21008
697.007	12514.18988
697.203	12479.7273
697.399	12542.56943
697.595	12274.93928
697.791	12390.52124
697.987	11934.13799
698.183	12189.75891
698.379	12112.67976
698.575	12497.97243
698.77	12441.20808
698.966	12319.55254
699.162	12260.74344
699.358	12210.04111
699.554	11861.08023
699.749	12337.80244
699.945	12104.56554
700.141	12210.04111
700.337	12116.73683
700.532	12189.75891
700.728	11952.40077
700.924	11846.87331
701.119	12035.58965
701.315	12453.3723
701.511	11966.6047
701.706	12244.51918
701.902	11950.3716
702.097	12051.82007
702.293	11966.6047
702.489	12122.82238
702.684	12076.16478
702.88	12345.91333
703.075	11960.51735
703.271	12203.95653
703.466	11970.66289
703.662	12212.06929
703.857	11930.0795
704.053	12299.27421
704.248	12189.75891
704.443	12143.10703
704.639	11928.05025
704.834	11869.19829
705.03	11867.16879
705.225	11877.31622
705.42	11773.80256
705.616	11964.57559
705.811	11757.5631
706.006	11968.6338
706.202	11970.66289
706.397	11980.80823
706.592	11848.90289
706.787	11893.55167
706.983	11714.93188
707.178	12108.62267
707.373	12017.32982
707.568	11928.05025
707.763	11587.01463
707.959	11836.72525
708.154	11601.22943
708.349	11682.44834
708.544	11743.35313
708.739	11771.77266
708.934	11660.11458
709.129	11718.99216
709.324	11788.01163
709.519	11950.3716
709.714	11584.9839
709.909	11942.25486
710.104	11810.33931
710.299	11869.19829
710.494	11530.15085
710.689	11907.75725
710.884	11595.13743
711.079	11733.20288
711.274	11572.79937
711.469	12169.47597
711.664	11631.68822
711.859	11852.96204
712.054	11635.74924
712.249	11739.29305
712.443	11599.19877
712.638	11741.32309
712.833	11353.4193
713.028	11859.0507
713.223	11481.40461
713.417	11684.47863
713.612	11783.95194
713.807	11986.89534
714.002	11676.35742
714.196	11694.62994
714.391	11335.13249
714.586	11517.9648
714.78	11471.24845
714.975	11861.08023
715.17	11463.12336
715.364	11852.96204
715.559	11554.52194
715.754	11513.90271
715.948	11414.36952
716.143	11777.86234
716.337	11609.35198
716.532	11641.8407
716.726	11666.20572
716.921	11631.68822
717.115	11479.3734
717.31	11582.95317
717.504	11465.15465
717.699	11641.8407
717.893	11710.87156
718.088	11621.53552
718.282	11359.51472
718.476	11245.71854
718.671	11142.05461
718.865	11373.73703
719.059	11158.31743
719.254	11379.83215
719.448	11001.75918
719.642	11365.61005
719.837	11162.38303
720.031	11302.6206
720.225	11131.89001
720.419	11392.02214
720.614	11042.42987
720.808	11552.49106
721.002	11048.53009
721.196	11389.9905
721.39	10983.45592
721.585	11129.85705
721.779	10893.96024
721.973	11097.32834
722.167	10578.51095
722.361	10902.09712
722.555	10721.00757
722.749	10969.21943
722.943	10912.26796
723.137	11113.59304
723.331	10920.40443
723.525	11093.26206
723.719	10983.45592
723.913	11024.1286
724.107	10910.23382
724.301	11150.18611
724.495	10979.38841
724.689	10946.8467
724.883	10643.65972
725.077	10977.35464
725.271	11032.26261
725.465	11282.29935
725.659	11099.36147
725.853	11048.53009
726.046	10839.0315
726.24	10708.79592
726.434	10684.3713
726.628	11101.39458
726.822	11085.12937
727.015	11247.75089
727.209	11154.25179
727.403	11357.48292
727.596	10922.43852
727.79	11001.75918
727.984	10912.26796
728.177	10942.77878
728.371	10859.37646
728.565	10824.78933
728.758	10723.04281
728.952	10794.26848
729.146	10735.25396
729.339	11150.18611
729.533	10735.25396
729.726	10490.94714
729.92	10529.64101
730.113	10743.39449
730.307	10661.98053
730.5	10780.02451
730.694	10556.11313
730.887	10934.64281
731.081	10718.97233
731.274	10690.47762
731.468	10773.91977
731.661	10975.32085
731.854	11001.75918
732.048	10963.11791
732.241	11113.59304
732.435	10975.32085
732.628	10700.65457
732.821	10743.39449
733.014	10737.28911
733.208	10877.68593
733.401	10700.65457
733.594	10775.95469
733.788	10948.88064
733.981	10965.15177
734.174	10786.12914
734.367	10753.56988
734.56	10497.057
734.754	10680.30036
734.947	10741.35937
735.14	11101.39458
735.333	10576.47485
735.526	11007.86006
735.719	10566.29415
735.912	10625.33791
736.105	10517.42238
736.298	10621.26626
736.491	10637.55256
736.684	10682.33584
736.877	10600.90727
737.07	10661.98053
737.263	10661.98053
737.456	10617.19456
737.649	10576.47485
737.842	10515.3859
738.035	10670.1228
738.228	10521.49531
738.421	10462.43292
738.614	10741.35937
738.807	10625.33791
739	10425.76807
739.192	10521.49531
739.385	10437.99015
739.578	10539.82284
739.771	10645.69541
739.964	10552.04063
740.156	10552.04063
740.349	10158.80031
740.542	10645.69541
740.735	10356.50074
740.927	10407.43407
741.12	10358.53823
741.313	10617.19456
741.505	10525.56818
741.698	10262.76177
741.891	10213.84316
742.083	10370.7629
742.276	10270.91411
742.468	10429.84215
742.661	10185.30368
742.854	10250.53285
743.046	10319.82364
743.239	10440.02712
743.431	10364.65063
743.624	10283.14222
743.816	10162.8779
744.009	10417.61976
744.201	10158.80031
744.393	10385.02442
744.586	10401.32251
744.778	10317.7859
744.971	10407.43407
745.163	10547.96809
745.355	10221.99681
745.548	10142.48938
745.74	10071.11856
745.932	10152.68381
746.125	10148.60608
746.317	10103.74735
746.509	9914.04136
746.702	10340.20034
746.894	10138.41151
747.086	10185.30368
747.278	10209.76626
747.471	9883.43189
747.663	10177.14904
747.855	10327.97448
748.047	10071.11856
748.239	10427.80512
748.431	10332.04982
748.623	10285.18019
748.815	10022.16857
749.008	10586.65524
749.2	10270.91411
749.392	10472.61686
749.584	10352.42572
749.776	10478.72706
749.968	10492.98377
750.16	10397.24806
750.352	10195.49666
750.544	10323.89909
750.736	10146.5672
750.928	10128.21659
751.12	9946.68783
751.311	10150.64496
751.503	10056.84233
751.695	10022.16857
751.887	10016.04925
752.079	10079.2761
752.271	9960.96949
752.463	9965.04983
752.654	9816.07934
752.846	9975.25044
753.038	9703.78872
753.23	9928.32465
753.421	9763.00221
753.613	9887.51335
753.805	9732.37615
753.997	9789.54205
754.188	9779.33472
754.38	10228.1119
754.572	9738.50163
754.763	10009.92979
754.955	9905.87916
755.146	9999.73041
755.338	9740.54343
755.53	9738.50163
755.721	9938.52657
755.913	9916.08188
756.104	9691.53605
756.296	9801.79034
756.487	9662.94433
756.679	9532.20043
756.87	9652.73227
757.062	9756.87727
757.253	9558.76299
757.445	9591.45172
757.636	9489.28599
757.827	9540.37381
758.019	9548.54694
758.21	9628.22173
758.401	9344.14164
758.593	9368.67885
758.784	9297.10533
758.975	9358.4553
759.167	9452.49657
759.358	9752.7939
759.549	9460.67244
759.74	9550.59018
759.932	9466.80418
760.123	9438.18816
760.314	9403.43586
760.505	9577.1509
760.696	9053.60137
760.888	9213.23615
761.079	9166.17517
761.27	9155.94334
761.461	9223.46561
761.652	9331.87214
761.843	9227.55727
762.034	9354.36576
762.225	9139.57151
762.416	9354.36576
762.607	8836.49169
762.798	9241.87758
762.989	9243.92327
763.18	9284.83355
763.371	8875.42227
763.562	8986.03191
763.753	9100.68402
763.944	9245.96894
764.135	8918.44329
764.326	9329.82717
764.517	8932.78188
764.708	8902.05526
764.899	9033.12778
765.089	9299.15057
765.28	8983.98405
765.471	8852.8843
765.662	8615.07707
765.853	9004.46183
766.043	8705.30892
766.234	8715.56027
766.425	8699.15788
766.615	8832.39335
766.806	8547.37946
766.997	8645.84197
767.187	8766.81014
767.378	8703.25859
767.569	8411.92233
767.759	8742.21163
767.95	8615.07707
768.141	8639.68932
768.331	8768.8599
768.522	8668.40023
768.712	8604.82117
768.903	8795.50508
769.093	8446.82076
769.284	8721.71086
769.474	8467.34666
769.665	8651.99444
769.855	8533.01673
770.046	8516.60103
770.236	8074.96503
770.426	8346.21604
770.617	8165.42047
770.807	8541.22412
770.998	8393.44444
771.188	8428.34582
771.378	8214.74351
771.569	8510.44484
771.759	8132.53207
771.949	8085.24601
772.139	8171.58648
772.33	8070.85249
772.52	8200.35881
772.71	8268.16393
772.9	8325.67875
773.09	8368.80481
773.281	8091.41436
773.471	8288.7067
773.661	8377.01833
773.851	8305.1395
774.041	8116.08595
774.231	8198.30377
774.421	8114.0301
774.611	7968.01274
774.802	7955.66854
774.992	7965.95542
775.182	7898.05255
775.372	7992.69892
775.562	7840.42038
775.752	7990.64185
775.942	8124.30917
776.131	8027.66598
776.321	7908.3423
776.511	8212.68861
776.701	8000.92699
776.891	7959.78336
777.081	8025.60925
777.271	8296.92326
777.461	8138.69904
777.651	7875.41327
777.84	7784.83109
778.03	7867.18019
778.22	7834.24454
778.41	7832.18589
778.599	7729.22656
778.789	7924.80484
778.979	7720.98755
779.169	7628.27543
779.358	7671.54642
779.548	7803.36254
779.738	7797.18558
779.927	7826.0098
780.117	7702.44855
780.307	7558.19773
780.496	7335.43294
780.686	7731.28626
780.875	7587.05624
781.065	7646.82128
781.254	7457.15981
781.444	7481.90858
781.633	7617.97143
781.823	7661.24465
782.012	7252.86296
782.202	7521.08777
782.391	7384.9581
782.581	7554.07475
782.77	7607.6669
782.96	7723.04734
783.149	7168.19212
783.338	7347.81541
783.528	7498.40603
783.717	7380.83148
783.906	7426.21948
784.096	7706.56848
784.285	7603.54494
784.474	7475.72168
784.663	7174.38881
784.853	7275.57321
785.042	7085.55044
785.231	7356.06995
785.42	7184.71618
785.61	7292.08808
785.799	7126.87574
785.988	7434.47071
786.177	6980.1304
786.366	7137.20567
786.555	7035.94828
786.744	7143.40336
786.933	6965.65642
787.122	7279.70206
787.312	7242.53924
787.501	7135.13972
787.69	6760.83405
787.879	7143.40336
788.068	6909.81783
788.257	7042.14926
788.445	6992.53579
788.634	7438.5962
788.823	7013.20964
789.012	7159.92955
789.201	6975.99509
789.39	7060.75098
789.579	6992.53579
789.768	7100.01531
789.957	6665.58797
790.145	7052.48377
790.334	6740.13251
790.523	6889.13269
790.712	6793.95177
790.9	6781.53331
791.089	6644.87587
791.278	6866.37641
791.467	6512.26379
791.655	7004.94037
791.844	6649.01847
792.033	6702.86396
792.221	6555.78757
792.41	6570.29322
792.599	6429.33307
792.787	6769.11403
792.976	6584.79775
793.164	6744.273
793.353	6760.83405
793.541	6793.95177
793.73	6767.04407
793.918	6959.45294
794.107	6671.80115
794.295	6707.00528
794.484	6574.43749
794.672	6570.29322
794.861	6528.84548
795.049	6530.91809
795.238	6827.06364
795.426	6806.3694
795.614	6481.16912
795.803	6653.16099
795.991	6493.60762
796.179	6578.58166
796.368	6387.85375
796.556	6456.28963
796.744	6377.48247
796.932	6541.28078
797.121	6352.589
797.309	6437.62781
797.497	6433.48049
797.685	6277.88844
797.874	6304.86714
798.062	6458.36305
798.25	6288.26533
798.438	6503.97239
798.626	6126.31912
798.814	6360.8872
799.002	6088.92664
799.19	6431.40679
799.378	6267.51096
799.566	6122.16478
799.755	6246.75426
799.943	6290.34064
800.131	6346.36511
800.318	6323.54238
800.506	6182.39357
800.694	6240.52679
800.882	6155.3969
801.07	6532.99067
801.258	6379.55677
801.446	6524.7002
801.634	6132.55046
801.822	6311.09243
802.01	6001.64785
802.197	6464.58317
802.385	6176.16392
802.573	6263.35981
802.761	6232.22317
802.949	6402.37257
803.136	6358.81268
803.324	6406.5206
803.512	6429.33307
803.699	6300.71683
803.887	6207.31006
804.075	6209.38628
804.262	5947.59731
804.45	6053.60451
804.638	6157.47371
804.825	6045.29244
805.013	5816.56257
805.201	6184.47008
805.388	6230.14721
805.576	6159.55049
805.763	6246.75426
805.951	6553.71524
806.138	6317.31751
806.326	6555.78757
806.513	6180.31705
806.701	6138.78159
806.888	6047.37049
807.075	6296.56642
807.263	6093.08173
807.45	6240.52679
807.638	6188.62301
807.825	6640.73317
808.012	6180.31705
808.2	6304.86714
808.387	6267.51096
808.574	6317.31751
808.761	6109.70118
808.949	6458.36305
809.136	6057.76041
809.323	6371.25942
809.51	6076.46078
809.698	6149.16634
809.885	6070.22753
810.072	6282.03927
810.259	6362.96169
810.446	6298.64163
810.633	6097.23673
810.82	6437.62781
811.008	6298.64163
811.195	6410.66853
811.382	6329.76704
811.569	6528.84548
811.756	6255.05722
811.943	6462.50982
812.13	6267.51096
812.317	6248.83003
812.504	6288.26533
812.691	6188.62301
812.878	6105.54646
813.064	6315.24251
813.251	6030.7454
813.438	6234.29911
813.625	6205.23382
813.812	6213.53865
813.999	6159.55049
814.186	6410.66853
814.372	6093.08173
814.559	6408.59457
814.746	5891.45103
814.933	6232.22317
815.12	6223.91917
815.306	6234.29911
815.493	6009.96191
815.68	5999.56928
815.866	6211.46248
816.053	6333.9167
816.24	6132.55046
816.426	6240.52679
816.613	6066.07192
816.799	6161.62725
816.986	6367.1106
817.173	6228.07122
817.359	5897.69035
817.546	6203.15755
817.732	5783.26899
817.919	6099.3142
818.105	5710.41822
818.292	6039.05813
818.478	6003.7264
818.665	6091.0042
818.851	5816.56257
819.037	5897.69035
819.224	5779.10686
819.41	6115.93308
819.597	5914.32751
819.783	6034.90181
819.969	5993.33342
820.156	6032.82361
820.342	5893.53083
820.528	6217.69093
820.714	5647.95169
820.901	6047.37049
821.087	5937.20115
821.273	6184.47008
821.459	5922.64553
821.646	5939.28043
821.832	5820.72384
822.018	6126.31912
822.204	5766.61993
822.39	5922.64553
822.576	5766.61993
822.762	5810.32048
822.948	5708.33634
823.134	5924.72497
823.32	5633.37312
823.507	6047.37049
823.693	5989.17607
823.879	5781.18794
824.065	5926.80439
824.25	5633.37312
824.436	5647.95169
824.622	5814.48189
824.808	5810.32048
824.994	5816.56257
825.18	5764.53869
825.366	5980.86107
825.552	5560.46289
825.738	5568.79695
825.923	5372.84701
826.109	5675.02313
826.295	5385.36066
826.481	5791.59295
826.667	5475.01706
826.852	5664.61151
827.038	5610.46159
827.224	5564.62997
827.409	5322.78397
827.595	5543.79364
827.781	5297.74739
827.966	5675.02313
828.152	5264.36003
828.338	5622.95914
828.523	5157.89795
828.709	5468.76338
828.894	5251.83823
829.08	5550.04479
829.266	5024.21288
829.451	5289.40111
829.637	5228.87941
829.822	5402.04421
830.008	5097.33367
830.193	5153.72173
830.378	5049.28606
830.564	5516.7029
830.749	5431.23681
830.935	5316.52514
831.12	5143.28077
831.305	5385.36066
831.491	5314.43882
831.676	5360.33252
831.861	5228.87941
832.047	5322.78397
832.232	5114.04301
832.417	5560.46289
832.602	5103.59985
832.788	5220.53005
832.973	4963.60564
833.158	4921.79626
833.343	5013.76474
833.528	5393.70262
833.714	5001.22621
833.899	5130.75086
834.084	4980.32682
834.269	4988.68685
834.454	4907.16081
834.639	4994.95664
834.824	4794.22109
835.009	5088.97845
835.194	4967.78607
835.379	5114.04301
835.564	4821.41636
835.749	4963.60564
835.934	4689.58818
836.119	5099.42242
836.304	4930.15888
836.489	4946.88299
836.674	4622.59355
836.859	4790.03686
837.044	4710.51929
837.228	4831.87506
837.413	4798.40523
837.598	5072.26688
837.783	4790.03686
837.968	4898.79719
838.152	4712.61227
838.337	4992.86673
838.522	4683.30841
838.707	4654.00015
838.891	4645.62555
839.076	4739.81904
839.261	4796.31317
839.445	4716.79818
839.63	4775.39135
839.815	4794.22109
839.999	4643.53184
840.184	4499.01227
840.368	4402.60742
840.553	4597.46465
840.737	4457.10283
840.922	4584.899
841.106	4266.30465
841.291	4471.77214
841.475	4628.87527
841.66	4566.04901
841.844	4616.31163
842.029	4677.02844
842.213	4392.12585
842.397	4540.91289
842.582	4205.46336
842.766	4494.82173
842.951	4318.73959
843.135	4413.08846
843.319	4117.31682
843.504	4218.05268
843.688	4392.12585
843.872	4461.29417
844.056	4605.84131
844.241	4821.41636
844.425	4379.54723
844.609	4444.52828
844.793	4360.67785
844.977	4444.52828
845.161	3974.52543
845.346	4060.63168
845.53	3945.11542
845.714	4247.42479
845.898	3966.12298
846.082	4167.69082
846.266	4121.51512
846.45	4270.49994
846.634	4048.03292
846.818	4226.44514
847.002	4182.38096
847.186	4297.76723
847.37	4075.32928
847.554	4201.26675
847.738	3825.33393
847.922	4297.76723
848.106	4045.93306
848.29	4016.53279
848.473	3919.90368
848.657	3907.29672
848.841	3987.1285
849.025	3957.7202
849.209	3657.11165
849.392	3938.81276
849.576	3659.21519
849.76	3798.00629
849.944	3705.48823
850.127	3961.92163
850.311	3636.07522
850.495	3951.4179
850.678	3831.63983
850.862	4144.60424
851.046	3907.29672
851.229	3995.53013
851.413	3766.47027
851.596	3936.71183
851.78	3598.20488
851.964	3722.31249
852.147	3718.10654
852.331	3943.01455
852.514	3682.35287
852.698	3898.89168
852.881	3680.24954
853.065	3844.25111
853.248	3684.45618
853.431	3781.18763
853.615	3530.86491
853.798	3461.40087
853.982	3476.13731
854.165	3636.07522
854.348	3404.55206
854.532	3659.21519
854.715	3400.34052
854.898	3646.59367
855.081	3200.21277
855.265	3802.21076
855.448	3379.28176
855.631	3734.92987
855.814	3225.5005
855.997	3570.85031
856.181	3257.10679
856.364	3316.09503
856.547	3465.61137
856.73	3497.18784
856.913	3316.09503
857.096	3476.13731
857.279	3387.70548
857.462	3406.6578
857.645	3320.30796
857.828	3396.12891
858.011	3309.7755
858.194	3284.49584
858.377	3200.21277
858.56	3202.32017
858.743	3183.35296
858.926	3423.5031
859.109	3324.52083
859.292	3394.02308
859.475	3278.17555
859.658	3366.64567
859.841	3153.84578
860.023	3364.53959
860.206	3063.19691
860.389	3273.96193
860.572	2989.3916
860.755	3204.42756
860.937	3115.90332
861.12	3244.46472
861.303	3130.65934
861.486	3252.89283
861.668	2976.73739
861.851	3092.71372
862.034	2905.02007
862.216	2991.50058
862.399	2978.84646
862.581	3061.08845
862.764	2913.45828
862.947	2888.14295
863.129	2896.58162
863.312	3084.28066
863.494	2812.18462
863.677	3033.67705
863.859	2755.20409
864.042	2875.4845
864.224	2527.18771
864.406	2843.83614
864.589	2662.32617
864.771	2710.87914
864.954	2647.54784
865.136	2626.43488
865.318	2328.61893
865.501	2769.97777
865.683	2385.66416
865.865	2729.87626
866.048	2537.74716
866.23	2609.54362
866.412	2510.29198
866.594	2900.80087
866.777	2579.98204
866.959	2782.6404
867.141	2449.03895
867.323	2497.61971
867.505	2457.4882
867.687	2742.54041
867.869	2558.86519
868.052	2666.54844
868.234	2377.21348
868.416	2742.54041
868.598	2275.79292
868.78	2438.47715
868.962	2539.85902
869.144	2696.10287
869.326	2601.0977
869.508	2611.65507
869.69	2491.28343
869.872	2446.92661
870.054	2474.38617
870.236	2609.54362
870.417	2425.80264
870.599	2588.42845
870.781	2356.08606
870.963	2417.35274
871.145	2398.33988
871.327	2584.20527
871.508	2214.50754
871.69	2332.84475
871.872	2372.98808
872.054	2459.60048
872.235	2028.49565
872.417	2349.74764
872.599	2301.15014
872.78	2598.98619
872.962	2330.73184
873.144	2406.79014
873.325	2322.28012
873.507	2339.18341
873.689	2208.16724
873.87	2406.79014
874.052	2347.63481
874.233	2495.50763
874.415	2203.94034
874.596	2457.4882
874.778	2144.76016
874.959	2277.90607
875.141	2079.23199
875.322	2444.81427
875.503	2265.22702
875.685	2400.45246
875.866	2356.08606
876.048	2334.95764
876.229	2102.48476
876.41	2233.52794
876.592	2210.28068
876.773	2263.11381
876.954	2110.94009
877.136	2368.76263
877.317	2079.23199
877.498	2432.13994
877.679	2005.24018
877.86	2389.88944
878.042	2127.85038
878.223	2299.03709
878.404	2007.35434
878.585	2187.03238
878.766	2157.44217
878.947	2280.01922
879.128	2210.28068
879.309	2322.28012
879.49	2030.60975
879.672	2398.33988
879.853	2153.21487
880.034	2411.01522
880.215	2263.11381
880.396	2400.45246
880.576	2356.08606
880.757	2501.84385
880.938	2358.19885
881.119	2552.52991
881.3	2096.14319
881.481	2411.01522
881.662	2195.48643
881.843	2265.22702
882.023	2322.28012
882.204	2499.73179
882.385	2153.21487
882.566	2417.35274
882.747	2144.76016
882.927	2499.73179
883.108	2127.85038
883.289	2282.13235
883.469	2096.14319
883.65	2411.01522
883.831	2096.14319
884.011	2332.84475
884.192	2113.0539
884.373	2520.8519
884.553	2159.55581
884.734	2246.20781
884.914	2324.39307
885.095	2347.63481
885.275	2085.57374
885.456	2423.69018
885.636	2189.14591
885.817	2689.76999
885.997	2170.12389
886.178	2396.22728
886.358	2233.52794
886.538	2440.58953
886.719	2271.56659
886.899	2487.05918
887.08	2440.58953
887.26	2552.52991
887.44	2417.35274
887.621	2603.2092
887.801	2341.29627
887.981	2417.35274
888.161	2121.50908
888.342	2383.5515
888.522	2322.28012
888.702	2377.21348
888.882	2263.11381
889.062	2381.43884
889.242	2197.59992
889.423	2491.28343
889.603	2415.24025
889.783	2641.21409
889.963	2250.43437
890.143	2552.52991
890.323	2203.94034
890.503	2360.31162
890.683	2299.03709
890.863	2341.29627
891.043	2237.7546
891.223	2541.97086
891.403	2288.4717
891.583	2480.72272
891.763	2246.20781
891.943	2377.21348
892.122	2271.56659
892.302	2330.73184
892.482	2068.66226
892.662	2121.50908
892.842	2079.23199
893.022	2178.5782
893.201	2072.89017
893.381	2396.22728
893.561	2187.03238
893.741	2402.56503
893.92	2161.66944
894.1	2392.00206
894.28	2189.14591
894.459	2286.35859
894.639	2220.84775
894.819	2417.35274
894.998	2142.64647
895.178	2246.20781
895.357	2163.78307
895.537	2277.90607
895.716	2132.07787
895.896	2168.01029
896.075	2138.41905
896.255	2102.48476
896.434	2017.92508
896.614	2265.22702
896.793	1960.84119
896.973	2347.63481
897.152	2104.5986
897.331	2208.16724
897.511	1992.55503
897.69	2060.20634
897.87	1865.69179
898.049	1996.78344
898.228	1848.77522
898.407	2104.5986
898.587	1891.06604
898.766	2098.25705
898.945	1861.46268
899.124	2047.52225
899.304	1971.41263
899.483	2155.32852
899.662	1933.35475
899.841	2026.38155
900.02	1736.69576
900.199	1753.61414
900.378	1795.90902
900.557	1844.54603
900.737	1785.33545
900.916	1802.25311
901.095	1715.54747
901.274	1865.69179
901.453	1738.81057
901.632	1859.34812
901.811	1688.05421
901.989	1825.51444
902.168	1597.11172
902.347	1713.43262
902.526	1478.67023
902.705	1630.95129
902.884	1601.3417
903.063	1817.05584
903.242	1556.92663
903.42	1603.45668
903.599	1358.11266
903.778	1772.64703
903.957	1385.60808
904.135	1559.04165
904.314	1396.18328
904.493	1605.57166
904.672	1248.13374
904.85	1328.50245
905.029	1174.11341
905.207	1396.18328
905.386	1231.21446
905.565	1155.08031
905.743	1174.11341
905.922	1294.66261
906.1	1188.91714
906.279	1303.12252
906.457	1205.83591
906.636	1188.91714
906.814	1129.70336
906.993	1081.06605
907.171	1066.26392
907.35	1214.29538
907.528	1070.49307
907.707	1125.47393
907.885	977.45701
908.063	1199.49135
908.242	1104.32706
908.42	1182.57266
908.598	1059.92022
908.777	939.40039
908.955	1053.57658
909.133	1036.66044
909.311	939.40039
909.49	1104.32706
909.668	973.22839
909.846	1053.57658
910.024	1000.71491
910.202	1114.90044
910.38	928.82952
910.559	1129.70336
910.737	1026.08805
910.915	952.08568
911.093	840.04198
911.271	1011.28694
911.449	962.65695
911.627	1214.29538
911.805	1047.23299
911.983	1121.24452
912.161	1038.77494
912.339	1150.85078
912.517	1015.5158
912.695	1180.45784
912.872	988.02869
913.05	1087.4099
913.228	1002.82931
913.406	1140.27702
913.584	1127.58865
913.762	1191.03198
913.939	954.19992
914.117	1163.53942
914.295	1040.88944
914.473	1214.29538
914.65	1038.77494
914.828	1002.82931
915.006	935.17202
915.184	1011.28694
915.361	994.37177
915.539	1072.60766
915.716	1023.97359
915.894	1028.20252
916.072	956.31416
916.249	1133.93281
916.427	909.80243
916.604	1076.83684
916.782	1040.88944
916.959	1028.20252
917.137	928.82952
917.314	1043.00395
917.492	833.70058
917.669	1131.81809
917.847	850.61115
918.024	926.71537
918.201	850.61115
918.379	909.80243
918.556	766.06419
918.733	875.97805
918.911	759.72379
919.088	895.00401
919.265	947.85722
919.442	1028.20252
919.62	766.06419
919.797	863.29445
919.974	831.58679
920.151	968.99979
920.328	829.47302
920.506	837.92817
920.683	785.08593
920.86	789.31309
921.037	732.24978
921.214	732.24978
921.391	725.90988
921.568	761.83724
921.745	700.55124
921.922	778.74526
922.099	651.95172
922.276	1045.11847
922.453	717.45683
922.63	878.09201
922.807	755.4969
922.984	922.48709
923.161	704.77757
923.338	766.06419
923.514	744.92987
923.691	702.6644
923.868	675.19421
924.045	618.14706
924.222	689.98561
924.399	774.5182
924.575	673.0812
924.752	744.92987
924.929	628.71068
925.105	630.82344
925.282	520.97704
925.459	723.7966
925.635	537.87412
925.812	660.40337
925.989	478.73838
926.165	523.08913
926.342	639.27461
926.518	607.58375
926.695	529.42547
926.871	677.30723
927.048	499.85698
927.224	689.98561
927.401	504.08088
927.577	666.74223
927.754	597.02077
927.93	599.13334
928.107	453.39803
928.283	546.32299
928.459	360.50292
928.636	516.75291
928.812	474.51483
928.988	554.77208
929.165	495.63314
929.341	461.84457
929.517	480.85017
929.693	461.84457
929.87	413.28038
930.046	432.28277
930.222	423.8371
930.398	478.73838
930.574	474.51483
930.751	520.97704
930.927	449.17485
931.103	377.39057
931.279	385.8348
931.455	461.84457
931.631	512.52884
931.807	394.2793
931.983	368.94661
932.159	385.8348
932.335	301.40489
932.511	387.9459
932.687	356.28118
932.863	453.39803
933.039	292.96345
933.215	406.94654
933.391	345.72712
933.566	411.16909
933.742	223.33309
933.918	198.0182
934.094	276.08147
934.27	358.39204
934.445	326.73092
934.621	318.28862
934.797	259.20069
934.973	261.31072
935.148	318.28862
935.324	322.50973
935.5	301.40489
935.675	202.23715
935.851	200.12766
936.027	176.92467
936.202	219.11374
936.378	217.0041
936.553	267.64093
936.729	202.23715
936.904	151.61516
937.08	217.0041
937.255	193.79933
937.431	134.74384
937.606	176.92467
937.782	174.81543
937.957	151.61516
938.133	172.70621
938.308	191.68993
938.483	132.63502
938.659	176.92467
938.834	132.63502
939.009	122.09124
939.185	107.33087
939.36	132.63502
939.535	141.07043
939.71	98.89685
939.886	119.98255
940.061	147.39721
940.236	73.59693
940.411	75.70514
940.586	105.22233
940.761	82.02988
940.937	141.07043
941.112	33.54542
941.287	65.16435
941.462	31.43768
941.637	77.81336
941.812	65.16435
941.987	151.61516
942.162	119.98255
942.337	39.86879
942.512	75.70514
942.687	82.02988
942.862	29.32996
943.037	82.02988
943.212	18.79172
943.386	117.87389
943.561	90.46319
943.736	56.73213
943.911	75.70514
944.086	73.59693
944.26	56.73213
944.435	31.43768
944.61	92.57157
944.785	98.89685
944.959	94.67998
945.134	14.57659
945.309	98.89685
945.483	25.11459
945.658	37.76098
945.833	119.98255
946.007	132.63502
946.182	52.51615
946.357	12.46906
946.531	136.85268
946.706	23.00695
946.88	58.84015
947.055	103.11382
947.229	44.08449
947.404	84.13817
947.578	107.33087
947.752	56.73213
947.927	67.27246
948.101	82.02988
948.276	73.59693
948.45	82.02988
948.624	92.57157
948.799	132.63502
948.973	101.00532
949.147	109.43943
949.321	132.63502
949.496	-8.60492
949.67	103.11382
949.844	82.02988
950.018	145.28826
950.193	4.03918
950.367	50.4082
950.541	67.27246
950.715	39.86879
950.889	149.50617
951.063	98.89685
951.237	98.89685
951.411	90.46319
951.585	88.35483
951.759	101.00532
951.933	86.24649
952.107	98.89685
952.281	107.33087
952.455	60.94819
952.629	69.38059
952.803	58.84015
952.977	98.89685
953.151	84.13817
953.325	25.11459
953.499	141.07043
953.672	132.63502
953.846	56.73213
954.02	56.73213
954.194	73.59693
954.368	92.57157
954.541	52.51615
954.715	50.4082
954.889	25.11459
955.062	160.05133
955.236	124.19996
955.41	67.27246
955.583	128.41744
955.757	132.63502
955.93	67.27246
956.104	94.67998
956.278	73.59693
956.451	82.02988
956.625	90.46319
956.798	117.87389
956.972	82.02988
957.145	6.14661
957.319	94.67998
957.492	52.51615
957.665	94.67998
957.839	94.67998
958.012	84.13817
958.185	141.07043
958.359	115.76524
958.532	214.89448
958.705	107.33087
958.879	65.16435
959.052	149.50617
959.225	75.70514
959.398	60.94819
959.572	115.76524
959.745	52.51615
959.918	58.84015
960.091	27.22227
960.264	151.61516
960.438	8.25407
960.611	31.43768
960.784	122.09124
960.957	145.28826
961.13	39.86879
961.303	27.22227
961.476	31.43768
961.649	75.70514
961.822	101.00532
961.995	79.92161
962.168	48.30027
962.341	56.73213
962.514	60.94819
962.686	138.96154
962.859	115.76524
963.032	77.81336
963.205	86.24649
963.378	27.22227
963.551	101.00532
963.723	94.67998
963.896	128.41744
964.069	119.98255
964.242	71.48875
964.414	90.46319
964.587	39.86879
964.76	149.50617
964.932	73.59693
965.105	107.33087
965.278	31.43768
965.45	-6.49763
965.623	77.81336
965.795	35.65319
965.968	115.76524
966.14	130.52622
966.313	86.24649
966.485	82.02988
966.658	20.89932
966.83	132.63502
967.003	65.16435
967.175	119.98255
967.348	124.19996
967.52	160.05133
967.692	98.89685
967.865	82.02988
968.037	41.97663
968.209	35.65319
968.382	94.67998
968.554	101.00532
968.726	35.65319
968.898	33.54542
969.071	23.00695
969.243	56.73213
969.415	27.22227
969.587	124.19996
969.759	14.57659
969.932	219.11374
970.104	50.4082
970.276	-0.17561
970.448	126.30869
970.62	52.51615
970.792	92.57157
970.964	33.54542
971.136	37.76098
971.308	39.86879
971.48	-19.141
971.652	111.54801
971.824	75.70514
971.996	94.67998
972.168	101.00532
972.339	60.94819
972.511	33.54542
972.683	124.19996
972.855	92.57157
973.027	-14.92664
973.199	41.97663
973.37	37.76098
973.542	54.62413
973.714	56.73213
973.886	69.38059
974.057	92.57157
974.229	67.27246
974.401	69.38059
974.572	39.86879
974.744	79.92161
974.915	23.00695
975.087	65.16435
975.259	-2.28298
975.43	41.97663
975.602	27.22227
975.773	92.57157
975.945	31.43768
976.116	44.08449
976.288	48.30027
976.459	-25.46235
976.63	31.43768
976.802	27.22227
976.973	60.94819
977.145	-44.42508
977.316	39.86879
977.487	65.16435
977.659	69.38059
977.83	52.51615
978.001	94.67998
978.172	6.14661
978.344	82.02988
978.515	-10.71218
978.686	155.83321
978.857	96.7884
979.028	134.74384
979.2	10.36155
979.371	92.57157
979.542	117.87389
979.713	65.16435
979.884	132.63502
980.055	77.81336
980.226	71.48875
980.397	67.27246
980.568	-23.35526
980.739	101.00532
980.91	-19.141
981.081	16.68414
981.252	138.96154
981.423	98.89685
981.594	63.05626
981.765	101.00532
981.936	-8.60492
982.106	56.73213
982.277	48.30027
982.448	39.86879
982.619	48.30027
982.79	58.84015
982.96	101.00532
983.131	126.30869
983.302	16.68414
983.472	105.22233
983.643	18.79172
983.814	-10.71218
983.984	75.70514
984.155	94.67998
984.326	25.11459
984.496	31.43768
984.667	33.54542
984.837	69.38059
985.008	10.36155
985.178	58.84015
985.349	90.46319
985.519	60.94819
985.69	33.54542
985.86	-33.89048
986.031	33.54542
986.201	92.57157
986.371	71.48875
986.542	1.93177
986.712	50.4082
986.882	33.54542
987.053	107.33087
987.223	6.14661
987.393	82.02988
987.563	58.84015
987.734	41.97663
987.904	65.16435
988.074	35.65319
988.244	23.00695
988.414	39.86879
988.585	54.62413
988.755	50.4082
988.925	58.84015
989.095	14.57659
989.265	67.27246
989.435	41.97663
989.605	-0.17561
989.775	39.86879
989.945	60.94819
990.115	60.94819
990.285	1.93177
990.455	75.70514
990.625	14.57659
990.795	-6.49763
990.965	31.43768
991.134	8.25407
991.304	23.00695
991.474	-2.28298
991.644	35.65319
991.814	46.19237
991.984	39.86879
992.153	-10.71218
992.323	58.84015
992.493	16.68414
992.662	-2.28298
992.832	41.97663
993.002	31.43768
993.171	-44.42508
993.341	23.00695
993.511	39.86879
993.68	54.62413
993.85	73.59693
994.019	60.94819
994.189	56.73213
994.358	29.32996
994.528	6.14661
994.697	-10.71218
994.867	6.14661
995.036	29.32996
995.206	75.70514
995.375	27.22227
995.544	48.30027
995.714	10.36155
995.883	44.08449
996.052	92.57157
996.222	-17.03383
996.391	-6.49763
996.56	73.59693
996.73	107.33087
996.899	67.27246
997.068	33.54542
997.237	27.22227
997.406	31.43768
997.576	58.84015
997.745	33.54542
997.914	23.00695
998.083	-6.49763
998.252	33.54542
998.421	-0.17561
998.59	29.32996
998.759	82.02988
998.928	-0.17561
999.097	-6.49763
999.266	105.22233
999.435	65.16435
999.604	41.97663
999.773	63.05626
999.942	48.30027
1000.111	65.16435
1000.28	-29.67646
1000.448	8.25407
1000.617	69.38059
1000.786	50.4082
1000.955	101.00532
1001.124	25.11459
1001.292	-35.99745
1001.461	77.81336
1001.63	18.79172
1001.798	31.43768
1001.967	58.84015
1002.136	35.65319
1002.304	96.7884
1002.473	48.30027
1002.642	37.76098
1002.81	33.54542
1002.979	4.03918
1003.147	48.30027
1003.316	56.73213
1003.484	65.16435
1003.653	39.86879
1003.821	103.11382
1003.99	6.14661
1004.158	27.22227
1004.327	77.81336
1004.495	31.43768
1004.663	-25.46235
1004.832	16.68414
1005	-31.78348
1005.168	31.43768
1005.337	8.25407
1005.505	1.93177
1005.673	-61.27913
1005.842	75.70514
1006.01	33.54542
1006.178	65.16435
1006.346	31.43768
1006.514	23.00695
1006.683	25.11459
1006.851	12.46906
1007.019	1.93177
1007.187	63.05626
1007.355	-0.17561
1007.523	39.86879
1007.691	-8.60492
1007.859	-35.99745
1008.027	23.00695
1008.195	-12.81942
1008.363	14.57659
1008.531	90.46319
1008.699	-25.46235
1008.867	31.43768
1009.035	25.11459
1009.203	-23.35526
1009.37	16.68414
1009.538	105.22233
1009.706	18.79172
1009.874	-4.39031
1010.042	50.4082
1010.209	27.22227
1010.377	60.94819
1010.545	-6.49763
1010.713	39.86879
1010.88	31.43768
1011.048	60.94819
1011.216	41.97663
1011.383	1.93177
1011.551	60.94819
1011.718	-8.60492
1011.886	8.25407
1012.054	31.43768
1012.221	-21.24814
1012.389	-61.27913
1012.556	86.24649
1012.724	-2.28298
1012.891	14.57659
1013.058	-19.141
1013.226	109.43943
1013.393	63.05626
1013.561	-23.35526
1013.728	56.73213
1013.895	31.43768
1014.063	23.00695
1014.23	25.11459
1014.397	52.51615
1014.565	25.11459
1014.732	14.57659
1014.899	-6.49763
1015.066	-17.03383
1015.233	63.05626
1015.401	35.65319
1015.568	94.67998
1015.735	35.65319
1015.902	65.16435
1016.069	69.38059
1016.236	10.36155
1016.403	33.54542
1016.57	8.25407
1016.737	52.51615
1016.904	-2.28298
1017.071	-27.56942
1017.238	71.48875
1017.405	101.00532
1017.572	52.51615
1017.739	-0.17561
1017.906	-21.24814
1018.073	-42.31821
1018.24	31.43768
1018.407	39.86879
1018.573	-2.28298
1018.74	52.51615
1018.907	-2.28298
1019.074	31.43768
1019.241	29.32996
1019.407	50.4082
1019.574	6.14661
1019.741	39.86879
1019.907	33.54542
1020.074	18.79172
1020.241	65.16435
1020.407	14.57659
1020.574	18.79172
1020.74	12.46906
1020.907	37.76098
1021.073	-35.99745
1021.24	56.73213
1021.406	60.94819
1021.573	107.33087
1021.739	-2.28298
1021.906	86.24649
1022.072	-25.46235
1022.239	46.19237
1022.405	48.30027
1022.571	-0.17561
1022.738	23.00695
1022.904	-48.63874
1023.07	143.17933
1023.237	82.02988
1023.403	33.54542
1023.569	56.73213
1023.735	44.08449
1023.902	52.51615
1024.068	14.57659
1024.234	-6.49763
1024.4	75.70514
1024.566	-19.141
1024.732	-10.71218
1024.898	18.79172
1025.065	44.08449
1025.231	-10.71218
1025.397	73.59693
1025.563	-69.70555
1025.729	46.19237
1025.895	50.4082
1026.061	65.16435
1026.227	12.46906
1026.392	14.57659
1026.558	-6.49763
1026.724	31.43768
1026.89	105.22233
1027.056	92.57157
1027.222	-42.31821
1027.388	75.70514
1027.553	35.65319
1027.719	6.14661
1027.885	-10.71218
1028.051	145.28826
1028.216	65.16435
1028.382	44.08449
1028.548	1.93177
1028.713	56.73213
1028.879	14.57659
1029.045	41.97663
1029.21	39.86879
1029.376	-42.31821
1029.541	44.08449
1029.707	75.70514
1029.873	-10.71218
1030.038	44.08449
1030.204	48.30027
1030.369	25.11459
1030.534	56.73213
1030.7	73.59693
1030.865	33.54542
1031.031	23.00695
1031.196	92.57157
1031.361	-48.63874
1031.527	14.57659
1031.692	-0.17561
1031.857	-10.71218
1032.023	-19.141
1032.188	31.43768
1032.353	6.14661
1032.518	124.19996
1032.684	50.4082
1032.849	103.11382
1033.014	14.57659
1033.179	-19.141
1033.344	-6.49763
1033.509	12.46906
1033.674	-6.49763
1033.839	58.84015
1034.004	63.05626
1034.17	77.81336
1034.335	44.08449
1034.5	-19.141
1034.664	-44.42508
1034.829	-2.28298
1034.994	-23.35526
1035.159	-8.60492
1035.324	56.73213
1035.489	-23.35526
1035.654	73.59693
1035.819	14.57659
1035.984	-8.60492
1036.148	4.03918
1036.313	65.16435
1036.478	-0.17561
1036.643	-10.71218
1036.807	31.43768
1036.972	4.03918
1037.137	84.13817
1037.301	25.11459
1037.466	-12.81942
1037.631	25.11459
1037.795	18.79172
1037.96	-35.99745
1038.124	69.38059
1038.289	25.11459
1038.454	31.43768
1038.618	60.94819
1038.783	4.03918
1038.947	39.86879
1039.111	77.81336
1039.276	39.86879
1039.44	23.00695
1039.605	-38.10439
1039.769	10.36155
1039.933	33.54542
1040.098	23.00695
1040.262	-17.03383
1040.426	27.22227
1040.591	82.02988
1040.755	46.19237
1040.919	31.43768
1041.083	69.38059
1041.248	48.30027
1041.412	-44.42508
1041.576	-23.35526
1041.74	-94.98234
1041.904	54.62413
1042.068	-0.17561
1042.232	10.36155
1042.397	16.68414
1042.561	-17.03383
1042.725	50.4082
1042.889	-52.8523
1043.053	12.46906
1043.217	6.14661
1043.381	6.14661
1043.544	33.54542
1043.708	18.79172
1043.872	16.68414
1044.036	29.32996
1044.2	82.02988
1044.364	31.43768
1044.528	-65.49239
1044.691	44.08449
1044.855	-0.17561
1045.019	-2.28298
1045.183	-27.56942
1045.346	39.86879
1045.51	10.36155
1045.674	44.08449
1045.837	23.00695
1046.001	-17.03383
1046.165	-17.03383
1046.328	39.86879
1046.492	52.51615
1046.655	-12.81942
1046.819	14.57659
1046.983	25.11459
1047.146	39.86879
1047.31	29.32996
1047.473	1.93177
1047.636	14.57659
1047.8	69.38059
1047.963	23.00695
1048.127	48.30027
1048.29	65.16435
