Data from mixed_try6.1_USB4F045381__21__00305.txt Node

Date: Thu Apr 03 20:33:33 EDT 2025
User: mmckonesweet
Spectrometer: USB4F04538
Trigger mode: 4
Integration Time (sec): 2.700000E-3
Scans to average: 1
Electric dark correction enabled: true
Nonlinearity correction enabled: true
Boxcar width: 0
XAxis mode: Wavelengths
Number of Pixels in Spectrum: 3648
>>>>>Begin Spectral Data<<<<<
345.52	22.48004
345.736	22.48004
345.952	22.48004
346.168	37.23403
346.384	-53.37899
346.6	-19.66778
346.816	41.44967
347.032	43.55752
347.248	5.61975
347.464	-21.77492
347.68	14.04971
347.896	-25.98912
348.112	56.20513
348.328	9.83468
348.544	24.58768
348.76	-53.37899
348.975	-74.44523
349.191	-7.02445
349.407	39.34183
349.623	-70.23219
349.839	-61.80579
350.055	-118.67593
350.27	51.98916
350.486	-53.37899
350.702	28.80304
350.918	43.55752
351.133	37.23403
351.349	-74.44523
351.565	-2.80981
351.781	1.40492
351.996	-28.09618
352.212	-2.80981
352.428	14.04971
352.644	-17.56062
352.859	-53.37899
353.075	-61.80579
353.291	11.94218
353.506	9.83468
353.722	-9.13173
353.938	-11.23899
354.153	7.72721
354.369	-40.73804
354.584	-19.66778
354.8	-9.13173
355.016	41.44967
355.231	-19.66778
355.447	43.55752
355.662	7.72721
355.878	-7.02445
356.093	-44.95179
356.309	58.31314
356.524	-23.88203
356.74	1.40492
356.955	-28.09618
357.171	37.23403
357.386	94.15287
357.602	-11.23899
357.817	16.15725
358.033	9.83468
358.248	39.34183
358.464	-25.98912
358.679	49.88122
358.895	70.96171
359.11	-28.09618
359.325	-32.31023
359.541	-68.12563
359.756	-44.95179
359.972	-23.88203
360.187	-0.70246
360.402	30.91075
360.618	-28.09618
360.833	-23.88203
361.048	-0.70246
361.264	-34.41722
361.479	-55.48573
361.694	5.61975
361.909	30.91075
362.125	3.51233
362.34	115.23808
362.555	14.04971
362.77	-23.88203
362.986	26.69535
363.201	-21.77492
363.416	64.63732
363.631	62.52924
363.847	-25.98912
364.062	1.40492
364.277	1.40492
364.492	-19.66778
364.707	18.26482
364.922	35.12624
365.138	-44.95179
365.353	-9.13173
365.568	-23.88203
365.783	22.48004
365.998	11.94218
366.213	39.34183
366.428	62.52924
366.643	-9.13173
366.858	41.44967
367.073	83.6111
367.288	-11.23899
367.503	16.15725
367.718	41.44967
367.933	-2.80981
368.148	73.06989
368.363	30.91075
368.578	22.48004
368.793	41.44967
369.008	43.55752
369.223	24.58768
369.438	-84.97739
369.653	64.63732
369.868	-28.09618
370.083	30.91075
370.298	20.37242
370.513	-40.73804
370.728	-51.27223
370.943	22.48004
371.157	-23.88203
371.372	14.04971
371.587	-28.09618
371.802	-19.66778
372.017	-19.66778
372.232	30.91075
372.446	30.91075
372.661	7.72721
372.876	-53.37899
373.091	30.91075
373.306	16.15725
373.52	24.58768
373.735	-19.66778
373.95	33.01848
374.165	-34.41722
374.379	5.61975
374.594	-9.13173
374.809	18.26482
375.023	14.04971
375.238	45.6654
375.453	-53.37899
375.667	16.15725
375.882	-13.34623
376.097	33.01848
376.311	5.61975
376.526	-2.80981
376.741	39.34183
376.955	35.12624
377.17	18.26482
377.384	-9.13173
377.599	14.04971
377.813	41.44967
378.028	-0.70246
378.242	-0.70246
378.457	-36.52418
378.672	64.63732
378.886	-19.66778
379.101	16.15725
379.315	37.23403
379.53	33.01848
379.744	-57.59244
379.958	-44.95179
380.173	-34.41722
380.387	-34.41722
380.602	14.04971
380.816	100.4782
381.031	-19.66778
381.245	-21.77492
381.459	-0.70246
381.674	22.48004
381.888	-23.88203
382.103	108.91229
382.317	28.80304
382.531	43.55752
382.746	-2.80981
382.96	-11.23899
383.174	-34.41722
383.388	-0.70246
383.603	-34.41722
383.817	-59.69913
384.031	-17.56062
384.246	-7.02445
384.46	-4.91714
384.674	-19.66778
384.888	9.83468
385.103	-59.69913
385.317	22.48004
385.531	3.51233
385.745	-19.66778
385.959	-17.56062
386.174	-11.23899
386.388	-53.37899
386.602	1.40492
386.816	-11.23899
387.03	16.15725
387.244	-53.37899
387.458	26.69535
387.672	41.44967
387.887	-44.95179
388.101	-4.91714
388.315	-23.88203
388.529	-9.13173
388.743	43.55752
388.957	-101.8275
389.171	20.37242
389.385	14.04971
389.599	70.96171
389.813	-68.12563
390.027	-51.27223
390.241	-34.41722
390.455	24.58768
390.669	-36.52418
390.883	35.12624
391.097	-15.45344
391.311	81.50281
391.525	51.98916
391.738	-15.45344
391.952	-25.98912
392.166	-36.52418
392.38	-59.69913
392.594	-44.95179
392.808	47.77329
393.022	1.40492
393.236	14.04971
393.449	-17.56062
393.663	-11.23899
393.877	-17.56062
394.091	14.04971
394.305	-23.88203
394.518	7.72721
394.732	-2.80981
394.946	14.04971
395.16	30.91075
395.373	41.44967
395.587	-28.09618
395.801	7.72721
396.015	-44.95179
396.228	1.40492
396.442	5.61975
396.656	-30.20322
396.869	-44.95179
397.083	-76.55171
397.297	60.42118
397.51	-11.23899
397.724	-70.23219
397.938	-11.23899
398.151	20.37242
398.365	9.83468
398.578	-23.88203
398.792	9.83468
399.005	7.72721
399.219	-11.23899
399.433	41.44967
399.646	14.04971
399.86	-44.95179
400.073	62.52924
400.287	-34.41722
400.5	-11.23899
400.714	-9.13173
400.927	56.20513
401.141	-42.84492
401.354	22.48004
401.567	16.15725
401.781	-2.80981
401.994	-36.52418
402.208	9.83468
402.421	81.50281
402.635	-25.98912
402.848	-15.45344
403.061	45.6654
403.275	-36.52418
403.488	-2.80981
403.701	-40.73804
403.915	49.88122
404.128	-7.02445
404.341	47.77329
404.555	20.37242
404.768	-53.37899
404.981	-40.73804
405.195	35.12624
405.408	-70.23219
405.621	-11.23899
405.834	-36.52418
406.048	-106.03976
406.261	-17.56062
406.474	1.40492
406.687	-15.45344
406.9	-66.01904
407.114	-7.02445
407.327	30.91075
407.54	28.80304
407.753	-17.56062
407.966	-15.45344
408.179	-53.37899
408.392	1.40492
408.605	1.40492
408.819	-0.70246
409.032	14.04971
409.245	5.61975
409.458	-51.27223
409.671	-0.70246
409.884	-32.31023
410.097	16.15725
410.31	-19.66778
410.523	-57.59244
410.736	73.06989
410.949	1.40492
411.162	41.44967
411.375	1.40492
411.588	-11.23899
411.801	49.88122
412.014	1.40492
412.227	5.61975
412.44	39.34183
412.653	-2.80981
412.865	-30.20322
413.078	20.37242
413.291	-21.77492
413.504	14.04971
413.717	56.20513
413.93	14.04971
414.143	-32.31023
414.356	28.80304
414.568	35.12624
414.781	14.04971
414.994	-61.80579
415.207	-17.56062
415.42	-23.88203
415.632	-23.88203
415.845	14.04971
416.058	3.51233
416.271	-32.31023
416.483	-84.97739
416.696	1.40492
416.909	1.40492
417.121	68.85356
417.334	-57.59244
417.547	33.01848
417.759	-34.41722
417.972	-0.70246
418.185	-36.52418
418.397	-23.88203
418.61	47.77329
418.823	-11.23899
419.035	-19.66778
419.248	-9.13173
419.46	56.20513
419.673	14.04971
419.885	89.9361
420.098	-34.41722
420.311	7.72721
420.523	-23.88203
420.736	14.04971
420.948	-9.13173
421.161	33.01848
421.373	26.69535
421.586	14.04971
421.798	70.96171
422.01	-49.16544
422.223	-127.0995
422.435	58.31314
422.648	9.83468
422.86	5.61975
423.073	33.01848
423.285	-2.80981
423.497	9.83468
423.71	35.12624
423.922	-13.34623
424.134	14.04971
424.347	51.98916
424.559	-19.66778
424.771	33.01848
424.984	41.44967
425.196	-11.23899
425.408	1.40492
425.621	-49.16544
425.833	-23.88203
426.045	22.48004
426.257	30.91075
426.47	-0.70246
426.682	-0.70246
426.894	-7.02445
427.106	5.61975
427.318	33.01848
427.531	-19.66778
427.743	5.61975
427.955	54.09713
428.167	113.12946
428.379	73.06989
428.591	-19.66778
428.804	14.04971
429.016	30.91075
429.228	20.37242
429.44	7.72721
429.652	35.12624
429.864	-70.23219
430.076	47.77329
430.288	11.94218
430.5	20.37242
430.712	98.36974
430.924	-4.91714
431.136	47.77329
431.348	24.58768
431.56	56.20513
431.772	11.94218
431.984	35.12624
432.196	20.37242
432.408	26.69535
432.62	33.01848
432.832	16.15725
433.044	1.40492
433.256	7.72721
433.468	-13.34623
433.679	7.72721
433.891	49.88122
434.103	-19.66778
434.315	60.42118
434.527	11.94218
434.739	16.15725
434.95	-59.69913
435.162	-2.80981
435.374	-28.09618
435.586	-53.37899
435.798	-40.73804
436.009	-25.98912
436.221	-7.02445
436.433	60.42118
436.645	24.58768
436.856	14.04971
437.068	22.48004
437.28	5.61975
437.491	7.72721
437.703	66.74543
437.915	24.58768
438.126	-9.13173
438.338	-9.13173
438.55	22.48004
438.761	7.72721
438.973	-17.56062
439.184	64.63732
439.396	22.48004
439.608	83.6111
439.819	73.06989
440.031	-17.56062
440.242	-47.05863
440.454	56.20513
440.665	-23.88203
440.877	92.04447
441.088	22.48004
441.3	-40.73804
441.511	-7.02445
441.723	-44.95179
441.934	-44.95179
442.146	-9.13173
442.357	-9.13173
442.569	58.31314
442.78	-36.52418
442.991	-40.73804
443.203	30.91075
443.414	41.44967
443.626	-15.45344
443.837	-59.69913
444.048	-7.02445
444.26	11.94218
444.471	-36.52418
444.682	-59.69913
444.894	83.6111
445.105	66.74543
445.316	20.37242
445.528	-2.80981
445.739	-0.70246
445.95	39.34183
446.161	-42.84492
446.373	18.26482
446.584	-0.70246
446.795	75.17808
447.006	16.15725
447.217	77.2863
447.429	-28.09618
447.64	5.61975
447.851	68.85356
448.062	9.83468
448.273	22.48004
448.484	-4.91714
448.695	-32.31023
448.907	5.61975
449.118	16.15725
449.329	18.26482
449.54	-42.84492
449.751	45.6654
449.962	-11.23899
450.173	49.88122
450.384	-19.66778
450.595	-11.23899
450.806	3.51233
451.017	-2.80981
451.228	16.15725
451.439	24.58768
451.65	26.69535
451.861	33.01848
452.072	-0.70246
452.283	5.61975
452.494	58.31314
452.705	-57.59244
452.915	-0.70246
453.126	5.61975
453.337	-32.31023
453.548	39.34183
453.759	30.91075
453.97	-53.37899
454.181	1.40492
454.391	66.74543
454.602	22.48004
454.813	100.4782
455.024	-21.77492
455.235	30.91075
455.445	18.26482
455.656	56.20513
455.867	22.48004
456.078	47.77329
456.288	20.37242
456.499	39.34183
456.71	9.83468
456.921	5.61975
457.131	11.94218
457.342	49.88122
457.553	60.42118
457.763	5.61975
457.974	75.17808
458.184	-23.88203
458.395	-7.02445
458.606	81.50281
458.816	-2.80981
459.027	47.77329
459.237	43.55752
459.448	49.88122
459.659	35.12624
459.869	89.9361
460.08	11.94218
460.29	35.12624
460.501	5.61975
460.711	81.50281
460.922	18.26482
461.132	68.85356
461.343	5.61975
461.553	5.61975
461.764	51.98916
461.974	16.15725
462.184	58.31314
462.395	56.20513
462.605	43.55752
462.816	20.37242
463.026	73.06989
463.236	3.51233
463.447	37.23403
463.657	81.50281
463.867	37.23403
464.078	33.01848
464.288	22.48004
464.498	28.80304
464.709	30.91075
464.919	47.77329
465.129	81.50281
465.339	64.63732
465.55	115.23808
465.76	-36.52418
465.97	20.37242
466.18	-9.13173
466.391	22.48004
466.601	-2.80981
466.811	66.74543
467.021	18.26482
467.231	24.58768
467.441	16.15725
467.651	35.12624
467.862	-0.70246
468.072	14.04971
468.282	-34.41722
468.492	47.77329
468.702	92.04447
468.912	49.88122
469.122	-40.73804
469.332	-36.52418
469.542	73.06989
469.752	43.55752
469.962	-34.41722
470.172	68.85356
470.382	41.44967
470.592	64.63732
470.802	115.23808
471.012	41.44967
471.222	56.20513
471.432	75.17808
471.642	49.88122
471.852	-9.13173
472.062	92.04447
472.272	106.80373
472.482	146.86997
472.691	14.04971
472.901	30.91075
473.111	26.69535
473.321	115.23808
473.531	66.74543
473.741	85.71941
473.95	117.34672
474.16	79.39455
474.37	60.42118
474.58	35.12624
474.79	148.97893
474.999	39.34183
475.209	123.67278
475.419	85.71941
475.628	51.98916
475.838	64.63732
476.048	83.6111
476.258	117.34672
476.467	125.7815
476.677	176.39736
476.886	123.67278
477.096	94.15287
477.306	94.15287
477.515	157.41499
477.725	127.89025
477.935	89.9361
478.144	144.76102
478.354	111.02086
478.563	201.70978
478.773	161.63315
478.982	178.50662
479.192	115.23808
479.401	172.17891
479.611	159.52406
479.82	117.34672
480.03	41.44967
480.239	216.47669
480.449	106.80373
480.658	216.47669
480.868	216.47669
481.077	235.46415
481.287	205.9288
481.496	212.25747
481.705	216.47669
481.915	235.46415
482.124	248.12334
482.333	224.91537
482.543	258.67319
482.752	237.57397
482.961	237.57397
483.171	199.6003
483.38	233.35436
483.589	237.57397
483.799	262.89326
484.008	271.33363
484.217	319.87153
484.426	326.20327
484.636	307.20854
484.845	421.19789
485.054	243.90353
485.263	313.53995
485.472	378.97385
485.682	313.53995
485.891	340.97794
486.1	374.75181
486.309	406.41873
486.518	400.08505
486.727	457.09336
486.936	410.64126
487.146	393.75151
487.355	336.75651
487.564	416.97519
487.773	528.89743
487.982	402.19626
488.191	516.2249
488.4	480.32222
488.609	429.64347
488.818	520.44902
489.027	575.36765
489.236	435.97783
489.445	600.71778
489.654	520.44902
489.863	583.81748
490.072	512.00084
490.281	579.59254
490.49	528.89743
490.698	526.78531
490.907	543.68269
491.116	689.45734
491.325	626.06974
491.534	693.68355
491.743	604.94298
491.952	700.02295
492.16	697.90981
492.369	668.32696
492.578	596.49263
492.787	727.49485
492.996	723.26828
493.204	869.10773
493.413	845.85499
493.622	604.94298
493.831	740.1748
494.039	900.81763
494.248	943.10024
494.457	945.21445
494.665	793.01189
494.874	934.64348
495.083	883.90545
495.291	960.01411
495.5	862.76597
495.709	976.92843
495.917	850.08269
496.126	1014.98719
496.335	1004.41511
496.543	1069.96443
496.752	970.58551
496.96	1074.1936
497.169	926.18683
497.377	1112.25708
497.586	1124.94526
497.794	1120.71585
498.003	1019.21607
498.211	1251.83485
498.42	1010.75834
498.628	1289.90392
498.837	1148.20733
499.045	1209.53692
499.254	1275.09919
499.462	1370.27407
499.671	1217.99641
499.879	1272.98424
500.087	1251.83485
500.296	1372.38911
500.504	1251.83485
500.713	1283.55902
500.921	1370.27407
501.129	1467.56621
501.338	1300.4788
501.546	1469.68126
501.754	1332.20371
501.962	1427.38022
502.171	1277.21415
502.379	1471.79631
502.587	1416.80498
502.795	1501.40699
503.004	1404.1147
503.212	1750.97066
503.42	1528.90252
503.628	1507.75213
503.837	1427.38022
504.045	1554.28285
504.253	1624.07767
504.461	1805.95381
504.669	1590.238
504.877	1685.4106
505.085	1700.21475
505.294	1856.70491
505.502	1653.68694
505.71	1941.28363
505.918	1704.44448
506.126	1905.33873
506.334	1579.663
506.542	2030.08122
506.75	1839.78817
506.958	1962.42691
507.166	1740.39667
507.374	2034.30939
507.582	1848.24658
507.79	1894.76639
507.998	1860.93404
508.206	1953.96967
508.414	1956.08399
508.622	2040.6516
508.83	2051.2218
509.037	1966.6555
509.245	1879.9649
509.453	1985.68382
509.661	2051.2218
509.869	2152.68645
510.077	1918.02535
510.285	2190.73104
510.492	1985.68382
510.7	2268.92511
510.908	2218.206
511.116	2279.49093
511.324	2161.14104
511.531	2205.52543
511.739	2165.36828
511.947	2230.88626
512.155	2085.04527
512.362	2325.97777
512.57	2296.39577
512.778	2256.24582
512.985	2239.33959
513.193	2423.16206
513.401	2319.63893
513.608	2503.42789
513.816	2264.69872
514.024	2372.4599
514.231	2273.15147
514.439	2372.4599
514.646	2456.96013
514.854	2503.42789
515.061	2374.57261
515.269	2579.45414
515.477	2319.63893
515.684	2524.5478
515.892	2347.1066
516.099	2668.13177
516.307	2628.0184
516.514	2689.24224
516.722	2484.419
516.929	2609.01576
517.136	2471.74591
517.344	2752.56586
517.551	2596.34678
517.759	2758.89757
517.966	2788.44394
518.173	2921.3689
518.381	2803.21613
518.588	2874.95705
518.796	2699.797
519.003	2828.5383
519.21	2737.79141
519.418	2953.00928
519.625	2769.45015
519.832	2934.02545
520.039	2910.82136
520.247	2950.90003
520.454	2908.71182
520.661	3170.18051
520.868	3083.75358
521.076	3269.22153
521.283	3012.06237
521.49	3170.18051
521.697	3090.07841
521.904	3094.29489
522.112	2889.72522
522.319	3201.79332
522.526	3033.14988
522.733	3326.10064
522.94	2995.19127
523.147	3047.91022
523.354	3193.3636
523.561	3267.11466
523.768	2982.5373
523.975	3305.03575
524.183	3216.5447
524.39	3359.80086
524.597	3446.13719
524.804	3700.75619
525.011	3214.43741
525.218	3317.67489
525.425	3540.86188
525.632	3515.60557
525.838	3273.43522
526.045	3397.70827
526.252	3406.13136
526.459	3545.07101
526.666	3418.76548
526.873	3553.48904
527.08	3595.57477
527.287	3730.19843
527.494	3435.60996
527.701	3850.03103
527.907	3511.39593
528.114	3908.87263
528.321	3553.48904
528.528	3791.17386
528.735	3694.44664
528.941	3780.66203
529.148	3542.96645
529.355	3843.72565
529.562	3831.11435
529.768	3936.1866
529.975	3784.86682
530.182	3877.3523
530.388	3471.40069
530.595	3957.19501
530.802	3603.99102
531.008	4016.00775
531.215	3997.1054
531.422	3957.19501
531.628	4026.50833
531.835	4160.87005
532.042	3908.87263
532.248	4102.0973
532.455	3965.59781
532.661	4240.60664
532.868	3982.40243
533.074	4376.92659
533.281	4081.10306
533.487	4351.76669
533.694	4328.70071
533.9	4374.83005
534.107	4353.86347
534.313	4345.47623
534.52	4343.37936
534.726	4490.10725
534.933	4204.93879
535.139	4460.77026
535.345	4301.43755
535.552	4500.58371
535.758	4418.85279
535.965	4582.28105
536.171	4395.79446
536.377	4653.47675
536.584	4603.22364
536.79	4632.53952
536.996	4611.60005
537.203	4561.33623
537.409	4529.91484
537.615	4555.05235
537.821	4634.63334
538.028	4848.08491
538.234	4722.55365
538.44	4781.14507
538.646	4804.15827
538.853	4756.03664
539.059	4502.67893
539.265	4678.59845
539.471	4722.55365
539.677	4789.51383
539.883	4804.15827
540.09	4912.91059
540.296	4933.8174
540.502	5163.6401
540.708	4795.79015
540.914	5075.92266
541.12	4885.7283
541.326	5138.58215
541.532	4992.34425
541.738	4937.99849
541.944	4720.46077
542.15	5232.53214
542.356	5075.92266
542.562	5040.40636
542.768	5019.51129
542.974	5332.69335
543.18	5232.53214
543.386	5293.05265
543.592	5201.22072
543.798	5313.91723
544.004	5084.27847
544.21	5359.81106
544.415	5305.57168
544.621	5512.01371
544.827	5222.09559
545.033	5547.44017
545.239	5363.98266
545.445	5722.38854
545.651	5582.85982
545.856	5666.17329
546.062	5553.69119
546.268	5668.25564
546.474	5389.01031
546.679	5616.18974
546.885	5480.74943
547.091	5601.60864
547.297	5547.44017
547.502	5522.43397
547.708	5449.47984
547.914	5624.52127
548.119	5614.10679
548.325	5649.51362
548.531	5420.29012
548.736	5755.69317
548.942	5664.09091
549.147	5747.36758
549.353	5720.3068
549.559	5745.28612
549.764	5697.40611
549.97	5909.64847
550.175	5863.89147
550.381	5990.73509
550.586	5743.20464
550.792	5897.17042
550.997	5868.05167
551.203	6105.02711
551.408	5872.21177
551.614	6015.6776
551.819	5722.38854
552.025	6260.76529
552.23	6063.47461
552.435	6219.24801
552.641	6188.1039
552.846	6227.55222
553.052	6362.44307
553.257	6281.52042
553.462	6111.25917
553.668	6304.34835
553.873	5899.25015
554.078	6441.25665
554.283	6208.86723
554.489	6439.18304
554.694	6364.51754
554.899	6445.4038
555.105	6349.99574
555.31	6470.28476
555.515	6240.00782
555.72	6453.69782
555.925	6383.18675
556.131	6491.01633
556.336	6300.19803
556.541	6720.98154
556.746	6341.69706
556.951	6696.13412
557.156	6372.8152
557.361	6611.21379
557.567	6486.8702
557.772	6588.4237
557.977	6435.03574
558.182	6822.40763
558.387	6464.06483
558.592	6571.84733
558.797	6528.32733
559.002	6743.75545
559.207	6617.42879
559.412	6557.3418
559.617	6563.5586
559.822	6878.27208
560.027	6594.63946
560.232	6669.21235
560.437	6455.77127
560.642	6607.07035
560.847	6814.13001
561.051	6809.99106
561.256	6627.78665
561.461	6843.1001
561.666	6739.61494
561.871	6969.27502
562.076	6898.95842
562.281	7101.56505
562.485	6880.34082
562.69	7161.47881
562.895	6785.15545
563.1	7087.1003
563.305	6859.65244
563.509	7039.56554
563.714	6729.26328
563.919	7099.49873
564.123	6869.99691
564.328	6927.91548
564.533	7029.23033
564.737	6958.93598
564.942	7054.0339
565.147	7235.82852
565.351	7194.52667
565.556	7419.5151
565.761	7095.36601
565.965	7140.82101
566.17	7149.0844
566.374	7343.17207
566.579	6996.15388
566.784	7433.95502
566.988	7080.90079
567.193	7149.0844
567.397	7097.43238
567.602	7279.18596
567.806	6913.4375
568.011	7487.57973
568.215	7308.08552
568.42	7491.7041
568.624	7264.73456
568.828	7374.12554
569.033	7275.0571
569.237	7314.27773
569.442	7299.82894
569.646	7169.74131
569.85	7359.6812
570.055	7631.8817
570.259	7407.13717
570.463	7712.23324
570.668	7231.69873
570.872	7668.97103
571.076	7901.65402
571.281	7603.02969
571.485	7605.09068
571.689	7695.75349
571.893	7794.61179
572.098	7668.97103
572.302	7784.3163
572.506	7697.81354
572.71	7654.54822
572.914	7986.01337
573.119	7965.44109
573.323	7629.82098
573.527	7553.55937
573.731	7821.37761
573.935	7895.48003
574.139	8173.12795
574.343	7576.23479
574.547	7771.96103
574.751	7920.17488
574.955	7887.24775
575.159	7763.72376
575.364	7959.26901
575.568	8039.49174
575.772	8039.49174
575.976	7901.65402
576.18	7936.63647
576.383	8058.00029
576.587	8169.01733
576.791	7835.78852
576.995	8193.67986
577.199	8154.62953
577.403	8055.94387
577.607	8187.5145
577.811	8255.3237
578.015	8306.68001
578.219	8339.54163
578.422	8014.81112
578.626	8409.35605
578.83	8053.88742
579.034	8390.87794
579.238	8000.41274
579.442	8347.75626
579.645	8162.85125
579.849	8300.5179
580.053	8546.86652
580.257	8189.56964
580.46	8382.66495
580.664	8694.5445
580.868	8263.54153
581.071	8565.33158
581.275	8415.51508
581.479	8577.64077
581.682	8460.67596
581.886	8575.58928
582.09	8567.38316
582.293	8743.74912
582.497	8382.66495
582.7	8530.45185
582.904	8475.04338
583.107	8495.56666
583.311	8819.58559
583.515	8997.80674
583.718	8534.55563
583.922	8999.85448
584.125	8532.50375
584.329	8854.42105
584.532	8753.99875
584.735	8901.54311
584.939	8696.59491
585.142	8897.44592
585.346	8704.79634
585.549	8774.49664
585.753	8823.68415
585.956	8924.07641
586.159	8686.3427
586.363	9143.15294
586.566	8899.49453
586.769	8969.13656
586.973	8797.04221
587.176	9108.35968
587.379	8729.39886
587.582	9024.42598
587.786	8803.19062
587.989	9163.61725
588.192	9222.95414
588.395	9249.54883
588.599	8958.89637
588.802	9323.18089
589.005	8917.93118
589.208	9539.86298
589.411	9386.56907
589.615	9198.40268
589.818	9085.84374
590.021	9480.60007
590.224	9155.43173
590.427	9171.8025
590.63	9274.09525
590.833	9366.123
591.036	9323.18089
591.239	9590.94099
591.442	9409.05787
591.645	9725.74005
591.848	9599.11256
592.051	9817.61026
592.254	9312.9555
592.457	9654.2641
592.66	9737.99118
592.863	9686.94116
593.066	9413.14653
593.269	9709.40435
593.472	9582.76917
593.675	9744.11654
593.878	9523.51593
594.081	9772.69976
594.284	9566.42478
594.486	9789.03169
594.689	9835.98064
594.892	9907.40959
595.095	9697.15193
595.298	9848.22689
595.5	9793.11452
595.703	9956.37903
595.906	9735.94936
596.109	10060.41145
596.311	9797.19729
596.514	10093.04143
596.717	9858.43169
596.92	10148.09636
597.122	9942.09715
597.325	9829.85731
597.528	9658.34895
597.73	10056.33245
597.933	9668.5608
598.136	10152.1741
598.338	9960.45944
598.541	10164.40698
598.743	10353.95386
598.946	10276.51872
599.148	10278.55673
599.351	10223.52559
599.554	10091.00216
599.756	10203.14117
599.959	10372.29095
600.161	10254.09967
600.363	10284.6707
600.566	10184.79402
600.768	9958.41925
600.971	10205.17967
601.173	10003.30024
601.376	10463.96053
601.578	10300.97401
601.78	10470.0709
601.983	9948.21804
602.185	10358.02886
602.388	10415.07337
602.59	10156.25178
602.792	10341.72854
602.995	10117.51155
603.197	10290.78454
603.399	10665.5428
603.601	10531.1683
603.804	10380.44043
604.006	10433.40693
604.208	10282.63272
604.41	10394.70151
604.613	10404.8876
604.815	10239.83215
605.017	10514.87678
605.219	10545.42272
605.421	10241.8704
605.623	10406.92478
605.826	10632.97212
606.028	10274.48069
606.23	10746.95591
606.432	10559.67652
606.634	10781.55067
606.836	10459.88688
607.038	10673.68498
607.24	10339.69094
607.442	10523.02264
607.644	10588.18228
607.846	10624.82895
608.048	10396.73875
608.25	10614.64972
608.452	10394.70151
608.654	10834.45372
608.856	10795.79458
609.058	10925.99815
609.26	10539.31376
609.462	10518.94974
609.664	10498.58445
609.866	10502.65761
610.067	10852.76447
610.269	10732.71
610.471	10545.42272
610.673	10932.10028
610.875	10887.34889
611.077	11066.32185
611.278	10755.09616
611.48	10659.43604
611.682	10527.0955
611.884	11068.35514
612.085	10632.97212
612.287	10952.44001
612.489	11019.55315
612.69	11056.15523
612.892	10767.30619
613.094	10848.6955
613.295	10531.1683
613.497	10944.30426
613.699	10836.48829
613.9	10956.50782
614.102	10905.65695
614.304	11035.82118
614.505	10826.3153
614.707	10921.93
614.908	11001.25077
615.11	10803.9337
615.311	10771.3761
615.513	10938.20232
615.714	10803.9337
615.916	11106.98559
616.117	10982.94749
616.319	10897.52015
616.52	10700.14573
616.722	11045.98834
616.923	10799.86416
617.124	10966.67715
617.326	10869.03991
617.527	11052.08851
617.729	11204.56112
617.93	11096.82006
618.131	11064.28854
618.333	11235.0485
618.534	10862.93671
618.735	11186.26756
618.937	10948.37215
619.138	11035.82118
619.339	10907.69112
619.54	11161.87483
619.742	10925.99815
619.943	11381.35592
620.144	11165.94039
620.345	11230.98365
620.546	11222.85383
620.748	11462.61553
620.949	11115.11782
621.15	11259.43673
621.351	11117.15085
621.552	11243.17808
621.753	10854.79894
621.954	11235.0485
622.155	10893.45168
622.356	11344.78396
622.558	10877.17735
622.759	11241.1457
622.96	10793.75977
623.161	11340.72021
623.362	10970.7448
623.563	11338.68832
623.764	11401.67229
623.965	11145.61216
624.166	11316.33687
624.366	11377.29253
624.567	10946.33821
624.768	11251.30749
624.969	10777.48088
625.17	11556.04508
625.371	11377.29253
625.572	11271.63029
625.773	11251.30749
625.973	11501.20843
626.174	11296.01631
626.375	11391.51423
626.576	11430.11356
626.777	11554.01422
626.977	11188.30022
627.178	11645.39401
627.379	11174.07139
627.58	11592.59907
627.78	11165.94039
627.981	11224.8863
628.182	11318.36887
628.382	11531.67409
628.583	11456.5216
628.784	11649.45491
628.984	11141.54639
629.185	11771.26518
629.386	11043.95493
629.586	11614.93614
629.787	11230.98365
629.987	11462.61553
630.188	11608.84432
630.388	11933.63068
630.589	11570.26088
630.79	11842.30671
630.99	11336.65642
631.191	11245.21045
631.391	11535.73601
631.591	11649.45491
631.792	11428.0821
631.992	11840.27709
632.193	11594.62976
632.393	11631.18059
632.594	11432.145
632.794	11568.23008
632.994	11523.55012
633.195	11720.51476
633.395	11161.87483
633.595	11675.84984
633.796	11560.10679
633.996	11903.19122
634.196	11982.33002
634.397	11805.77237
634.597	11960.01006
634.797	11986.38809
634.997	11505.27064
635.198	11673.81952
635.398	11454.49027
635.598	11813.89135
635.798	11547.92157
635.998	11714.42434
636.199	11683.97106
636.399	12033.0536
636.599	11521.5191
636.799	11578.38399
636.999	11419.95618
637.199	11755.02564
637.399	12051.31288
637.599	11750.96567
637.799	11527.61212
637.999	11927.54293
638.199	11763.14548
638.399	12033.0536
638.599	11850.42508
638.799	12225.75932
638.999	12006.67795
639.199	11805.77237
639.399	11807.80213
639.599	12004.649
639.799	11891.01491
639.999	12035.08244
640.199	11858.54331
640.399	12377.84887
640.599	11704.27347
640.799	12160.85549
640.998	12051.31288
641.198	11996.53312
641.398	11580.41474
641.598	12002.62004
641.798	11917.39653
641.997	11945.80595
642.197	12035.08244
642.397	12442.72862
642.597	11868.69092
642.796	12274.43229
642.996	11994.50413
643.196	12075.65761
643.395	12047.25532
643.595	12053.34165
643.795	11852.45465
643.994	12065.51411
644.194	11953.92264
644.394	12179.11046
644.593	11951.89348
644.793	12148.68518
644.992	12177.08216
645.192	12211.56225
645.392	12302.82297
645.591	12432.59161
645.791	12140.57149
645.99	12302.82297
646.19	12057.39917
646.389	12061.45665
646.589	12205.47768
646.788	12325.12896
646.987	12130.42921
647.187	12683.94227
647.386	12014.79368
647.586	12436.64643
647.785	12296.73937
647.984	12623.14039
648.184	12598.81811
648.383	12446.78337
648.582	12533.95434
648.782	12430.56419
648.981	12343.37869
649.18	12351.4895
649.38	12258.20843
649.579	12529.90014
649.778	12566.38703
649.977	12527.87303
650.177	12266.32042
650.376	12604.89876
650.575	12355.54486
650.774	12558.27901
650.973	12286.5999
651.173	12205.47768
651.372	12438.67383
651.571	12598.81811
651.77	12432.59161
651.969	12450.8381
652.168	12533.95434
652.367	12690.02216
652.566	12260.23644
652.765	12639.35475
652.964	12203.44948
653.163	12323.10118
653.362	12314.98998
653.561	12331.21226
653.76	12390.01435
653.959	12621.11357
654.158	12746.76529
654.357	12817.68788
654.556	12477.19321
654.755	12835.92401
654.954	12511.65593
655.153	12615.03306
655.352	12592.7374
655.551	12675.83566
655.749	12515.71024
655.948	12651.51527
656.147	12604.89876
656.346	12765.00319
656.545	12509.62876
656.743	12586.65664
656.942	12730.55343
657.141	12779.1879
657.34	12900.76003
657.538	12918.99417
657.737	12868.34271
657.936	12900.76003
658.135	12533.95434
658.333	12758.92394
658.532	12777.16153
658.731	12819.71414
658.929	12698.1286
659.128	12793.37234
659.326	12752.84464
659.525	12973.69406
659.724	12760.95036
659.922	13050.67281
660.121	12513.68309
660.319	12803.50391
660.518	12617.0599
660.716	12868.34271
660.915	13034.46736
661.113	12866.31658
661.312	12687.99554
661.51	12789.31967
661.709	12858.21202
661.907	12777.16153
662.105	12829.84535
662.304	12947.35755
662.502	12742.71236
662.701	12933.17598
662.899	12424.48188
663.097	12801.47761
663.296	12746.76529
663.494	12957.48708
663.692	12959.51297
663.891	12886.57762
664.089	12651.51527
664.287	12850.10737
664.485	12797.42499
664.684	13004.08127
664.882	12700.1552
665.08	12923.04614
665.278	12667.72896
665.476	12908.86414
665.675	13030.41594
665.873	12967.61648
666.071	12937.22788
666.269	13068.90358
666.467	12477.19321
666.665	13000.02971
666.863	12833.8978
667.061	13085.10837
667.259	13077.00601
667.457	13139.7973
667.655	13004.08127
667.853	13129.66998
668.051	12842.00263
668.249	12908.86414
668.447	12809.58279
668.645	12983.82326
668.843	12866.31658
669.041	13216.7612
669.239	13012.18434
669.437	13101.31286
669.635	13111.44051
669.833	12785.26698
670.031	13105.36393
670.229	12941.27976
670.426	12681.91563
670.624	13117.51704
670.822	12590.71049
671.02	12955.46118
671.218	12712.31465
671.415	12647.46179
671.613	12600.845
671.811	12690.02216
672.009	12797.42499
672.206	13127.6445
672.404	12803.50391
672.602	13105.36393
672.799	12839.97643
672.997	13046.62148
673.195	12801.47761
673.392	13068.90358
673.59	13052.69847
673.788	12957.48708
673.985	12533.95434
674.183	12868.34271
674.38	12775.13515
674.578	13129.66998
674.775	12933.17598
674.973	13004.08127
675.17	13048.64715
675.368	13147.89908
675.565	12546.11679
675.763	12939.25383
675.96	12882.52545
676.158	13239.03901
676.355	12923.04614
676.553	13279.54277
676.75	12661.64887
676.947	13178.28007
677.145	12833.8978
677.342	13160.0516
677.539	12931.15003
677.737	13020.28732
677.934	12961.53885
678.131	13198.5335
678.329	12979.77159
678.526	13002.05549
678.723	12671.78232
678.92	13267.39182
679.118	12914.94217
679.315	12876.44717
679.512	12513.68309
679.709	12981.79743
679.906	12509.62876
680.104	12598.81811
680.301	12527.87303
680.498	12568.41402
680.695	12460.97482
680.892	12497.46562
681.089	12292.6836
681.286	12977.74575
681.483	12319.04559
681.68	12801.47761
681.877	12475.16594
682.075	13002.05549
682.272	12596.79122
682.469	12927.09809
682.665	12898.73398
682.862	12868.34271
683.059	12726.50041
683.256	12949.38346
683.453	12767.02959
683.65	12785.26698
683.847	12659.62217
684.044	12854.1597
684.241	12748.79174
684.438	12906.83812
684.635	12404.2071
684.831	13093.21065
685.028	12690.02216
685.225	12732.57993
685.422	12396.097
685.619	12829.84535
685.815	12404.2071
686.012	12602.87189
686.209	12396.097
686.405	12529.90014
686.602	12286.5999
686.799	12252.12436
686.996	12333.24002
687.192	12390.01435
687.389	12404.2071
687.586	12546.11679
687.782	12657.59545
687.979	12639.35475
688.175	12436.64643
688.372	12529.90014
688.568	12428.53676
688.765	12387.98679
688.962	12041.16891
689.158	12108.11553
689.355	12097.97264
689.551	12246.04023
689.748	12517.73739
689.944	12687.99554
690.14	12525.84591
690.337	12730.55343
690.533	12542.06266
690.73	12317.01779
690.926	12258.20843
691.123	12426.50932
691.319	12041.16891
691.515	12408.26211
691.712	11988.41711
691.908	12420.42698
692.104	12525.84591
692.301	12679.88898
692.497	12402.17958
692.693	12223.73119
692.889	12093.91543
693.086	12047.25532
693.282	12276.46025
693.478	12550.17088
693.674	12118.25822
693.87	12106.08696
694.067	12000.59108
694.263	12256.18041
694.459	12357.57253
694.655	12663.67558
694.851	12296.73937
695.047	12440.70123
695.243	12572.46798
695.439	12570.441
695.635	12252.12436
695.831	12168.96888
696.027	12100.00123
696.224	12118.25822
696.42	12097.97264
696.615	12402.17958
696.811	12173.02554
697.007	12193.30835
697.203	12095.94404
697.399	12777.16153
697.595	12608.9525
697.791	12252.12436
697.987	12266.32042
698.183	12430.56419
698.379	12209.53407
698.575	12592.7374
698.77	12493.41119
698.966	12246.04023
699.162	12359.6002
699.358	12436.64643
699.554	11935.65991
699.749	12284.57198
699.945	11893.04432
700.141	12197.36482
700.337	11893.04432
700.532	12233.87177
700.728	12035.08244
700.924	12095.94404
701.119	11927.54293
701.315	12069.57153
701.511	11927.54293
701.706	12229.81556
701.902	12097.97264
702.097	12237.92795
702.293	11960.01006
702.489	12197.36482
702.684	12102.02982
702.88	12065.51411
703.075	12134.48615
703.271	12049.2841
703.466	11925.51367
703.662	12270.37637
703.857	12144.62835
704.053	12363.65551
704.248	12006.67795
704.443	12369.73842
704.639	11854.48421
704.834	11828.09924
705.03	11740.81558
705.225	11728.6352
705.42	11755.02564
705.616	11994.50413
705.811	11803.74261
706.006	12097.97264
706.202	11986.38809
706.397	11657.57659
706.592	11819.9805
706.787	11923.4844
706.983	11744.87564
707.178	11953.92264
707.373	11694.12237
707.568	11860.57285
707.763	11663.66775
707.959	11925.51367
708.154	12051.31288
708.349	11957.98093
708.544	12059.42791
708.739	12055.37041
708.934	11647.42446
709.129	11777.35487
709.324	11738.78554
709.519	12079.71496
709.714	11752.99566
709.909	11858.54331
710.104	11844.33631
710.299	11627.11954
710.494	11813.89135
710.689	12142.59993
710.884	11718.48463
711.079	11868.69092
711.274	11608.84432
711.469	11876.80885
711.664	11683.97106
711.859	12110.14408
712.054	11880.86777
712.249	11893.04432
712.443	11876.80885
712.638	11949.86431
712.833	11661.63737
713.028	11955.95179
713.223	11738.78554
713.417	11710.36402
713.612	11326.49677
713.807	11878.83831
714.002	11568.23008
714.196	11533.70505
714.391	11454.49027
714.586	11462.61553
714.78	11466.67811
714.975	11659.60698
715.17	11361.03856
715.364	11929.57219
715.559	11807.80213
715.754	11661.63737
715.948	11649.45491
716.143	11769.23527
716.337	11486.9904
716.532	11744.87564
716.726	11683.97106
716.921	11657.57659
717.115	11359.00677
717.31	11434.17644
717.504	11466.67811
717.699	11943.77676
717.893	11562.13762
718.088	11919.42583
718.282	11856.51377
718.476	11746.90566
718.671	11582.44549
718.865	11771.26518
719.059	11419.95618
719.254	11489.02157
719.448	11200.49596
719.642	11511.36389
719.837	11257.40444
720.031	11121.21688
720.225	11033.78771
720.419	11348.84767
720.614	11194.39814
720.808	11430.11356
721.002	11243.17808
721.196	11157.80923
721.39	11137.48057
721.585	11511.36389
721.779	11352.91134
721.973	11411.8301
722.167	10877.17735
722.361	11228.95121
722.555	11023.62022
722.749	11178.13682
722.943	11117.15085
723.137	11267.56581
723.331	10997.18345
723.525	11261.46902
723.719	10952.44001
723.913	11104.95251
724.107	10964.6433
724.301	10991.08239
724.495	10830.38454
724.689	11086.65426
724.883	10767.30619
725.077	11273.66251
725.271	11060.22191
725.465	11310.24081
725.659	10757.1312
725.853	11074.45494
726.046	11129.34881
726.24	11218.78886
726.434	11025.65374
726.628	11269.59806
726.822	11338.68832
727.015	11318.36887
727.209	11001.25077
727.403	11117.15085
727.596	11102.91941
727.79	11263.50129
727.984	11088.68744
728.177	11361.03856
728.371	11011.41887
728.565	11269.59806
728.758	11202.52854
728.952	11220.82135
729.146	10919.89591
729.339	11096.82006
729.533	10850.72999
729.726	10871.07429
729.92	10763.23623
730.113	10692.00418
730.307	10942.27029
730.5	10862.93671
730.694	10895.48592
730.887	11043.95493
731.081	10974.81241
731.274	10938.20232
731.468	10616.68559
731.661	11056.15523
731.854	11096.82006
732.048	11237.08091
732.241	10867.00552
732.435	10978.87997
732.628	11001.25077
732.821	10987.01496
733.014	11133.41471
733.208	11052.08851
733.401	11263.50129
733.594	11027.68725
733.788	11228.95121
733.981	11249.27515
734.174	11163.90762
734.367	11224.8863
734.56	10877.17735
734.754	11210.65878
734.947	10950.40609
735.14	11167.97316
735.333	11194.39814
735.526	11056.15523
735.719	10966.67715
735.912	11194.39814
736.105	11025.65374
736.298	11035.82118
736.491	10913.79356
736.684	11155.77641
736.877	10970.7448
737.07	10765.27121
737.263	10881.246
737.456	11019.55315
737.649	10848.6955
737.842	10877.17735
738.035	10716.42825
738.228	10594.29034
738.421	10565.7851
738.614	10746.95591
738.807	10901.58857
739	10816.14202
739.192	10838.52286
739.385	10932.10028
739.578	10755.09616
739.771	10812.07263
739.964	10582.07411
740.156	10970.7448
740.349	10657.40042
740.542	11131.38177
740.735	10810.03791
740.927	11052.08851
741.12	10889.38317
741.313	10950.40609
741.505	11009.38527
741.698	10805.96845
741.891	10787.65528
742.083	10712.35769
742.276	10808.00319
742.468	10755.09616
742.661	10449.70254
742.854	10449.70254
743.046	10282.63272
743.239	10539.31376
743.431	10748.99099
743.624	10518.94974
743.816	10480.2546
744.009	10673.68498
744.201	10203.14117
744.393	10590.21831
744.586	10510.80377
744.778	10561.71273
744.971	10545.42272
745.163	10917.8618
745.355	10333.57806
745.548	10651.29351
745.74	10478.21789
745.932	10470.0709
746.125	10608.54204
746.317	10716.42825
746.509	10700.14573
746.702	10824.28067
746.894	10716.42825
747.086	10488.40133
747.278	10425.25881
747.471	10445.62872
747.663	10673.68498
747.855	10714.39298
748.047	10504.69417
748.239	10641.11508
748.431	10582.07411
748.623	10453.77632
748.815	10525.05908
749.008	10952.44001
749.2	10694.03959
749.392	10755.09616
749.584	10565.7851
749.776	10777.48088
749.968	10347.84126
750.16	10722.534
750.352	10343.76612
750.544	10598.36231
750.736	10580.03802
750.928	10791.72495
751.12	10370.25355
751.311	10584.11018
751.503	10704.21643
751.695	10518.94974
751.887	10262.25224
752.079	10360.06634
752.271	10303.01186
752.463	10303.01186
752.654	10482.2913
752.846	10364.14127
753.038	10339.69094
753.23	10527.0955
753.421	10380.44043
753.613	10227.60231
753.805	10431.36992
753.997	10557.6403
754.188	10290.78454
754.38	10406.92478
754.572	10178.67805
754.763	10364.14127
754.955	10007.37998
755.146	10125.6678
755.338	9968.62009
755.53	10241.8704
755.721	10190.90986
755.913	10223.52559
756.104	9750.24177
756.296	9974.74041
756.487	9723.69814
756.679	9938.01648
756.87	9721.65621
757.062	9803.32134
757.253	9919.65274
757.445	10135.86281
757.636	9899.2472
757.827	9948.21804
758.019	9960.45944
758.21	10170.52324
758.401	9972.70032
758.593	10042.05549
758.784	9927.81455
758.975	10042.05549
759.167	10056.33245
759.358	9995.14058
759.549	9676.73
759.74	9864.5544
759.932	10074.68751
760.123	9737.99118
760.314	9617.49767
760.505	9817.61026
760.696	9566.42478
760.888	9803.32134
761.079	9592.9839
761.27	9366.123
761.461	9648.13671
761.652	9842.10383
761.843	9729.82382
762.034	9991.06066
762.225	9560.29537
762.416	9811.48653
762.607	9433.58886
762.798	9750.24177
762.989	9515.34202
763.18	9691.02551
763.371	9261.82234
763.562	9505.12428
763.753	9351.80977
763.944	9676.73
764.135	9235.22897
764.326	9494.90614
764.517	9290.45819
764.708	9562.33852
764.899	9237.27471
765.089	9075.60853
765.28	9378.39084
765.471	9458.11751
765.662	9120.64022
765.853	9601.15541
766.043	9114.50002
766.234	9329.31592
766.425	8956.84828
766.615	9333.40586
766.806	8969.13656
766.997	9370.21234
767.187	8942.51114
767.378	9022.37845
767.569	8983.47208
767.759	8999.85448
767.95	9188.17218
768.141	9433.58886
768.331	9302.7297
768.522	9302.7297
768.712	9100.1723
768.903	8868.76355
769.093	8987.56779
769.284	8895.39729
769.474	8866.71468
769.665	9034.66336
769.855	8934.31811
770.046	9044.90031
770.236	8780.64565
770.426	8893.34865
770.617	8874.91007
770.807	8934.31811
770.998	9053.08955
771.188	9069.4672
771.378	8893.34865
771.569	8856.47003
771.759	8573.53778
771.949	8495.56666
772.139	8655.58331
772.33	8468.88603
772.52	8553.02171
772.71	8899.49453
772.9	8557.12508
773.09	8555.0734
773.281	8760.14831
773.471	8548.91827
773.661	8747.84902
773.851	8688.39318
774.041	8458.62339
774.231	9040.80558
774.421	8723.24848
774.611	8643.27838
774.802	8630.97279
774.992	8571.48626
775.182	8470.9385
775.372	8536.6075
775.562	8468.88603
775.752	8548.91827
775.942	8082.67581
776.131	8362.1311
776.321	8347.75626
776.511	8485.30526
776.701	8501.72327
776.891	8337.48793
777.081	8557.12508
777.271	8302.57196
777.461	8501.72327
777.651	8559.17673
777.84	8452.46558
778.03	8236.83242
778.22	8327.21911
778.41	8238.88708
778.599	8470.9385
778.789	8540.71116
778.979	8049.77447
779.169	8306.68001
779.358	7899.59604
779.548	8206.01006
779.738	8265.59594
779.927	8121.73945
780.117	8230.6683
780.307	8212.17489
780.496	8018.92476
780.686	8210.11996
780.875	8220.39438
781.065	8339.54163
781.254	7848.13991
781.444	8047.71797
781.633	8039.49174
781.823	7850.19841
782.012	7862.54893
782.202	8086.78812
782.391	7870.7822
782.581	8058.00029
782.77	7893.42199
782.96	7916.05928
783.149	7666.91069
783.338	7909.88572
783.528	7782.25714
783.717	7839.90573
783.906	7728.71164
784.096	7872.84047
784.285	7691.63335
784.474	7755.48616
784.663	7763.72376
784.853	7598.90763
785.042	7454.58164
785.231	7557.68237
785.42	7510.26272
785.61	7425.70376
785.799	7025.09609
785.988	7502.01466
786.177	7487.57973
786.366	7454.58164
786.555	7833.72988
786.744	7706.05349
786.933	7413.32623
787.122	7668.97103
787.312	7697.81354
787.501	7629.82098
787.69	7473.14375
787.879	7553.55937
788.068	7425.70376
788.257	7596.84657
788.445	7277.12154
788.634	7561.80528
788.823	7512.32468
789.012	7541.18986
789.201	7520.5723
789.39	7475.20609
789.579	7349.36316
789.768	7349.36316
789.957	7140.82101
790.145	7215.1787
790.334	7116.02871
790.523	7508.20073
790.712	7239.95822
790.9	7590.66326
791.089	7421.57801
791.278	7545.31312
791.467	7310.14961
791.655	7384.44228
791.844	7116.02871
792.033	7231.69873
792.221	6983.74872
792.41	7105.69764
792.599	7149.0844
792.787	7357.61764
792.976	7270.92815
793.164	7041.63252
793.353	7027.16322
793.541	7227.56886
793.73	7091.2332
793.918	7215.1787
794.107	6998.22133
794.295	7173.87242
794.484	7056.10072
794.672	6975.47817
794.861	6822.40763
795.049	7097.43238
795.238	6793.43435
795.426	6929.98367
795.614	6892.75276
795.803	7157.34743
795.991	6963.07166
796.179	7149.0844
796.368	6816.19945
796.556	6774.8063
796.744	6720.98154
796.932	6826.54631
797.121	6716.84054
797.309	7058.16751
797.497	6627.78665
797.685	6741.68521
797.874	6787.22521
798.062	6727.19288
798.25	6665.0702
798.438	6851.37646
798.626	6461.99148
798.814	6754.1063
799.002	6745.82566
799.19	6718.91105
799.378	6737.54466
799.566	6716.84054
799.755	6631.92964
799.943	6615.35715
800.131	6797.57366
800.318	6681.63827
800.506	6505.52706
800.694	6586.35174
800.882	6520.03664
801.07	6898.95842
801.258	6681.63827
801.446	6793.43435
801.634	6551.12479
801.822	6741.68521
802.01	6809.99106
802.197	6841.03096
802.385	6704.41696
802.573	6913.4375
802.761	6745.82566
802.949	6822.40763
803.136	6459.9181
803.324	6812.06055
803.512	6491.01633
803.699	6540.76266
803.887	6652.64318
804.075	6478.57767
804.262	6536.61764
804.45	6445.4038
804.638	6416.37178
804.825	6801.71289
805.013	6764.45659
805.201	6851.37646
805.388	6710.62885
805.576	6621.572
805.763	6520.03664
805.951	6609.14208
806.138	6524.18203
806.326	6677.49639
806.513	6461.99148
806.701	6648.50065
806.888	6503.45417
807.075	6925.84726
807.263	6522.10935
807.45	6636.07253
807.638	6482.72398
807.825	6580.1357
808.012	6578.06365
808.2	6696.13412
808.387	6532.47253
808.574	6975.47817
808.761	6752.03618
808.949	6886.54689
809.136	6667.14129
809.323	6809.99106
809.51	6598.78318
809.698	6776.87618
809.885	6451.62435
810.072	6783.08566
810.259	6464.06483
810.446	6714.77
810.633	6596.71133
810.82	6830.6849
811.008	6741.68521
811.195	6950.66434
811.382	6619.50041
811.569	6886.54689
811.756	6488.94328
811.943	6965.13947
812.13	6714.77
812.317	6917.57418
812.504	6708.55825
812.691	6927.91548
812.878	6739.61494
813.064	6743.75545
813.251	6712.69944
813.438	7105.69764
813.625	6731.33366
813.812	6863.7903
813.999	6909.30073
814.186	7049.9002
814.372	6696.13412
814.559	6611.21379
814.746	6221.3241
814.933	6563.5586
815.12	6511.74559
815.306	6629.85816
815.493	6491.01633
815.68	6592.56756
815.866	6345.84645
816.053	6729.26328
816.24	6627.78665
816.426	6809.99106
816.613	6619.50041
816.799	6596.71133
816.986	6623.64358
817.173	6710.62885
817.359	6530.39994
817.546	6669.21235
817.732	6269.06762
817.919	6702.34629
818.105	6540.76266
818.292	6604.99859
818.478	6754.1063
818.665	6859.65244
818.851	6760.31654
819.037	6762.38658
819.224	6667.14129
819.41	6546.98001
819.597	6520.03664
819.783	6754.1063
819.969	6718.91105
820.156	6704.41696
820.342	6718.91105
820.528	6919.64248
820.714	6428.81463
820.901	6381.11248
821.087	6142.41632
821.273	6671.2834
821.459	6335.4728
821.646	6515.89116
821.832	6430.88836
822.018	6768.59654
822.204	6051.00703
822.39	6435.03574
822.576	6217.1719
822.762	6420.51949
822.948	6067.63029
823.134	6406.0021
823.32	6356.21951
823.507	6505.52706
823.693	6171.49155
823.879	6432.96206
824.065	6246.23531
824.25	6271.14315
824.436	6213.01961
824.622	6362.44307
824.808	6329.24833
824.994	6383.18675
825.18	6293.97237
825.366	6254.5383
825.552	6125.79983
825.738	6354.14494
825.923	6177.72136
826.109	6279.44501
826.295	6121.64548
826.481	6240.00782
826.667	5972.02597
826.852	6080.09674
827.038	6026.06932
827.224	6129.9541
827.409	5961.63119
827.595	6183.95095
827.781	6046.85098
827.966	6233.78013
828.152	6055.16298
828.338	6063.47461
828.523	5626.6041
828.709	5972.02597
828.894	5568.27608
829.08	6159.0313
829.266	6023.99102
829.451	5832.68697
829.637	5739.04161
829.822	5932.52268
830.008	5568.27608
830.193	5861.81133
830.378	5680.74927
830.564	6007.36381
830.749	5893.01088
830.935	6059.31885
831.12	5614.10679
831.305	5809.8003
831.491	5664.09091
831.676	5774.42436
831.861	5838.9283
832.047	5818.12305
832.232	5722.38854
832.417	5809.8003
832.602	5570.35955
832.788	5759.85582
832.973	5730.71527
833.158	5795.23456
833.343	5603.69172
833.528	5830.60648
833.714	5963.7102
833.899	6017.75599
834.084	5768.18085
834.269	6003.20677
834.454	5551.60754
834.639	5689.07788
834.824	5564.10909
835.009	5816.0424
835.194	5555.77482
835.379	5751.53042
835.564	5443.22529
835.749	5562.02556
835.934	5464.07297
836.119	5643.26585
836.304	5474.49593
836.489	5709.89775
836.674	5426.54545
836.859	5215.83337
837.044	5330.60721
837.228	5547.44017
837.413	5192.87013
837.598	5551.60754
837.783	5386.92481
837.968	5497.42437
838.152	5541.18894
838.337	5449.47984
838.522	5370.23989
838.707	5520.34996
838.891	5257.5775
839.076	5284.70616
839.261	5401.52287
839.445	5466.15761
839.63	5316.00356
839.815	5261.75139
839.999	5363.98266
840.184	5242.96812
840.368	5105.16636
840.553	5534.93749
840.737	5366.06843
840.922	5386.92481
841.106	5140.67044
841.291	5213.74592
841.475	5130.22876
841.66	5180.34353
841.844	4906.6381
842.029	5123.96348
842.213	5176.16781
842.397	5142.75871
842.582	5098.90024
842.766	5215.83337
842.951	4923.36428
843.135	5117.69798
843.319	4992.34425
843.504	5140.67044
843.688	4975.62414
843.872	5215.83337
844.056	5044.58509
844.241	5132.31715
844.425	4877.36374
844.609	5021.6009
844.793	4764.40648
844.977	4975.62414
845.161	4739.29587
845.346	4829.26044
845.53	4502.67893
845.714	4879.45492
845.898	4628.3518
846.082	4737.20317
846.266	4569.71443
846.45	4682.78509
846.634	4435.62083
846.818	4519.43993
847.002	4456.5789
847.186	4789.51383
847.37	4485.91652
847.554	4686.97164
847.738	4586.46975
847.922	4527.8199
848.106	4538.29436
848.29	4645.10212
848.473	4613.6941
848.657	4691.1581
848.841	4406.27585
849.025	4565.52537
849.209	4544.57878
849.392	4565.52537
849.576	4324.50661
849.76	4496.39319
849.944	4494.2979
850.127	4678.59845
850.311	4337.08864
850.495	4546.67354
850.678	4217.52814
850.862	4689.06488
851.046	4414.66057
851.229	4467.05712
851.413	4255.29161
851.596	4435.62083
851.78	4055.90723
851.964	4462.8659
852.147	4251.09601
852.331	4343.37936
852.514	4039.10836
852.698	4393.69812
852.881	4158.77131
853.065	4150.37612
853.248	3913.075
853.431	3976.10085
853.615	4060.10674
853.798	4385.31253
853.982	3995.00504
854.165	4314.021
854.348	3997.1054
854.532	4200.74217
854.715	3999.20575
854.898	4330.79773
855.081	3948.79189
855.265	4108.39517
855.448	3843.72565
855.631	3881.55527
855.814	3847.92926
855.997	4181.85633
856.181	4133.58475
856.364	4190.25025
856.547	4007.60691
856.73	4022.30816
856.913	3749.12359
857.096	4104.19661
857.279	3723.8897
857.462	3948.79189
857.645	3740.71261
857.828	3835.31819
858.011	3755.43163
858.194	3797.48072
858.377	3437.71544
858.56	3608.19903
858.743	3401.91985
858.926	3740.71261
859.109	3481.92639
859.292	3580.84561
859.475	3595.57477
859.658	4043.3082
859.841	3730.19843
860.023	3738.60981
860.206	3511.39593
860.389	3671.31017
860.572	3528.23405
860.755	3654.4822
860.937	3536.65268
861.12	3679.7237
861.303	3553.48904
861.486	3744.91814
861.668	3587.15822
861.851	3568.21989
862.034	3456.66396
862.216	3612.40697
862.399	3404.02562
862.581	3458.76926
862.764	3336.63243
862.947	3193.3636
863.129	3307.14232
863.312	3372.43729
863.494	3275.54204
863.677	3465.08506
863.859	3208.11544
864.042	3125.91642
864.224	3130.13236
864.406	3178.61095
864.589	3077.42861
864.771	3246.04502
864.954	2997.30021
865.136	3216.5447
865.318	2955.11853
865.501	3094.29489
865.683	3073.21189
865.865	3262.90087
866.048	3208.11544
866.23	3157.53436
866.412	2988.86435
866.594	2953.00928
866.777	2984.64633
866.959	3003.62694
867.141	2997.30021
867.323	3090.07841
867.505	2801.10586
867.687	3066.88668
867.869	2980.42826
868.052	3191.25613
868.234	2889.72522
868.416	3018.38878
868.598	2847.52862
868.78	2948.79076
868.962	2775.78154
869.144	3052.12732
869.326	2978.31919
869.508	3085.86188
869.69	2982.5373
869.872	3066.88668
870.054	2879.1766
870.236	3031.0412
870.417	2773.67109
870.599	2891.8349
870.781	2748.34466
870.963	2866.51779
871.145	2638.57499
871.327	2889.72522
871.508	2701.90791
871.69	2868.62763
871.872	2718.79473
872.054	2904.49267
872.235	2625.90704
872.417	2754.67645
872.599	2898.16385
872.78	2999.40913
872.962	2630.12974
873.144	2845.41864
873.325	2794.77496
873.507	2891.8349
873.689	2773.67109
873.87	2836.97858
874.052	2689.24224
874.233	2904.49267
874.415	2723.01631
874.596	2839.08862
874.778	2739.90209
874.959	2906.60225
875.141	2712.46227
875.322	2847.52862
875.503	2761.00812
875.685	2906.60225
875.866	2628.0184
876.048	2805.32638
876.229	2351.33225
876.41	2623.79568
876.592	2668.13177
876.773	2978.31919
876.954	2659.68723
877.136	3014.17119
877.317	2585.78897
877.498	2971.99192
877.679	2613.23865
877.86	2849.63858
878.042	2685.02025
878.223	2836.97858
878.404	2668.13177
878.585	2826.4282
878.766	2720.90553
878.947	3117.48436
879.128	2807.43663
879.309	2931.91606
879.49	2663.90953
879.672	3033.14988
879.853	2676.57611
880.034	2811.65707
880.215	2617.4615
880.396	2963.55534
880.576	2471.74591
880.757	2809.54686
880.938	2592.12369
881.119	3031.0412
881.3	2659.68723
881.481	2708.24057
881.662	2672.35397
881.843	2697.68607
882.023	2606.90429
882.204	2830.64839
882.385	2836.97858
882.566	3102.72765
882.747	2647.02003
882.927	2853.85847
883.108	2763.11864
883.289	2870.73745
883.469	2602.68133
883.65	2834.86853
883.831	2723.01631
884.011	2976.21012
884.192	2874.95705
884.373	2855.96839
884.553	2830.64839
884.734	3081.64528
884.914	2714.57311
885.095	3146.99545
885.275	2805.32638
885.456	2980.42826
885.636	2670.24288
885.817	2965.66451
885.997	2782.1128
886.178	2904.49267
886.358	2663.90953
886.538	2866.51779
886.719	2725.12708
886.899	2993.08231
887.08	2889.72522
887.26	2974.10103
887.44	2701.90791
887.621	3033.14988
887.801	2697.68607
887.981	3047.91022
888.161	2737.79141
888.342	3007.84469
888.522	2898.16385
888.702	2934.02545
888.882	2786.33357
889.062	2860.18819
889.242	2581.56576
889.423	2710.35143
889.603	2630.12974
889.783	3028.9325
889.963	2697.68607
890.143	2881.28635
890.323	2634.35239
890.503	2697.68607
890.683	2678.68717
890.863	2839.08862
891.043	2632.24107
891.223	2965.66451
891.403	2666.02066
891.583	3018.38878
891.763	2744.1234
891.943	2752.56586
892.122	2771.56063
892.302	2982.5373
892.482	2805.32638
892.662	2828.5383
892.842	2718.79473
893.022	2813.76727
893.201	2560.449
893.381	2676.57611
893.561	2446.39853
893.741	2828.5383
893.92	2689.24224
894.1	2765.22916
894.28	2672.35397
894.459	2815.87746
894.639	2628.0184
894.819	2790.55429
894.998	2524.5478
895.178	2862.29807
895.357	2469.63369
895.537	2853.85847
895.716	2634.35239
895.896	2765.22916
896.075	2427.38697
896.255	2625.90704
896.434	2587.90056
896.614	2735.68072
896.793	2518.21195
896.973	2598.45831
897.152	2427.38697
897.331	2556.2255
897.511	2266.81192
897.69	2364.00896
897.87	2254.13257
898.049	2279.49093
898.228	2425.27452
898.407	2271.03829
898.587	2334.42942
898.766	2739.90209
898.945	2395.69913
899.124	2323.86483
899.304	2245.67949
899.483	2492.86751
899.662	2283.7172
899.841	2490.7554
900.02	2287.94343
900.199	2526.65973
900.378	2349.21943
900.557	2450.6232
900.737	2114.63926
900.916	2292.16962
901.095	2021.6248
901.274	2228.77291
901.453	2241.4529
901.632	2243.5662
901.811	2034.30939
901.989	2089.27307
902.168	2038.53754
902.347	2245.67949
902.526	2017.39655
902.705	1985.68382
902.884	1844.01738
903.063	1932.82616
903.242	1725.59295
903.42	1890.53742
903.599	1793.26563
903.778	1858.81948
903.957	1664.26156
904.135	1848.24658
904.314	1712.90391
904.493	1956.08399
904.672	1691.75525
904.85	1791.15092
905.029	1723.47812
905.207	1738.28187
905.386	1655.80187
905.565	1615.6178
905.743	1476.02642
905.922	1700.21475
906.1	1476.02642
906.279	1520.44237
906.457	1440.07053
906.636	1577.548
906.814	1355.46888
906.993	1509.86717
907.171	1374.50414
907.35	1543.70773
907.528	1461.22106
907.707	1509.86717
907.885	1401.99965
908.063	1467.56621
908.242	1505.63708
908.42	1547.93778
908.598	1230.68574
908.777	1499.29195
908.955	1427.38022
909.133	1372.38911
909.311	1287.78895
909.49	1268.75434
909.668	1010.75834
909.846	1344.89378
910.024	1213.76666
910.202	1459.106
910.38	1222.22617
910.559	1374.50414
910.737	1226.45595
910.915	1385.07932
911.093	1317.3987
911.271	1488.71671
911.449	1289.90392
911.627	1412.57488
911.805	1239.14535
911.983	1404.1147
912.161	1184.15878
912.339	1467.56621
912.517	1414.68993
912.695	1560.62791
912.872	1349.12382
913.05	1467.56621
913.228	1429.49528
913.406	1418.92003
913.584	1382.96428
913.762	1421.03508
913.939	1277.21415
914.117	1397.76956
914.295	1262.40951
914.473	1408.34479
914.65	1285.67399
914.828	1366.04401
915.006	1213.76666
915.184	1203.19234
915.361	1217.99641
915.539	1399.88461
915.716	1173.58471
915.894	1319.5137
916.072	1131.2894
916.249	1300.4788
916.427	1171.4699
916.604	1342.77877
916.782	1074.1936
916.959	1304.70876
917.137	1266.6394
917.314	1279.3291
917.492	1103.79839
917.669	1247.60501
917.847	1065.73527
918.024	1139.74833
918.201	993.84318
918.379	1120.71585
918.556	987.5001
918.733	1292.01889
918.911	960.01411
919.088	1044.58984
919.265	991.72881
919.442	1027.6739
919.62	892.36148
919.797	1082.65201
919.974	998.07193
920.151	1163.01073
920.328	993.84318
920.506	1038.24632
920.683	1029.78837
920.86	1027.6739
921.037	1000.18632
921.214	953.67136
921.391	976.92843
921.568	1057.27703
921.745	960.01411
921.922	919.84443
922.099	860.65207
922.276	1086.88125
922.453	940.98604
922.63	976.92843
922.807	862.76597
922.984	945.21445
923.161	913.50209
923.338	1002.30071
923.514	790.89829
923.691	1040.36082
923.868	852.19655
924.045	934.64348
924.222	757.08198
924.399	998.07193
924.575	776.10334
924.752	945.21445
924.929	765.53582
925.105	793.01189
925.282	716.92852
925.459	864.87988
925.635	689.45734
925.812	803.58005
925.989	782.44397
926.165	816.26215
926.342	714.81528
926.518	799.35276
926.695	725.38156
926.871	843.74116
927.048	757.08198
927.224	833.17213
927.401	647.19775
927.577	706.36246
927.754	503.55289
927.93	676.77897
928.107	642.97205
928.283	769.7628
928.459	596.49263
928.636	750.74171
928.812	735.9481
928.988	710.58885
929.165	742.28816
929.341	609.16823
929.517	672.55294
929.693	659.87514
929.87	528.89743
930.046	617.61889
930.222	480.32222
930.398	617.61889
930.574	471.87515
930.751	556.35631
930.927	488.76953
931.103	571.14282
931.279	488.76953
931.455	547.90718
931.631	452.87013
931.807	528.89743
931.983	480.32222
932.159	454.98174
932.335	459.205
932.511	452.87013
932.687	440.20081
932.863	537.34607
933.039	427.53205
933.215	454.98174
933.391	402.19626
933.566	427.53205
933.742	368.41887
933.918	368.41887
934.094	328.31388
934.27	397.97385
934.445	309.31899
934.621	381.08489
934.797	300.87729
934.973	321.98209
935.148	357.86432
935.324	368.41887
935.5	294.5462
935.675	224.91537
935.851	296.65654
936.027	229.13482
936.202	283.99475
936.378	296.65654
936.553	220.69599
936.729	208.03833
936.904	229.13482
937.08	271.33363
937.255	197.49084
937.431	199.6003
937.606	246.01343
937.782	195.3814
937.957	134.21663
938.133	178.50662
938.308	197.49084
938.483	144.76102
938.659	165.85139
938.834	165.85139
939.009	146.86997
939.185	132.10782
939.36	180.61589
939.535	140.5432
939.71	123.67278
939.886	100.4782
940.061	208.03833
940.236	98.36974
940.411	73.06989
940.586	75.17808
940.761	123.67278
940.937	92.04447
941.112	39.34183
941.287	87.82774
941.462	73.06989
941.637	92.04447
941.812	51.98916
941.987	81.50281
942.162	94.15287
942.337	123.67278
942.512	117.34672
942.687	22.48004
942.862	9.83468
943.037	111.02086
943.212	64.63732
943.386	89.9361
943.561	51.98916
943.736	83.6111
943.911	115.23808
944.086	153.19692
944.26	94.15287
944.435	62.52924
944.61	30.91075
944.785	18.26482
944.959	132.10782
945.134	85.71941
945.309	30.91075
945.483	92.04447
945.658	83.6111
945.833	43.55752
946.007	75.17808
946.182	75.17808
946.357	106.80373
946.531	119.45538
946.706	108.91229
946.88	58.31314
947.055	33.01848
947.229	39.34183
947.404	83.6111
947.578	22.48004
947.752	129.99903
947.927	43.55752
948.101	39.34183
948.276	89.9361
948.45	89.9361
948.624	18.26482
948.799	68.85356
948.973	41.44967
949.147	104.6952
949.321	-38.63112
949.496	83.6111
949.67	83.6111
949.844	100.4782
950.018	41.44967
950.193	39.34183
950.367	127.89025
950.541	22.48004
950.715	64.63732
950.889	125.7815
951.063	83.6111
951.237	81.50281
951.411	58.31314
951.585	119.45538
951.759	125.7815
951.933	186.94385
952.107	73.06989
952.281	132.10782
952.455	49.88122
952.629	94.15287
952.803	85.71941
952.977	144.76102
953.151	146.86997
953.325	51.98916
953.499	64.63732
953.672	100.4782
953.846	102.58669
954.02	81.50281
954.194	132.10782
954.368	89.9361
954.541	30.91075
954.715	64.63732
954.889	14.04971
955.062	73.06989
955.236	89.9361
955.41	123.67278
955.583	24.58768
955.757	58.31314
955.93	64.63732
956.104	136.32547
956.278	-0.70246
956.451	64.63732
956.625	140.5432
956.798	123.67278
956.972	26.69535
957.145	5.61975
957.319	136.32547
957.492	123.67278
957.665	64.63732
957.839	39.34183
958.012	77.2863
958.185	68.85356
958.359	16.15725
958.532	115.23808
958.705	123.67278
958.879	62.52924
959.052	113.12946
959.225	49.88122
959.398	89.9361
959.572	129.99903
959.745	28.80304
959.918	51.98916
960.091	136.32547
960.264	102.58669
960.438	98.36974
960.611	14.04971
960.784	66.74543
960.957	73.06989
961.13	30.91075
961.303	138.43433
961.476	11.94218
961.649	115.23808
961.822	98.36974
961.995	104.6952
962.168	85.71941
962.341	60.42118
962.514	45.6654
962.686	73.06989
962.859	89.9361
963.032	-11.23899
963.205	51.98916
963.378	68.85356
963.551	47.77329
963.723	56.20513
963.896	73.06989
964.069	28.80304
964.242	123.67278
964.414	49.88122
964.587	70.96171
964.76	79.39455
964.932	83.6111
965.105	62.52924
965.278	106.80373
965.45	96.26129
965.623	14.04971
965.795	125.7815
965.968	64.63732
966.14	117.34672
966.313	56.20513
966.485	47.77329
966.658	77.2863
966.83	94.15287
967.003	-9.13173
967.175	66.74543
967.348	115.23808
967.52	51.98916
967.692	3.51233
967.865	49.88122
968.037	51.98916
968.209	66.74543
968.382	64.63732
968.554	142.6521
968.726	33.01848
968.898	62.52924
969.071	106.80373
969.243	58.31314
969.415	96.26129
969.587	30.91075
969.759	35.12624
969.932	51.98916
970.104	30.91075
970.276	66.74543
970.448	58.31314
970.62	66.74543
970.792	85.71941
970.964	68.85356
971.136	83.6111
971.308	85.71941
971.48	66.74543
971.652	54.09713
971.824	136.32547
971.996	20.37242
972.168	77.2863
972.339	117.34672
972.511	7.72721
972.683	85.71941
972.855	58.31314
973.027	16.15725
973.199	56.20513
973.37	83.6111
973.542	47.77329
973.714	77.2863
973.886	45.6654
974.057	-17.56062
974.229	26.69535
974.401	73.06989
974.572	33.01848
974.744	62.52924
974.915	73.06989
975.087	56.20513
975.259	98.36974
975.43	39.34183
975.602	73.06989
975.773	47.77329
975.945	16.15725
976.116	62.52924
976.288	-2.80981
976.459	56.20513
976.63	28.80304
976.802	41.44967
976.973	14.04971
977.145	87.82774
977.316	41.44967
977.487	14.04971
977.659	81.50281
977.83	-9.13173
978.001	58.31314
978.172	81.50281
978.344	64.63732
978.515	89.9361
978.686	56.20513
978.857	33.01848
979.028	64.63732
979.2	41.44967
979.371	100.4782
979.542	41.44967
979.713	-4.91714
979.884	89.9361
980.055	77.2863
980.226	-15.45344
980.397	35.12624
980.568	20.37242
980.739	-7.02445
980.91	51.98916
981.081	54.09713
981.252	58.31314
981.423	-19.66778
981.594	96.26129
981.765	-40.73804
981.936	39.34183
982.106	26.69535
982.277	66.74543
982.448	100.4782
982.619	89.9361
982.79	16.15725
982.96	102.58669
983.131	33.01848
983.302	-17.56062
983.472	60.42118
983.643	35.12624
983.814	77.2863
983.984	14.04971
984.155	33.01848
984.326	33.01848
984.496	60.42118
984.667	100.4782
984.837	68.85356
985.008	39.34183
985.178	89.9361
985.349	73.06989
985.519	39.34183
985.69	83.6111
985.86	45.6654
986.031	56.20513
986.201	30.91075
986.371	64.63732
986.542	-17.56062
986.712	123.67278
986.882	64.63732
987.053	-13.34623
987.223	14.04971
987.393	1.40492
987.563	-44.95179
987.734	1.40492
987.904	9.83468
988.074	56.20513
988.244	98.36974
988.414	-7.02445
988.585	22.48004
988.755	39.34183
988.925	14.04971
989.095	-2.80981
989.265	-34.41722
989.435	1.40492
989.605	-51.27223
989.775	-2.80981
989.945	-19.66778
990.115	56.20513
990.285	-7.02445
990.455	-11.23899
990.625	43.55752
990.795	64.63732
990.965	43.55752
991.134	54.09713
991.304	100.4782
991.474	-19.66778
991.644	56.20513
991.814	-2.80981
991.984	39.34183
992.153	18.26482
992.323	18.26482
992.493	-2.80981
992.662	89.9361
992.832	7.72721
993.002	-21.77492
993.171	30.91075
993.341	5.61975
993.511	35.12624
993.68	-11.23899
993.85	-15.45344
994.019	26.69535
994.189	89.9361
994.358	94.15287
994.528	-13.34623
994.697	-0.70246
994.867	45.6654
995.036	-40.73804
995.206	-2.80981
995.375	20.37242
995.544	-9.13173
995.714	-2.80981
995.883	-2.80981
996.052	89.9361
996.222	43.55752
996.391	-0.70246
996.56	-49.16544
996.73	-15.45344
996.899	-13.34623
997.068	60.42118
997.237	-19.66778
997.406	43.55752
997.576	47.77329
997.745	1.40492
997.914	73.06989
998.083	35.12624
998.252	64.63732
998.421	37.23403
998.59	33.01848
998.759	5.61975
998.928	66.74543
999.097	-17.56062
999.266	1.40492
999.435	-0.70246
999.604	51.98916
999.773	-28.09618
999.942	22.48004
1000.111	-17.56062
1000.28	7.72721
1000.448	-51.27223
1000.617	-17.56062
1000.786	70.96171
1000.955	-40.73804
1001.124	-28.09618
1001.292	39.34183
1001.461	-57.59244
1001.63	-2.80981
1001.798	56.20513
1001.967	58.31314
1002.136	-15.45344
1002.304	39.34183
1002.473	58.31314
1002.642	22.48004
1002.81	-23.88203
1002.979	39.34183
1003.147	-2.80981
1003.316	18.26482
1003.484	7.72721
1003.653	30.91075
1003.821	33.01848
1003.99	47.77329
1004.158	58.31314
1004.327	77.2863
1004.495	70.96171
1004.663	35.12624
1004.832	-28.09618
1005	7.72721
1005.168	-15.45344
1005.337	30.91075
1005.505	5.61975
1005.673	20.37242
1005.842	-11.23899
1006.01	1.40492
1006.178	43.55752
1006.346	37.23403
1006.514	-34.41722
1006.683	-13.34623
1006.851	45.6654
1007.019	16.15725
1007.187	-7.02445
1007.355	16.15725
1007.523	-9.13173
1007.691	14.04971
1007.859	83.6111
1008.027	22.48004
1008.195	-15.45344
1008.363	-44.95179
1008.531	-15.45344
1008.699	70.96171
1008.867	51.98916
1009.035	47.77329
1009.203	1.40492
1009.37	-9.13173
1009.538	-28.09618
1009.706	26.69535
1009.874	5.61975
1010.042	24.58768
1010.209	-53.37899
1010.377	-17.56062
1010.545	33.01848
1010.713	83.6111
1010.88	-25.98912
1011.048	1.40492
1011.216	51.98916
1011.383	22.48004
1011.551	33.01848
1011.718	-28.09618
1011.886	-2.80981
1012.054	68.85356
1012.221	-44.95179
1012.389	47.77329
1012.556	33.01848
1012.724	37.23403
1012.891	9.83468
1013.058	11.94218
1013.226	47.77329
1013.393	30.91075
1013.561	14.04971
1013.728	98.36974
1013.895	54.09713
1014.063	-19.66778
1014.23	39.34183
1014.397	-15.45344
1014.565	66.74543
1014.732	41.44967
1014.899	-17.56062
1015.066	104.6952
1015.233	-0.70246
1015.401	58.31314
1015.568	26.69535
1015.735	22.48004
1015.902	-40.73804
1016.069	18.26482
1016.236	22.48004
1016.403	-25.98912
1016.57	-19.66778
1016.737	-38.63112
1016.904	-11.23899
1017.071	60.42118
1017.238	73.06989
1017.405	-70.23219
1017.572	-42.84492
1017.739	47.77329
1017.906	-11.23899
1018.073	-0.70246
1018.24	-61.80579
1018.407	5.61975
1018.573	51.98916
1018.74	-36.52418
1018.907	1.40492
1019.074	66.74543
1019.241	68.85356
1019.407	-17.56062
1019.574	68.85356
1019.741	-28.09618
1019.907	39.34183
1020.074	-28.09618
1020.241	-49.16544
1020.407	-4.91714
1020.574	22.48004
1020.74	1.40492
1020.907	45.6654
1021.073	-2.80981
1021.24	47.77329
1021.406	30.91075
1021.573	22.48004
1021.739	58.31314
1021.906	-2.80981
1022.072	41.44967
1022.239	26.69535
1022.405	64.63732
1022.571	18.26482
1022.738	35.12624
1022.904	-11.23899
1023.07	22.48004
1023.237	24.58768
1023.403	-28.09618
1023.569	56.20513
1023.735	9.83468
1023.902	5.61975
1024.068	24.58768
1024.234	-49.16544
1024.4	-59.69913
1024.566	-2.80981
1024.732	98.36974
1024.898	-30.20322
1025.065	5.61975
1025.231	-28.09618
1025.397	-15.45344
1025.563	-23.88203
1025.729	14.04971
1025.895	-19.66778
1026.061	54.09713
1026.227	-17.56062
1026.392	18.26482
1026.558	18.26482
1026.724	-0.70246
1026.89	9.83468
1027.056	14.04971
1027.222	33.01848
1027.388	9.83468
1027.553	-11.23899
1027.719	-15.45344
1027.885	14.04971
1028.051	18.26482
1028.216	-36.52418
1028.382	-13.34623
1028.548	30.91075
1028.713	7.72721
1028.879	39.34183
1029.045	-15.45344
1029.21	39.34183
1029.376	30.91075
1029.541	-57.59244
1029.707	47.77329
1029.873	-0.70246
1030.038	43.55752
1030.204	-28.09618
1030.369	7.72721
1030.534	39.34183
1030.7	9.83468
1030.865	-95.5089
1031.031	18.26482
1031.196	-15.45344
1031.361	5.61975
1031.527	22.48004
1031.692	-25.98912
1031.857	20.37242
1032.023	-55.48573
1032.188	24.58768
1032.353	54.09713
1032.518	-28.09618
1032.684	56.20513
1032.849	35.12624
1033.014	-23.88203
1033.179	58.31314
1033.344	49.88122
1033.509	-0.70246
1033.674	14.04971
1033.839	-19.66778
1034.004	5.61975
1034.17	-17.56062
1034.335	9.83468
1034.5	-19.66778
1034.664	18.26482
1034.829	24.58768
1034.994	-34.41722
1035.159	20.37242
1035.324	-7.02445
1035.489	-42.84492
1035.654	-21.77492
1035.819	24.58768
1035.984	-17.56062
1036.148	51.98916
1036.313	-103.93364
1036.478	49.88122
1036.643	-7.02445
1036.807	-44.95179
1036.972	70.96171
1037.137	-9.13173
1037.301	11.94218
1037.466	66.74543
1037.631	43.55752
1037.795	98.36974
1037.96	16.15725
1038.124	64.63732
1038.289	9.83468
1038.454	28.80304
1038.618	68.85356
1038.783	1.40492
1038.947	28.80304
1039.111	35.12624
1039.276	-19.66778
1039.44	-2.80981
1039.605	85.71941
1039.769	-11.23899
1039.933	37.23403
1040.098	-44.95179
1040.262	-32.31023
1040.426	-34.41722
1040.591	-9.13173
1040.755	-23.88203
1040.919	-19.66778
1041.083	33.01848
1041.248	-32.31023
1041.412	-70.23219
1041.576	-34.41722
1041.74	-30.20322
1041.904	39.34183
1042.068	-38.63112
1042.232	5.61975
1042.397	117.34672
1042.561	-15.45344
1042.725	-4.91714
1042.889	-19.66778
1043.053	-9.13173
1043.217	92.04447
1043.381	14.04971
1043.544	20.37242
1043.708	5.61975
1043.872	30.91075
1044.036	-23.88203
1044.2	16.15725
1044.364	26.69535
1044.528	22.48004
1044.691	41.44967
1044.855	56.20513
1045.019	-49.16544
1045.183	39.34183
1045.346	26.69535
1045.51	51.98916
1045.674	-28.09618
1045.837	30.91075
1046.001	73.06989
1046.165	-49.16544
1046.328	-40.73804
1046.492	-7.02445
1046.655	-34.41722
1046.819	41.44967
1046.983	30.91075
1047.146	-40.73804
1047.31	7.72721
1047.473	-49.16544
1047.636	-34.41722
1047.8	35.12624
1047.963	66.74543
1048.127	43.55752
1048.29	-34.41722
