Data from mixed_try6.1_USB4F045381__15__00299.txt Node

Date: Thu Apr 03 20:32:37 EDT 2025
User: mmckonesweet
Spectrometer: USB4F04538
Trigger mode: 4
Integration Time (sec): 2.700000E-3
Scans to average: 1
Electric dark correction enabled: true
Nonlinearity correction enabled: true
Boxcar width: 0
XAxis mode: Wavelengths
Number of Pixels in Spectrum: 3648
>>>>>Begin Spectral Data<<<<<
345.52	-57.768
345.736	-57.768
345.952	-57.768
346.168	47.59764
346.384	5.44413
346.6	-11.4146
346.816	56.02946
347.032	39.16618
347.248	1.22931
347.464	9.65906
347.68	-26.16471
347.896	-26.16471
348.112	-59.87469
348.328	39.16618
348.544	13.87408
348.76	-24.05762
348.975	-11.4146
349.191	-15.62904
349.407	-11.4146
349.623	-2.98542
349.839	-36.69976
350.055	30.7351
350.27	7.55158
350.486	22.3044
350.702	-83.04654
350.918	24.41204
351.133	91.86877
351.349	-34.5928
351.565	58.13747
351.781	13.87408
351.996	-45.12736
352.212	-7.20006
352.428	-53.55456
352.644	13.87408
352.859	-36.69976
353.075	-9.30734
353.291	-7.20006
353.506	-5.09275
353.722	7.55158
353.938	41.27401
354.153	13.87408
354.369	15.98162
354.584	11.76656
354.8	-28.27177
355.016	-17.73622
355.231	64.46165
355.447	58.13747
355.662	-2.98542
355.878	-15.62904
356.093	-15.62904
356.309	-21.95051
356.524	-13.52183
356.74	68.67788
356.955	62.35357
357.171	1.22931
357.386	39.16618
357.602	-7.20006
357.817	-36.69976
358.033	3.33671
358.248	-26.16471
358.464	-5.09275
358.679	-40.91361
358.895	22.3044
359.11	-28.27177
359.325	-15.62904
359.541	7.55158
359.756	15.98162
359.972	-0.87807
360.187	-36.69976
360.402	26.51971
360.618	1.22931
360.833	-34.5928
361.048	41.27401
361.264	-7.20006
361.479	22.3044
361.694	-19.84338
361.909	26.51971
362.125	-49.34101
362.34	47.59764
362.555	-28.27177
362.77	41.27401
362.986	-15.62904
363.201	-17.73622
363.416	66.56975
363.631	26.51971
363.847	1.22931
364.062	-36.69976
364.277	-2.98542
364.492	22.3044
364.707	-15.62904
364.922	26.51971
365.138	15.98162
365.353	-26.16471
365.568	15.98162
365.783	-11.4146
365.998	-24.05762
366.213	-38.8067
366.428	-53.55456
366.643	24.41204
366.858	-47.2342
367.073	-68.30117
367.288	39.16618
367.503	-78.83371
367.718	-17.73622
367.933	26.51971
368.148	-34.5928
368.363	-17.73622
368.578	34.9506
368.793	-43.0205
369.008	-32.48582
369.223	1.22931
369.438	9.65906
369.653	15.98162
369.868	5.44413
370.083	-19.84338
370.298	-83.04654
370.513	-112.53347
370.728	-13.52183
370.943	3.33671
371.157	-2.98542
371.372	47.59764
371.587	-0.87807
371.802	-36.69976
372.017	-66.19459
372.232	-26.16471
372.446	72.8942
372.661	26.51971
372.876	-7.20006
373.091	-24.05762
373.306	-2.98542
373.52	-45.12736
373.735	-0.87807
373.95	43.38186
374.165	85.54372
374.379	-57.768
374.594	-40.91361
374.809	-26.16471
375.023	-2.98542
375.238	-51.44779
375.453	-28.27177
375.667	-87.25927
375.882	-15.62904
376.097	37.05838
376.311	45.48974
376.526	-26.16471
376.741	-28.27177
376.955	64.46165
377.17	34.9506
377.384	-17.73622
377.599	64.46165
377.813	-34.5928
378.028	-32.48582
378.242	-70.40773
378.457	-11.4146
378.672	56.02946
378.886	30.7351
379.101	47.59764
379.315	-36.69976
379.53	5.44413
379.744	24.41204
379.958	-30.3788
380.173	-2.98542
380.387	15.98162
380.602	-7.20006
380.816	1.22931
381.031	-24.05762
381.245	-45.12736
381.459	13.87408
381.674	47.59764
381.888	-28.27177
382.103	-9.30734
382.317	-51.44779
382.531	-26.16471
382.746	1.22931
382.96	24.41204
383.174	-57.768
383.388	47.59764
383.603	13.87408
383.817	49.70556
384.031	-28.27177
384.246	-11.4146
384.46	-7.20006
384.674	-24.05762
384.888	-47.2342
385.103	-15.62904
385.317	-5.09275
385.531	11.76656
385.745	-57.768
385.959	-51.44779
386.174	-72.51427
386.388	3.33671
386.602	85.54372
386.816	-49.34101
387.03	-72.51427
387.244	-74.62077
387.458	108.73657
387.672	15.98162
387.887	-76.72725
388.101	-32.48582
388.315	34.9506
388.529	-24.05762
388.743	-36.69976
388.957	-19.84338
389.171	-11.4146
389.385	34.9506
389.599	-15.62904
389.813	-53.55456
390.027	-53.55456
390.241	-51.44779
390.455	30.7351
390.669	-106.21527
390.883	43.38186
391.097	-24.05762
391.311	18.08919
391.525	-53.55456
391.738	43.38186
391.952	30.7351
392.166	-0.87807
392.38	49.70556
392.594	-34.5928
392.808	7.55158
393.022	-9.30734
393.236	47.59764
393.449	-83.04654
393.663	-43.0205
393.877	51.8135
394.091	13.87408
394.305	39.16618
394.518	51.8135
394.732	7.55158
394.946	5.44413
395.16	22.3044
395.373	119.27966
395.587	1.22931
395.801	-57.768
396.015	-19.84338
396.228	-19.84338
396.442	-45.12736
396.656	34.9506
396.869	30.7351
397.083	56.02946
397.297	32.84284
397.51	-9.30734
397.724	18.08919
397.938	39.16618
398.151	-9.30734
398.365	-11.4146
398.578	-34.5928
398.792	58.13747
399.005	64.46165
399.219	56.02946
399.433	51.8135
399.646	-34.5928
399.86	-36.69976
400.073	20.19678
400.287	1.22931
400.5	-26.16471
400.714	-24.05762
400.927	39.16618
401.141	3.33671
401.354	22.3044
401.567	-93.57817
401.781	-36.69976
401.994	-24.05762
402.208	47.59764
402.421	-15.62904
402.635	-28.27177
402.848	-28.27177
403.061	-45.12736
403.275	98.19403
403.488	64.46165
403.701	-19.84338
403.915	22.3044
404.128	-21.95051
404.341	5.44413
404.555	-53.55456
404.768	22.3044
404.981	102.41098
405.195	45.48974
405.408	11.76656
405.621	56.02946
405.834	9.65906
406.048	-2.98542
406.261	13.87408
406.474	-26.16471
406.687	-89.3656
406.9	9.65906
407.114	13.87408
407.327	43.38186
407.54	-68.30117
407.753	39.16618
407.966	-61.98135
408.179	-9.30734
408.392	-0.87807
408.605	-19.84338
408.819	51.8135
409.032	51.8135
409.245	-21.95051
409.458	-21.95051
409.671	96.08559
409.884	39.16618
410.097	-61.98135
410.31	-43.0205
410.523	-104.10916
410.736	-26.16471
410.949	-13.52183
411.162	-2.98542
411.375	-34.5928
411.588	49.70556
411.801	-0.87807
412.014	-11.4146
412.227	5.44413
412.44	30.7351
412.653	41.27401
412.865	-15.62904
413.078	13.87408
413.291	58.13747
413.504	15.98162
413.717	-7.20006
413.93	26.51971
414.143	-76.72725
414.356	-45.12736
414.568	28.62739
414.781	13.87408
414.994	-53.55456
415.207	47.59764
415.42	13.87408
415.632	-34.5928
415.845	-47.2342
416.058	-11.4146
416.271	-32.48582
416.483	18.08919
416.696	22.3044
416.909	-7.20006
417.121	28.62739
417.334	-45.12736
417.547	-26.16471
417.759	-36.69976
417.972	51.8135
418.185	13.87408
418.397	22.3044
418.61	-11.4146
418.823	-26.16471
419.035	5.44413
419.248	-21.95051
419.46	-36.69976
419.673	-11.4146
419.885	-28.27177
420.098	34.9506
420.311	-36.69976
420.523	-11.4146
420.736	-26.16471
420.948	-2.98542
421.161	11.76656
421.373	5.44413
421.586	-21.95051
421.798	51.8135
422.01	30.7351
422.223	26.51971
422.435	43.38186
422.648	47.59764
422.86	-45.12736
423.073	-13.52183
423.285	5.44413
423.497	-13.52183
423.71	18.08919
423.922	13.87408
424.134	-19.84338
424.347	22.3044
424.559	32.84284
424.771	-70.40773
424.984	-0.87807
425.196	49.70556
425.408	-15.62904
425.621	-21.95051
425.833	-78.83371
426.045	-11.4146
426.257	-17.73622
426.47	13.87408
426.682	-78.83371
426.894	-9.30734
427.106	18.08919
427.318	-9.30734
427.531	91.86877
427.743	15.98162
427.955	-5.09275
428.167	24.41204
428.379	15.98162
428.591	37.05838
428.804	-61.98135
429.016	-51.44779
429.228	-87.25927
429.44	28.62739
429.652	41.27401
429.864	49.70556
430.076	-7.20006
430.288	13.87408
430.5	-11.4146
430.712	-59.87469
430.924	-51.44779
431.136	-11.4146
431.348	39.16618
431.56	-28.27177
431.772	79.21886
431.984	-19.84338
432.196	-19.84338
432.408	30.7351
432.62	-15.62904
432.832	51.8135
433.044	-28.27177
433.256	-9.30734
433.468	56.02946
433.679	49.70556
433.891	11.76656
434.103	5.44413
434.315	62.35357
434.527	-19.84338
434.739	56.02946
434.95	20.19678
435.162	13.87408
435.374	15.98162
435.586	-19.84338
435.798	24.41204
436.009	-40.91361
436.221	22.3044
436.433	7.55158
436.645	-11.4146
436.856	24.41204
437.068	5.44413
437.28	-5.09275
437.491	43.38186
437.703	9.65906
437.915	-28.27177
438.126	5.44413
438.338	24.41204
438.55	-28.27177
438.761	41.27401
438.973	39.16618
439.184	64.46165
439.396	62.35357
439.608	47.59764
439.819	20.19678
440.031	30.7351
440.242	9.65906
440.454	-43.0205
440.665	49.70556
440.877	-34.5928
441.088	5.44413
441.3	85.54372
441.511	26.51971
441.723	13.87408
441.934	-28.27177
442.146	-43.0205
442.357	32.84284
442.569	9.65906
442.78	-17.73622
442.991	5.44413
443.203	32.84284
443.414	-15.62904
443.626	13.87408
443.837	22.3044
444.048	-0.87807
444.26	-26.16471
444.471	-2.98542
444.682	-11.4146
444.894	-26.16471
445.105	-30.3788
445.316	9.65906
445.528	-70.40773
445.739	49.70556
445.95	47.59764
446.161	56.02946
446.373	47.59764
446.584	-15.62904
446.795	20.19678
447.006	-28.27177
447.217	3.33671
447.429	26.51971
447.64	64.46165
447.851	1.22931
448.062	-13.52183
448.273	20.19678
448.484	43.38186
448.695	13.87408
448.907	13.87408
449.118	13.87408
449.329	37.05838
449.54	-11.4146
449.751	7.55158
449.962	-19.84338
450.173	-11.4146
450.384	64.46165
450.595	39.16618
450.806	-61.98135
451.017	-19.84338
451.228	-2.98542
451.439	-0.87807
451.65	-24.05762
451.861	-34.5928
452.072	-19.84338
452.283	47.59764
452.494	-2.98542
452.705	-72.51427
452.915	-11.4146
453.126	77.11062
453.337	68.67788
453.548	-17.73622
453.759	-11.4146
453.97	1.22931
454.181	-2.98542
454.391	85.54372
454.602	3.33671
454.813	58.13747
455.024	-51.44779
455.235	64.46165
455.445	39.16618
455.656	15.98162
455.867	37.05838
456.078	-24.05762
456.288	-19.84338
456.499	-26.16471
456.71	64.46165
456.921	5.44413
457.131	66.56975
457.342	-89.3656
457.553	-11.4146
457.763	-32.48582
457.974	-19.84338
458.184	91.86877
458.395	51.8135
458.606	18.08919
458.816	-11.4146
459.027	15.98162
459.237	34.9506
459.448	-7.20006
459.659	-28.27177
459.869	9.65906
460.08	-9.30734
460.29	24.41204
460.501	18.08919
460.711	15.98162
460.922	-19.84338
461.132	-36.69976
461.343	41.27401
461.553	-2.98542
461.764	53.92147
461.974	22.3044
462.184	-24.05762
462.395	37.05838
462.605	20.19678
462.816	37.05838
463.026	70.78603
463.236	32.84284
463.447	-24.05762
463.657	32.84284
463.867	60.24551
464.078	47.59764
464.288	41.27401
464.498	-36.69976
464.709	28.62739
464.919	58.13747
465.129	24.41204
465.339	39.16618
465.55	32.84284
465.76	1.22931
465.97	15.98162
466.18	-21.95051
466.391	47.59764
466.601	30.7351
466.811	1.22931
467.021	56.02946
467.231	-9.30734
467.441	-32.48582
467.651	34.9506
467.862	102.41098
468.072	9.65906
468.282	26.51971
468.492	39.16618
468.702	24.41204
468.912	-17.73622
469.122	47.59764
469.332	-7.20006
469.542	26.51971
469.752	22.3044
469.962	64.46165
470.172	45.48974
470.382	18.08919
470.592	1.22931
470.802	-34.5928
471.012	-34.5928
471.222	70.78603
471.432	-7.20006
471.642	72.8942
471.852	30.7351
472.062	-38.8067
472.272	77.11062
472.482	32.84284
472.691	49.70556
472.901	13.87408
473.111	51.8135
473.321	-7.20006
473.531	64.46165
473.741	-45.12736
473.95	79.21886
474.16	106.62802
474.37	47.59764
474.58	68.67788
474.79	7.55158
474.999	41.27401
475.209	15.98162
475.419	56.02946
475.628	26.51971
475.838	93.97717
476.048	117.171
476.258	64.46165
476.467	43.38186
476.677	34.9506
476.886	43.38186
477.096	66.56975
477.306	22.3044
477.515	-2.98542
477.725	32.84284
477.935	30.7351
478.144	28.62739
478.354	56.02946
478.563	79.21886
478.773	13.87408
478.982	26.51971
479.192	41.27401
479.401	39.16618
479.611	115.06236
479.82	5.44413
480.03	53.92147
480.239	28.62739
480.449	51.8135
480.658	24.41204
480.868	51.8135
481.077	110.84515
481.287	1.22931
481.496	43.38186
481.705	9.65906
481.915	79.21886
482.124	81.32712
482.333	43.38186
482.543	-9.30734
482.752	30.7351
482.961	64.46165
483.171	131.93208
483.38	106.62802
483.589	26.51971
483.799	47.59764
484.008	131.93208
484.217	134.0409
484.426	96.08559
484.636	81.32712
484.845	26.51971
485.054	56.02946
485.263	24.41204
485.472	43.38186
485.682	58.13747
485.891	106.62802
486.1	11.76656
486.309	157.23924
486.518	43.38186
486.727	51.8135
486.936	150.91217
487.146	47.59764
487.355	66.56975
487.564	89.7604
487.773	75.0024
487.982	127.71452
488.191	134.0409
488.4	64.46165
488.609	72.8942
488.818	98.19403
489.027	64.46165
489.236	136.14973
489.445	153.02117
489.654	30.7351
489.863	112.95374
490.072	140.36746
490.281	167.78478
490.49	106.62802
490.698	91.86877
490.907	161.45739
491.116	75.0024
491.325	123.49705
491.534	134.0409
491.743	93.97717
491.952	182.54942
492.16	108.73657
492.369	110.84515
492.578	161.45739
492.787	150.91217
492.996	102.41098
493.204	142.47636
493.413	112.95374
493.622	83.43541
493.831	150.91217
494.039	195.20561
494.248	190.9868
494.457	165.67563
494.665	186.76807
494.874	112.95374
495.083	142.47636
495.291	174.11236
495.5	165.67563
495.709	190.9868
495.917	186.76807
496.126	176.22159
496.335	233.17854
496.543	182.54942
496.752	150.91217
496.96	176.22159
497.169	157.23924
497.377	220.52019
497.586	199.42451
497.794	317.58511
498.003	193.0962
498.211	243.72771
498.42	209.9721
498.628	186.76807
498.837	193.0962
499.045	304.92223
499.254	237.39815
499.462	209.9721
499.671	209.9721
499.879	216.30089
500.087	252.16739
500.296	241.61784
500.504	254.27736
500.713	275.37808
500.921	294.37034
501.129	266.93757
501.338	262.71742
501.546	304.92223
501.754	197.31505
501.962	283.8189
502.171	252.16739
502.379	250.05744
502.587	271.15779
502.795	226.84928
503.004	254.27736
503.212	298.59104
503.42	313.36408
503.628	269.04767
503.837	266.93757
504.045	383.02003
504.253	260.60738
504.461	296.48068
504.669	380.90897
504.877	399.90911
505.085	351.3559
505.294	364.02109
505.502	300.70142
505.71	410.46532
505.918	406.24279
506.126	383.02003
506.334	237.39815
506.542	482.25804
506.75	347.1343
506.958	347.1343
507.166	334.46994
507.374	340.80204
507.582	395.68674
507.79	503.37689
507.998	446.35944
508.206	444.24789
508.414	391.46444
508.622	378.79793
508.83	404.13155
509.037	440.02485
509.245	342.91278
509.453	406.24279
509.661	520.27302
509.869	456.91739
510.077	452.69416
510.285	488.59354
510.492	427.3561
510.7	547.73116
510.908	427.3561
511.116	469.58744
511.324	410.46532
511.531	469.58744
511.739	456.91739
511.947	425.2447
512.155	494.92917
512.362	573.07919
512.57	532.94571
512.778	575.19162
512.985	522.3851
513.193	575.19162
513.401	537.17005
513.608	530.83356
513.816	513.93686
514.024	545.61891
514.231	423.13331
514.439	587.86644
514.646	461.14068
514.854	668.15088
515.061	444.24789
515.269	638.57033
515.477	579.4165
515.684	691.39435
515.892	564.62963
516.099	579.4165
516.307	623.78095
516.514	695.62058
516.722	606.87955
516.929	625.89368
517.136	596.31658
517.344	640.68315
517.551	672.37686
517.759	568.85439
517.966	680.82896
518.173	750.56559
518.381	731.54534
518.588	714.63918
518.796	731.54534
519.003	807.63124
519.21	704.07318
519.418	710.41275
519.625	651.24742
519.832	765.35969
520.039	845.67884
520.247	799.17662
520.454	773.81369
520.661	945.03827
520.868	729.43204
521.076	841.45119
521.283	704.07318
521.49	843.56501
521.697	902.75551
521.904	951.38093
522.112	739.99868
522.319	885.84328
522.526	879.50133
522.733	942.92406
522.94	809.74492
523.147	792.83576
523.354	841.45119
523.561	1054.98627
523.768	904.86958
523.975	1124.76903
524.183	849.90653
524.39	987.3239
524.597	985.20956
524.804	1014.81099
525.011	942.92406
525.218	803.40391
525.425	985.20956
525.632	1046.52815
525.838	955.60942
526.045	1031.72664
526.252	936.58148
526.459	1093.04892
526.666	945.03827
526.873	1181.86772
527.08	1099.39286
527.287	1054.98627
527.494	1040.18461
527.701	1103.62217
527.907	1057.10082
528.114	1059.21537
528.321	1082.47579
528.528	1181.86772
528.735	1095.16356
528.941	1312.99246
529.148	1215.70529
529.355	1289.72768
529.562	1281.26782
529.768	1226.27971
529.975	1175.52328
530.182	1205.13096
530.388	1061.32993
530.595	1173.40847
530.802	1222.04993
531.008	1359.52268
531.215	1272.80799
531.422	1308.76248
531.628	1209.36068
531.835	1319.33745
532.042	1173.40847
532.248	1340.4875
532.455	1408.16853
532.661	1450.46954
532.868	1120.53962
533.074	1518.15108
533.281	1332.02746
533.487	1391.24818
533.694	1357.40765
533.9	1598.52171
534.107	1264.34821
534.313	1596.40672
534.52	1444.12438
534.726	1602.75169
534.933	1401.8234
535.139	1712.72767
535.345	1427.20397
535.552	1554.1066
535.758	1628.13135
535.965	1645.05095
536.171	1585.83175
536.377	1725.41671
536.584	1634.47622
536.79	1653.51069
536.996	1657.74055
537.203	1790.9747
537.409	1568.91171
537.615	1700.03851
537.821	1450.46954
538.028	1763.48308
538.234	1685.23436
538.44	1843.84117
538.646	1797.31882
538.853	1771.94211
539.059	1636.59117
539.265	1949.56482
539.471	1683.11946
539.677	1810.00694
539.883	1716.95736
540.09	1873.44512
540.296	1797.31882
540.502	1917.84915
540.708	1822.69491
540.914	2034.13322
541.12	1941.10744
541.326	2082.7552
541.532	1936.87871
541.738	2051.04564
541.944	1968.59359
542.15	1996.07871
542.356	1860.75783
542.562	2120.80448
542.768	2008.76378
542.974	2051.04564
543.18	2038.36137
543.386	2106.00783
543.592	1936.87871
543.798	2175.76011
544.004	2038.36137
544.21	2179.98724
544.415	2063.72965
544.621	2190.55492
544.827	1983.3934
545.033	2144.0556
545.239	2118.6907
545.445	2266.63582
545.651	1968.59359
545.856	2220.14328
546.062	2110.23548
546.268	2446.2225
546.474	2211.68964
546.679	2213.80306
546.885	2099.66629
547.091	2228.59679
547.297	2190.55492
547.502	2251.84321
547.708	2201.12238
547.914	2268.74901
548.119	2253.95647
548.325	2334.25335
548.531	2234.93683
548.736	2412.42356
548.942	2355.3818
549.147	2475.7943
549.353	2304.67187
549.559	2558.16128
549.764	2384.95994
549.97	2461.00867
550.175	2452.55949
550.381	2659.5113
550.586	2425.09848
550.792	2558.16128
550.997	2473.6821
551.203	2602.50537
551.408	2722.84041
551.614	2754.50057
551.819	2583.5014
552.025	2674.28912
552.23	2469.45767
552.435	2733.39413
552.641	2718.61883
552.846	2748.16877
553.052	2627.84245
553.257	2665.84473
553.462	2553.93776
553.668	2864.23212
553.873	2651.06655
554.078	2925.41202
554.283	2807.26077
554.489	2940.17775
554.694	2720.72963
554.899	2988.6886
555.105	2760.83224
555.31	2703.8429
555.515	2566.60818
555.72	2855.79256
555.925	2718.61883
556.131	2999.23339
556.336	2836.80274
556.541	3075.14456
556.746	2712.28637
556.951	2954.94276
557.156	2762.94277
557.361	3068.8194
557.567	2862.12225
557.772	3132.06464
557.977	2952.83351
558.182	3123.63277
558.387	3075.14456
558.592	3115.20064
558.797	2864.23212
559.002	2897.98805
559.207	2904.31687
559.412	3028.75677
559.617	2976.03436
559.822	3271.15282
560.027	3203.7251
560.232	3182.65045
560.437	3058.27714
560.642	3313.28637
560.847	3070.9278
561.051	3250.08349
561.256	3136.28048
561.461	3332.24424
561.666	3127.84873
561.871	3393.32113
562.076	3030.86547
562.281	3323.81869
562.485	3108.87637
562.69	3540.6865
562.895	3201.61771
563.1	3424.90683
563.305	3138.38837
563.509	3387.00351
563.714	3184.75799
563.919	3530.16335
564.123	3191.0805
564.328	3317.49935
564.533	3328.0315
564.737	3452.27786
564.942	3342.77578
565.147	3521.7445
565.351	3416.48436
565.556	3645.89246
565.761	3397.53278
565.965	3435.4345
566.17	3439.64545
566.374	3353.30689
566.579	3473.33044
566.784	3687.96165
566.988	3517.53496
567.193	3612.23164
567.397	3538.5819
567.602	3629.06265
567.806	3340.66951
568.011	3824.63326
568.215	3629.06265
568.42	3898.19125
568.624	3513.32535
568.828	3721.6115
569.033	3460.69911
569.237	3732.12607
569.442	3633.27022
569.646	3589.08704
569.85	3597.50352
570.055	3950.71763
570.259	3803.61223
570.463	3896.08993
570.668	3742.64015
570.872	3908.69753
571.076	3759.46167
571.281	3927.60758
571.485	3990.62922
571.689	3967.52341
571.893	3849.85589
572.098	3845.65231
572.302	3650.09972
572.506	4013.73255
572.71	3681.65176
572.914	4013.73255
573.119	4003.23134
573.323	3833.04112
573.527	3725.81739
573.731	3881.38015
573.935	3851.95764
574.139	4112.4187
574.343	3936.01152
574.547	3954.9192
574.751	4074.62942
574.955	4234.13792
575.159	3919.20331
575.364	4068.33055
575.568	4034.73343
575.772	4185.87846
575.976	3921.30441
576.18	4108.22023
576.383	4114.51791
576.587	4330.62297
576.791	4026.33333
576.995	4328.52596
577.199	4108.22023
577.403	4185.87846
577.607	4263.50774
577.811	4351.59196
578.015	4053.63246
578.219	4238.33387
578.422	4150.20122
578.626	4318.04055
578.83	4118.71626
579.034	4236.23591
579.238	4336.9139
579.442	4536.02494
579.645	4135.50883
579.849	4456.40426
580.053	4448.02129
580.257	4404.00493
580.46	4387.23426
580.664	4611.42555
580.868	4452.21282
581.071	4582.10652
581.275	4305.45734
581.479	4431.25429
581.682	4364.17231
581.886	4540.21462
582.09	4427.06232
582.293	4454.30855
582.497	4355.7855
582.7	4684.70394
582.904	4623.98951
583.107	4707.7286
583.311	4538.11979
583.515	4686.7972
583.718	4544.40421
583.922	4657.48946
584.125	4695.17003
584.329	4829.08613
584.532	4720.28636
584.735	4948.2766
584.939	4504.59953
585.142	4977.54006
585.346	4661.67655
585.549	4929.46201
585.753	4783.06295
585.956	4896.00924
586.159	4613.5196
586.363	4862.55061
586.566	4722.37924
586.769	4916.91791
586.973	4630.27118
587.176	4837.4528
587.379	4619.80161
587.582	4985.90021
587.786	4875.09828
587.989	5004.70922
588.192	4912.73636
588.395	5155.11381
588.599	4954.54772
588.802	5004.70922
589.005	4793.52373
589.208	5188.52071
589.411	4977.54006
589.615	5230.27094
589.818	5221.92164
590.021	5038.14284
590.224	4967.08934
590.427	5104.9923
590.63	4950.367
590.833	5088.28216
591.036	5040.23224
591.239	5288.70557
591.442	4958.72836
591.645	5288.70557
591.848	5211.48449
592.051	5359.63724
592.254	5459.7299
592.457	5292.87877
592.66	5182.25737
592.863	5486.82901
593.066	5140.49642
593.269	5493.08208
593.472	5370.06608
593.675	5842.9157
593.878	5447.22128
594.081	5557.68479
594.284	5580.60289
594.486	5563.93546
594.689	5455.56045
594.892	5490.99775
595.095	5411.77559
595.298	5443.05155
595.5	5447.22128
595.703	5647.2575
595.906	5330.43336
596.109	5541.01529
596.311	5505.5876
596.514	5638.927
596.717	5624.3477
596.92	5849.15667
597.122	5634.7616
597.325	5728.46015
597.528	5672.24675
597.73	5896.9971
597.933	5659.75255
598.136	5938.58734
598.338	5713.88796
598.541	5651.42261
598.743	5751.35697
598.946	5803.38458
599.148	5849.15667
599.351	5801.30376
599.554	5705.56047
599.756	5780.49425
599.959	5834.59406
600.161	6046.67781
600.363	5876.19845
600.566	5859.55783
600.768	5715.96977
600.971	5978.08932
601.173	5724.29678
601.376	5828.35259
601.578	5934.42874
601.78	6050.83386
601.983	5676.4113
602.185	5990.56186
602.388	5890.75776
602.59	5946.90425
602.792	6042.52166
602.995	6229.45521
603.197	5890.75776
603.399	6430.71555
603.601	5924.03183
603.804	6040.44355
604.006	5867.87833
604.208	6102.77659
604.41	6000.955
604.613	6179.62487
604.815	6121.47238
605.017	6366.41912
605.219	5888.67793
605.421	6216.99889
605.623	6171.3185
605.826	6237.75896
606.028	6059.14569
606.23	6196.23648
606.432	6054.98982
606.634	6409.97721
606.836	6121.47238
607.038	6519.86392
607.24	6005.11209
607.442	6212.8466
607.644	6138.08925
607.846	6412.05115
608.048	6175.47173
608.25	6241.91069
608.452	6320.7758
608.654	6362.27019
608.856	6248.13811
609.058	6453.52503
609.26	6424.49429
609.462	6383.01389
609.664	6289.64887
609.866	6418.27283
610.067	6333.2251
610.269	6366.41912
610.471	6179.62487
610.673	6582.03507
610.875	6082.00126
611.077	6376.79103
611.278	6391.31072
611.48	6530.22722
611.682	6368.49355
611.884	6640.04272
612.085	6358.12118
612.287	6604.82594
612.489	6414.12507
612.69	6608.96944
612.892	6270.97019
613.094	6561.31366
613.295	6100.69917
613.497	6563.38591
613.699	6173.39512
613.9	6644.18543
614.102	6339.44943
614.304	6455.59848
614.505	6436.9366
614.707	6608.96944
614.908	6405.82927
615.11	6681.46569
615.311	6441.08385
615.513	6499.13557
615.714	6536.44493
615.916	6613.11284
616.117	6314.55083
616.319	6611.04115
616.52	6602.75416
616.722	6867.75566
616.923	6528.15461
617.124	6613.11284
617.326	6420.34667
617.527	6575.81889
617.729	6366.41912
617.93	6727.02035
618.131	6474.25849
618.333	6784.98296
618.534	6569.6025
618.735	6756.0039
618.937	6627.61403
619.138	6644.18543
619.339	6528.15461
619.54	6834.65095
619.742	6644.18543
619.943	6727.02035
620.144	6681.46569
620.345	6995.98159
620.546	6942.22001
620.748	6851.20403
620.949	6747.72334
621.15	6797.40119
621.351	6513.64566
621.552	6627.61403
621.753	6490.84358
621.954	6888.44315
622.155	6611.04115
622.356	6991.84662
622.558	6718.73851
622.759	7002.18387
622.96	6743.58293
623.161	6995.98159
623.362	6677.32381
623.563	6878.09969
623.764	6569.6025
623.965	6900.85455
624.166	6758.07398
624.366	6793.26188
624.567	6799.47082
624.768	7192.28923
624.969	6720.809
625.17	6971.17045
625.371	6687.67834
625.572	6942.22001
625.773	6904.9915
625.973	6985.64401
626.174	6911.19676
626.375	7254.23941
626.576	6853.27307
626.777	7086.9281
626.977	6940.15195
627.178	7171.63475
627.379	6917.40182
627.58	7128.25309
627.78	6801.54042
627.981	6979.44119
628.182	7014.58782
628.382	7101.39286
628.583	6842.92768
628.784	6967.03494
628.984	6967.03494
629.185	7055.92848
629.386	6664.8976
629.586	7107.59171
629.787	7078.66203
629.987	7084.86161
630.188	6950.49201
630.388	7212.9415
630.589	6776.70369
630.79	7188.15851
630.99	6853.27307
631.191	7074.52886
631.391	7146.84643
631.591	7157.17529
631.792	6971.17045
631.992	7415.21729
632.193	7140.64885
632.393	7289.3357
632.594	7033.19223
632.794	7074.52886
632.994	7153.04381
633.195	7472.97188
633.395	7202.61565
633.595	7299.65693
633.796	7229.46173
633.996	7312.04168
634.196	7184.02771
634.397	7489.47008
634.597	7285.20705
634.797	7470.90951
634.997	7128.25309
635.198	7415.21729
635.398	7450.28461
635.598	7396.64971
635.798	7053.86166
635.998	7086.9281
636.199	7363.63631
636.399	7340.93635
636.599	7060.06206
636.799	7289.3357
636.999	6973.23817
637.199	7332.68117
637.399	7144.78059
637.599	7318.23375
637.799	7119.98881
637.999	7281.07832
638.199	7297.59273
638.399	7712.06158
638.599	7565.75632
638.799	7677.04048
638.999	7584.30799
639.199	7547.20291
639.399	7571.9404
639.599	7695.58182
639.799	7576.06302
639.999	7619.34533
640.199	7371.89018
640.399	7555.44909
640.599	7332.68117
640.799	7699.70189
640.998	7718.24114
641.198	7712.06158
641.398	7217.07169
641.598	7819.14726
641.798	7660.55785
641.997	7404.90218
642.197	7524.52417
642.397	7812.97078
642.597	7487.40788
642.796	7786.20385
642.996	7672.91995
643.196	7957.04016
643.395	7615.22361
643.595	7909.71423
643.795	7483.28342
643.994	7664.67863
644.194	7646.13443
644.394	7819.14726
644.593	7697.64187
644.793	7936.465
644.992	7825.32355
645.192	7975.55605
645.392	7679.10071
645.591	7874.72719
645.791	7839.73418
645.99	7915.88779
646.19	7530.70954
646.389	7792.38114
646.589	7740.89792
646.788	7532.77128
646.987	7545.14132
647.187	7823.26481
647.386	7810.91191
647.586	8078.39208
647.785	7866.49408
647.984	8203.78383
648.184	7804.73517
648.383	8175.01196
648.582	7907.65633
648.782	8335.26306
648.981	7903.54048
649.18	8205.83881
649.38	7806.7941
649.579	8078.39208
649.778	7981.72764
649.977	8199.6738
650.177	7924.11892
650.376	8212.00364
650.575	7685.28129
650.774	8068.11075
650.973	7981.72764
651.173	8002.2983
651.372	7944.69531
651.571	8105.12116
651.77	7720.30096
651.969	8010.526
652.168	7975.55605
652.367	8096.89719
652.566	7934.40737
652.765	8152.40276
652.964	8006.41219
653.163	8271.58786
653.362	8043.43352
653.561	7985.84194
653.76	8096.89719
653.959	8232.5518
654.158	8152.40276
654.357	8199.6738
654.556	7987.89906
654.755	8292.1303
654.954	8018.75336
655.153	8055.7725
655.352	8154.45824
655.551	8170.90138
655.749	8351.69232
655.948	8602.08618
656.147	8090.729
656.346	8296.23856
656.545	8308.56284
656.743	8345.53149
656.942	8476.92476
657.141	8333.20931
657.34	8386.60038
657.538	8273.64219
657.737	8347.58512
657.936	8450.24188
658.135	8298.29265
658.333	8427.66153
658.532	8101.00921
658.731	8195.56369
658.929	8164.73535
659.128	8392.76004
659.326	8476.92476
659.525	8376.33388
659.724	8273.64219
659.922	8392.76004
660.121	8055.7725
660.319	8310.61682
660.518	8101.00921
660.716	8281.85933
660.915	8207.89377
661.113	8355.79944
661.312	8310.61682
661.51	8437.92561
661.709	8226.38756
661.907	8255.15249
662.105	8396.86639
662.304	8534.38464
662.502	8109.23302
662.701	8585.67557
662.899	8327.04796
663.097	8542.59199
663.296	8407.13192
663.494	8476.92476
663.692	8452.29453
663.891	8333.20931
664.089	8269.53351
664.287	8335.26306
664.485	8575.41833
664.684	8645.15835
664.882	8380.44054
665.08	8608.23985
665.278	8364.01345
665.476	8392.76004
665.675	8507.7087
665.873	8520.02107
666.071	8086.61677
666.269	8737.42828
666.467	8534.38464
666.665	8626.69986
666.863	8403.02577
667.061	8517.96906
667.259	8427.66153
667.457	8702.57515
667.655	8337.31678
667.853	8600.03492
668.051	8444.08383
668.249	8515.91702
668.447	8246.93433
668.645	8534.38464
668.843	8675.91915
669.041	8437.92561
669.239	8376.33388
669.437	8682.07081
669.635	8413.291
669.833	8534.38464
670.031	8320.88643
670.229	8411.23799
670.426	8577.46981
670.624	8606.18865
670.822	8556.9541
671.02	8520.02107
671.218	8222.27797
671.415	8581.57273
671.613	8304.45483
671.811	8384.54712
672.009	8528.22894
672.206	8478.97716
672.404	8573.36682
672.602	8368.12034
672.799	8444.08383
672.997	8862.44613
673.195	8460.50491
673.392	8663.61533
673.59	8657.46317
673.788	8542.59199
673.985	8468.71499
674.183	8552.85074
674.38	8597.98364
674.578	8680.02028
674.775	8651.31084
674.973	8649.26003
675.17	8597.98364
675.368	8952.58136
675.565	8675.91915
675.763	8753.82792
675.96	8663.61533
676.158	8597.98364
676.355	8577.46981
676.553	8626.69986
676.75	8464.60999
676.947	8597.98364
677.145	8571.3153
677.342	8561.0574
677.539	8624.64882
677.737	8721.02747
677.934	8318.83255
678.131	8762.02731
678.329	8597.98364
678.526	8643.10748
678.723	8540.54018
678.92	8899.32381
679.118	8618.4956
679.315	8536.43651
679.512	8595.93234
679.709	8698.47443
679.906	8503.60442
680.104	8622.59776
680.301	8417.39696
680.498	8442.03111
680.695	8413.291
680.892	8581.57273
681.089	8341.42418
681.286	8532.33276
681.483	8384.54712
681.68	8347.58512
681.877	8392.76004
682.075	8718.97728
682.272	8757.92765
682.469	8700.52479
682.665	8544.64377
682.862	8602.08618
683.059	8741.5283
683.256	8591.82969
683.453	8314.72472
683.65	8513.86497
683.847	8634.90382
684.044	8573.36682
684.241	8452.29453
684.438	8930.05079
684.635	8593.88103
684.831	8684.12133
685.028	8493.34339
685.225	8626.69986
685.422	8271.58786
685.619	8579.52128
685.815	8314.72472
686.012	8606.18865
686.209	7969.38427
686.405	8618.4956
686.602	8240.77051
686.799	8460.50491
686.996	8329.10176
687.192	8567.21219
687.389	8246.93433
687.586	8634.90382
687.782	8569.26376
687.979	8753.82792
688.175	8425.60865
688.372	8565.16061
688.568	8189.39838
688.765	8472.81991
688.962	8292.1303
689.158	8439.97837
689.355	8195.56369
689.551	8425.60865
689.748	8195.56369
689.944	8234.60651
690.14	8370.17376
690.337	8559.00576
690.533	8327.04796
690.73	8265.42474
690.926	8175.01196
691.123	8384.54712
691.319	8156.5137
691.515	8602.08618
691.712	8138.01383
691.908	8376.33388
692.104	8386.60038
692.301	8335.26306
692.497	8125.67968
692.693	8105.12116
692.889	8090.729
693.086	8150.34726
693.282	8061.94172
693.478	8316.77865
693.674	8327.04796
693.87	8386.60038
694.067	8433.82004
694.263	8370.17376
694.459	7957.04016
694.655	8526.177
694.851	8265.42474
695.047	8242.82514
695.243	8199.6738
695.439	8203.78383
695.635	8327.04796
695.831	8483.08189
696.027	8277.7508
696.224	8327.04796
696.42	8189.39838
696.615	8581.57273
696.811	8273.64219
697.007	8103.0652
697.203	8234.60651
697.399	8318.83255
697.595	8384.54712
697.791	8248.9889
697.987	8119.51233
698.183	8306.50885
698.379	8135.95819
698.575	8310.61682
698.77	8304.45483
698.966	8618.4956
699.162	8318.83255
699.358	8567.21219
699.554	8372.22715
699.749	8292.1303
699.945	8433.82004
700.141	8481.02953
700.337	8267.47914
700.532	8125.67968
700.728	7858.26064
700.924	8329.10176
701.119	7930.29205
701.315	8236.66119
701.511	7897.36654
701.706	8197.61875
701.902	8070.16706
702.097	8166.79071
702.293	8230.49707
702.489	8335.26306
702.684	8074.27961
702.88	8234.60651
703.075	8076.33585
703.271	8103.0652
703.466	8098.95321
703.662	8158.56915
703.857	8220.22314
704.053	8355.79944
704.248	8230.49707
704.443	8460.50491
704.639	8057.82893
704.834	8431.76722
705.03	7959.09756
705.225	8148.29174
705.42	8129.79114
705.616	8212.00364
705.811	7985.84194
706.006	8160.62457
706.202	8168.84606
706.397	8158.56915
706.592	8012.58287
706.787	8154.45824
706.983	7878.84363
707.178	8212.00364
707.373	8109.23302
707.568	8185.28807
707.763	8039.32036
707.959	8045.49006
708.154	7998.18433
708.349	8435.87284
708.544	8016.69655
708.739	8224.33277
708.934	8203.78383
709.129	8485.13423
709.324	8014.63972
709.519	8306.50885
709.714	7940.5802
709.909	8076.33585
710.104	7897.36654
710.299	8425.60865
710.494	7967.32697
710.689	8045.49006
710.884	8175.01196
711.079	8109.23302
711.274	7817.08845
711.469	8066.05443
711.664	7899.42454
711.859	8222.27797
712.054	7948.81034
712.249	8008.4691
712.443	7878.84363
712.638	8146.2362
712.833	7775.90793
713.028	7915.88779
713.223	7722.36075
713.417	7998.18433
713.612	8146.2362
713.807	8339.37049
714.002	8008.4691
714.196	7934.40737
714.391	7421.4061
714.586	7905.59842
714.78	8086.61677
714.975	8156.5137
715.17	7615.22361
715.364	8269.53351
715.559	8152.40276
715.754	8216.11343
715.948	8437.92561
716.143	8082.50446
716.337	7920.0034
716.532	8131.84685
716.726	8063.99808
716.921	8055.7725
717.115	7895.30852
717.31	8172.95668
717.504	7899.42454
717.699	8039.32036
717.893	8014.63972
718.088	7887.07624
718.282	8068.11075
718.476	8212.00364
718.671	7800.61725
718.865	8125.67968
719.059	7627.58851
719.254	7924.11892
719.448	7720.30096
719.642	7911.7721
719.837	7707.94177
720.031	8010.526
720.225	7501.84282
720.419	7872.66895
720.614	7627.58851
720.808	7885.01812
721.002	7514.21479
721.196	8043.43352
721.39	7693.52176
721.585	8113.34481
721.779	7699.70189
721.973	8146.2362
722.167	7400.77599
722.361	7738.83832
722.555	7485.34566
722.749	7543.0797
722.943	7594.61373
723.137	7415.21729
723.331	7889.13434
723.525	7874.72719
723.719	7590.4915
723.913	7668.79933
724.107	7456.4723
724.301	7790.32207
724.495	7505.9669
724.689	7730.5997
724.883	7363.63631
725.077	7920.0034
725.271	7747.0766
725.465	7672.91995
725.659	7565.75632
725.853	7627.58851
726.046	7545.14132
726.24	7524.52417
726.434	7413.15431
726.628	7679.10071
726.822	7444.09671
727.015	7792.38114
727.209	7619.34533
727.403	7784.14471
727.596	7571.9404
727.79	7775.90793
727.984	7553.38757
728.177	7646.13443
728.371	7355.38208
728.565	7458.53483
728.758	7454.40976
728.952	7662.61825
729.146	7574.00172
729.339	7802.67622
729.533	7392.52334
729.726	7520.40048
729.92	7602.85794
730.113	7674.98022
730.307	7378.08036
730.5	7753.25509
730.694	7619.34533
730.887	7520.40048
731.081	7833.55832
731.274	7792.38114
731.468	7365.69981
731.661	7759.43339
731.854	7594.61373
732.048	7619.34533
732.241	7637.89201
732.435	7800.61725
732.628	7427.59471
732.821	7547.20291
733.014	7569.87906
733.208	7631.70997
733.401	7571.9404
733.594	7788.26297
733.788	7528.64777
733.981	7637.89201
734.174	7580.18555
734.367	7695.58182
734.56	7660.55785
734.754	7740.89792
734.947	7578.1243
735.14	7530.70954
735.333	7637.89201
735.526	7561.63349
735.719	7314.10572
735.912	7563.69492
736.105	7604.91894
736.298	7404.90218
736.491	7396.64971
736.684	7621.40615
736.877	7481.22115
737.07	7590.4915
737.263	7627.58851
737.456	7536.89471
737.649	7489.47008
737.842	7437.90862
738.035	7596.67482
738.228	7518.3386
738.421	7532.77128
738.614	7499.78075
738.807	7835.61697
739	7497.71866
739.192	7532.77128
739.385	7613.16272
739.578	7448.222
739.771	7508.0289
739.964	7553.38757
740.156	7654.37651
740.349	7561.63349
740.542	7662.61825
740.735	7685.28129
740.927	7458.53483
741.12	7305.8494
741.313	7512.15285
741.505	7444.09671
741.698	7627.58851
741.891	7563.69492
742.083	7367.76329
742.276	7384.27033
742.468	7786.20385
742.661	7878.84363
742.854	7586.36918
743.046	7312.04168
743.239	7604.91894
743.431	7652.31602
743.624	7646.13443
743.816	7421.4061
744.009	7359.50924
744.201	7349.19119
744.393	7305.8494
744.586	7293.46426
744.778	7439.97134
744.971	7512.15285
745.163	7359.50924
745.355	7363.63631
745.548	7365.69981
745.74	7479.15887
745.932	7390.46012
746.125	7363.63631
746.317	7316.16975
746.509	7279.01392
746.702	7433.78312
746.894	7136.51702
747.086	7146.84643
747.278	7320.29774
747.471	7427.59471
747.663	7132.3851
747.855	7258.36872
748.047	7064.19554
748.239	7206.74606
748.431	7181.96227
748.623	7307.91351
748.815	7078.66203
749.008	7324.42563
749.2	7274.88506
749.392	7365.69981
749.584	7396.64971
749.776	7338.87259
749.968	7181.96227
750.16	7289.3357
750.352	7198.48515
750.544	7074.52886
750.736	7241.85097
750.928	7384.27033
751.12	6977.37354
751.311	7134.45107
751.503	7330.61732
751.695	7033.19223
751.887	7248.04529
752.079	7148.91225
752.271	7000.11647
752.463	7192.28923
752.654	7024.92383
752.846	7002.18387
753.038	6751.86367
753.23	7132.3851
753.421	7068.32893
753.613	7076.59545
753.805	7256.30408
753.997	7334.745
754.188	7142.71473
754.38	6923.60667
754.572	7008.38595
754.763	6993.91412
754.955	6706.31506
755.146	6902.92304
755.338	6766.35408
755.53	6880.16842
755.721	6710.4563
755.913	7043.52723
756.104	6859.48003
756.296	7117.92268
756.487	7010.45326
756.679	7076.59545
756.87	6813.95755
757.062	7000.11647
757.253	6913.26514
757.445	6876.03093
757.636	6853.27307
757.827	7022.85667
758.019	6967.03494
758.21	6911.19676
758.401	6637.97132
758.593	6942.22001
758.784	6660.75535
758.975	6797.40119
759.167	6933.94764
759.358	6838.78936
759.549	7004.25125
759.74	6995.98159
759.932	6751.86367
760.123	6706.31506
760.314	6834.65095
760.505	6847.0659
760.696	6646.25675
760.888	6606.8977
761.079	6615.18451
761.27	6735.30182
761.461	6654.5418
761.652	6886.3745
761.843	6499.13557
762.034	6720.809
762.225	6685.60748
762.416	6635.89991
762.607	6515.71843
762.798	6677.32381
762.989	6693.89079
763.18	6749.79352
763.371	6735.30182
763.562	6598.61053
763.753	6378.86534
763.944	6598.61053
764.135	6782.91318
764.326	6656.61301
764.517	6621.39937
764.708	6304.17543
764.899	6264.74354
765.089	6320.7758
765.28	6505.35432
765.471	6486.69745
765.662	6250.21387
765.853	6424.49429
766.043	6279.27206
766.234	6318.70083
766.425	6235.68306
766.615	6300.0251
766.806	6364.34467
766.997	6563.38591
767.187	6407.90325
767.378	6327.00055
767.569	6252.28961
767.759	6453.52503
767.95	6212.8466
768.141	6594.4668
768.331	6146.39713
768.522	6241.91069
768.712	6268.89466
768.903	6397.53309
769.093	6084.0789
769.284	6351.89747
769.474	6146.39713
769.665	6212.8466
769.855	6476.33171
770.046	6387.16235
770.236	6160.935
770.426	6046.67781
770.617	6140.16626
770.807	6027.9744
770.998	6320.7758
771.188	6198.31283
771.378	6171.3185
771.569	6150.55092
771.759	6075.76821
771.949	5901.15655
772.139	6040.44355
772.33	5855.39744
772.52	5963.53695
772.71	6023.81783
772.9	5948.98342
773.09	5996.79781
773.281	5940.6666
773.471	5967.69489
773.661	5888.67793
773.851	6173.39512
774.041	5978.08932
774.231	6283.42285
774.421	6073.69047
774.611	6104.854
774.802	5955.22079
774.992	6104.854
775.182	5834.59406
775.372	5884.5182
775.562	5638.927
775.752	6063.30146
775.942	5690.98646
776.131	5772.16978
776.321	5488.91339
776.511	5946.90425
776.701	5626.43053
776.891	5878.27842
777.081	5859.55783
777.271	5971.85273
777.461	5676.4113
777.651	5836.67451
777.84	5718.05156
778.03	5730.5418
778.22	5678.49354
778.41	5851.23695
778.599	5713.88796
778.789	5847.07637
778.979	5722.21507
779.169	5690.98646
779.358	5516.00821
779.548	5684.74011
779.738	5405.51976
779.927	5601.43505
780.117	5509.75592
780.307	5605.6012
780.496	5455.56045
780.686	5599.35194
780.875	5892.83756
781.065	5720.13332
781.254	5482.66017
781.444	5886.59807
781.633	5524.34428
781.823	5584.76951
782.012	5359.63724
782.202	5509.75592
782.391	5355.46554
782.581	5507.67177
782.77	5430.5418
782.96	5422.2015
783.149	5330.43336
783.338	5384.66548
783.528	5338.7778
783.717	5613.93321
783.906	5052.76818
784.096	5457.64519
784.285	5380.49434
784.474	5330.43336
784.663	5249.0555
784.853	5280.35889
785.042	5324.17479
785.231	5130.05473
785.42	5332.51951
785.61	5472.23767
785.799	5198.95914
785.988	5201.04676
786.177	5082.01548
786.366	5255.3166
786.555	5221.92164
786.744	5376.32311
786.933	5098.72617
787.122	5297.05188
787.312	5079.92653
787.501	5286.61893
787.69	5063.21417
787.879	5132.14312
788.068	5038.14284
788.257	4969.17953
788.445	4839.54441
788.634	5249.0555
788.823	5088.28216
789.012	5088.28216
789.201	5040.23224
789.39	5023.51636
789.579	5100.81491
789.768	4971.2697
789.957	4881.37181
790.145	4962.90889
790.334	4881.37181
790.523	5013.06818
790.712	5008.88875
790.9	5107.08097
791.089	4904.37298
791.278	5134.23148
791.467	5025.60592
791.655	5042.32162
791.844	4839.54441
792.033	5023.51636
792.221	4755.86226
792.41	4996.34989
792.599	4695.17003
792.787	5021.42677
792.976	4864.64194
793.164	4958.72836
793.353	4967.08934
793.541	5040.23224
793.73	4996.34989
793.918	5048.58963
794.107	4714.00758
794.295	4891.82723
794.484	4785.15515
794.672	4912.73636
794.861	4732.84331
795.049	4670.05046
795.238	4722.37924
795.426	4703.5425
795.614	4644.92765
795.803	4563.25627
795.991	4492.02798
796.179	4755.86226
796.368	4690.98366
796.556	4701.44942
796.744	4670.05046
796.932	4734.93605
797.121	4638.64644
797.309	4747.49205
797.497	4603.04913
797.685	4737.02878
797.874	4672.14388
798.062	4644.92765
798.25	4548.59371
798.438	4690.98366
798.626	4305.45734
798.814	4592.5781
799.002	4345.30149
799.19	4508.78988
799.378	4504.59953
799.566	4565.35083
799.755	4485.7419
799.943	4816.53544
800.131	4468.97806
800.318	4693.07686
800.506	4448.02129
800.694	4521.36037
800.882	4517.1703
801.07	4720.28636
801.258	4334.81694
801.446	4686.7972
801.634	4548.59371
801.822	4628.17731
802.01	4512.98013
802.197	4753.76974
802.385	4473.16916
802.573	4623.98951
802.761	4410.29357
802.949	4611.42555
803.136	4278.19108
803.324	4690.98366
803.512	4439.63796
803.699	4764.23211
803.887	4527.64532
804.075	4690.98366
804.262	4397.71609
804.45	4720.28636
804.638	4334.81694
804.825	4657.48946
805.013	4552.78312
805.201	4424.9663
805.388	4445.92549
805.576	4649.11501
805.763	4594.67235
805.951	4588.38954
806.138	4391.42705
806.326	4615.61362
806.513	4632.36503
806.701	4605.14327
806.888	4466.88249
807.075	4575.8233
807.263	4605.14327
807.45	4772.6016
807.638	4427.06232
807.825	4667.95701
808.012	4519.26534
808.2	4435.44617
808.387	4709.82162
808.574	4711.91461
808.761	4628.17731
808.949	4661.67655
809.136	4477.36016
809.323	4795.61581
809.51	4623.98951
809.698	4747.49205
809.885	4611.42555
810.072	4435.44617
810.259	4605.14327
810.446	4747.49205
810.633	4410.29357
810.82	4605.14327
811.008	4468.97806
811.195	4621.89557
811.382	4508.78988
811.569	4734.93605
811.756	4588.38954
811.943	4822.81089
812.13	4703.5425
812.317	4814.44358
812.504	4695.17003
812.691	4843.72756
812.878	4527.64532
813.064	4626.08342
813.251	4619.80161
813.438	4860.45925
813.625	4592.5781
813.812	4519.26534
813.999	4680.51734
814.186	4657.48946
814.372	4640.7402
814.559	4653.30228
814.746	4544.40421
814.933	4603.04913
815.12	4372.55878
815.306	4728.65775
815.493	4655.39588
815.68	4770.50926
815.866	4475.26467
816.053	4655.39588
816.24	4768.4169
816.426	4640.7402
816.613	4783.06295
816.799	4783.06295
816.986	4590.48383
817.173	4684.70394
817.359	4412.38974
817.546	4724.4721
817.732	4552.78312
817.919	4716.10053
818.105	4634.45886
818.292	4607.23738
818.478	4433.35024
818.665	4661.67655
818.851	4594.67235
819.037	4582.10652
819.224	4418.67812
819.41	4479.45563
819.597	4471.07362
819.783	4644.92765
819.969	4372.55878
820.156	4611.42555
820.342	4492.02798
820.528	4548.59371
820.714	4502.50433
820.901	4613.5196
821.087	4594.67235
821.273	4577.91773
821.459	4544.40421
821.646	4910.64555
821.832	4401.90867
822.018	4688.89044
822.204	4301.26277
822.39	4246.7255
822.576	4334.81694
822.762	4540.21462
822.948	4370.46219
823.134	4468.97806
823.32	4362.07564
823.507	4626.08342
823.693	4200.56731
823.879	4577.91773
824.065	4078.82856
824.25	4458.49995
824.436	4385.13782
824.622	4259.31231
824.808	4550.68843
824.994	4506.69472
825.18	4160.69516
825.366	4343.20462
825.552	4187.97693
825.738	4485.7419
825.923	4204.76393
826.109	4368.36559
826.295	3990.62922
826.481	4538.11979
826.667	4183.77996
826.852	4315.9434
827.038	4208.96047
827.224	4410.29357
827.409	4198.46896
827.595	4418.67812
827.781	4284.48362
827.966	4336.9139
828.152	4271.89835
828.338	4477.36016
828.523	3793.10098
828.709	4330.62297
828.894	4221.54958
829.08	4244.62763
829.266	3982.22739
829.451	4255.11679
829.637	3864.56777
829.822	4015.83273
830.008	4024.23325
830.193	4152.30005
830.378	4074.62942
830.564	4229.9419
830.749	3990.62922
830.935	3999.03072
831.12	3919.20331
831.305	3963.32209
831.491	3879.27867
831.676	4152.30005
831.861	3732.12607
832.047	3967.52341
832.232	3784.69162
832.417	3763.66686
832.602	3727.9203
832.788	3778.3844
832.973	3763.66686
833.158	3877.17717
833.343	3965.42276
833.528	3879.27867
833.714	3826.73525
833.899	3940.21337
834.084	3816.22508
834.269	3915.00106
834.454	3992.72962
834.639	3969.62404
834.824	3645.89246
835.009	3809.91875
835.194	3717.40554
835.379	3954.9192
835.564	3700.58092
835.749	3870.87256
835.934	3582.77448
836.119	3952.81843
836.304	3599.60759
836.489	3589.08704
836.674	3481.75097
836.859	3780.48682
837.044	3629.06265
837.228	3719.50853
837.413	3586.98287
837.598	3799.40779
837.783	3538.5819
837.968	3868.77098
838.152	3507.0108
838.337	3477.54074
838.522	3559.62701
838.707	3799.40779
838.891	3346.98828
839.076	3591.19119
839.261	3490.1712
839.445	3561.73142
839.63	3380.68574
839.815	3599.60759
839.999	3321.71226
840.184	3692.16815
840.368	3431.22349
840.553	3574.35748
840.737	3344.88204
840.922	3544.89563
841.106	3378.57978
841.291	3494.38121
841.475	3243.76237
841.66	3443.85633
841.844	3311.17985
842.029	3170.00487
842.213	3462.80438
842.397	3450.1725
842.582	3418.59001
842.766	3422.80124
842.951	3233.22683
843.135	3266.93909
843.319	3256.40447
843.504	3260.61837
843.688	3330.13788
843.872	3384.8976
844.056	3313.28637
844.241	3507.0108
844.425	3167.89722
844.609	3431.22349
844.793	3359.62535
844.977	3460.69911
845.161	3132.06464
845.346	3243.76237
845.53	3176.32773
845.714	3266.93909
845.898	2830.47255
846.082	3182.65045
846.266	3125.74076
846.45	3144.71196
846.634	3054.06013
846.818	3216.36909
847.002	3064.60254
847.186	3311.17985
847.37	3005.56008
847.554	3157.35871
847.738	2916.97414
847.922	3182.65045
848.106	2904.31687
848.29	3024.53933
848.473	2779.82652
848.657	2940.17775
848.841	2819.92195
849.025	2971.81616
849.209	2834.69269
849.392	3070.9278
849.576	3009.7778
849.76	3081.46958
849.944	2727.06194
850.127	3047.7345
850.311	2838.91278
850.495	2908.53602
850.678	2822.0321
850.862	3054.06013
851.046	2634.17645
851.229	3007.66895
851.413	2670.06695
851.596	2988.6886
851.78	2828.36246
851.964	3083.57789
852.147	2701.732
852.331	2817.81179
852.514	2758.72169
852.698	2752.38998
852.881	2923.30257
853.065	3024.53933
853.248	2855.79256
853.431	2803.04027
853.615	2583.5014
853.798	2693.28827
853.982	2541.26691
854.165	2703.8429
854.348	2629.9538
854.532	2526.48373
854.715	2648.95533
854.898	2758.72169
855.081	2477.90649
855.265	2705.95379
855.448	2393.41047
855.631	2490.57939
855.814	2435.66063
855.997	2568.71987
856.181	2406.08596
856.364	2575.05489
856.547	2475.7943
856.73	2511.69999
856.913	2528.59565
857.096	2646.8441
857.279	2357.49459
857.462	2621.50835
857.645	2393.41047
857.828	2572.94323
858.011	2330.02754
858.194	2505.36393
858.377	2253.95647
858.56	2439.88541
858.743	2452.55949
858.926	2380.73462
859.109	2492.6915
859.292	2435.66063
859.475	2412.42356
859.658	2617.28555
859.841	2465.23319
860.023	2406.08596
860.206	2213.80306
860.389	2450.44717
860.572	2097.55243
860.755	2192.66843
860.937	2156.73762
861.12	2380.73462
861.303	2222.25667
861.486	2249.72994
861.668	2070.07157
861.851	2308.89791
862.034	2120.80448
862.216	2256.06971
862.399	2171.53295
862.581	2256.06971
862.764	2182.10079
862.947	2323.68875
863.129	2141.9419
863.312	2226.48343
863.494	2029.90505
863.677	2245.50338
863.859	1964.36502
864.042	2097.55243
864.224	1945.33614
864.406	2281.42798
864.589	1934.76434
864.771	2156.73762
864.954	1780.40108
865.136	2084.86911
865.318	1890.36121
865.501	2061.61567
865.683	1873.44512
865.865	2021.44862
866.048	1723.30188
866.23	1854.41412
866.412	1983.3934
866.594	1881.90321
866.777	1822.69491
866.959	2000.30709
867.141	1807.89227
867.323	1949.56482
867.505	1708.49796
867.687	2021.44862
867.869	1767.71261
868.052	2000.30709
868.234	1655.62562
868.416	1915.73473
868.598	1774.05686
868.78	1938.99308
868.962	1706.38311
869.144	1852.29954
869.326	1755.02399
869.508	1896.70467
869.69	1729.64637
869.872	1909.39142
870.054	1755.02399
870.236	1763.48308
870.417	1704.26825
870.599	1757.13877
870.781	1661.9704
870.963	1915.73473
871.145	1645.05095
871.327	1860.75783
871.508	1632.36126
871.69	1864.98694
871.872	1571.02672
872.054	2046.81757
872.235	1564.68169
872.417	1788.85998
872.599	1609.09663
872.78	1890.36121
872.962	1661.9704
873.144	1801.54821
873.325	1621.78646
873.507	1864.98694
873.689	1655.62562
873.87	2025.67685
874.052	1780.40108
874.233	1822.69491
874.415	1655.62562
874.596	1767.71261
874.778	1771.94211
874.959	1755.02399
875.141	1642.93601
875.322	1820.58026
875.503	1450.46954
875.685	1577.37175
875.866	1661.9704
876.048	1740.22044
876.229	1535.07136
876.41	1697.92364
876.592	1590.06175
876.773	1833.2681
876.954	1511.80596
877.136	1765.59785
877.317	1661.9704
877.498	1746.56484
877.679	1655.62562
877.86	1816.35095
878.042	1619.67149
878.223	1807.89227
878.404	1630.24631
878.585	1807.89227
878.766	1661.9704
878.947	1848.07036
879.128	1579.48675
879.309	1681.00457
879.49	1704.26825
879.672	2038.36137
879.853	1670.43006
880.034	1765.59785
880.215	1689.46413
880.396	1687.34924
880.576	1562.56667
880.757	1816.35095
880.938	1636.59117
881.119	1875.55965
881.3	1735.99082
881.481	1932.64996
881.662	1672.54496
881.843	1797.31882
882.023	1577.37175
882.204	1843.84117
882.385	1706.38311
882.566	1892.4757
882.747	1604.86667
882.927	1788.85998
883.108	1556.22162
883.289	1725.41671
883.469	1623.90143
883.65	1818.46561
883.831	1626.01639
884.011	1829.03884
884.192	1596.40672
884.373	1839.61195
884.553	1676.77477
884.734	1898.81914
884.914	1530.8413
885.095	1936.87871
885.275	1721.18705
885.456	1826.9242
885.636	1681.00457
885.817	1839.61195
885.997	1685.23436
886.178	1727.53154
886.358	1763.48308
886.538	1820.58026
886.719	1725.41671
886.899	1850.18495
887.08	1746.56484
887.26	1862.87239
887.44	1687.34924
887.621	1852.29954
887.801	1676.77477
887.981	1896.70467
888.161	1636.59117
888.342	1818.46561
888.522	1670.43006
888.702	1700.03851
888.882	1592.17674
889.062	1708.49796
889.242	1672.54496
889.423	1695.80877
889.603	1537.18639
889.783	1729.64637
889.963	1653.51069
890.143	1752.90921
890.323	1636.59117
890.503	1700.03851
890.683	1670.43006
890.863	1822.69491
891.043	1725.41671
891.223	1757.13877
891.403	1587.94675
891.583	2044.70353
891.763	1653.51069
891.943	1841.72656
892.122	1693.69389
892.302	1805.77759
892.482	1573.14173
892.662	1780.40108
892.842	1501.23074
893.022	1687.34924
893.201	1452.58459
893.381	1678.88967
893.561	1670.43006
893.741	1725.41671
893.92	1664.08531
894.1	1763.48308
894.28	1681.00457
894.459	1704.26825
894.639	1522.38116
894.819	1706.38311
894.998	1543.53148
895.178	1647.16589
895.357	1363.75273
895.537	1611.21161
895.716	1562.56667
895.896	1604.86667
896.075	1571.02672
896.255	1602.75169
896.434	1568.91171
896.614	1767.71261
896.793	1661.9704
896.973	1678.88967
897.152	1365.86776
897.331	1642.93601
897.511	1503.34579
897.69	1670.43006
897.87	1446.23943
898.049	1659.85547
898.228	1378.55795
898.407	1575.25674
898.587	1437.77923
898.766	1469.50501
898.945	1399.70835
899.124	1416.62872
899.304	1340.4875
899.483	1621.78646
899.662	1463.15985
899.841	1425.08892
900.02	1332.02746
900.199	1503.34579
900.378	1365.86776
900.557	1410.28358
900.737	1133.2279
900.916	1306.6475
901.095	1213.59042
901.274	1308.76248
901.453	1238.96911
901.632	1359.52268
901.811	1293.95762
901.989	1359.52268
902.168	1238.96911
902.347	1357.40765
902.526	1158.60493
902.705	1160.71971
902.884	1152.26062
903.063	1198.7864
903.242	1008.46772
903.42	1097.2782
903.599	873.15945
903.778	1192.44187
903.957	1086.70503
904.135	1103.62217
904.314	985.20956
904.493	1128.99846
904.672	923.89651
904.85	1095.16356
905.029	1038.07011
905.207	1188.2122
905.386	993.66698
905.565	964.06646
905.743	934.4673
905.922	934.4673
906.1	892.18531
906.279	1014.81099
906.457	799.17662
906.636	993.66698
906.814	818.19972
906.993	860.47591
907.171	820.31344
907.35	964.06646
907.528	877.38736
907.707	942.92406
907.885	748.45219
908.063	852.02039
908.242	811.8586
908.42	845.67884
908.598	767.47318
908.777	862.58981
908.955	725.20545
909.133	744.22541
909.311	668.15088
909.49	909.09773
909.668	682.94202
909.846	759.0193
910.024	733.65866
910.202	735.77199
910.38	839.33737
910.559	847.79268
910.737	606.87955
910.915	841.45119
911.093	733.65866
911.271	786.49498
911.449	718.86566
911.627	676.60289
911.805	727.31874
911.983	832.99598
912.161	773.81369
912.339	799.17662
912.517	630.11918
912.695	868.93157
912.872	756.90586
913.05	756.90586
913.228	697.73371
913.406	699.84686
913.584	761.13276
913.762	906.98365
913.939	809.74492
914.117	875.2734
914.295	778.04075
914.473	926.01066
914.65	784.38141
914.828	756.90586
915.006	676.60289
915.184	773.81369
915.361	642.79598
915.539	691.39435
915.716	676.60289
915.894	742.11204
916.072	647.02168
916.249	733.65866
916.427	625.89368
916.604	716.75241
916.782	725.20545
916.959	818.19972
917.137	581.52897
917.314	733.65866
917.492	613.21748
917.669	672.37686
917.847	630.11918
918.024	600.54173
918.201	570.96678
918.379	775.92721
918.556	606.87955
918.733	604.76693
918.911	526.6093
919.088	653.36032
919.265	596.31658
919.442	606.87955
919.62	537.17005
919.797	528.72142
919.974	579.4165
920.151	617.44283
920.328	497.04108
920.506	666.03791
920.683	554.06798
920.86	752.679
921.037	545.61891
921.214	682.94202
921.391	452.69416
921.568	526.6093
921.745	511.82484
921.922	655.47322
922.099	513.93686
922.276	640.68315
922.453	437.91335
922.63	570.96678
922.807	570.96678
922.984	570.96678
923.161	505.48886
923.338	469.58744
923.514	442.13636
923.691	600.54173
923.868	427.3561
924.045	575.19162
924.222	376.6869
924.399	537.17005
924.575	364.02109
924.752	499.153
924.929	349.24509
925.105	397.79792
925.282	484.36986
925.459	545.61891
925.635	389.35331
925.812	414.68792
925.989	408.35405
926.165	387.2422
926.342	399.90911
926.518	385.13111
926.695	345.02353
926.871	446.35944
927.048	429.46752
927.224	336.58062
927.401	385.13111
927.577	361.91018
927.754	307.03267
927.93	370.35392
928.107	359.79929
928.283	368.24296
928.459	456.91739
928.636	421.02194
928.812	378.79793
928.988	427.3561
929.165	298.59104
929.341	376.6869
929.517	355.57756
929.693	427.3561
929.87	418.91058
930.046	380.90897
930.222	370.35392
930.398	393.57558
930.574	349.24509
930.751	347.1343
930.927	351.3559
931.103	290.14971
931.279	243.72771
931.455	256.38735
931.631	277.48826
931.807	203.64348
931.983	311.25359
932.159	309.14312
932.335	368.24296
932.511	266.93757
932.687	214.19127
932.863	262.71742
933.039	271.15779
933.215	315.47458
933.391	214.19127
933.566	216.30089
933.742	209.9721
933.918	172.00315
934.094	294.37034
934.27	226.84928
934.445	245.8376
934.621	159.34831
934.797	193.0962
934.973	243.72771
935.148	85.54372
935.324	190.9868
935.5	186.76807
935.675	228.95901
935.851	138.25859
936.027	144.58528
936.202	131.93208
936.378	214.19127
936.553	131.93208
936.729	123.49705
936.904	121.38835
937.08	127.71452
937.255	138.25859
937.431	136.14973
937.606	131.93208
937.782	134.0409
937.957	119.27966
938.133	93.97717
938.308	56.02946
938.483	77.11062
938.659	98.19403
938.834	127.71452
939.009	127.71452
939.185	41.27401
939.36	47.59764
939.535	41.27401
939.71	77.11062
939.886	110.84515
940.061	41.27401
940.236	64.46165
940.411	72.8942
940.586	34.9506
940.761	24.41204
940.937	131.93208
941.112	28.62739
941.287	119.27966
941.462	81.32712
941.637	148.80318
941.812	28.62739
941.987	98.19403
942.162	81.32712
942.337	131.93208
942.512	56.02946
942.687	-30.3788
942.862	22.3044
943.037	56.02946
943.212	72.8942
943.386	32.84284
943.561	9.65906
943.736	70.78603
943.911	24.41204
944.086	62.35357
944.26	81.32712
944.435	5.44413
944.61	106.62802
944.785	-40.91361
944.959	39.16618
945.134	24.41204
945.309	72.8942
945.483	24.41204
945.658	-2.98542
945.833	112.95374
946.007	51.8135
946.182	-0.87807
946.357	136.14973
946.531	-2.98542
946.706	79.21886
946.88	39.16618
947.055	47.59764
947.229	66.56975
947.404	30.7351
947.578	47.59764
947.752	-2.98542
947.927	20.19678
948.101	102.41098
948.276	140.36746
948.45	1.22931
948.624	60.24551
948.799	22.3044
948.973	93.97717
949.147	30.7351
949.321	81.32712
949.496	39.16618
949.67	72.8942
949.844	22.3044
950.018	93.97717
950.193	75.0024
950.367	125.60578
950.541	13.87408
950.715	13.87408
950.889	64.46165
951.063	47.59764
951.237	93.97717
951.411	64.46165
951.585	167.78478
951.759	22.3044
951.933	13.87408
952.107	30.7351
952.281	72.8942
952.455	34.9506
952.629	-19.84338
952.803	66.56975
952.977	91.86877
953.151	47.59764
953.325	30.7351
953.499	93.97717
953.672	75.0024
953.846	96.08559
954.02	148.80318
954.194	51.8135
954.368	75.0024
954.541	37.05838
954.715	30.7351
954.889	3.33671
955.062	93.97717
955.236	64.46165
955.41	39.16618
955.583	18.08919
955.757	60.24551
955.93	-15.62904
956.104	47.59764
956.278	43.38186
956.451	-36.69976
956.625	53.92147
956.798	13.87408
956.972	64.46165
957.145	89.7604
957.319	72.8942
957.492	77.11062
957.665	58.13747
957.839	32.84284
958.012	11.76656
958.185	64.46165
958.359	77.11062
958.532	37.05838
958.705	41.27401
958.879	64.46165
959.052	47.59764
959.225	91.86877
959.398	104.51949
959.572	39.16618
959.745	98.19403
959.918	32.84284
960.091	30.7351
960.264	60.24551
960.438	39.16618
960.611	47.59764
960.784	106.62802
960.957	75.0024
961.13	60.24551
961.303	24.41204
961.476	138.25859
961.649	45.48974
961.822	47.59764
961.995	68.67788
962.168	70.78603
962.341	39.16618
962.514	98.19403
962.686	51.8135
962.859	77.11062
963.032	51.8135
963.205	49.70556
963.378	13.87408
963.551	60.24551
963.723	43.38186
963.896	91.86877
964.069	108.73657
964.242	104.51949
964.414	81.32712
964.587	30.7351
964.76	62.35357
964.932	-19.84338
965.105	5.44413
965.278	81.32712
965.45	24.41204
965.623	41.27401
965.795	100.3025
965.968	100.3025
966.14	49.70556
966.313	34.9506
966.485	13.87408
966.658	91.86877
966.83	49.70556
967.003	49.70556
967.175	51.8135
967.348	106.62802
967.52	-19.84338
967.692	58.13747
967.865	5.44413
968.037	32.84284
968.209	72.8942
968.382	-7.20006
968.554	18.08919
968.726	49.70556
968.898	9.65906
969.071	22.3044
969.243	66.56975
969.415	9.65906
969.587	89.7604
969.759	85.54372
969.932	22.3044
970.104	49.70556
970.276	83.43541
970.448	9.65906
970.62	-32.48582
970.792	98.19403
970.964	100.3025
971.136	15.98162
971.308	-49.34101
971.48	41.27401
971.652	7.55158
971.824	47.59764
971.996	18.08919
972.168	108.73657
972.339	75.0024
972.511	41.27401
972.683	39.16618
972.855	64.46165
973.027	64.46165
973.199	75.0024
973.37	3.33671
973.542	66.56975
973.714	108.73657
973.886	5.44413
974.057	75.0024
974.229	-11.4146
974.401	-9.30734
974.572	51.8135
974.744	30.7351
974.915	91.86877
975.087	26.51971
975.259	22.3044
975.43	77.11062
975.602	91.86877
975.773	13.87408
975.945	30.7351
976.116	5.44413
976.288	68.67788
976.459	64.46165
976.63	7.55158
976.802	37.05838
976.973	22.3044
977.145	51.8135
977.316	53.92147
977.487	110.84515
977.659	93.97717
977.83	-19.84338
978.001	83.43541
978.172	41.27401
978.344	108.73657
978.515	22.3044
978.686	5.44413
978.857	11.76656
979.028	68.67788
979.2	-28.27177
979.371	-28.27177
979.542	37.05838
979.713	32.84284
979.884	9.65906
980.055	7.55158
980.226	-17.73622
980.397	45.48974
980.568	75.0024
980.739	66.56975
980.91	-7.20006
981.081	18.08919
981.252	34.9506
981.423	34.9506
981.594	-17.73622
981.765	22.3044
981.936	39.16618
982.106	-9.30734
982.277	9.65906
982.448	64.46165
982.619	68.67788
982.79	-36.69976
982.96	93.97717
983.131	26.51971
983.302	5.44413
983.472	41.27401
983.643	81.32712
983.814	1.22931
983.984	91.86877
984.155	106.62802
984.326	106.62802
984.496	13.87408
984.667	7.55158
984.837	24.41204
985.008	58.13747
985.178	24.41204
985.349	1.22931
985.519	30.7351
985.69	72.8942
985.86	5.44413
986.031	58.13747
986.201	1.22931
986.371	64.46165
986.542	79.21886
986.712	77.11062
986.882	-17.73622
987.053	81.32712
987.223	-11.4146
987.393	49.70556
987.563	58.13747
987.734	-38.8067
987.904	72.8942
988.074	41.27401
988.244	37.05838
988.414	43.38186
988.585	1.22931
988.755	39.16618
988.925	-30.3788
989.095	75.0024
989.265	72.8942
989.435	15.98162
989.605	30.7351
989.775	47.59764
989.945	43.38186
990.115	68.67788
990.285	39.16618
990.455	13.87408
990.625	34.9506
990.795	28.62739
990.965	66.56975
991.134	-36.69976
991.304	-7.20006
991.474	-26.16471
991.644	11.76656
991.814	49.70556
991.984	-24.05762
992.153	43.38186
992.323	47.59764
992.493	13.87408
992.662	56.02946
992.832	89.7604
993.002	-59.87469
993.171	58.13747
993.341	43.38186
993.511	30.7351
993.68	-13.52183
993.85	-70.40773
994.019	70.78603
994.189	26.51971
994.358	-2.98542
994.528	58.13747
994.697	47.59764
994.867	39.16618
995.036	32.84284
995.206	-19.84338
995.375	68.67788
995.544	13.87408
995.714	-34.5928
995.883	85.54372
996.052	-2.98542
996.222	41.27401
996.391	32.84284
996.56	-40.91361
996.73	9.65906
996.899	43.38186
997.068	58.13747
997.237	-34.5928
997.406	-30.3788
997.576	72.8942
997.745	7.55158
997.914	85.54372
998.083	-47.2342
998.252	98.19403
998.421	-7.20006
998.59	70.78603
998.759	22.3044
998.928	22.3044
999.097	49.70556
999.266	-36.69976
999.435	24.41204
999.604	34.9506
999.773	-40.91361
999.942	-0.87807
1000.111	66.56975
1000.28	-2.98542
1000.448	37.05838
1000.617	18.08919
1000.786	3.33671
1000.955	-17.73622
1001.124	24.41204
1001.292	-19.84338
1001.461	-0.87807
1001.63	26.51971
1001.798	-57.768
1001.967	-28.27177
1002.136	26.51971
1002.304	30.7351
1002.473	-32.48582
1002.642	72.8942
1002.81	30.7351
1002.979	89.7604
1003.147	-19.84338
1003.316	56.02946
1003.484	41.27401
1003.653	-80.94014
1003.821	-11.4146
1003.99	39.16618
1004.158	43.38186
1004.327	-34.5928
1004.495	37.05838
1004.663	-24.05762
1004.832	-49.34101
1005	-36.69976
1005.168	34.9506
1005.337	127.71452
1005.505	-5.09275
1005.673	30.7351
1005.842	-9.30734
1006.01	-53.55456
1006.178	15.98162
1006.346	30.7351
1006.514	30.7351
1006.683	49.70556
1006.851	18.08919
1007.019	13.87408
1007.187	47.59764
1007.355	-15.62904
1007.523	56.02946
1007.691	5.44413
1007.859	66.56975
1008.027	18.08919
1008.195	13.87408
1008.363	47.59764
1008.531	22.3044
1008.699	-36.69976
1008.867	30.7351
1009.035	11.76656
1009.203	5.44413
1009.37	15.98162
1009.538	75.0024
1009.706	32.84284
1009.874	-19.84338
1010.042	43.38186
1010.209	3.33671
1010.377	41.27401
1010.545	13.87408
1010.713	5.44413
1010.88	26.51971
1011.048	7.55158
1011.216	-45.12736
1011.383	66.56975
1011.551	-11.4146
1011.718	-34.5928
1011.886	41.27401
1012.054	24.41204
1012.221	72.8942
1012.389	-19.84338
1012.556	13.87408
1012.724	-34.5928
1012.891	-19.84338
1013.058	13.87408
1013.226	-40.91361
1013.393	7.55158
1013.561	-13.52183
1013.728	5.44413
1013.895	26.51971
1014.063	13.87408
1014.23	-51.44779
1014.397	66.56975
1014.565	-24.05762
1014.732	18.08919
1014.899	-45.12736
1015.066	56.02946
1015.233	28.62739
1015.401	1.22931
1015.568	51.8135
1015.735	5.44413
1015.902	13.87408
1016.069	18.08919
1016.236	-11.4146
1016.403	-0.87807
1016.57	-13.52183
1016.737	-2.98542
1016.904	56.02946
1017.071	-85.15292
1017.238	-61.98135
1017.405	-40.91361
1017.572	-51.44779
1017.739	-0.87807
1017.906	41.27401
1018.073	51.8135
1018.24	-36.69976
1018.407	-2.98542
1018.573	-30.3788
1018.74	39.16618
1018.907	7.55158
1019.074	-9.30734
1019.241	-17.73622
1019.407	24.41204
1019.574	49.70556
1019.741	58.13747
1019.907	-2.98542
1020.074	13.87408
1020.241	-2.98542
1020.407	-2.98542
1020.574	-15.62904
1020.74	-36.69976
1020.907	51.8135
1021.073	-9.30734
1021.24	11.76656
1021.406	-43.0205
1021.573	49.70556
1021.739	30.7351
1021.906	-26.16471
1022.072	11.76656
1022.239	-32.48582
1022.405	18.08919
1022.571	-15.62904
1022.738	-51.44779
1022.904	-43.0205
1023.07	47.59764
1023.237	-61.98135
1023.403	-30.3788
1023.569	-5.09275
1023.735	-61.98135
1023.902	9.65906
1024.068	-0.87807
1024.234	1.22931
1024.4	9.65906
1024.566	-36.69976
1024.732	20.19678
1024.898	-51.44779
1025.065	-15.62904
1025.231	-36.69976
1025.397	26.51971
1025.563	-32.48582
1025.729	-26.16471
1025.895	-61.98135
1026.061	-53.55456
1026.227	-74.62077
1026.392	-26.16471
1026.558	-11.4146
1026.724	-11.4146
1026.89	-11.4146
1027.056	-7.20006
1027.222	-61.98135
1027.388	3.33671
1027.553	-0.87807
1027.719	30.7351
1027.885	68.67788
1028.051	66.56975
1028.216	-28.27177
1028.382	26.51971
1028.548	24.41204
1028.713	-40.91361
1028.879	13.87408
1029.045	34.9506
1029.21	-9.30734
1029.376	39.16618
1029.541	47.59764
1029.707	-24.05762
1029.873	-15.62904
1030.038	-28.27177
1030.204	1.22931
1030.369	9.65906
1030.534	72.8942
1030.7	-5.09275
1030.865	24.41204
1031.031	5.44413
1031.196	-34.5928
1031.361	28.62739
1031.527	-47.2342
1031.692	51.8135
1031.857	93.97717
1032.023	-45.12736
1032.188	5.44413
1032.353	-24.05762
1032.518	87.65205
1032.684	64.46165
1032.849	-26.16471
1033.014	-9.30734
1033.179	-36.69976
1033.344	49.70556
1033.509	9.65906
1033.674	49.70556
1033.839	-83.04654
1034.004	41.27401
1034.17	-0.87807
1034.335	-2.98542
1034.5	-91.4719
1034.664	1.22931
1034.829	24.41204
1034.994	-40.91361
1035.159	-43.0205
1035.324	-15.62904
1035.489	11.76656
1035.654	-11.4146
1035.819	-0.87807
1035.984	20.19678
1036.148	-17.73622
1036.313	-15.62904
1036.478	7.55158
1036.643	-0.87807
1036.807	53.92147
1036.972	5.44413
1037.137	-19.84338
1037.301	-24.05762
1037.466	89.7604
1037.631	75.0024
1037.795	72.8942
1037.96	49.70556
1038.124	-51.44779
1038.289	56.02946
1038.454	22.3044
1038.618	-17.73622
1038.783	22.3044
1038.947	-11.4146
1039.111	-15.62904
1039.276	-43.0205
1039.44	-2.98542
1039.605	49.70556
1039.769	39.16618
1039.933	13.87408
1040.098	41.27401
1040.262	28.62739
1040.426	49.70556
1040.591	1.22931
1040.755	24.41204
1040.919	22.3044
1041.083	-70.40773
1041.248	24.41204
1041.412	11.76656
1041.576	-28.27177
1041.74	-57.768
1041.904	-40.91361
1042.068	-0.87807
1042.232	66.56975
1042.397	22.3044
1042.561	-83.04654
1042.725	-0.87807
1042.889	-45.12736
1043.053	56.02946
1043.217	-9.30734
1043.381	-70.40773
1043.544	-24.05762
1043.708	-19.84338
1043.872	34.9506
1044.036	5.44413
1044.2	43.38186
1044.364	-47.2342
1044.528	5.44413
1044.691	-5.09275
1044.855	5.44413
1045.019	-32.48582
1045.183	-24.05762
1045.346	-36.69976
1045.51	-45.12736
1045.674	32.84284
1045.837	-78.83371
1046.001	56.02946
1046.165	-32.48582
1046.328	-43.0205
1046.492	9.65906
1046.655	-26.16471
1046.819	47.59764
1046.983	22.3044
1047.146	39.16618
1047.31	9.65906
1047.473	41.27401
1047.636	-2.98542
1047.8	-9.30734
1047.963	30.7351
1048.127	-11.4146
1048.29	-24.05762
