Data from mixed_try6.1_USB4F045381__1__00285.txt Node

Date: Thu Apr 03 20:31:22 EDT 2025
User: mmckonesweet
Spectrometer: USB4F04538
Trigger mode: 4
Integration Time (sec): 2.700000E-3
Scans to average: 1
Electric dark correction enabled: true
Nonlinearity correction enabled: true
Boxcar width: 0
XAxis mode: Wavelengths
Number of Pixels in Spectrum: 3648
>>>>>Begin Spectral Data<<<<<
345.52	2.80986
345.736	2.80986
345.952	2.80986
346.168	42.8549
346.384	36.53143
346.6	-47.7609
346.816	19.66988
347.032	-5.61958
347.248	19.66988
347.464	2.80986
347.68	34.42366
347.896	-45.65407
348.112	53.39447
348.328	-9.83416
348.544	-18.26301
348.76	28.10047
348.975	-30.90556
349.191	63.93463
349.407	-47.7609
349.623	-22.47729
349.839	-18.26301
350.055	13.34719
350.27	-3.51226
350.486	-3.51226
350.702	30.20817
350.918	7.02472
351.133	-14.04863
351.349	-81.46674
351.565	-30.90556
351.781	-30.90556
351.996	2.80986
352.212	-26.69148
352.428	23.88513
352.644	44.96277
352.859	-1.40491
353.075	49.17857
353.291	-14.04863
353.506	-47.7609
353.722	19.66988
353.938	13.34719
354.153	13.34719
354.369	-3.51226
354.584	70.25899
354.8	70.25899
355.016	-26.69148
355.231	2.80986
355.447	23.88513
355.662	28.10047
355.878	32.3159
356.093	28.10047
356.309	53.39447
356.524	47.07066
356.74	23.88513
356.955	36.53143
357.171	7.02472
357.386	61.82655
357.602	19.66988
357.817	-20.37016
358.033	49.17857
358.248	30.20817
358.464	-30.90556
358.679	-20.37016
358.895	53.39447
359.11	-18.26301
359.325	21.7775
359.541	38.63923
359.756	28.10047
359.972	40.74705
360.187	36.53143
360.402	-37.2265
360.618	-33.01256
360.833	28.10047
361.048	28.10047
361.264	32.3159
361.479	95.55848
361.694	4.91728
361.909	28.10047
362.125	-62.50801
362.34	70.25899
362.555	13.34719
362.77	28.10047
362.986	13.34719
363.201	78.6918
363.416	2.80986
363.631	80.80005
363.847	-41.44034
364.062	95.55848
364.277	-39.33343
364.492	44.96277
364.707	-35.11954
364.922	13.34719
365.138	15.45473
365.353	-20.37016
365.568	-30.90556
365.783	-39.33343
365.998	34.42366
366.213	-64.61464
366.428	17.5623
366.643	15.45473
366.858	47.07066
367.073	-11.94141
367.288	4.91728
367.503	103.99236
367.718	-20.37016
367.933	-39.33343
368.148	4.91728
368.363	19.66988
368.578	-14.04863
368.793	2.80986
369.008	-26.69148
369.223	17.5623
369.438	13.34719
369.653	34.42366
369.868	19.66988
370.083	11.23968
370.298	-39.33343
370.513	150.38492
370.728	44.96277
370.943	53.39447
371.157	-5.61958
371.372	-60.40135
371.587	44.96277
371.802	36.53143
372.017	-24.5844
372.232	-5.61958
372.446	28.10047
372.661	17.5623
372.876	30.20817
373.091	19.66988
373.306	44.96277
373.52	-16.15583
373.735	36.53143
373.95	-30.90556
374.165	68.15085
374.379	2.80986
374.594	-5.61958
374.809	32.3159
375.023	78.6918
375.238	32.3159
375.453	-5.61958
375.667	47.07066
375.882	47.07066
376.097	19.66988
376.311	30.20817
376.526	-20.37016
376.741	49.17857
376.955	53.39447
377.17	-11.94141
377.384	-1.40491
377.599	70.25899
377.813	7.02472
378.028	4.91728
378.242	28.10047
378.457	42.8549
378.672	34.42366
378.886	61.82655
379.101	-5.61958
379.315	38.63923
379.53	-18.26301
379.744	63.93463
379.958	70.25899
380.173	87.12496
380.387	-56.18797
380.602	32.3159
380.816	-20.37016
381.031	-20.37016
381.245	-9.83416
381.459	-26.69148
381.674	-35.11954
381.888	63.93463
382.103	40.74705
382.317	-7.72688
382.531	-5.61958
382.746	55.50246
382.96	66.04272
383.174	-11.94141
383.388	49.17857
383.603	13.34719
383.817	-35.11954
384.031	17.5623
384.246	36.53143
384.46	53.39447
384.674	28.10047
384.888	-26.69148
385.103	55.50246
385.317	-35.11954
385.531	-11.94141
385.745	36.53143
385.959	91.34168
386.174	63.93463
386.388	-20.37016
386.602	40.74705
386.816	4.91728
387.03	19.66988
387.244	11.23968
387.458	44.96277
387.672	53.39447
387.887	4.91728
388.101	61.82655
388.315	40.74705
388.529	17.5623
388.743	44.96277
388.957	11.23968
389.171	21.7775
389.385	-47.7609
389.599	63.93463
389.813	32.3159
390.027	15.45473
390.241	13.34719
390.455	28.10047
390.669	70.25899
390.883	53.39447
391.097	80.80005
391.311	57.61047
391.525	-22.47729
391.738	2.80986
391.952	-43.54722
392.166	30.20817
392.38	70.25899
392.594	-1.40491
392.808	47.07066
393.022	2.80986
393.236	28.10047
393.449	4.91728
393.663	2.80986
393.877	-18.26301
394.091	-14.04863
394.305	-5.61958
394.518	55.50246
394.732	4.91728
394.946	2.80986
395.16	61.82655
395.373	-7.72688
395.587	44.96277
395.801	-1.40491
396.015	70.25899
396.228	-49.86771
396.442	-9.83416
396.656	32.3159
396.869	61.82655
397.083	32.3159
397.297	-39.33343
397.51	11.23968
397.724	-9.83416
397.938	95.55848
398.151	19.66988
398.365	28.10047
398.578	19.66988
398.792	89.23331
399.005	44.96277
399.219	59.7185
399.433	47.07066
399.646	57.61047
399.86	87.12496
400.073	19.66988
400.287	53.39447
400.5	36.53143
400.714	99.77538
400.927	30.20817
401.141	40.74705
401.354	-14.04863
401.567	13.34719
401.781	28.10047
401.994	-28.79853
402.208	-3.51226
402.421	44.96277
402.635	11.23968
402.848	72.36716
403.061	87.12496
403.275	-14.04863
403.488	61.82655
403.701	-49.86771
403.915	11.23968
404.128	17.5623
404.341	85.01664
404.555	66.04272
404.768	-5.61958
404.981	-14.04863
405.195	-3.51226
405.408	80.80005
405.621	40.74705
405.834	59.7185
406.048	-14.04863
406.261	11.23968
406.474	-28.79853
406.687	34.42366
406.9	103.99236
407.114	49.17857
407.327	13.34719
407.54	9.13219
407.753	61.82655
407.966	23.88513
408.179	-7.72688
408.392	74.47535
408.605	51.28651
408.819	55.50246
409.032	47.07066
409.245	-33.01256
409.458	89.23331
409.671	32.3159
409.884	-18.26301
410.097	4.91728
410.31	85.01664
410.523	28.10047
410.736	36.53143
410.949	72.36716
411.162	13.34719
411.375	87.12496
411.588	-9.83416
411.801	53.39447
412.014	28.10047
412.227	28.10047
412.44	-18.26301
412.653	61.82655
412.865	47.07066
413.078	91.34168
413.291	78.6918
413.504	7.02472
413.717	103.99236
413.93	36.53143
414.143	-24.5844
414.356	4.91728
414.568	97.66692
414.781	47.07066
414.994	49.17857
415.207	91.34168
415.42	11.23968
415.632	11.23968
415.845	137.73137
416.058	47.07066
416.271	70.25899
416.483	30.20817
416.696	38.63923
416.909	42.8549
417.121	78.6918
417.334	7.02472
417.547	44.96277
417.759	44.96277
417.972	158.82104
418.185	19.66988
418.397	59.7185
418.61	23.88513
418.823	28.10047
419.035	108.20943
419.248	53.39447
419.46	106.10089
419.673	36.53143
419.885	30.20817
420.098	125.07859
420.311	-14.04863
420.523	23.88513
420.736	49.17857
420.948	163.03922
421.161	51.28651
421.373	-39.33343
421.586	15.45473
421.798	76.58356
422.01	23.88513
422.223	40.74705
422.435	63.93463
422.648	112.42659
422.86	40.74705
423.073	103.99236
423.285	72.36716
423.497	146.16698
423.71	57.61047
423.922	57.61047
424.134	154.60294
424.347	68.15085
424.559	95.55848
424.771	106.10089
424.984	55.50246
425.196	89.23331
425.408	44.96277
425.621	19.66988
425.833	152.49392
426.045	95.55848
426.257	82.90833
426.47	135.62252
426.682	125.07859
426.894	137.73137
427.106	129.2961
427.318	101.88386
427.531	158.82104
427.743	95.55848
427.955	40.74705
428.167	61.82655
428.379	101.88386
428.591	72.36716
428.804	68.15085
429.016	175.69428
429.228	125.07859
429.44	103.99236
429.652	120.86117
429.864	146.16698
430.076	150.38492
430.288	182.02209
430.5	146.16698
430.712	205.22562
430.924	114.5352
431.136	165.14835
431.348	224.21213
431.56	131.40488
431.772	137.73137
431.984	169.36666
432.196	122.96987
432.408	171.47585
432.62	175.69428
432.832	148.27594
433.044	198.89714
433.256	188.35008
433.468	148.27594
433.679	203.11611
433.891	190.45945
434.103	146.16698
434.315	169.36666
434.527	219.99277
434.739	152.49392
434.95	219.99277
435.162	213.66387
435.374	160.93012
435.586	190.45945
435.798	224.21213
436.009	190.45945
436.221	230.54133
436.433	285.40159
436.645	215.77348
436.856	219.99277
437.068	146.16698
437.28	323.38914
437.491	243.20024
437.703	253.74986
437.915	103.99236
438.126	264.29997
438.338	247.42003
438.55	188.35008
438.761	238.98052
438.973	359.27157
439.184	238.98052
439.396	342.38509
439.608	238.98052
439.819	243.20024
440.031	238.98052
440.242	395.15895
440.454	279.07091
440.665	276.96072
440.877	390.93666
441.088	306.50506
441.3	418.38275
441.511	325.49973
441.723	319.16801
441.934	325.49973
442.146	325.49973
442.357	376.15915
442.569	355.04985
442.78	342.38509
442.991	357.1607
443.203	308.61551
443.414	424.71685
443.626	420.4941
443.837	433.16254
444.048	331.83161
444.26	405.71498
444.471	382.49226
444.682	384.60334
444.894	416.27141
445.105	331.83161
445.316	424.71685
445.528	477.5065
445.739	437.38548
445.95	511.29683
446.161	483.8419
446.373	479.61829
446.584	498.62502
446.795	433.16254
447.006	589.45082
447.217	456.38949
447.429	534.52983
447.64	441.60848
447.851	458.50112
448.062	538.7542
448.273	466.9478
448.484	485.95373
448.695	517.63294
448.907	570.43868
449.118	504.96086
449.329	445.83155
449.54	504.96086
449.751	513.40885
449.962	502.8489
450.173	492.28931
450.384	521.85708
450.595	500.73695
450.806	695.0923
451.017	576.77594
451.228	635.92933
451.439	638.04213
451.65	733.13033
451.861	568.32629
452.072	711.99765
452.283	654.94499
452.494	671.84861
452.705	682.41375
452.915	600.01358
453.126	724.67713
453.337	652.83209
453.548	800.76185
453.759	817.67129
453.97	826.12623
454.181	788.08017
454.391	838.80892
454.602	851.49193
454.813	923.36798
455.024	895.88486
455.235	741.5837
455.445	760.60439
455.656	830.35376
455.867	1035.42699
456.078	946.62393
456.288	796.53458
456.499	1018.51126
456.71	942.39551
456.921	864.17524
457.131	1179.2242
457.342	923.36798
457.553	1100.97885
457.763	940.28131
457.974	1143.2729
458.184	1069.25957
458.395	1185.56866
458.606	1155.96146
458.816	1420.33006
459.027	1238.44038
459.237	1291.3139
459.448	1494.35684
459.659	1246.90003
459.869	1418.21501
460.08	1329.3837
460.29	1507.04711
460.501	1399.17959
460.711	1435.13541
460.922	1411.86987
461.132	1485.89665
461.343	1452.05583
461.553	1439.36552
461.764	1500.70198
461.974	1559.9229
462.184	1629.71757
462.395	1760.83962
462.605	1820.0516
462.816	1676.24605
463.026	1790.44602
463.236	1836.96869
463.447	1862.34375
463.657	1803.13423
463.867	2050.51713
464.078	1999.77855
464.288	2044.17502
464.498	2090.68233
464.709	2181.57241
464.919	1887.7181
465.129	2158.32286
465.339	2162.55012
465.55	2179.45885
465.76	2092.79622
465.97	2380.20645
466.18	2352.74079
466.391	2506.94795
466.601	2367.5302
466.811	2606.20047
467.021	2635.75993
467.231	2658.98351
467.441	2532.29148
467.651	2867.92435
467.862	2842.60531
468.072	3053.533
468.282	2846.82529
468.492	2920.66574
468.702	3089.37566
468.912	3399.11214
469.122	3148.40066
469.332	3083.05082
469.542	3171.5856
469.752	3432.80263
469.962	3289.58708
470.172	3632.74428
470.382	3500.16986
470.592	3586.45683
470.802	3432.80263
471.012	3578.03995
471.222	3710.57069
471.432	3800.98446
471.642	3861.94072
471.852	4042.60823
472.062	3929.18334
472.272	4348.97095
472.482	4200.04272
472.691	4384.61371
472.901	4084.60225
473.111	4332.19572
473.321	4432.82625
473.531	4780.44766
473.741	4457.97603
473.95	4809.73681
474.16	4646.49792
474.37	4947.754
474.58	5014.63544
474.79	5181.73541
474.999	4972.83731
475.209	5043.88864
475.419	5450.86971
475.628	5319.48072
475.838	5407.08374
476.048	5488.3923
476.258	5502.98235
476.467	5744.5923
476.677	6100.1798
476.886	5927.67081
477.096	6069.01549
477.306	6278.7532
477.515	6152.10857
477.725	6316.1071
477.935	6245.54338
478.144	6384.56957
478.354	6455.08012
478.563	6939.63493
478.773	6465.44705
478.982	6809.30123
479.192	6958.24669
479.401	6916.88474
479.611	6933.4306
479.82	7088.47795
480.03	7222.75056
480.239	7480.70558
480.449	7224.81556
480.658	7575.5477
480.868	7629.13407
481.077	7929.77763
481.287	7709.48671
481.496	7777.45235
481.705	8086.10274
481.915	8155.99984
482.124	8217.65458
482.333	8299.83321
482.543	8336.80335
482.752	8542.07904
482.961	8482.5688
483.171	8605.67585
483.38	8628.23812
483.589	8950.02118
483.799	8962.30981
484.008	9240.68425
484.217	8882.42226
484.426	9058.54889
484.636	9230.4555
484.845	9663.79532
485.054	9222.27219
485.263	9471.74354
485.472	9565.74374
485.682	9774.06079
485.891	9669.92235
486.1	9945.49766
486.309	10014.85936
486.518	10063.81057
486.727	9898.56699
486.936	10173.92111
487.146	10271.7633
487.355	10497.90558
487.564	10497.90558
487.773	10497.90558
487.982	10589.53963
488.191	10670.97094
488.4	10729.99643
488.609	11031.07641
488.818	10882.60221
489.027	11191.68796
489.236	11287.21041
489.445	11466.00101
489.654	11358.32951
489.863	11212.01381
490.072	11520.8421
490.281	11327.8514
490.49	11817.27422
490.698	11626.44269
490.907	11841.63017
491.116	12070.924
491.325	12093.23923
491.534	12127.72457
491.743	11916.72009
491.952	12214.94253
492.16	12387.31093
492.369	12269.70038
492.578	12630.57202
492.787	12827.14371
492.996	12585.981
493.204	12677.18677
493.413	12628.54522
493.622	12956.81178
493.831	12695.42647
494.039	13078.35641
494.248	13094.56103
494.457	13250.51525
494.665	13568.4225
494.874	13720.25711
495.083	13282.918
495.291	13319.36979
495.5	13416.56806
495.709	13481.36185
495.917	13588.66821
496.126	13485.41133
496.335	13675.72089
496.543	14040.06668
496.752	13934.82037
496.96	13874.09816
497.169	13736.45173
497.377	14171.61564
497.586	14325.41574
497.794	14790.81092
498.003	14139.23522
498.211	14511.58172
498.42	14438.73567
498.628	14337.55741
498.837	14774.6242
499.045	14786.76424
499.254	14655.24553
499.462	15005.28132
499.671	15102.39859
499.879	15286.51636
500.087	15359.35452
500.296	15116.56149
500.504	14867.69722
500.713	15227.8414
500.921	15391.72717
501.129	15349.23808
501.338	15418.03003
501.546	15636.5498
501.754	15148.93383
501.962	15511.10236
502.171	15618.33951
502.379	15725.57892
502.587	15549.54564
502.795	15579.89577
503.004	15863.17319
503.212	16099.92976
503.42	16087.78792
503.628	15998.74942
503.837	16101.95341
504.045	15978.51378
504.253	16249.6839
504.461	16581.60748
504.669	16478.38153
504.877	16618.04152
505.085	16719.25105
505.294	16739.49365
505.502	16502.66949
505.71	16749.61505
505.918	16613.99326
506.126	17116.05223
506.334	16678.76654
506.542	16808.32032
506.75	16921.68817
506.958	17215.26875
507.166	17033.03952
507.374	17172.74654
507.582	17083.65648
507.79	17261.84216
507.998	17235.51787
508.206	17429.92457
508.414	17318.54233
508.622	17504.85971
508.83	17383.34541
509.037	17575.7483
509.245	17302.34204
509.453	17725.64015
509.661	17350.94348
509.869	17567.64654
510.077	17494.73309
510.285	17865.42071
510.492	17824.90293
510.7	18096.3988
510.908	17899.86191
511.116	17938.35621
511.324	18084.24091
511.531	17993.06081
511.739	18120.71499
511.947	18303.10317
512.155	18201.77271
512.362	18175.42831
512.57	18209.87881
512.778	18258.51662
512.985	18459.17039
513.193	18376.06687
513.401	18663.91635
513.608	18876.81343
513.816	18513.9006
514.024	18787.5941
514.231	18536.19889
514.439	18511.8735
514.646	18895.06379
514.854	19268.25411
515.061	18773.40082
515.269	18961.98456
515.477	19158.71657
515.684	18990.37652
515.892	18897.09163
516.099	19091.78283
516.307	18848.42462
516.514	19345.34328
516.722	19440.69866
516.929	19649.70109
517.136	19424.46731
517.344	19562.44227
517.551	19515.77212
517.759	19832.36088
517.966	19931.82328
518.173	19842.50964
518.381	20293.22063
518.588	19844.53941
518.796	20065.809
519.003	20147.02138
519.21	19791.76688
519.418	19887.16544
519.625	20134.83909
519.832	20305.40488
520.039	20451.62771
520.247	20423.19379
520.454	20246.51572
520.661	20514.59146
520.868	20138.89984
521.076	20709.60141
521.283	20283.0672
521.49	20711.63297
521.697	20463.81393
521.904	20589.74699
522.112	20264.79129
522.319	21099.73591
522.526	20689.28609
522.733	20868.07522
522.94	20792.8986
523.147	21105.83296
523.354	20835.56572
523.561	21274.53259
523.768	21073.31577
523.975	21264.36917
524.183	20916.84145
524.39	21510.35207
524.597	21532.71705
524.804	21475.78896
525.011	21595.74819
525.218	21797.06645
525.425	22018.76372
525.632	21557.11575
525.838	21746.2249
526.045	21616.08163
526.252	21872.31638
526.459	22071.65232
526.666	22033.00271
526.873	22293.40514
527.08	22297.47441
527.287	22366.65424
527.494	22287.30126
527.701	22437.87318
527.907	22311.71697
528.114	22612.88697
528.321	22423.62903
528.528	22460.25718
528.735	22724.82813
528.941	22557.93794
529.148	22030.96856
529.355	22822.53083
529.562	22356.48047
529.768	22655.62689
529.975	21856.04568
530.182	22586.42971
530.388	22358.51522
530.595	22655.62689
530.802	22928.38435
531.008	23313.19711
531.215	23541.28846
531.422	23229.7093
531.628	23443.53022
531.835	23445.56678
532.042	23630.90639
532.248	23280.61586
532.455	23608.50135
532.661	23575.91287
532.868	23478.15212
533.074	23783.67765
533.281	23610.53816
533.487	23795.90007
533.694	23734.78902
533.9	24221.71194
534.107	23816.271
534.313	24160.58313
534.52	24219.67427
534.726	24462.17526
534.933	24396.96125
535.139	24608.91635
535.345	24360.27954
535.552	24541.65839
535.758	24121.86948
535.965	24612.99268
536.171	24321.56089
536.377	24849.43647
536.584	24663.94762
536.79	24716.94239
536.996	24706.75096
537.203	24690.44479
537.409	24718.98068
537.615	25006.40391
537.821	24816.8216
538.028	25232.70534
538.234	25071.64114
538.44	25159.30729
538.646	25055.33161
538.853	25240.86085
539.059	24945.24613
539.265	25224.54986
539.471	25483.5029
539.677	25224.54986
539.883	25540.59941
540.09	25510.0118
540.296	25636.44351
540.502	25936.23877
540.708	25618.09004
540.914	26036.17943
541.12	25624.20785
541.326	25919.92234
541.532	25928.08054
541.738	26091.2506
541.944	25758.80397
542.15	26513.50408
542.356	26256.47171
542.562	26070.85372
542.768	26038.21908
542.974	25950.51574
543.18	25854.6578
543.386	26250.35221
543.592	26670.59182
543.798	26442.10362
544.004	26395.18439
544.21	26642.02974
544.415	26672.63198
544.621	27303.11035
544.827	26607.3476
545.033	26988.87465
545.239	26660.39104
545.445	27235.77145
545.651	27048.04644
545.856	27258.21759
546.062	27203.12281
546.268	26888.8974
546.474	26839.93021
546.679	26591.02675
546.885	26588.98666
547.091	26943.98649
547.297	26642.02974
547.502	27215.36601
547.708	26915.42165
547.914	26856.25251
548.119	27227.60926
548.325	27519.42049
548.531	26931.74438
548.736	27352.08497
548.942	27576.56137
549.147	27205.16334
549.353	27354.1256
549.559	27964.32785
549.764	27782.68457
549.97	27790.84812
550.175	27603.09139
550.381	28182.71988
550.586	27615.33608
550.792	28599.12814
550.997	28023.51695
551.203	28478.69176
551.408	28378.67114
551.614	28521.55852
551.819	28352.13549
552.025	28123.52826
552.23	28782.8517
552.435	28646.07891
552.641	28909.42173
552.846	28705.27849
553.052	28523.59981
553.257	28499.10445
553.462	28570.54968
553.668	28617.50011
553.873	28425.61928
554.078	29223.82263
554.283	29087.0348
554.489	29568.87549
554.694	29174.82347
554.899	28997.20652
555.105	28848.17767
555.31	29346.32316
555.515	29182.98995
555.72	29182.98995
555.925	28938.00261
556.131	29366.74029
556.336	29205.44787
556.541	29677.09357
556.746	29268.73906
556.951	28827.76319
557.156	29048.24507
557.361	28933.91962
557.567	29613.79583
557.772	29658.7167
557.977	29479.03634
558.182	29734.26661
558.387	29871.07702
558.592	29971.13554
558.797	29830.23757
559.002	29558.66639
559.207	29673.00981
559.412	30277.45421
559.617	29832.27953
559.822	30169.21862
560.027	30005.85035
560.232	30142.67077
560.437	30195.76667
560.642	30179.42938
560.847	29895.5809
561.051	29942.54711
561.256	29924.16896
561.461	30252.94775
561.666	30234.56801
561.871	30254.98995
562.076	29856.78316
562.281	30261.11655
562.485	29862.90909
562.69	30081.40726
562.895	29850.65724
563.1	30608.30877
563.305	30181.47154
563.509	30428.58126
563.714	30144.71291
563.919	30602.18153
564.123	30808.47169
564.328	30869.74863
564.533	31084.22793
564.737	30663.45443
564.942	30912.64324
565.147	31229.26594
565.351	31074.01427
565.556	31345.71049
565.761	31321.19543
565.965	31331.41001
566.17	31037.2454
566.374	30616.47844
566.579	31233.35163
566.784	31125.08294
566.988	31184.32377
567.193	31296.68059
567.397	31174.10974
567.602	31120.99741
567.806	30775.79115
568.011	31533.66708
568.215	31676.68704
568.42	31339.5817
568.624	31364.09694
568.828	31049.50164
569.033	31182.28096
569.237	31394.74132
569.442	31684.85987
569.646	30922.85633
569.85	31554.09799
570.055	32160.97821
570.259	31860.58258
570.463	31787.0226
570.668	31564.31351
570.872	31543.88251
571.076	32085.36442
571.281	32189.58956
571.485	32387.8367
571.689	32154.84726
571.893	31803.36906
572.098	32189.58956
572.302	32118.06193
572.506	32351.04705
572.71	32279.51362
572.914	32678.09188
573.119	32322.43336
573.323	32310.17048
573.527	32402.14398
573.731	32618.81061
573.935	32163.02187
574.139	32220.24504
574.343	32113.97472
574.547	32571.79584
574.751	32702.62265
574.955	32385.79281
575.159	32451.19834
575.364	32113.97472
575.568	32909.1041
575.772	32892.74819
575.976	33105.38812
576.18	32457.33023
576.383	32849.81472
576.587	32743.50805
576.791	32612.67818
576.995	32674.00345
577.199	32575.88403
577.403	32698.53417
577.607	32997.01995
577.811	33127.88058
578.015	32592.23689
578.219	33119.70147
578.422	32841.63704
578.626	33031.77873
578.83	33001.10918
579.034	32984.75233
579.238	33248.52774
579.442	33862.14973
579.645	33514.39613
579.849	33610.53044
580.053	33798.72876
580.257	33428.49466
580.46	33663.71413
580.664	33847.82858
580.868	33858.05796
581.071	34138.37686
581.275	33553.2581
581.479	33481.67112
581.682	34038.10914
581.886	34160.88714
582.09	33813.04934
582.293	33504.16948
582.497	33911.25209
582.7	33980.81718
582.904	33841.691
583.107	33974.67892
583.311	33802.82034
583.515	33847.82858
583.718	33890.79253
583.922	33864.19562
584.125	33833.5076
584.329	33898.97631
584.532	34126.09871
584.735	34611.19065
584.939	34091.31133
585.142	34302.09836
585.346	34048.34014
585.549	34357.35987
585.753	34265.25891
585.956	34463.79749
586.159	34183.39787
586.363	34940.8575
586.566	34942.90548
586.769	34603.00158
586.973	34455.6096
587.176	34566.1516
587.379	35149.77484
587.582	35592.35439
587.786	35049.40656
587.989	35383.32935
588.192	35309.56841
588.395	35455.04762
588.599	35641.54461
588.802	35346.44808
589.005	34654.18435
589.208	35694.83748
589.411	35580.05731
589.615	35348.49699
589.818	35944.95331
590.021	35563.66149
590.224	35223.52206
590.427	35787.08376
590.63	35534.96962
590.833	35174.35656
591.036	35299.32435
591.239	36168.48884
591.442	35358.74166
591.645	35596.45346
591.848	35815.78486
592.051	35889.59268
592.254	35651.79296
592.457	35719.43541
592.66	35912.14651
592.863	36240.28114
593.066	36047.48397
593.269	36535.73415
593.472	35930.60016
593.675	36584.98902
593.878	35971.60991
594.081	36305.92628
594.284	36548.04752
594.486	36626.03759
594.689	36658.87831
594.892	36796.41719
595.095	36714.30085
595.298	35641.54461
595.5	36057.73783
595.703	36726.61762
595.906	36669.14138
596.109	36490.5871
596.311	36806.68249
596.514	36831.31989
596.717	36706.0898
596.92	37431.14094
597.122	37272.90933
597.325	36283.36006
597.528	36751.25188
597.73	36946.30737
597.933	36338.7512
598.136	37112.66702
598.338	36913.45161
598.541	37437.3067
598.743	37283.18278
598.946	37299.62068
599.148	37088.01823
599.351	37003.80921
599.554	37044.8853
599.756	37053.10086
599.959	38011.02817
600.161	37984.28179
600.363	37727.17518
600.566	37248.2538
600.768	37124.9918
600.971	37172.23916
601.173	37365.377
601.376	37059.2626
601.578	37700.44326
601.78	37433.19618
601.983	37369.48702
602.185	37422.92002
602.388	37474.3027
602.59	37383.87233
602.792	37488.69069
602.995	37725.11883
603.197	37782.69959
603.399	38025.43064
603.601	37887.59492
603.804	37712.7809
604.006	37842.34339
604.208	37562.692
604.41	37869.08246
604.613	38132.43316
604.815	38039.83351
605.017	38103.62257
605.219	37192.78268
605.421	37443.47253
605.623	37821.7758
605.826	38095.39127
606.028	37743.62626
606.23	38420.63083
606.432	38369.15457
606.634	38478.29075
606.836	37696.33078
607.038	37646.9834
607.24	37721.00616
607.442	37484.5798
607.644	37809.43563
607.846	37879.36708
608.048	37776.52993
608.25	37883.48098
608.452	37657.26373
608.654	38630.71117
608.856	37723.06249
609.058	37558.58055
609.26	37612.03173
609.462	37869.08246
609.664	38303.27288
609.866	37846.457
610.067	38260.04282
610.269	38453.57851
610.471	37858.79804
610.673	38420.63083
610.875	39061.46608
611.077	39030.53704
611.278	38725.48384
611.48	38937.76271
611.682	38507.1233
611.884	39199.64217
612.085	38441.22287
612.287	39088.27299
612.489	39088.27299
612.69	38575.09265
612.892	38362.97778
613.094	38470.0532
613.295	38330.03624
613.497	38478.29075
613.699	38418.57167
613.9	38805.84972
614.102	38509.18284
614.304	38667.79384
614.505	38255.92587
614.707	38500.94475
614.908	38540.07692
615.11	38822.33676
615.311	38585.39188
615.513	38342.38906
615.714	38659.553
615.916	38484.46901
616.117	38350.62444
616.319	38754.33152
616.52	38385.62638
616.722	38379.44938
616.923	37918.45047
617.124	38039.83351
617.326	37846.457
617.527	38492.70681
617.729	38358.85997
617.93	38445.34138
618.131	38855.31262
618.333	38538.01726
618.534	38840.88539
618.735	38999.61013
618.937	38704.87945
619.138	38762.57405
619.339	38410.33514
619.54	38649.25214
619.742	38950.13151
619.943	38921.27149
620.144	38126.25932
620.345	38632.77124
620.546	38737.84691
620.748	39084.14875
620.949	38455.63782
621.15	38509.18284
621.351	38107.73826
621.552	38577.15247
621.753	38408.27603
621.954	38976.93176
622.155	38498.88525
622.356	38805.84972
622.558	38231.22488
622.759	38274.45242
622.96	38680.15538
623.161	38437.10439
623.362	38908.90348
623.563	38970.74694
623.764	38336.21261
623.965	39187.26642
624.166	39492.63802
624.366	38807.91057
624.567	38591.57153
624.768	38758.45277
624.969	38367.09563
625.17	38838.8244
625.371	38684.27597
625.572	38673.97457
625.773	38503.00426
625.973	38731.66534
626.174	38845.00741
626.375	38517.42107
626.576	38789.36327
626.777	39471.99795
626.977	38943.94707
627.178	39162.51598
627.379	38731.66534
627.58	38921.27149
627.78	38709.00026
627.981	38719.30243
628.182	39022.28966
628.382	39364.68571
628.583	39300.72388
628.784	39137.76693
628.984	38663.6734
629.185	39515.34326
629.386	38593.63143
629.586	39548.37123
629.787	39009.91886
629.987	39152.20371
630.188	39418.33846
630.388	39831.28043
630.589	38830.5805
630.79	38847.06843
630.99	38783.18101
631.191	38535.9576
631.391	38723.42336
631.591	38676.03483
631.792	39119.20606
631.992	39566.95061
632.193	39463.7422
632.393	38867.67918
632.594	39490.57397
632.794	39515.34326
632.994	39278.03002
633.195	38923.33286
633.395	38474.17196
633.595	38830.5805
633.796	38690.45692
633.996	39381.19354
634.196	38962.50066
634.397	39102.70815
634.597	39121.26834
634.797	39352.30526
634.997	39199.64217
635.198	38638.95151
635.398	38441.22287
635.598	39146.01646
635.798	38849.12947
635.998	38566.85342
636.199	38826.45861
636.399	39375.00303
636.599	39240.89718
636.799	39218.20644
636.999	38855.31262
637.199	38948.07002
637.399	38618.35093
637.599	38948.07002
637.799	38408.27603
637.999	38818.21495
638.199	40145.39481
638.399	39263.58909
638.599	39121.26834
638.799	39457.5505
638.999	40004.83959
639.199	39643.34115
639.399	39581.40181
639.599	39597.91807
639.799	39430.72082
639.999	39843.67505
640.199	39750.72453
640.399	39335.79855
640.599	38762.57405
640.799	40430.79345
640.998	39827.14897
641.198	39558.69301
641.398	39146.01646
641.598	39796.16437
641.798	39620.62899
641.997	40058.57544
642.197	40331.50066
642.397	40114.38571
642.597	39839.54347
642.796	39895.32337
642.996	39408.0201
643.196	39383.25706
643.395	39686.70416
643.595	39909.78607
643.795	40246.70816
643.994	39889.12522
644.194	39736.26745
644.394	40275.65963
644.593	39748.6592
644.793	40317.02259
644.992	39505.02254
645.192	39953.17729
645.392	40192.94681
645.591	40695.69993
645.791	40271.52357
645.99	39870.53136
646.19	39441.03973
646.389	39643.34115
646.589	39535.98544
646.788	39699.09443
646.987	39507.08666
647.187	40110.25135
647.386	39732.13695
647.586	39913.91837
647.785	40141.26012
647.984	40664.64664
648.184	40747.4611
648.383	40288.06805
648.582	40507.34908
648.782	40418.38045
648.981	39951.11094
649.18	40068.91009
649.38	40254.97979
649.579	40635.66588
649.778	40298.40871
649.977	40308.74965
650.177	40509.41836
650.376	39971.77496
650.575	39637.1468
650.774	39889.12522
650.973	39905.65382
651.173	39969.70851
651.372	39657.79498
651.571	40728.82626
651.77	40172.27132
651.969	40325.29571
652.168	40453.55164
652.367	40137.12548
652.566	40317.02259
652.765	40969.08004
652.964	39980.04086
653.163	39676.37923
653.362	40354.25301
653.561	39723.87607
653.76	40314.95434
653.959	39926.31551
654.158	40066.84314
654.357	39936.64675
654.556	39781.70569
654.755	40219.82656
654.954	40517.69561
655.153	40772.309
655.352	40766.09687
655.551	40273.59159
655.749	40285.99996
655.948	40552.8759
656.147	40877.93101
656.346	40915.21654
656.545	40776.45047
656.743	40745.39052
656.942	40476.31117
657.141	40969.08004
657.34	40695.69993
657.538	40790.946
657.737	41271.69164
657.936	41304.86991
658.135	41039.52882
658.333	41002.23073
658.532	41180.46711
658.731	41056.10697
658.929	40801.3003
659.128	39814.75485
659.326	40447.34472
659.525	40902.78761
659.724	40391.48701
659.922	40254.97979
660.121	39789.96773
660.319	39901.52161
660.518	40108.18419
660.716	40066.84314
660.915	40273.59159
661.113	40432.86232
661.312	40199.14967
661.51	40422.51807
661.709	40536.32006
661.907	40643.94587
662.105	40973.22371
662.304	40275.65963
662.502	39963.50922
662.701	39986.2404
662.899	39862.26769
663.097	40557.01497
663.296	40565.29325
663.494	41350.49505
663.692	40501.1413
663.891	40362.52692
664.089	40420.44926
664.287	40393.55567
664.485	40261.18362
664.684	39973.84142
664.882	39616.49964
665.08	39953.17729
665.278	40385.28109
665.476	40882.07366
665.675	40476.31117
665.873	40515.62628
666.071	40447.34472
666.269	40629.456
666.467	40331.50066
666.665	40600.47793
666.863	39841.60925
667.061	40176.40633
667.259	39949.04459
667.457	40542.52842
667.655	40449.41368
667.853	40497.00283
668.051	40099.91563
668.249	39847.80667
668.447	40304.61324
668.645	40343.91087
668.843	40712.26273
669.041	40298.40871
669.239	40141.26012
669.437	40221.89431
669.635	39882.92717
669.833	39756.92058
670.031	40174.33882
670.229	39854.00419
670.426	39523.60001
670.624	39922.18309
670.822	39963.50922
671.02	39690.83421
671.218	39818.88618
671.415	39513.27909
671.613	39858.13592
671.811	39938.71303
672.009	39614.43498
672.206	39847.80667
672.404	39269.77801
672.602	39674.31427
672.799	39552.49991
672.997	39942.84563
673.195	39434.84835
673.392	39587.59533
673.59	39897.38944
673.788	40029.63986
673.985	39300.72388
674.183	39969.70851
674.38	39651.60042
674.578	39690.83421
674.775	39403.89283
674.973	39922.18309
675.17	39891.19126
675.368	39862.26769
675.565	39932.51423
675.763	39860.2018
675.96	39758.98595
676.158	39767.24753
676.355	39672.24932
676.553	39895.32337
676.75	39304.85017
676.947	39560.75739
677.145	39823.01755
677.342	39841.60925
677.539	39471.99795
677.737	39502.95843
677.934	39418.33846
678.131	39515.34326
678.329	39457.5505
678.526	39552.49991
678.723	39635.08204
678.92	39856.07005
679.118	39441.03973
679.315	39195.51688
679.512	39647.47076
679.709	39024.35149
679.906	38820.27585
680.104	39106.83257
680.301	39552.49991
680.498	39240.89718
680.695	38762.57405
680.892	39014.04242
681.089	38789.36327
681.286	39255.33735
681.483	38402.09875
681.68	39179.01612
681.877	39517.40743
682.075	39042.9084
682.272	38535.9576
682.469	38842.9464
682.665	38859.43477
682.862	38723.42336
683.059	38807.91057
683.256	38360.91887
683.453	38754.33152
683.65	38805.84972
683.847	38882.10726
684.044	38400.03967
684.241	38105.68041
684.438	38925.39424
684.635	38395.92154
684.831	38950.13151
685.028	38643.07174
685.225	39011.98064
685.422	38262.10131
685.619	38828.51955
685.815	38107.73826
686.012	38249.7505
686.209	38017.2006
686.405	38426.80835
686.602	38037.77593
686.799	37815.60568
686.996	37784.75616
687.192	37459.91507
687.389	37593.52881
687.586	38325.91871
687.782	38315.62502
687.979	38820.27585
688.175	38080.98682
688.372	38486.52845
688.568	38657.49281
688.765	37630.53527
688.962	37309.8946
689.158	37700.44326
689.355	37433.19618
689.551	37864.96866
689.748	37762.13432
689.944	37579.13808
690.14	37326.33327
690.337	37186.61955
690.533	37778.58647
690.73	36894.97102
690.926	37554.46914
691.123	37367.43201
691.319	37379.76221
691.515	37149.64212
691.712	36806.68249
691.908	36855.95826
692.104	36882.65094
692.301	37030.50835
692.497	37176.34781
692.693	37451.69374
692.889	36819.00107
693.086	36954.52159
693.282	36831.31989
693.478	37443.47253
693.674	37264.6907
693.87	37546.24641
694.067	37402.36827
694.263	37203.05471
694.459	36997.64804
694.655	37424.97524
694.851	36917.55849
695.047	36886.7576
695.243	37328.38814
695.439	37110.61291
695.635	36533.68195
695.831	36406.45758
696.027	36121.31501
696.224	36258.7432
696.42	36734.82893
696.615	36394.14682
696.811	36509.05598
697.007	36363.37092
697.203	36509.05598
697.399	36379.78456
697.595	36433.13165
697.791	36564.46571
697.987	36525.47319
698.183	37320.16871
698.379	37020.23931
698.575	37211.27247
698.77	37007.9167
698.966	36823.10731
699.162	36831.31989
699.358	37201.00029
699.554	36279.25719
699.749	36381.83629
699.945	36240.28114
700.141	35981.8627
700.337	35756.33378
700.532	36211.56333
700.728	35955.20573
700.924	36550.09978
701.119	36141.82499
701.315	35735.83447
701.511	35975.71101
701.706	36285.4115
701.902	36065.94102
702.097	36283.36006
702.293	36478.2748
702.489	36582.93666
702.684	36346.95767
702.88	36465.96273
703.075	36070.04265
703.271	35977.76156
703.466	36205.40967
703.662	36037.23026
703.857	36328.49324
704.053	36523.42102
704.248	36322.33854
704.443	36275.15434
704.639	35875.24059
704.834	35797.33403
705.03	35637.44531
705.225	35674.33979
705.42	35555.46371
705.616	35239.91118
705.811	35192.7933
706.006	35916.24729
706.202	35340.30136
706.397	35664.09115
706.592	35149.77484
706.787	35393.57444
706.983	35067.84071
707.178	35983.91327
707.373	35532.92024
707.568	34740.17735
707.763	34760.65299
707.959	35287.03163
708.154	35344.39916
708.349	35186.64767
708.544	35522.67342
708.739	35465.29359
708.934	35678.43929
709.129	35438.65432
709.324	34525.20873
709.519	35059.64771
709.714	35086.27523
709.909	35682.5388
710.104	34895.80315
710.299	34992.05828
710.494	34746.32
710.689	34793.41491
710.884	34449.46873
711.079	34967.48155
711.274	34850.75096
711.469	35205.08467
711.664	35307.51959
711.859	35246.05718
712.054	34754.51025
712.249	34539.53855
712.443	33868.28742
712.638	34101.5428
712.833	34289.8184
713.028	34322.56525
713.223	34193.63017
713.417	34551.82141
713.612	34822.0825
713.807	35623.09792
714.002	35153.87175
714.196	35090.37185
714.391	34476.07945
714.586	34731.98722
714.78	34369.64059
714.975	34457.65657
715.17	34386.0151
715.364	34983.86597
715.559	34848.70319
715.754	34291.86505
715.948	34537.49142
716.143	34807.7486
716.337	34396.2493
716.532	35059.64771
716.726	34670.56339
716.921	34340.98579
717.115	33874.42514
717.31	34295.95836
717.504	33851.92032
717.699	33915.34404
717.893	34134.28412
718.088	34431.04631
718.282	34128.14505
718.476	34492.45562
718.671	33806.91193
718.865	33894.88442
719.059	33428.49466
719.254	33401.9072
719.448	32943.86095
719.642	33761.90516
719.837	33195.35999
720.031	32943.86095
720.225	32569.75175
720.419	33111.52239
720.614	33471.44472
720.808	33557.3489
721.002	33316.01267
721.196	33142.19414
721.39	33064.49358
721.585	33391.68138
721.779	32958.17281
721.973	33252.61764
722.167	32073.10298
722.361	32156.89091
722.555	32073.10298
722.749	31823.80229
722.943	32248.85723
723.137	32216.15761
723.331	32310.17048
723.525	31950.49252
723.719	32686.26877
723.913	32690.35722
724.107	32418.49529
724.301	32855.94801
724.495	32884.5703
724.689	32624.94306
724.883	32158.93456
725.077	32420.53922
725.271	32637.20803
725.465	32289.73252
725.659	32490.03396
725.853	32676.04767
726.046	33068.58298
726.24	32537.04659
726.434	32320.38954
726.628	32780.30575
726.822	32485.94596
727.015	32921.37114
727.209	32171.19651
727.403	32449.15438
727.596	32222.28875
727.79	32387.8367
727.984	32782.35009
728.177	32958.17281
728.371	32600.41338
728.565	32277.46984
728.758	32528.87039
728.952	32281.55739
729.146	32240.68228
729.339	32514.56214
729.533	32539.09065
729.726	32490.03396
729.92	31987.27492
730.113	32579.97223
730.307	32432.80281
730.5	32334.69632
730.694	32426.671
730.887	31803.36906
731.081	31703.24883
731.274	32030.18852
731.468	31723.68118
731.661	31807.45569
731.854	31977.05752
732.048	31915.75415
732.241	31954.57942
732.435	32647.4289
732.628	32626.98722
732.821	32653.56146
733.014	32346.95935
733.208	32522.73827
733.401	32369.44179
733.594	32455.28626
733.788	32598.36925
733.981	32015.88389
734.174	32056.75451
734.367	31472.37536
734.56	31754.33004
734.754	32144.62905
734.947	32277.46984
735.14	32393.96838
735.333	32843.68146
735.526	32577.92813
735.719	32126.23639
735.912	31864.66932
736.105	31541.83942
736.298	31611.30544
736.491	31282.38037
736.684	31184.32377
736.877	31335.49585
737.07	31507.10715
737.263	31846.27907
737.456	31674.64384
737.649	31660.34147
737.842	32301.99527
738.035	32404.18789
738.228	31930.05812
738.421	31742.07044
738.614	31641.95284
738.807	31584.74467
739	31793.15251
739.192	32242.72601
739.385	32205.93909
739.578	31985.23144
739.771	31811.54233
739.964	31364.09694
740.156	31695.07594
740.349	31406.99917
740.542	31938.23186
740.735	31310.98088
740.927	31433.55804
741.12	31386.56945
741.313	31102.61261
741.505	31404.95619
741.698	30886.08936
741.891	31376.35465
742.083	31217.00891
742.276	30984.13563
742.468	31274.20885
742.661	31421.30007
742.854	31525.49476
743.046	31378.3976
743.239	31112.82638
743.431	31484.63358
743.624	31014.77576
743.816	31304.85217
744.009	31290.55191
744.201	30806.42914
744.393	31008.64771
744.586	30826.85464
744.778	30734.94096
744.971	30510.27437
745.163	30828.8972
745.355	30941.23999
745.548	30839.11001
745.74	30581.75749
745.932	30581.75749
746.125	30716.55856
746.317	30428.58126
746.509	30910.60063
746.702	31078.09973
746.894	30865.66347
747.086	30483.72389
747.278	30916.72847
747.471	30606.26636
747.663	30426.53896
747.855	30502.10497
748.047	30571.54552
748.239	30216.18837
748.431	30379.56635
748.623	30346.89014
748.815	30254.98995
749.008	30232.52583
749.2	30483.72389
749.392	30463.30059
749.584	30191.68234
749.776	30144.71291
749.968	29946.63116
750.16	30014.01859
750.352	30159.00789
750.544	29797.56634
750.736	29717.93137
750.928	29899.66489
751.12	29752.64384
751.311	29750.60192
751.503	29711.80567
751.695	29468.82747
751.887	29440.2428
752.079	29609.71214
752.271	28917.58768
752.463	29830.23757
752.654	29685.2611
752.846	29525.99745
753.038	29084.99322
753.23	29591.33559
753.421	29260.57239
753.613	29613.79583
753.805	29828.19561
753.997	29687.30298
754.188	29270.78072
754.38	29332.03124
754.572	29205.44787
754.763	28989.04041
754.955	28788.97596
755.146	29027.82957
755.338	28976.79128
755.53	28611.37611
755.721	29252.40575
755.913	29150.32411
756.104	28668.53382
756.296	28760.39614
756.487	28441.94919
756.679	28695.07161
756.87	28058.21444
757.062	28376.62993
757.253	28256.20043
757.445	28313.35294
757.636	29068.66067
757.827	28813.47311
758.019	28829.80463
758.21	28488.89809
758.401	28301.10591
758.593	28505.22827
758.784	28021.47593
758.975	27845.95254
759.167	28262.32387
759.358	28339.88833
759.549	28094.95332
759.74	27188.83914
759.932	27527.58341
760.123	27794.9299
760.314	27886.77118
760.505	27370.45065
760.696	27758.19405
760.888	27758.19405
761.079	27764.31667
761.27	27831.66613
761.461	27627.58082
761.652	27633.70321
761.843	27588.80597
762.034	28362.34149
762.225	27999.02479
762.416	27525.54268
762.607	27472.48406
762.798	27786.76634
762.989	27772.48017
763.18	27405.14166
763.371	27223.52817
763.562	27270.46101
763.753	26931.74438
763.944	27166.39349
764.135	27148.029
764.326	27501.05398
764.517	27029.68266
764.708	26456.38355
764.899	26058.61568
765.089	26378.86485
765.28	26342.14629
765.471	26433.94369
765.662	26001.50565
765.853	25981.10955
766.043	26340.10638
766.234	26301.3485
766.425	25913.80371
766.615	26578.78618
766.806	26425.78379
766.997	26305.42825
767.187	26013.74339
767.378	26472.70358
767.569	26009.66414
767.759	26415.58395
767.95	26144.28331
768.141	26195.2774
768.331	26625.70868
768.522	26244.23273
768.712	25677.22955
768.903	25811.82898
769.093	25997.42642
769.284	25491.65945
769.474	25838.34196
769.665	25799.59233
769.855	25956.63447
770.046	25715.97702
770.236	25703.7409
770.426	25993.34719
770.617	25204.16131
770.807	25752.68578
770.998	25893.40839
771.188	25622.16858
771.378	25465.15079
771.569	25251.05529
771.759	25230.66647
771.949	24841.28269
772.139	25440.68157
772.33	24596.68743
772.52	24979.90195
772.71	25536.52103
772.9	25041.0609
773.09	25344.84665
773.281	25057.3703
773.471	25198.04479
773.661	25399.90019
773.851	25110.37683
774.041	25542.6386
774.231	25381.54884
774.421	25106.29935
774.611	25238.82197
774.802	25189.88946
774.992	25357.08064
775.182	24500.89732
775.372	24877.97497
775.562	24557.9631
775.752	24578.34421
775.942	24138.16984
776.131	24132.05719
776.321	23730.71505
776.511	24178.92151
776.701	24077.0444
776.891	24443.83355
777.081	24293.03196
777.271	24162.62072
777.461	24541.65839
777.651	24924.86066
777.84	24747.51704
778.03	24258.3904
778.22	24117.79442
778.41	24433.6438
778.599	24449.94743
778.789	24415.30242
778.979	23918.13004
779.169	23836.64223
779.358	23496.48172
779.548	23685.90211
779.738	23341.70637
779.927	23390.58084
780.117	23341.70637
780.307	23258.21672
780.496	22973.17129
780.686	23457.78619
780.875	23380.39851
781.065	23969.06226
781.254	23922.20455
781.444	24022.03364
781.633	23655.34866
781.823	23398.72676
782.012	23368.17982
782.202	23645.16433
782.391	22869.34952
782.581	23121.79409
782.77	23384.47143
782.96	23195.09399
783.149	22549.79756
783.338	22706.50976
783.528	22596.60551
783.717	22315.78631
783.906	22262.88608
784.096	22531.48192
784.285	22486.71157
784.474	22496.8865
784.663	22344.27207
784.853	22523.34173
785.042	22482.64163
785.231	22061.48124
785.42	22395.14128
785.61	22509.09653
785.799	22330.0291
785.988	22525.37677
786.177	22094.02903
786.366	22110.30329
786.555	22118.44051
786.744	21768.59489
786.933	21849.94423
787.122	21652.6828
787.312	22165.23069
787.501	21835.70765
787.69	21729.95612
787.879	21813.33626
788.068	21494.08693
788.257	21353.81071
788.445	21512.38523
788.634	22055.37863
788.823	21841.80902
789.012	22014.69547
789.201	21731.9897
789.39	22209.98835
789.579	21978.08192
789.768	21965.87768
789.957	21770.62854
790.145	21416.83101
790.334	21101.76825
790.523	21059.08983
790.712	21758.42665
790.9	22132.68079
791.089	21711.65404
791.278	21760.46029
791.467	21164.77303
791.655	21780.79689
791.844	21260.30384
792.033	21083.47728
792.221	21258.27117
792.41	21502.21947
792.599	21048.92856
792.787	21286.72883
792.976	21071.28348
793.164	21199.32569
793.353	21254.20586
793.541	21380.23811
793.73	21136.31877
793.918	21048.92856
794.107	20736.01196
794.295	20794.93033
794.484	21004.22021
794.672	20699.4437
794.861	20195.75204
795.049	20354.14341
795.238	19929.79333
795.426	20662.87678
795.614	20719.75923
795.803	20530.84082
795.991	20417.10092
796.179	20463.81393
796.368	20065.809
796.556	20429.28671
796.744	20366.32842
796.932	20134.83909
797.121	20214.02666
797.309	20195.75204
797.497	19974.45311
797.685	19923.70352
797.874	19899.34465
798.062	19862.80748
798.25	19556.35474
798.438	20112.50529
798.626	19929.79333
798.814	19868.89692
799.002	20096.26285
799.19	19939.9431
799.378	20023.17519
799.566	20242.45453
799.755	20000.84394
799.943	19887.16544
800.131	19743.0563
800.318	19834.39062
800.506	19781.61864
800.694	19708.55443
800.882	19489.39431
801.07	19562.44227
801.258	19532.00496
801.446	20010.99444
801.634	19617.23179
801.822	19609.11463
802.01	19412.29397
802.197	19639.55432
802.385	19229.71176
802.573	19588.82203
802.761	19743.0563
802.949	19722.76093
803.136	19454.90131
803.324	19629.40765
803.512	19588.82203
803.699	19213.48384
803.887	19310.85528
804.075	20082.05093
804.262	19726.81997
804.45	19834.39062
804.638	19594.90977
804.825	19844.53941
805.013	19712.61341
805.201	19635.49564
805.388	19343.31454
805.576	19460.98822
805.763	19446.78549
805.951	19254.05413
806.138	19041.07841
806.326	19179.0004
806.513	19481.2782
806.701	19663.90675
806.888	19355.48703
807.075	19891.22516
807.263	19704.49546
807.45	19655.7892
807.638	19221.59777
807.825	19676.08319
808.012	19140.46147
808.2	19465.04619
808.387	19558.38391
808.574	19879.04606
808.761	19676.08319
808.949	20140.93022
809.136	20384.60621
809.323	20246.51572
809.51	20191.69106
809.698	20019.11492
809.885	19805.97459
810.072	19367.65968
810.259	19542.15063
810.446	19323.02738
810.633	19568.52985
810.82	19749.14499
811.008	19793.79654
811.195	20045.50695
811.382	19572.58825
811.569	19978.51319
811.756	19944.00304
811.943	20516.62261
812.13	20049.56733
812.317	19864.83729
812.504	19592.88052
812.691	19686.23033
812.878	19716.67241
813.064	19791.76688
813.251	19521.8594
813.438	20197.78254
813.625	19891.22516
813.812	19757.2633
813.999	19217.5408
814.186	19185.08562
814.372	19379.83247
814.559	19223.62626
814.746	18519.98191
814.933	18907.23088
815.12	19083.66995
815.306	19312.88396
815.493	19170.88682
815.68	19635.49564
815.866	19290.56878
816.053	19710.58392
816.24	19586.79279
816.426	19678.11261
816.613	19312.88396
816.799	19318.97
816.986	19183.05721
817.173	19067.44439
817.359	19034.99405
817.546	19296.65469
817.732	19183.05721
817.919	19430.55404
818.105	19337.22835
818.292	19505.62672
818.478	19339.25707
818.665	19345.34328
818.851	19538.09235
819.037	19105.98053
819.224	19213.48384
819.41	19095.83929
819.597	19002.54474
819.783	19010.65697
819.969	19284.48292
820.156	18964.01253
820.342	18961.98456
820.528	19126.26329
820.714	18897.09163
820.901	18915.34235
821.087	18574.71523
821.273	18734.8772
821.459	18522.00902
821.646	18884.92466
821.832	18698.38245
822.018	18811.92588
822.204	18818.00891
822.39	19256.08268
822.576	18678.10814
822.762	18854.50787
822.948	18836.25823
823.134	19172.9152
823.32	18686.21781
823.507	18645.67006
823.693	18649.72476
823.879	18669.99852
824.065	18303.10317
824.25	18307.15658
824.436	18384.17425
824.622	18566.60641
824.808	18838.28595
824.994	18410.52365
825.18	18055.87299
825.366	18461.19738
825.552	18534.17176
825.738	18826.11968
825.923	18357.82549
826.109	18501.73809
826.295	18021.42718
826.481	18175.42831
826.667	17924.17395
826.852	17812.74787
827.038	17843.13576
827.224	17729.69154
827.409	17766.15459
827.595	17897.83593
827.781	17818.82539
827.966	18072.08314
828.152	17541.31621
828.338	17764.12884
828.523	17346.8933
828.709	17875.55037
828.894	17517.01176
829.08	17745.8972
829.266	17245.64253
829.451	17563.59569
829.637	17634.48755
829.822	17887.70608
830.008	17608.15582
830.193	17500.80905
830.378	17721.58878
830.564	17810.72204
830.749	17235.51787
830.935	17510.93572
831.12	17393.47118
831.305	17292.21696
831.491	16984.44885
831.676	17031.01488
831.861	16828.564
832.047	17107.95323
832.232	17014.81784
832.417	17316.51728
832.602	16822.49087
832.788	16640.30712
832.973	16769.85801
833.158	16577.5593
833.343	16713.17831
833.528	17103.90374
833.714	17022.91634
833.899	17267.91706
834.084	16852.85674
834.269	16794.14989
834.454	16583.63158
834.639	16694.96023
834.824	16539.102
835.009	16472.30959
835.194	16771.88232
835.379	17089.73063
835.564	16488.50148
835.749	16763.7851
835.934	16346.82681
836.119	16688.88758
836.304	16452.06991
836.489	16775.93095
836.674	16211.23263
836.859	16207.18517
837.044	16304.32626
837.228	16227.42256
837.413	16271.94544
837.598	16879.17429
837.783	16518.86164
837.968	16634.23466
838.152	16091.83519
838.337	15994.70228
838.522	15909.71363
838.707	16124.21361
838.891	15689.1577
839.076	15721.5321
839.261	16029.10313
839.445	16025.05595
839.63	15846.98536
839.815	16077.66976
839.999	15770.09417
840.184	16045.29192
840.368	16241.58884
840.553	16223.37507
840.737	16079.69339
840.922	15875.31411
841.106	15808.53956
841.291	15466.58936
841.475	15452.42619
841.66	15146.91056
841.844	14968.86218
842.029	15290.56292
842.213	15636.5498
842.397	15640.59655
842.582	15375.54083
842.766	15432.19314
842.951	15041.70035
843.135	15294.60947
843.319	15215.70176
843.504	15242.00431
843.688	15430.16984
843.872	15786.28166
844.056	15739.74281
844.241	15628.45633
844.425	15527.28897
844.609	15638.57317
844.793	15239.98103
844.977	15399.82035
845.161	14768.55417
845.346	14687.61971
845.53	14527.76949
845.714	15134.77093
845.898	14774.6242
846.082	14904.11674
846.266	15138.81747
846.45	15094.3055
846.634	14600.61349
846.818	14825.20754
847.002	14802.95092
847.186	14857.58065
847.37	14809.02092
847.554	14687.61971
847.738	14768.55417
847.922	14556.0979
848.106	14509.55824
848.29	14426.59449
848.473	14456.94736
848.657	14206.01926
848.841	14473.13542
849.025	14291.01402
849.209	14135.18763
849.392	14471.11192
849.576	14179.71066
849.76	14256.61178
849.944	14143.2828
850.127	14183.75816
850.311	13880.17049
850.495	13926.72421
850.678	14153.40172
850.862	14305.1795
851.046	14060.3056
851.229	13724.30579
851.413	13754.67043
851.596	13770.86462
851.78	13936.8444
851.964	13801.22821
852.147	13720.25711
852.331	13997.56417
852.514	13509.70792
852.698	13750.62185
852.881	13580.56997
853.065	14003.63603
853.248	13963.15658
853.431	13641.30546
853.615	13564.37331
853.798	13461.11421
853.982	13325.44496
854.165	13189.75707
854.348	13173.5542
854.532	13442.89101
854.715	13483.38659
854.898	13457.06464
855.081	12908.1888
855.265	13003.40601
855.448	12766.35412
855.631	12960.86356
855.814	12989.22544
855.997	13363.92015
856.181	12725.8249
856.364	12898.05864
856.547	13151.27479
856.73	13187.73172
856.913	12756.22203
857.096	12849.43197
857.279	12585.981
857.462	12632.59882
857.645	12508.95304
857.828	12588.00793
858.011	12498.81709
858.194	12590.03485
858.377	12401.50374
858.56	12202.77341
858.743	12699.47967
858.926	12742.03687
859.109	13094.56103
859.292	12962.88944
859.475	12946.68224
859.658	12740.01039
859.841	12679.21343
860.023	12677.18677
860.206	12247.39226
860.389	12296.06341
860.572	12257.53242
860.755	12202.77341
860.937	12135.83845
861.12	12431.9158
861.303	12081.0674
861.486	12255.50441
861.668	12225.08327
861.851	12289.97974
862.034	12087.15335
862.216	12239.28
862.399	11849.74855
862.581	11884.25017
862.764	11431.46786
862.947	12052.66539
863.129	11468.03229
863.312	11841.63017
863.494	11262.82387
863.677	11606.13682
863.859	11551.30638
864.042	11573.64553
864.224	11443.65635
864.406	11445.68773
864.589	11069.71066
864.771	11183.55733
864.954	11291.2747
865.136	11468.03229
865.318	11254.69469
865.501	11246.56535
865.683	11061.57746
865.865	10957.86375
866.048	10752.38276
866.23	11051.41072
866.412	10797.15111
866.594	10691.32571
866.777	10915.14965
866.959	11061.57746
867.141	10784.94213
867.323	10890.73934
867.505	10532.52589
867.687	10711.67926
867.869	10581.39541
868.052	10854.12079
868.234	10784.94213
868.416	11031.07641
868.598	10636.36504
868.78	10648.57929
868.962	10911.08138
869.144	11012.77459
869.326	10784.94213
869.508	10864.29298
869.69	10569.17871
869.872	10756.45285
870.054	10469.39198
870.236	10911.08138
870.417	10670.97094
870.599	10856.15525
870.781	10377.72396
870.963	10748.31263
871.145	10485.68577
871.327	10622.11452
871.508	10059.73162
871.69	10563.07019
871.872	10133.14418
872.054	10385.8733
872.235	10385.8733
872.417	10471.42875
872.599	10542.70764
872.78	10880.5679
872.962	10597.68365
873.144	10793.0815
873.325	10599.71963
873.507	10754.41781
873.689	10526.41669
873.87	10573.25099
874.052	10583.43149
874.233	10638.40078
874.415	10292.14315
874.596	10571.21486
874.778	10006.70003
874.959	10190.23033
875.141	10444.94974
875.322	10475.50225
875.503	10222.84613
875.685	10363.46212
875.866	10402.17134
876.048	10446.98666
876.229	10112.75363
876.41	10339.01173
876.592	10212.65407
876.773	10328.82351
876.954	10108.67535
877.136	10497.90558
877.317	10501.97875
877.498	10670.97094
877.679	10198.38461
877.86	10453.09736
878.042	10483.64909
878.223	10499.94217
878.404	10440.87585
878.585	10524.38027
878.766	10477.53898
878.947	10675.04199
879.128	10487.72244
879.309	10626.18616
879.49	10186.1531
879.672	10477.53898
879.853	9982.22064
880.034	10137.22212
880.215	9872.03752
880.396	10124.98812
880.576	10045.45483
880.757	10206.53867
880.938	9843.46453
881.119	10177.99849
881.3	10139.26107
881.481	10377.72396
881.662	10296.21896
881.843	10290.10523
882.023	10638.40078
882.204	10194.30749
882.385	10084.2045
882.566	10155.57217
882.747	9894.48569
882.927	10245.26747
883.108	9772.01924
883.289	10002.62027
883.469	10047.49441
883.65	10067.88947
883.831	10029.13765
884.011	9816.92985
884.192	10173.92111
884.373	10088.28311
884.553	10059.73162
884.734	10306.40825
884.914	9957.73918
885.095	10605.82747
885.275	10442.9128
885.456	10314.55944
885.636	10265.64908
885.817	10457.17109
885.997	10145.37784
886.178	10184.11447
886.358	10155.57217
886.538	10485.68577
886.719	10165.76616
886.899	10493.83236
887.08	10330.86118
887.26	10719.82035
887.44	10322.71042
887.621	10457.17109
887.801	10322.71042
887.981	10379.76132
888.161	10467.35519
888.342	10369.57441
888.522	10326.78583
888.702	10296.21896
888.882	10186.1531
889.062	10255.45844
889.242	10067.88947
889.423	10137.22212
889.603	10257.4966
889.783	10477.53898
889.963	10010.77972
890.143	10573.25099
890.323	10100.51862
890.503	10373.64921
890.683	10255.45844
890.863	10224.8845
891.043	10153.53334
891.223	10501.97875
891.403	10406.24572
891.583	10312.52166
891.763	10110.71449
891.943	10394.02243
892.122	10453.09736
892.302	10497.90558
892.482	10208.57715
892.662	10516.23444
892.842	10202.46166
893.022	10275.83938
893.201	9867.95584
893.381	10116.83185
893.561	9710.76569
893.741	10206.53867
893.92	10047.49441
894.1	10355.3122
894.28	10171.88239
894.459	10230.99954
894.639	9890.40434
894.819	10137.22212
894.998	10010.77972
895.178	10243.22923
895.357	10194.30749
895.537	10190.23033
895.716	10006.70003
895.896	10037.29635
896.075	10249.3439
896.255	10308.44607
896.434	10061.7711
896.614	10489.75909
896.793	10184.11447
896.973	10261.57287
897.152	10027.09794
897.331	10127.02716
897.511	9761.81126
897.69	9835.30028
897.87	9737.31058
898.049	9688.30262
898.228	9624.98753
898.407	9765.8945
898.587	10049.53398
898.766	9921.01306
898.945	10006.70003
899.124	9690.34479
899.304	9747.51946
899.483	9792.43405
899.662	9759.76962
899.841	9792.43405
900.02	9228.4097
900.199	9800.59956
900.378	9328.63426
900.557	9637.24323
900.737	9316.36401
900.916	9620.90218
901.095	9400.19888
901.274	9414.5094
901.453	9504.44308
901.632	9426.77493
901.811	9504.44308
901.989	9737.31058
902.168	9467.6558
902.347	9700.55543
902.526	9408.37642
902.705	9463.56801
902.884	9195.67459
903.063	9594.34584
903.242	9432.90747
903.42	9308.18351
903.599	8929.5387
903.778	9275.45887
903.957	9148.61026
904.135	9162.93514
904.314	9148.61026
904.493	9539.18188
904.672	9138.37769
904.85	9279.54968
905.029	9234.54705
905.207	9496.26858
905.386	9148.61026
905.565	9056.50165
905.743	8771.76369
905.922	8837.3455
906.1	8874.22713
906.279	8839.39463
906.457	8595.41952
906.636	8841.44374
906.814	8589.26549
906.993	8665.15335
907.171	8726.66538
907.35	8726.66538
907.528	8414.83075
907.707	8589.26549
907.885	8519.50807
908.063	8806.60634
908.242	8661.05195
908.42	8816.85318
908.598	8427.14831
908.777	8784.0617
908.955	8513.35195
909.133	8498.98702
909.311	8289.5626
909.49	8225.87387
909.668	8077.87802
909.846	8057.31482
910.024	8049.08897
910.202	8408.67171
910.38	8071.70927
910.559	8203.27008
910.737	8151.88889
910.915	8486.67347
911.093	8127.22149
911.271	8153.94437
911.449	7789.80729
911.627	7660.04274
911.805	7548.7491
911.983	7734.20413
912.161	7567.30236
912.339	7989.44188
912.517	7740.38302
912.695	7960.6406
912.872	7637.37685
913.05	8047.03246
913.228	7693.00674
913.406	7948.29597
913.584	7625.01255
913.762	7707.42679
913.939	7534.31758
914.117	7717.72619
914.295	7538.44098
914.473	7429.14183
914.65	7425.01614
914.828	7534.31758
915.006	7249.59384
915.184	7437.39294
915.361	7197.96883
915.539	7536.37929
915.716	7204.16456
915.894	7162.85592
916.072	6972.72124
916.249	6927.22608
916.427	6809.30123
916.604	6927.22608
916.782	6883.78866
916.959	6927.22608
917.137	6778.25608
917.314	6906.54284
917.492	6459.22697
917.669	6709.93865
917.847	6231.01219
918.024	6407.38476
918.201	6384.56957
918.379	6533.85424
918.556	6160.41581
918.733	6531.78167
918.911	6199.87007
919.088	6334.7812
919.265	6077.32649
919.442	6467.52037
919.62	6160.41581
919.797	6560.7956
919.974	6314.03208
920.151	6600.1644
920.328	6282.90401
920.506	6492.39836
920.683	6293.28062
920.86	6260.07341
921.037	5902.71632
921.214	5994.19953
921.391	5865.27821
921.568	6019.14157
921.745	5782.05504
921.922	6106.41203
922.099	5992.12087
922.276	6212.32755
922.453	5873.59845
922.63	5871.51843
922.807	5598.83116
922.984	5804.94518
923.161	5477.97012
923.338	5644.65426
923.514	5473.80109
923.691	5361.2016
923.868	5409.16902
924.045	5432.10556
924.222	5181.73541
924.399	5290.27053
924.575	4987.4677
924.752	5390.40064
924.929	5215.13756
925.105	5302.78975
925.282	5018.81475
925.459	5338.25628
925.635	5043.88864
925.812	5442.53033
925.989	5286.09727
926.165	5254.79485
926.342	5311.13542
926.518	5277.75047
926.695	5190.08651
926.871	5089.8488
927.048	5102.38144
927.224	5177.55973
927.401	4807.64488
927.577	4826.47147
927.754	4793.0007
927.93	5073.13731
928.107	4692.55356
928.283	4922.66739
928.459	5043.88864
928.636	4956.11547
928.812	4667.43365
928.988	4778.35541
929.165	4462.16735
929.341	4399.28832
929.517	4529.21653
929.693	4615.09012
929.87	4281.86175
930.046	4491.50415
930.222	4273.47155
930.398	4501.98053
930.574	4176.95972
930.751	4218.92691
930.927	3903.96977
931.103	3975.40066
931.279	3769.44886
931.455	3966.99825
931.631	3870.34717
931.807	4105.59614
931.983	4023.70823
932.159	4122.38975
932.335	3861.94072
932.511	3777.85879
932.687	3662.19517
932.863	3807.29105
933.039	3556.99647
933.215	3618.01744
933.391	3344.35547
933.566	3434.90813
933.742	3390.68881
933.918	3874.55027
934.094	3491.74996
934.27	3668.5056
934.445	3198.98344
934.621	3340.14293
934.797	2867.92435
934.973	3011.35943
935.148	2800.40243
935.324	2981.83429
935.5	2844.71531
935.675	2908.00863
935.851	2559.74508
936.027	2709.64781
936.202	2232.29516
936.378	2506.94795
936.553	2175.23172
936.729	2352.74079
936.904	2010.3494
937.08	2103.36553
937.255	1737.57693
937.431	2016.69184
937.606	1722.77317
937.782	1879.26006
937.957	1667.78642
938.133	1760.83962
938.308	1424.56016
938.483	1532.42757
938.659	1314.57871
938.834	1371.68409
939.009	1261.70453
939.185	1358.99392
939.36	1280.73908
939.535	1348.41881
939.71	1043.885
939.886	1168.65017
940.061	1153.84669
940.236	1153.84669
940.411	1007.93912
940.586	1024.85461
940.761	834.58132
940.937	897.9989
941.112	775.39883
941.287	872.63096
941.462	834.58132
941.637	832.46754
941.812	750.03724
941.987	817.67129
942.162	703.54489
942.337	659.17083
942.512	701.43172
942.687	821.89874
942.862	671.84861
943.037	602.12617
943.212	652.83209
943.386	602.12617
943.561	576.77594
943.736	640.15495
943.911	665.50967
944.086	695.0923
944.26	612.68931
944.435	589.45082
944.61	654.94499
944.785	602.12617
944.959	521.85708
945.134	614.80198
945.309	619.02735
945.483	671.84861
945.658	555.65221
945.833	585.22581
946.007	447.94311
946.182	589.45082
946.357	502.8489
946.531	534.52983
946.706	471.17124
946.88	585.22581
947.055	502.8489
947.229	593.67589
947.404	585.22581
947.578	631.70376
947.752	561.98919
947.927	564.10154
948.101	623.25277
948.276	688.75297
948.45	494.4012
948.624	703.54489
948.799	682.41375
948.973	690.86607
949.147	591.56335
949.321	741.5837
949.496	528.19339
949.67	568.32629
949.844	593.67589
950.018	669.73562
950.193	502.8489
950.367	718.33734
950.541	496.5131
950.715	606.35139
950.889	559.87685
951.063	659.17083
951.237	621.14005
951.411	555.65221
951.585	561.98919
951.759	669.73562
951.933	697.20543
952.107	652.83209
952.281	728.90371
952.455	762.71785
952.629	758.49094
952.803	849.37807
952.977	536.64201
953.151	821.89874
953.325	773.28531
953.499	707.77125
953.672	663.39671
953.846	828.23999
954.02	661.28376
954.194	847.26422
954.368	682.41375
954.541	828.23999
954.715	711.99765
954.889	718.33734
955.062	728.90371
955.236	785.96659
955.41	760.60439
955.583	944.50971
955.757	711.99765
955.93	963.53789
956.104	741.5837
956.278	800.76185
956.451	627.47824
956.625	678.18766
956.798	557.76452
956.972	828.23999
957.145	627.47824
957.319	686.63989
957.492	644.38061
957.665	661.28376
957.839	540.8664
958.012	669.73562
958.185	697.20543
958.359	764.83132
958.532	771.1718
958.705	680.3007
958.879	621.14005
959.052	775.39883
959.225	663.39671
959.398	832.46754
959.572	678.18766
959.745	741.5837
959.918	635.92933
960.091	631.70376
960.264	726.79042
960.438	678.18766
960.611	644.38061
960.784	612.68931
960.957	576.77594
961.13	701.43172
961.303	583.11332
961.476	671.84861
961.649	568.32629
961.822	667.62264
961.995	551.42762
962.168	627.47824
962.341	528.19339
962.514	629.59099
962.686	513.40885
962.859	538.7542
963.032	545.09085
963.205	711.99765
963.378	597.901
963.551	610.57666
963.723	568.32629
963.896	669.73562
964.069	561.98919
964.242	718.33734
964.414	650.7192
964.587	627.47824
964.76	561.98919
964.932	597.901
965.105	500.73695
965.278	445.83155
965.45	513.40885
965.623	458.50112
965.795	418.38275
965.968	542.97862
966.14	574.66351
966.313	542.97862
966.485	466.9478
966.658	555.65221
966.83	466.9478
967.003	540.8664
967.175	443.72001
967.348	496.5131
967.52	382.49226
967.692	545.09085
967.865	403.60374
968.037	477.5065
968.209	496.5131
968.382	428.93966
968.554	365.60428
968.726	500.73695
968.898	500.73695
969.071	424.71685
969.243	466.9478
969.415	515.52089
969.587	545.09085
969.759	538.7542
969.932	409.9375
970.104	509.18483
970.276	477.5065
970.448	409.9375
970.62	371.93715
970.792	365.60428
970.964	412.04879
971.136	500.73695
971.308	515.52089
971.48	466.9478
971.652	390.93666
971.824	458.50112
971.996	412.04879
972.168	382.49226
972.339	369.82618
972.511	424.71685
972.683	439.49697
972.855	340.27436
973.027	340.27436
973.199	384.60334
973.37	323.38914
973.542	331.83161
973.714	295.95309
973.886	357.1607
974.057	327.61034
974.229	340.27436
974.401	357.1607
974.572	276.96072
974.744	314.94696
974.915	312.83645
975.087	272.74039
975.259	458.50112
975.43	352.93901
975.602	401.49252
975.773	281.18111
975.945	357.1607
976.116	255.85985
976.288	331.83161
976.459	331.83161
976.63	327.61034
976.802	156.71198
976.973	289.62213
977.145	386.71443
977.316	289.62213
977.487	230.54133
977.659	291.73244
977.83	251.6399
978.001	289.62213
978.172	279.07091
978.344	247.42003
978.515	230.54133
978.686	304.39463
978.857	308.61551
979.028	283.29134
979.2	217.88312
979.371	283.29134
979.542	255.85985
979.713	289.62213
979.884	268.52014
980.055	249.52996
980.226	217.88312
980.397	291.73244
980.568	224.21213
980.739	255.85985
980.91	139.84024
981.081	205.22562
981.252	310.72597
981.423	262.18991
981.594	249.52996
981.765	135.62252
981.936	158.82104
982.106	120.86117
982.277	169.36666
982.448	188.35008
982.619	150.38492
982.79	173.58505
982.96	198.89714
983.131	165.14835
983.302	238.98052
983.472	274.85054
983.643	163.03922
983.814	276.96072
983.984	141.94913
984.155	196.78769
984.326	276.96072
984.496	188.35008
984.667	114.5352
984.837	165.14835
985.008	160.93012
985.178	184.1314
985.349	127.18734
985.519	72.36716
985.69	171.47585
985.86	146.16698
986.031	158.82104
986.201	230.54133
986.371	163.03922
986.542	120.86117
986.712	87.12496
986.882	144.05805
987.053	175.69428
987.223	154.60294
987.393	61.82655
987.563	108.20943
987.734	116.64384
987.904	110.318
988.074	141.94913
988.244	108.20943
988.414	137.73137
988.585	49.17857
988.755	156.71198
988.925	127.18734
989.095	158.82104
989.265	173.58505
989.435	87.12496
989.605	99.77538
989.775	129.2961
989.945	97.66692
990.115	106.10089
990.285	163.03922
990.455	137.73137
990.625	217.88312
990.795	152.49392
990.965	118.75249
991.134	61.82655
991.304	120.86117
991.474	-5.61958
991.644	95.55848
991.814	190.45945
991.984	116.64384
992.153	57.61047
992.323	112.42659
992.493	120.86117
992.662	61.82655
992.832	82.90833
993.002	53.39447
993.171	70.25899
993.341	106.10089
993.511	89.23331
993.68	129.2961
993.85	120.86117
994.019	89.23331
994.189	53.39447
994.358	160.93012
994.528	70.25899
994.697	125.07859
994.867	89.23331
995.036	116.64384
995.206	61.82655
995.375	17.5623
995.544	103.99236
995.714	82.90833
995.883	112.42659
996.052	78.6918
996.222	61.82655
996.391	103.99236
996.56	78.6918
996.73	131.40488
996.899	59.7185
997.068	72.36716
997.237	38.63923
997.406	51.28651
997.576	95.55848
997.745	167.25749
997.914	15.45473
998.083	78.6918
998.252	-14.04863
998.421	2.80986
998.59	49.17857
998.759	112.42659
998.928	137.73137
999.097	74.47535
999.266	139.84024
999.435	40.74705
999.604	23.88513
999.773	53.39447
999.942	49.17857
1000.111	7.02472
1000.28	93.45007
1000.448	28.10047
1000.617	78.6918
1000.786	53.39447
1000.955	-5.61958
1001.124	53.39447
1001.292	36.53143
1001.461	99.77538
1001.63	63.93463
1001.798	53.39447
1001.967	66.04272
1002.136	61.82655
1002.304	91.34168
1002.473	36.53143
1002.642	63.93463
1002.81	34.42366
1002.979	57.61047
1003.147	70.25899
1003.316	40.74705
1003.484	21.7775
1003.653	70.25899
1003.821	108.20943
1003.99	32.3159
1004.158	-20.37016
1004.327	61.82655
1004.495	44.96277
1004.663	97.66692
1004.832	57.61047
1005	103.99236
1005.168	53.39447
1005.337	72.36716
1005.505	112.42659
1005.673	61.82655
1005.842	36.53143
1006.01	80.80005
1006.178	120.86117
1006.346	51.28651
1006.514	63.93463
1006.683	32.3159
1006.851	63.93463
1007.019	-30.90556
1007.187	47.07066
1007.355	38.63923
1007.523	-39.33343
1007.691	74.47535
1007.859	28.10047
1008.027	74.47535
1008.195	25.99279
1008.363	70.25899
1008.531	-3.51226
1008.699	36.53143
1008.867	82.90833
1009.035	-20.37016
1009.203	-3.51226
1009.37	42.8549
1009.538	91.34168
1009.706	11.23968
1009.874	36.53143
1010.042	32.3159
1010.209	36.53143
1010.377	4.91728
1010.545	53.39447
1010.713	-22.47729
1010.88	57.61047
1011.048	-26.69148
1011.216	106.10089
1011.383	13.34719
1011.551	40.74705
1011.718	4.91728
1011.886	28.10047
1012.054	21.7775
1012.221	53.39447
1012.389	44.96277
1012.556	-73.04089
1012.724	-30.90556
1012.891	-37.2265
1013.058	23.88513
1013.226	-5.61958
1013.393	53.39447
1013.561	61.82655
1013.728	-3.51226
1013.895	70.25899
1014.063	-5.61958
1014.23	-1.40491
1014.397	19.66988
1014.565	53.39447
1014.732	15.45473
1014.899	11.23968
1015.066	7.02472
1015.233	28.10047
1015.401	61.82655
1015.568	51.28651
1015.735	-7.72688
1015.902	53.39447
1016.069	78.6918
1016.236	-47.7609
1016.403	7.02472
1016.57	2.80986
1016.737	70.25899
1016.904	66.04272
1017.071	70.25899
1017.238	70.25899
1017.405	9.13219
1017.572	-14.04863
1017.739	2.80986
1017.906	44.96277
1018.073	70.25899
1018.24	78.6918
1018.407	-9.83416
1018.573	55.50246
1018.74	21.7775
1018.907	-11.94141
1019.074	36.53143
1019.241	28.10047
1019.407	-1.40491
1019.574	32.3159
1019.741	61.82655
1019.907	13.34719
1020.074	95.55848
1020.241	-5.61958
1020.407	114.5352
1020.574	-7.72688
1020.74	2.80986
1020.907	38.63923
1021.073	47.07066
1021.24	4.91728
1021.406	-20.37016
1021.573	-22.47729
1021.739	44.96277
1021.906	70.25899
1022.072	13.34719
1022.239	53.39447
1022.405	11.23968
1022.571	0.70246
1022.738	-26.69148
1022.904	11.23968
1023.07	23.88513
1023.237	9.13219
1023.403	-18.26301
1023.569	15.45473
1023.735	89.23331
1023.902	36.53143
1024.068	57.61047
1024.234	-26.69148
1024.4	21.7775
1024.566	15.45473
1024.732	-30.90556
1024.898	63.93463
1025.065	55.50246
1025.231	61.82655
1025.397	36.53143
1025.563	63.93463
1025.729	-39.33343
1025.895	-1.40491
1026.061	47.07066
1026.227	74.47535
1026.392	-39.33343
1026.558	68.15085
1026.724	2.80986
1026.89	36.53143
1027.056	76.58356
1027.222	13.34719
1027.388	47.07066
1027.553	13.34719
1027.719	36.53143
1027.885	-47.7609
1028.051	28.10047
1028.216	2.80986
1028.382	44.96277
1028.548	-26.69148
1028.713	-7.72688
1028.879	-45.65407
1029.045	82.90833
1029.21	28.10047
1029.376	72.36716
1029.541	-60.40135
1029.707	36.53143
1029.873	-28.79853
1030.038	49.17857
1030.204	15.45473
1030.369	19.66988
1030.534	61.82655
1030.7	-18.26301
1030.865	-5.61958
1031.031	66.04272
1031.196	-18.26301
1031.361	-11.94141
1031.527	-5.61958
1031.692	40.74705
1031.857	13.34719
1032.023	38.63923
1032.188	-33.01256
1032.353	-1.40491
1032.518	74.47535
1032.684	66.04272
1032.849	57.61047
1033.014	11.23968
1033.179	53.39447
1033.344	38.63923
1033.509	-14.04863
1033.674	97.66692
1033.839	-60.40135
1034.004	87.12496
1034.17	2.80986
1034.335	23.88513
1034.5	4.91728
1034.664	72.36716
1034.829	-28.79853
1034.994	-22.47729
1035.159	4.91728
1035.324	23.88513
1035.489	36.53143
1035.654	-35.11954
1035.819	95.55848
1035.984	9.13219
1036.148	47.07066
1036.313	2.80986
1036.478	91.34168
1036.643	21.7775
1036.807	-1.40491
1036.972	30.20817
1037.137	-9.83416
1037.301	57.61047
1037.466	34.42366
1037.631	-41.44034
1037.795	7.02472
1037.96	-37.2265
1038.124	-39.33343
1038.289	51.28651
1038.454	38.63923
1038.618	-30.90556
1038.783	47.07066
1038.947	-5.61958
1039.111	-26.69148
1039.276	17.5623
1039.44	-14.04863
1039.605	40.74705
1039.769	80.80005
1039.933	-18.26301
1040.098	2.80986
1040.262	7.02472
1040.426	25.99279
1040.591	87.12496
1040.755	-39.33343
1040.919	44.96277
1041.083	-18.26301
1041.248	53.39447
1041.412	78.6918
1041.576	19.66988
1041.74	-7.72688
1041.904	-3.51226
1042.068	91.34168
1042.232	-45.65407
1042.397	36.53143
1042.561	23.88513
1042.725	-37.2265
1042.889	-11.94141
1043.053	-16.15583
1043.217	-14.04863
1043.381	2.80986
1043.544	0.70246
1043.708	-26.69148
1043.872	19.66988
1044.036	2.80986
1044.2	-3.51226
1044.364	44.96277
1044.528	9.13219
1044.691	66.04272
1044.855	30.20817
1045.019	4.91728
1045.183	4.91728
1045.346	72.36716
1045.51	28.10047
1045.674	0.70246
1045.837	89.23331
1046.001	-22.47729
1046.165	-20.37016
1046.328	-26.69148
1046.492	25.99279
1046.655	36.53143
1046.819	23.88513
1046.983	44.96277
1047.146	80.80005
1047.31	28.10047
1047.473	-7.72688
1047.636	-1.40491
1047.8	2.80986
1047.963	2.80986
1048.127	2.80986
1048.29	-14.04863
