Data from mixed_try6.1_USB4F045381__2__00286.txt Node

Date: Thu Apr 03 20:31:22 EDT 2025
User: mmckonesweet
Spectrometer: USB4F04538
Trigger mode: 4
Integration Time (sec): 2.700000E-3
Scans to average: 1
Electric dark correction enabled: true
Nonlinearity correction enabled: true
Boxcar width: 0
XAxis mode: Wavelengths
Number of Pixels in Spectrum: 3648
>>>>>Begin Spectral Data<<<<<
345.52	25.81715
345.736	25.81715
345.952	25.81715
346.168	36.35578
346.384	-3.68787
346.6	-37.40208
346.816	19.49425
347.032	-64.79019
347.248	2.63424
347.464	34.24801
347.68	27.92483
347.896	38.46358
348.112	6.8491
348.328	19.49425
348.544	-45.82964
348.76	-5.79519
348.975	4.74166
349.191	-31.08114
349.407	-14.22423
349.623	27.92483
349.839	-3.68787
350.055	-35.29512
350.27	-37.40208
350.486	-31.08114
350.702	15.2791
350.918	11.06405
351.133	70.08331
351.349	-33.18815
351.565	-45.82964
351.781	-24.75999
351.996	-7.90249
352.212	-31.08114
352.428	-60.57691
352.644	-14.22423
352.859	53.21881
353.075	55.32679
353.291	-45.82964
353.506	-45.82964
353.722	-45.82964
353.938	38.46358
354.153	-47.93647
354.369	-1.58052
354.584	-18.43861
354.8	-50.04327
355.016	-54.2568
355.231	-35.29512
355.447	13.17157
355.662	2.63424
355.878	-10.00976
356.093	-14.22423
356.309	-113.23547
356.524	-31.08114
356.74	-45.82964
356.955	-12.11701
357.171	-12.11701
357.386	8.95656
357.602	-22.65289
357.817	19.49425
358.033	4.74166
358.248	25.81715
358.464	-28.97412
358.679	-22.65289
358.895	36.35578
359.11	-10.00976
359.325	11.06405
359.541	53.21881
359.756	30.03253
359.972	-43.72279
360.187	-5.79519
360.402	-10.00976
360.618	38.46358
360.833	-18.43861
361.048	6.8491
361.264	34.24801
361.479	-10.00976
361.694	19.49425
361.909	-41.61591
362.125	53.21881
362.34	19.49425
362.555	2.63424
362.77	27.92483
362.986	-10.00976
363.201	-22.65289
363.416	4.74166
363.631	-10.00976
363.847	-73.21644
364.062	55.32679
364.277	40.5714
364.492	19.49425
364.707	-12.11701
364.922	-14.22423
365.138	65.86705
365.353	30.03253
365.568	-26.86706
365.783	-60.57691
365.998	-31.08114
366.213	-26.86706
366.428	-18.43861
366.643	38.46358
366.858	23.70949
367.073	2.63424
367.288	15.2791
367.503	-7.90249
367.718	44.78711
367.933	46.895
368.148	17.38667
368.363	70.08331
368.578	27.92483
368.793	6.8491
369.008	-14.22423
369.223	-20.54576
369.438	-20.54576
369.653	-18.43861
369.868	-37.40208
370.083	-28.97412
370.298	49.00291
370.513	-14.22423
370.728	2.63424
370.943	53.21881
371.157	-5.79519
371.372	-7.90249
371.587	55.32679
371.802	-62.68356
372.017	4.74166
372.232	19.49425
372.446	49.00291
372.661	-16.33143
372.876	11.06405
373.091	-10.00976
373.306	-14.22423
373.52	38.46358
373.735	-18.43861
373.95	-22.65289
374.165	-62.68356
374.379	8.95656
374.594	-39.50901
374.809	0.52684
375.023	-45.82964
375.238	78.51611
375.453	-22.65289
375.667	-12.11701
375.882	-12.11701
376.097	63.75895
376.311	-14.22423
376.526	-1.58052
376.741	2.63424
376.955	59.54283
377.17	4.74166
377.384	55.32679
377.599	-37.40208
377.813	108.03372
378.028	-16.33143
378.242	-31.08114
378.457	2.63424
378.672	36.35578
378.886	49.00291
379.101	-22.65289
379.315	19.49425
379.53	99.59967
379.744	-12.11701
379.958	-71.10991
380.173	23.70949
380.387	-24.75999
380.602	36.35578
380.816	23.70949
381.031	-22.65289
381.245	11.06405
381.459	-31.08114
381.674	36.35578
381.888	-31.08114
382.103	32.14026
382.317	-5.79519
382.531	44.78711
382.746	11.06405
382.96	4.74166
383.174	51.11085
383.388	74.29967
383.603	-66.89679
383.817	38.46358
384.031	23.70949
384.246	36.35578
384.46	8.95656
384.674	-20.54576
384.888	-35.29512
385.103	133.33796
385.317	4.74166
385.531	82.73264
385.745	32.14026
385.959	-102.70506
386.174	59.54283
386.388	-5.79519
386.602	51.11085
386.816	-39.50901
387.03	-14.22423
387.244	23.70949
387.458	-5.79519
387.672	-3.68787
387.887	21.60186
388.101	103.81665
388.315	-31.08114
388.529	49.00291
388.743	63.75895
388.957	30.03253
389.171	-14.22423
389.385	44.78711
389.599	36.35578
389.813	36.35578
390.027	-64.79019
390.241	27.92483
390.455	32.14026
390.669	19.49425
390.883	8.95656
391.097	-60.57691
391.311	-3.68787
391.525	-28.97412
391.738	49.00291
391.952	-47.93647
392.166	-5.79519
392.38	44.78711
392.594	-14.22423
392.808	72.19148
393.022	23.70949
393.236	-28.97412
393.449	13.17157
393.663	-35.29512
393.877	30.03253
394.091	8.95656
394.305	-20.54576
394.518	27.92483
394.732	-39.50901
394.946	-26.86706
395.16	53.21881
395.373	-20.54576
395.587	21.60186
395.801	57.4348
396.015	-14.22423
396.228	-22.65289
396.442	25.81715
396.656	23.70949
396.869	21.60186
397.083	30.03253
397.297	17.38667
397.51	-14.22423
397.724	32.14026
397.938	32.14026
398.151	2.63424
398.365	-26.86706
398.578	57.4348
398.792	44.78711
399.005	95.38278
399.219	65.86705
399.433	46.895
399.646	55.32679
399.86	-5.79519
400.073	44.78711
400.287	-22.65289
400.5	-20.54576
400.714	-5.79519
400.927	-79.53586
401.141	40.5714
401.354	2.63424
401.567	40.5714
401.781	13.17157
401.994	21.60186
402.208	46.895
402.421	40.5714
402.635	78.51611
402.848	38.46358
403.061	38.46358
403.275	-111.12944
403.488	27.92483
403.701	4.74166
403.915	40.5714
404.128	23.70949
404.341	44.78711
404.555	49.00291
404.768	-5.79519
404.981	-39.50901
405.195	61.65088
405.408	4.74166
405.621	0.52684
405.834	112.25088
406.048	49.00291
406.261	65.86705
406.474	36.35578
406.687	63.75895
406.9	-60.57691
407.114	15.2791
407.327	53.21881
407.54	36.35578
407.753	53.21881
407.966	80.62436
408.179	11.06405
408.392	19.49425
408.605	-28.97412
408.819	-56.36353
409.032	105.92518
409.245	32.14026
409.458	27.92483
409.671	44.78711
409.884	15.2791
410.097	2.63424
410.31	38.46358
410.523	2.63424
410.736	27.92483
410.949	-18.43861
411.162	11.06405
411.375	34.24801
411.588	70.08331
411.801	-50.04327
412.014	30.03253
412.227	19.49425
412.44	6.8491
412.653	11.06405
412.865	59.54283
413.078	44.78711
413.291	84.84094
413.504	21.60186
413.717	-20.54576
413.93	2.63424
414.143	-10.00976
414.356	-79.53586
414.568	-18.43861
414.781	19.49425
414.994	38.46358
415.207	63.75895
415.42	86.94927
415.632	36.35578
415.845	82.73264
416.058	61.65088
416.271	-14.22423
416.483	116.46812
416.696	44.78711
416.909	57.4348
417.121	78.51611
417.334	55.32679
417.547	19.49425
417.759	61.65088
417.972	78.51611
418.185	158.64528
418.397	2.63424
418.61	74.29967
418.823	120.68545
419.035	65.86705
419.248	74.29967
419.46	112.25088
419.673	19.49425
419.885	103.81665
420.098	27.92483
420.311	72.19148
420.523	122.79415
420.736	49.00291
420.948	59.54283
421.161	57.4348
421.373	23.70949
421.586	118.57677
421.798	167.08173
422.01	57.4348
422.223	44.78711
422.435	101.70815
422.648	27.92483
422.86	25.81715
423.073	4.74166
423.285	91.16598
423.497	72.19148
423.71	133.33796
423.922	23.70949
424.134	131.22915
424.347	55.32679
424.559	13.17157
424.771	-7.90249
424.984	112.25088
425.196	156.53622
425.408	72.19148
425.621	173.40929
425.833	129.12037
426.045	42.67924
426.257	105.92518
426.47	120.68545
426.682	78.51611
426.894	137.55563
427.106	97.49122
427.318	112.25088
427.531	38.46358
427.743	78.51611
427.955	86.94927
428.167	120.68545
428.379	173.40929
428.591	143.8823
428.804	51.11085
429.016	179.73703
429.228	179.73703
429.44	171.30008
429.652	95.38278
429.864	259.90403
430.076	188.1743
430.288	137.55563
430.5	169.1909
430.712	154.42718
430.924	122.79415
431.136	103.81665
431.348	150.20917
431.56	145.99124
431.772	129.12037
431.984	135.44678
432.196	196.6119
432.408	150.20917
432.62	171.30008
432.832	173.40929
433.044	192.39306
433.256	105.92518
433.468	171.30008
433.679	188.1743
433.891	188.1743
434.103	179.73703
434.315	175.51851
434.527	236.69488
434.739	257.79401
434.95	162.86346
435.162	238.8047
435.374	145.99124
435.586	205.04983
435.798	232.47528
436.009	224.03632
436.221	226.14603
436.433	190.28367
436.645	215.59768
436.856	171.30008
437.068	131.22915
437.28	137.55563
437.491	190.28367
437.703	314.77108
437.915	259.90403
438.126	247.24421
438.338	295.77723
438.55	299.99796
438.761	274.6747
438.973	297.88759
439.184	274.6747
439.396	240.91455
439.608	268.3443
439.819	274.6747
440.031	255.68401
440.242	202.94032
440.454	289.44628
440.665	272.56455
440.877	365.42837
441.088	259.90403
441.3	285.22573
441.511	289.44628
441.723	236.69488
441.934	308.43963
442.146	348.54149
442.357	382.31634
442.569	316.8816
442.78	340.09847
442.991	285.22573
443.203	344.31995
443.414	416.09547
443.626	380.20529
443.837	361.20655
444.048	390.76073
444.26	378.09425
444.471	295.77723
444.682	460.4368
444.894	397.09419
445.105	350.65229
445.316	371.76124
445.528	435.09805
445.739	344.31995
445.95	432.98659
446.161	342.2092
446.373	373.87222
446.584	464.66014
446.795	458.32515
447.006	483.66592
447.217	439.32102
447.429	352.76311
447.64	426.6523
447.851	449.87871
448.062	525.90526
448.273	511.12083
448.484	468.88354
448.695	502.6729
448.907	534.35382
449.118	498.44903
449.329	487.88959
449.54	517.45693
449.751	487.88959
449.962	475.21875
450.173	462.54846
450.384	528.01738
450.595	631.5277
450.806	665.33358
451.017	606.17534
451.228	665.33358
451.439	585.04977
451.65	665.33358
451.861	568.15026
452.072	623.07671
452.283	720.27449
452.494	728.7276
452.705	751.97453
452.915	688.57688
453.126	582.93728
453.337	694.9162
453.548	703.36879
453.759	760.42827
453.97	783.67688
454.181	935.87675
454.391	764.6552
454.602	885.13862
454.813	732.95422
455.024	918.96355
455.235	863.99908
455.445	887.25261
455.656	982.39044
455.867	897.82273
456.078	916.84943
456.288	745.63433
456.499	999.30532
456.71	891.48064
456.921	937.99093
457.131	1126.17884
457.342	986.61912
457.553	1009.87733
457.763	914.73532
457.974	1210.77059
458.184	1155.78523
458.395	1244.60887
458.606	1054.28143
458.816	1176.93315
459.027	1399.00334
459.237	1160.01479
459.448	1248.83871
459.659	1227.68963
459.869	1373.62287
460.08	1462.45484
460.29	1413.80866
460.501	1479.37525
460.711	1447.64947
460.922	1335.55247
461.132	1401.11838
461.343	1413.80866
461.553	1473.03009
461.764	1536.48138
461.974	1591.47174
462.184	1498.41068
462.395	1599.9317
462.605	1830.44859
462.816	1540.71144
463.026	1731.05625
463.236	1832.56322
463.447	1688.75917
463.657	1870.62573
463.867	1936.17392
464.078	1934.05954
464.288	2056.68301
464.498	2126.4412
464.709	2092.62006
464.919	2018.62979
465.129	2153.91942
465.339	2158.14672
465.55	2014.40152
465.76	2158.14672
465.97	2308.19358
466.18	2221.55221
466.391	2396.93148
466.601	2329.32323
466.811	2701.02836
467.021	2462.41685
467.231	2810.77782
467.441	2453.9677
467.651	2749.57585
467.862	2711.58275
468.072	3036.48859
468.282	2977.44041
468.492	2762.23926
468.702	2937.36528
468.912	3063.89973
469.122	3106.06554
469.332	3280.98459
469.542	3078.65848
469.752	3417.88813
469.962	3373.6658
470.172	3424.20497
470.382	3592.59394
470.592	3542.08955
470.802	3601.0103
471.012	3735.63082
471.222	3861.76558
471.432	3962.62186
471.642	3916.40182
471.852	4055.03232
472.062	3912.19951
472.272	4055.03232
472.482	4139.00711
472.691	4201.96619
472.901	4147.40275
473.111	4273.29675
473.321	4468.27954
473.531	4652.60441
473.741	4771.90415
473.95	4937.12744
474.16	4671.44608
474.37	4905.7669
474.58	4924.58384
474.79	5102.20738
474.999	5060.42863
475.209	5083.40809
475.419	5292.18324
475.628	5681.96388
475.838	5214.9636
476.048	5769.39488
476.258	5511.14533
476.467	5892.1443
476.677	6133.24282
476.886	6114.54823
477.096	6195.54436
477.306	6226.68721
477.515	6008.57626
477.725	6295.18293
477.935	6210.07835
478.144	6361.5787
478.354	6328.3838
478.563	6802.92014
478.773	6689.05891
478.982	6813.26774
479.192	6939.46259
479.401	6922.91725
479.611	7154.42098
479.82	7170.94623
480.03	7443.40916
480.239	7404.21449
480.449	7410.40364
480.658	7474.34679
480.868	7571.25329
481.077	7865.80798
481.287	7577.43721
481.496	7919.31747
481.705	7985.15623
481.915	8260.63109
482.124	8030.40824
482.333	8120.88287
482.543	8373.59607
482.752	8640.37296
482.961	8502.92036
483.171	8644.47473
483.38	8775.69229
483.589	8976.47509
483.799	8912.98074
484.008	8984.66667
484.217	9130.02077
484.426	9326.41884
484.636	9275.28842
484.845	9397.98409
485.054	9469.52935
485.263	9604.38989
485.472	9669.75216
485.682	9594.1756
485.891	9880.03063
486.1	9994.2906
486.309	9888.19358
486.518	10086.07387
486.727	10159.47991
486.936	10145.20793
487.146	10344.95471
487.355	10397.92714
487.564	10420.33589
487.773	10552.71938
487.982	10434.59518
488.191	10849.88229
488.4	10845.81328
488.609	10601.58593
488.818	10988.2013
489.027	11063.44133
489.236	11079.70747
489.445	11488.17525
489.654	11195.58383
489.863	11634.39557
490.072	11573.47629
490.281	11593.78364
490.49	11603.93697
490.698	11569.41471
490.907	11790.71807
491.116	11967.28106
491.325	11987.57168
491.534	12042.35238
491.743	12176.23703
491.952	12312.11723
492.16	12449.99337
492.369	12488.51205
492.578	12531.08262
492.787	12492.56652
492.996	12543.24512
493.204	12685.12447
493.413	12668.9112
493.622	12997.15984
493.831	12563.51545
494.039	13080.2132
494.248	13228.06894
494.457	13183.51225
494.665	13292.87488
494.874	13436.6478
495.083	13371.85126
495.291	13503.4651
495.5	13503.4651
495.709	13855.71234
495.917	13665.4301
496.126	13762.59886
496.335	13711.99104
496.543	13920.4834
496.752	14102.63793
496.96	13971.08389
497.169	14161.32817
497.377	14086.4472
497.586	14294.89267
497.794	14533.67127
498.003	14410.23753
498.211	14792.66564
498.42	14446.66114
498.628	14460.82576
498.837	14568.06995
499.045	14766.36221
499.254	14974.76344
499.462	14871.57523
499.671	15126.50924
499.879	15338.95305
500.087	15276.23137
500.296	15120.43943
500.504	15255.99862
500.713	15086.0438
500.921	15162.92812
501.129	15391.55856
501.338	15207.44007
501.546	15610.07746
501.754	15476.53732
501.962	15551.40036
502.171	15310.6271
502.379	16061.31216
502.587	15508.91042
502.795	15614.12418
503.004	15650.5448
503.212	15830.62898
503.42	15950.01549
503.628	15970.25094
503.837	16138.21065
504.045	16326.4197
504.253	16385.11175
504.461	16524.76505
504.669	16441.78149
504.877	16605.72808
505.085	16480.23685
505.294	16611.80045
505.502	16721.10661
505.71	16729.20363
505.918	16828.3953
506.126	16846.61482
506.334	16492.38081
506.542	16947.83814
506.75	16860.7857
506.958	17207.00044
507.166	17030.84616
507.374	17024.77225
507.582	17320.39862
507.79	17292.04821
507.998	17456.08387
508.206	17413.55417
508.414	17399.37791
508.622	17782.19193
508.83	17221.17471
509.037	17753.83131
509.245	17182.70202
509.453	17516.84298
509.661	17632.29322
509.869	17689.0095
510.077	17547.22361
510.285	17915.90105
510.492	17972.6307
510.7	18041.52044
510.908	17909.82303
511.116	17786.2435
511.324	18110.41432
511.531	18339.41551
511.739	18227.94886
511.947	18343.46906
512.155	18248.21469
512.362	18359.68339
512.57	18005.04889
512.778	18477.24456
512.985	18515.75877
513.193	18479.27159
513.401	18604.95492
513.608	18714.43322
513.816	18714.43322
514.024	18459.00147
514.231	18529.94857
514.439	18669.82957
514.646	18720.51569
514.854	19030.76882
515.061	18596.84587
515.269	18925.31279
515.477	19191.00185
515.684	19253.88508
515.892	19203.17249
516.099	19057.13453
516.307	18911.11762
516.514	19361.40427
516.722	19241.71382
516.929	19513.57394
517.136	19166.66102
517.344	19412.1249
517.551	19257.9422
517.759	19531.83587
517.966	19820.01336
518.173	20020.97588
518.381	20288.99002
518.588	19858.57873
518.796	19972.25391
519.003	19911.35485
519.21	20023.00601
519.418	19976.31398
519.625	20116.39675
519.832	20339.75852
520.039	20226.04072
520.247	20394.59145
520.454	20270.714
520.661	20727.71627
520.868	20165.12589
521.076	20439.2724
521.283	20394.59145
521.49	20544.88996
521.697	20532.70274
521.904	20774.44395
522.112	20490.04866
522.319	20853.68286
522.526	20666.77041
522.733	21058.92047
522.94	20922.76806
523.147	20953.24834
523.354	20756.15894
523.561	21140.21425
523.768	21266.23246
523.975	21430.89252
524.183	21065.01728
524.39	21443.0906
524.597	21548.81335
524.804	21361.77274
525.011	21632.17921
525.218	21731.82024
525.425	21758.25718
525.632	21412.59566
525.838	21748.08905
526.045	21802.99813
526.252	21965.70818
526.459	21951.47007
526.666	21768.42542
526.873	22075.55126
527.08	22484.50702
527.287	22205.74986
527.494	22335.96365
527.701	22333.92894
527.907	22376.65854
528.114	22191.50864
528.321	22108.09947
528.528	22405.14583
528.735	22421.4246
528.941	22628.99906
529.148	22138.61429
529.355	22211.85329
529.562	22195.57754
529.768	22606.6118
529.975	22006.38951
530.182	22808.1124
530.388	22376.65854
530.595	23455.5799
530.802	22991.32404
531.008	23260.0833
531.215	23203.069
531.422	23539.08203
531.628	23467.7994
531.835	23807.95284
532.042	23516.67851
532.248	23429.1047
532.455	23274.33727
532.661	23394.48409
532.868	23482.05562
533.074	23636.84718
533.281	23740.73026
533.487	24066.68728
533.694	23473.90919
533.9	23975.00447
534.107	23730.5453
534.313	23956.66859
534.52	24054.46258
534.726	24168.56369
534.933	24245.99434
535.139	24567.98378
535.345	24510.91766
535.552	24307.12655
535.758	24256.18287
535.965	24082.98704
536.171	24276.56014
536.377	24398.82932
536.584	24926.72932
536.79	24341.76919
536.996	24537.4124
537.203	24800.34453
537.409	24859.45887
537.615	24604.67019
537.821	24867.61272
538.028	25175.44782
538.234	24914.49814
538.44	24916.53666
538.646	25018.46582
538.853	25083.70348
539.059	25100.01326
539.265	24883.92055
539.471	25318.17003
539.677	25195.83606
539.883	25585.29212
540.09	25646.47001
540.296	25401.76932
540.502	25874.88281
540.708	25338.55977
540.914	25974.82079
541.12	25677.05961
541.326	26276.70016
541.532	25860.60631
541.738	26248.14239
541.944	26013.57343
542.15	26209.38595
542.356	26182.86873
542.562	26029.89052
542.768	25699.49227
542.974	26056.40604
543.18	25505.76355
543.386	26160.43132
543.592	26515.37411
543.798	26647.98015
544.004	26223.66457
544.21	26621.45842
544.415	26413.37399
544.621	26892.80801
544.827	26586.77655
545.033	26845.88104
545.239	26876.4855
545.445	27366.19933
545.651	26919.33229
545.856	27590.67667
546.062	27168.26396
546.268	26713.26549
546.474	26786.71333
546.679	26698.98419
546.885	26913.21128
547.091	26792.83407
547.297	26745.90874
547.502	27080.52341
547.708	26915.25162
547.914	26794.87432
548.119	27407.01226
548.325	27498.84321
548.531	26919.33229
548.736	27992.73169
548.942	27217.23651
549.147	27633.53314
549.353	27707.00261
549.559	27551.90224
549.764	27633.53314
549.97	27702.92093
550.175	28327.47111
550.381	28145.81005
550.586	28015.18279
550.792	28400.95442
550.997	28313.18285
551.203	28288.68881
551.408	28511.182
551.614	28490.76925
551.819	28707.14976
552.025	29060.32429
552.23	29001.11945
552.435	28743.89479
552.641	28978.66267
552.846	28741.85339
553.052	28443.82034
553.257	28578.54482
553.462	28752.0604
553.668	28435.65536
553.873	28835.75885
554.078	29078.69838
554.283	28931.708
554.489	29307.36078
554.694	29440.07265
554.899	28966.41357
555.105	29041.95028
555.31	29139.94596
555.515	28733.6878
555.72	29374.73702
555.925	28754.1018
556.131	28958.24753
556.336	29468.65733
556.541	29695.30037
556.746	29233.86073
556.951	29070.5321
557.156	29121.57158
557.361	29168.52848
557.567	29570.74716
557.772	29252.23561
557.977	29509.49294
558.182	29942.37695
558.387	30218.06037
558.592	30134.33207
558.797	29858.65497
559.002	29558.49624
559.207	29576.87263
559.412	29879.07479
559.617	29952.58707
559.822	29701.42604
560.027	29803.52201
560.232	29819.85762
560.437	29838.23526
560.642	30097.57392
560.847	30322.21299
561.051	30081.23708
561.256	29799.43812
561.461	30434.53798
561.666	30297.70621
561.871	30350.80446
562.076	30024.05874
562.281	30348.7622
562.485	29934.20887
562.69	30087.36339
562.895	29787.18647
563.1	30275.24182
563.305	30271.1574
563.509	30522.35831
563.714	30171.09059
563.919	30587.71449
564.123	30736.81325
564.328	30471.2997
564.533	30779.70599
564.737	30338.55094
564.942	30616.30823
565.147	30638.77493
565.351	31263.82425
565.556	31284.25301
565.761	31433.38779
565.965	31198.45324
566.17	31053.41683
566.374	30775.62094
566.579	31484.46333
566.784	31004.39213
566.988	31145.34044
567.193	31351.66905
567.397	30789.91863
567.602	31241.35278
567.806	31073.84404
568.011	31196.41042
568.215	31470.16208
568.42	31116.74166
568.624	31053.41683
568.828	31196.41042
569.033	30928.81399
569.237	31427.2588
569.442	31929.88783
569.646	31274.03861
569.85	31725.55415
570.055	31809.32873
570.259	31923.75755
570.463	31844.06543
570.668	31850.1955
570.872	31776.63585
571.076	31637.69623
571.281	32228.2496
571.485	32348.83288
571.689	32224.16216
571.893	32142.41511
572.098	31878.80267
572.302	32168.98254
572.506	32107.6736
572.71	32408.10538
572.914	32551.18469
573.119	32246.64318
573.323	32181.24454
573.527	32162.85156
573.731	32682.00997
573.935	32254.81816
574.139	32354.96443
574.343	31829.76202
574.547	32563.44915
574.751	32330.43833
574.955	32322.26304
575.159	32201.68139
575.364	32540.96436
575.568	32393.79806
575.772	33039.78699
575.976	32849.64435
576.18	32475.55567
576.383	32712.67356
576.587	32827.15584
576.791	32827.15584
576.995	32825.11145
577.199	32684.05419
577.403	32968.22527
577.607	33195.18958
577.811	33344.47318
578.015	32675.87732
578.219	33133.84455
578.422	32953.91332
578.626	33086.81505
578.83	33242.22249
579.034	33056.14441
579.238	33516.27102
579.442	33573.54177
579.645	33162.47192
579.849	33596.04167
580.053	33747.41469
580.257	33479.4554
580.46	33673.77155
580.664	34013.38459
580.868	33683.99951
581.071	33741.2776
581.275	33810.83305
581.479	33902.89773
581.682	33499.9084
581.886	34087.04824
582.09	33638.99708
582.293	33833.33711
582.497	33585.8144
582.7	33884.48424
582.904	33921.3115
583.107	34103.41858
583.311	33864.02513
583.515	34158.6702
583.718	33835.38296
583.922	34256.90199
584.125	34070.67814
584.329	34005.20003
584.532	34494.33207
584.735	34490.238
584.939	34087.04824
585.142	34195.50611
585.346	34072.72439
585.549	34150.4846
585.753	34232.34323
585.956	34805.53028
586.159	34504.56733
586.363	34762.52994
586.566	34848.53254
586.769	34604.87824
586.973	34625.35107
587.176	34916.11147
587.379	35065.62176
587.582	35012.36872
587.786	35307.34885
587.989	34924.30319
588.192	34858.77146
588.395	35377.01161
588.599	35280.71461
588.802	35534.79884
589.005	34916.11147
589.208	35559.3918
589.411	35784.86289
589.615	35282.76337
589.818	35883.27089
590.021	35713.11504
590.224	35143.45882
590.427	35184.42843
590.63	35377.01161
590.833	35493.81223
591.036	35272.51962
591.239	35930.42929
591.442	35618.82791
591.645	36090.38025
591.848	35957.08536
592.051	35961.18638
592.254	35788.96297
592.457	35624.97673
592.66	35571.68857
592.863	36453.47989
593.066	36119.09314
593.269	36129.34802
593.472	35936.58061
593.675	36915.33393
593.878	36266.77778
594.081	36215.49487
594.284	36437.06445
594.486	36545.82426
594.689	36855.78716
594.892	36796.24611
595.095	36572.50393
595.298	36439.11636
595.5	36293.44639
595.703	36519.14567
595.906	36543.77202
596.109	36588.92273
596.311	36632.02405
596.514	36430.90877
596.717	36890.69319
596.92	37396.03163
597.122	37116.60407
597.325	36792.14004
597.528	36621.76157
597.73	36989.2621
597.933	36638.18162
598.136	36954.35046
598.338	36929.70815
598.541	37163.85077
598.743	37531.68562
598.946	37461.79915
599.148	37147.4167
599.351	37112.49584
599.554	36905.06683
599.756	36835.25512
599.959	37613.91632
600.161	37712.60955
600.363	37840.1152
600.566	37410.41762
600.768	36985.15474
600.971	37620.08412
601.173	37523.46322
601.376	37558.40924
601.578	37094.00916
601.78	37735.22929
601.983	37457.68845
602.185	37574.8552
602.388	37525.51881
602.59	37747.56773
602.792	37507.0188
602.995	37669.42904
603.197	37661.20458
603.399	38255.75433
603.601	37901.82253
603.804	37611.8604
604.006	37850.39925
604.208	37755.79352
604.41	37636.53193
604.613	37798.981
604.815	37899.7655
605.017	37895.65147
605.219	37796.92437
605.421	37490.57486
605.623	37893.59446
605.826	38103.45108
606.028	37770.18896
606.23	38132.26166
606.432	38212.52842
606.634	38401.92716
606.836	38064.35363
607.038	38132.26166
607.24	37644.75602
607.442	37692.04697
607.644	37217.26465
607.846	37737.28568
608.048	37716.72216
608.25	37788.69795
608.452	38101.39324
608.654	38607.87932
608.856	37873.02487
609.058	37410.41762
609.26	37437.13543
609.462	37507.0188
609.664	37977.93831
609.866	37986.16771
610.067	38593.45977
610.269	38517.24944
610.471	37846.2856
610.673	38089.0464
610.875	38879.87431
611.077	39168.53159
611.278	39067.48031
611.48	38774.76639
611.682	38496.65414
611.884	39001.50005
612.085	38432.81435
612.287	38844.83566
612.489	38747.97801
612.69	38904.6091
612.892	38017.02915
613.094	38346.33516
613.295	37870.96795
613.497	38581.1005
613.699	38721.19118
613.9	38350.45287
614.102	38741.7963
614.304	38591.39987
614.505	38356.6295
614.707	38750.0386
614.908	38132.26166
615.11	38558.44269
615.311	38220.76163
615.513	38480.17854
615.714	38970.57515
615.916	38288.69088
616.117	38395.74995
616.319	38558.44269
616.52	38200.17885
616.722	38296.92537
616.923	38290.74949
617.124	37840.1152
617.326	37827.7746
617.527	38072.58442
617.729	38325.74714
617.93	38354.57061
618.131	38502.83264
618.333	38498.71363
618.534	38729.43312
618.735	38813.92143
618.937	38535.78596
619.138	38630.5395
619.339	38210.47014
619.54	37905.93661
619.742	39222.16004
619.943	38593.45977
620.144	38416.34093
620.345	39005.62353
620.546	38607.87932
620.748	39077.79061
620.949	38539.90529
621.15	38263.98826
621.351	38360.74729
621.552	38492.53519
621.753	38058.18062
621.954	38609.93929
622.155	38432.81435
622.356	38776.8271
622.558	38206.35359
622.759	38609.93929
622.96	38321.62964
623.161	38956.14425
623.362	38447.22904
623.563	39143.7822
623.764	39017.9942
623.965	39381.02158
624.166	39154.09427
624.366	38669.68239
624.567	38715.00983
624.768	38509.01121
624.969	38434.87356
625.17	38747.97801
625.371	38970.57515
625.572	38974.69834
625.773	38906.6704
625.973	39123.15877
626.174	39046.86043
626.375	38319.57091
626.576	38682.04398
626.777	39277.8581
626.977	38881.9355
627.178	39024.17967
627.379	39015.9324
627.58	38679.98369
627.78	38712.9494
627.981	38546.08434
628.182	38999.43832
628.382	39366.5772
628.583	39187.09454
628.784	38855.14087
628.984	38737.6752
629.185	38626.41939
629.386	38434.87356
629.586	39075.72853
629.787	38978.82158
629.987	38914.91566
630.188	39494.53007
630.388	39690.66212
630.589	39253.10253
630.79	38694.4059
630.99	38377.21882
631.191	38609.93929
631.391	38430.75514
631.591	38702.64736
631.792	39246.91386
631.992	39492.46601
632.193	39653.49319
632.393	39277.8581
632.594	39319.12053
632.794	39750.55242
632.994	39182.96937
633.195	39096.34975
633.395	38741.7963
633.595	38739.73575
633.796	38780.94854
633.996	39104.59851
634.196	39234.53677
634.397	39482.14586
634.597	38824.22594
634.797	39593.61689
634.997	38871.62968
635.198	38813.92143
635.398	38861.3241
635.598	38869.56855
635.798	38552.26348
635.998	38243.40368
636.199	39259.29129
636.399	39331.50003
636.599	39263.41718
636.799	39162.34411
636.999	39040.67466
637.199	39005.62353
637.399	38838.65265
637.599	39119.0342
637.799	38960.26732
637.999	39444.99537
638.199	39568.843
638.399	39228.34837
638.599	39352.13331
638.799	39700.98742
638.999	39986.06819
639.199	39703.05251
639.399	39337.68991
639.599	39508.97879
639.799	38702.64736
639.999	39350.06994
640.199	39829.04255
640.399	39965.40344
640.599	38904.6091
640.799	40062.53703
640.998	39806.32018
641.198	39411.97544
641.398	39381.02158
641.598	39886.88703
641.798	39397.53003
641.997	40323.05505
642.197	40054.26942
642.397	40304.44089
642.597	39886.88703
642.796	39147.907
642.996	39182.96937
643.196	39329.43676
643.395	39484.20987
643.595	39897.21726
643.795	40120.41507
643.994	39820.77972
644.194	39517.23541
644.394	39913.74619
644.593	39919.94471
644.793	39591.55235
644.992	39847.63452
645.192	39944.73974
645.392	40103.87763
645.591	40515.45384
645.791	40159.69427
645.99	39387.21217
646.19	39632.84522
646.389	39461.5063
646.589	39424.35762
646.788	39504.85053
646.987	39306.74139
647.187	39971.60275
647.386	39455.31463
647.586	40209.31567
647.785	39767.07541
647.984	40492.69198
648.184	40722.44231
648.383	40209.31567
648.582	40157.62684
648.782	40304.44089
648.981	39988.13472
649.18	39866.22734
649.38	40256.87539
649.579	40840.47664
649.778	40482.34612
649.977	40500.96886
650.177	40035.66793
650.376	40287.89571
650.575	39713.37811
650.774	39589.48781
650.973	39878.62303
651.173	39760.87921
651.372	40149.35726
651.571	40393.38328
651.77	40161.7617
651.969	40536.14761
652.168	40184.50419
652.367	40678.96534
652.566	40041.86833
652.765	40832.19231
652.964	39612.19828
653.163	39550.26354
653.362	40174.16653
653.561	40124.54954
653.76	40432.68991
653.959	40072.87177
654.158	39917.87853
654.357	39703.05251
654.556	39738.16061
654.755	40083.20679
654.954	40074.93876
655.153	40155.55943
655.352	40790.77344
655.551	40498.89962
655.749	40641.70335
655.948	40455.44821
656.147	41062.15128
656.346	40973.05106
656.545	40563.0512
656.743	40701.73837
656.942	40848.76116
657.141	40631.35345
657.34	40602.37524
657.538	40790.77344
657.737	41205.17148
657.936	41628.3469
658.135	41074.58559
658.333	41105.67322
658.532	41006.2021
658.731	40927.47325
658.929	40463.72429
659.128	39996.40096
659.326	40141.08785
659.525	40418.20805
659.724	40304.44089
659.922	40341.67011
660.121	39835.23978
660.319	39758.81383
660.518	40141.08785
660.716	39773.2717
660.915	40136.9532
661.113	40225.85753
661.312	39948.8724
661.51	40310.64551
661.709	40664.47413
661.907	40991.69815
662.105	40633.42341
662.304	40476.13875
662.502	39822.84541
662.701	39812.51706
662.899	39928.20955
663.097	40443.03443
663.296	40656.19369
663.494	41491.38214
663.692	40211.38337
663.891	40794.91512
664.089	40521.66185
664.287	40279.62339
664.485	40027.40088
664.684	39946.80607
664.882	39851.76619
665.08	39973.66921
665.278	40110.07909
665.476	40376.83431
665.675	40602.37524
665.873	40320.98677
666.071	41035.21172
666.269	40707.94943
666.467	40958.54842
666.665	40736.93575
666.863	39837.30554
667.061	40025.33415
667.259	40314.78198
667.457	40459.58623
667.655	40327.19166
667.853	40449.24127
668.051	39963.33702
668.249	39922.0109
668.447	39882.75501
668.645	40263.07926
668.843	40277.55533
669.041	40426.48333
669.239	39853.83203
669.437	39789.79561
669.635	40302.3727
669.833	39506.91465
670.031	39777.40262
670.229	40062.53703
670.426	39915.81235
670.624	39870.35919
670.822	39449.12304
671.02	39762.9446
671.218	39172.65662
671.415	39696.85727
671.613	39715.44326
671.811	39785.66457
672.009	39888.95305
672.206	39857.96376
672.404	39612.19828
672.602	39475.95388
672.799	39725.76917
672.997	39612.19828
673.195	39125.22107
673.392	39670.01231
673.59	39868.29326
673.788	39847.63452
673.985	39071.60441
674.183	39387.21217
674.38	39876.55705
674.578	39707.18272
674.775	39899.28334
674.973	39773.2717
675.17	40196.90973
675.368	39963.33702
675.565	39888.95305
675.763	40012.93395
675.96	40070.8048
676.158	40182.43663
676.355	39880.68901
676.553	40223.78976
676.75	39376.89456
676.947	39655.55805
677.145	39876.55705
677.342	40244.46795
677.539	39905.48164
677.737	39862.09553
677.934	39548.19921
678.131	39463.57021
678.329	39343.87988
678.526	39193.28237
678.723	39804.25457
678.92	39812.51706
679.118	39449.12304
679.315	39160.28164
679.512	39273.73208
679.709	38929.34524
679.906	38923.16108
680.104	39114.90967
680.301	38964.39042
680.498	39110.78518
680.695	39001.50005
680.892	39116.97193
681.089	39127.28338
681.286	39317.05732
681.483	38754.15981
681.68	38956.14425
681.877	39597.74602
682.075	38910.79301
682.272	38422.5184
682.469	38989.12983
682.665	39032.42709
682.862	38628.47944
683.059	38698.52661
683.256	38317.51218
683.453	38688.2249
683.65	38954.08273
683.847	38877.81314
684.044	38441.05126
684.241	38222.81996
684.438	38923.16108
684.635	38111.68251
684.831	38690.28523
685.028	38366.92405
685.225	38698.52661
685.422	38119.91407
685.619	38342.21749
685.815	37934.73609
686.012	38181.65507
686.209	37854.51292
686.405	38342.21749
686.602	38099.33542
686.799	37548.13077
686.996	38093.16198
687.192	37221.37361
687.389	37568.68791
687.586	37887.4235
687.782	38428.69594
687.979	38399.86808
688.175	38021.14414
688.372	38161.07389
688.568	38379.2778
688.765	37550.18645
688.962	37319.99748
689.158	37209.04681
689.355	37992.33985
689.551	37796.92437
689.748	37905.93661
689.944	37285.06626
690.14	36981.04742
690.337	37367.26075
690.533	37391.92142
690.73	37141.25405
690.926	37525.51881
691.123	37258.35559
691.319	37120.71233
691.515	37052.9297
691.712	37073.46908
691.908	37196.72027
692.104	36944.08271
692.301	37182.33964
692.497	36824.98935
692.693	37044.71415
692.889	36714.12978
693.086	36543.77202
693.282	36864.00016
693.478	37383.70108
693.674	37597.46919
693.87	37544.01944
694.067	37104.27947
694.263	37293.28518
694.459	36822.93622
694.655	37040.60641
694.851	36874.26657
695.047	36944.08271
695.243	37373.42582
695.439	37147.4167
695.635	36886.58649
695.831	36539.66757
696.027	36625.86655
696.224	36566.34699
696.42	36857.8404
696.615	36755.18661
696.811	36866.05343
697.007	36595.07989
697.203	36556.08554
697.399	36625.86655
697.595	36256.52089
697.791	36385.7688
697.987	36578.66093
698.183	37081.68503
698.379	36473.99975
698.575	36917.38737
698.77	36900.96004
698.966	36978.99376
699.162	36775.71602
699.358	36890.69319
699.554	36090.38025
699.749	36414.49388
699.945	36697.70779
700.141	36020.65373
700.337	35721.31445
700.532	35961.18638
700.728	35868.91893
700.924	36184.72693
701.119	35946.83291
701.315	35987.84356
701.511	36065.77012
701.706	35791.01301
701.902	35940.68151
702.097	36422.70127
702.293	36256.52089
702.489	36320.11603
702.684	36467.84372
702.88	36767.50418
703.075	35542.99641
703.271	35655.72153
703.466	36330.37385
703.662	36133.45001
703.857	36402.18298
704.053	36229.8537
704.248	36256.52089
704.443	36018.60305
704.639	35600.38175
704.834	35520.45329
705.03	35768.46279
705.225	35563.4907
705.42	35665.97006
705.616	35442.58185
705.811	35545.04582
706.006	35639.32415
706.202	35461.02442
706.397	35450.7785
706.592	35276.6171
706.787	35315.54418
706.983	35118.87796
707.178	35848.41659
707.373	35647.5228
707.568	35530.70009
707.763	34991.88761
707.959	35194.67113
708.154	35219.25411
708.349	34828.05503
708.544	35639.32415
708.739	35403.6489
708.934	35338.08172
709.129	35420.0415
709.324	34381.75088
709.519	35125.02311
709.714	34823.95958
709.909	35801.26334
710.104	34756.3872
710.299	35057.42878
710.494	35045.13945
710.689	34895.63249
710.884	34572.12257
711.079	34492.28503
711.274	34965.26285
711.469	35360.61986
711.664	34942.73481
711.859	35260.22729
712.054	34664.25061
712.249	34668.34538
712.443	34383.7977
712.638	34349.00223
712.833	33814.92467
713.028	34658.10847
713.223	34048.16962
713.417	34437.0165
713.612	34480.00289
713.807	35426.18881
714.002	35084.05624
714.196	34826.0073
714.391	34973.455
714.586	34522.99104
714.78	34267.13496
714.975	34422.6881
715.17	34381.75088
715.364	34744.10182
715.559	35157.79796
715.754	34680.62981
715.948	34664.25061
716.143	34396.07873
716.337	34512.75561
716.532	34662.20322
716.726	34869.01049
716.921	34312.1612
717.115	34183.22734
717.31	33837.4288
717.504	33870.16283
717.699	34306.02115
717.893	33855.84159
718.088	34480.00289
718.282	34303.97447
718.476	33810.83305
718.671	33759.68896
718.865	33571.49635
719.059	33407.87229
719.254	33324.02246
719.448	33000.93879
719.642	33788.32939
719.837	33377.19494
720.031	33182.92037
720.225	32949.82421
720.419	33027.51903
720.614	33023.42974
720.808	33350.60845
721.002	33082.72559
721.196	33548.99687
721.39	33023.42974
721.585	33080.68087
721.779	32958.00243
721.973	32504.17169
722.167	32310.00016
722.361	31987.10463
722.555	32291.60599
722.749	31762.33286
722.943	32068.84555
723.137	32242.5557
723.331	32373.35921
723.525	32573.6696
723.719	32175.11353
723.913	32776.04672
724.107	32354.96443
724.301	32710.6293
724.495	32406.06147
724.689	32571.6255
724.883	32142.41511
725.077	32639.08185
725.271	32301.82495
725.465	32865.99983
725.659	32684.05419
725.853	32855.77764
726.046	32532.78815
726.24	32418.32497
726.434	32320.21922
726.628	32749.47059
726.822	32641.12602
727.015	33047.96568
727.209	31721.46766
727.403	32205.76878
727.596	32246.64318
727.79	32630.90519
727.984	32493.95163
728.177	33240.17755
728.371	32487.81962
728.565	32395.84195
728.758	32350.87673
728.952	32342.70134
729.146	32359.05214
729.339	32675.87732
729.533	32361.096
729.726	32361.096
729.92	32185.3319
730.113	32238.46823
730.307	32598.19891
730.5	32573.6696
730.694	32459.20386
730.887	32023.88766
731.081	31725.55415
731.274	31835.89204
731.468	31987.10463
731.661	31848.15214
731.854	31925.80098
732.048	32146.50238
732.241	31868.58578
732.435	32831.24464
732.628	32516.43583
732.821	32342.70134
733.014	32493.95163
733.208	32927.33432
733.401	32436.72036
733.594	32185.3319
733.788	32062.71487
733.981	32148.54602
734.174	32271.16822
734.367	31752.11649
734.56	31639.73941
734.754	32021.84414
734.947	31654.04165
735.14	32162.85156
735.333	32632.94935
735.526	32657.47949
735.719	31925.80098
735.912	32363.13986
736.105	31846.10879
736.298	31594.79005
736.491	31351.66905
736.684	31484.46333
736.877	31496.72161
737.07	31470.16208
737.263	31631.56673
737.456	31525.32451
737.649	31848.15214
737.842	31786.85233
738.035	32179.20087
738.228	31799.11216
738.421	31711.25148
738.614	31535.53991
738.807	31774.59256
739	31705.12179
739.192	32156.7206
739.385	32181.24454
739.578	32173.06986
739.771	31925.80098
739.964	31513.06608
740.156	31482.42029
740.349	31555.97083
740.542	31899.2366
740.735	31839.97874
740.927	31235.22423
741.12	31247.48135
741.313	30971.70945
741.505	31186.19635
741.698	30906.34519
741.891	31288.33878
742.083	31278.12436
742.276	31106.52788
742.468	31126.95548
742.661	31263.82425
742.854	31194.3676
743.046	30971.70945
743.239	31133.08379
743.431	31725.55415
743.624	30845.06749
743.816	30908.3878
744.009	31239.30993
744.201	31090.18592
744.393	30726.60078
744.586	30953.3256
744.778	30299.74844
744.971	30687.79371
745.163	31274.03861
745.355	30900.21736
745.548	30769.49338
745.74	30599.96892
745.932	30224.18691
746.125	30742.94075
746.317	30939.02714
746.509	30416.15728
746.702	31120.82718
746.894	30722.51581
747.086	30463.13039
747.278	30428.41107
747.471	30497.85008
747.663	30671.45403
747.855	30653.07199
748.047	30216.01819
748.239	30589.75689
748.431	30487.63837
748.623	30197.63865
748.815	30158.83771
749.008	30365.10028
749.2	30552.99386
749.392	30224.18691
749.584	29797.39617
749.776	29879.07479
749.968	30052.6478
750.16	29699.38415
750.352	29582.99811
750.544	29593.20728
750.736	29830.06741
750.928	29701.42604
751.12	29789.22841
751.311	29638.12791
751.503	29746.34793
751.695	29499.284
751.887	29807.6059
752.079	29719.80311
752.271	29370.65358
752.463	29825.98349
752.654	29783.1026
752.846	29237.94403
753.038	29374.73702
753.23	29634.04419
753.421	29521.74371
753.613	29715.71931
753.805	30195.59649
753.997	29838.23526
754.188	29629.96048
754.38	29435.98914
754.572	28952.12301
754.763	28976.62115
754.955	28641.8261
755.146	29074.61524
755.338	28660.19827
755.53	28921.50053
755.721	28878.62946
755.913	29003.16098
756.104	28831.67595
756.296	28831.67595
756.487	28725.52223
756.679	28362.17139
756.87	28247.86576
757.062	28296.85347
757.253	28539.76003
757.445	28368.295
757.636	29111.36364
757.827	29221.61085
758.019	28839.84174
758.21	28778.59874
758.401	28278.48301
758.593	28668.36371
758.784	27909.05154
758.975	28047.83918
759.167	27972.32172
759.358	28396.87198
759.549	27800.8825
759.74	27729.45192
759.932	27931.50213
760.123	27488.63964
760.314	27766.18747
760.505	27807.00519
760.696	27539.65777
760.888	27860.06893
761.079	27560.06524
761.27	27486.59893
761.461	27962.11678
761.652	27858.028
761.843	27460.06983
762.034	28390.74833
762.225	27633.53314
762.416	28053.96228
762.607	27345.79305
762.798	27684.55344
762.989	27458.02914
763.18	27480.47681
763.371	27372.32123
763.562	27294.77793
763.753	26833.63934
763.944	27349.8743
764.135	26890.7677
764.326	27531.49482
764.517	26868.32428
764.708	26352.17584
764.899	26109.43797
765.089	26242.02292
765.28	26658.18088
765.471	26841.80047
765.662	26266.50092
765.853	26186.94829
766.043	25995.21683
766.234	26325.6571
766.425	25860.60631
766.615	26333.81668
766.806	26666.34149
766.997	26364.41535
767.187	26140.03385
767.378	26076.80279
767.569	25734.16137
767.759	26350.13593
767.95	26403.17419
768.141	26488.8537
768.331	26299.13864
768.522	26368.4952
768.712	25730.08263
768.903	25726.00389
769.093	25658.70579
769.284	25697.45292
769.474	25591.40983
769.665	25817.77738
769.855	25695.41358
770.046	25972.7812
770.236	25830.01413
770.426	25363.02775
770.617	25779.0281
770.807	25369.14479
770.998	25568.97832
771.188	25532.27274
771.378	25360.98874
771.569	25493.52866
771.759	25214.18566
771.949	25026.6204
772.139	24806.45971
772.33	24543.52663
772.52	25030.69771
772.71	24979.73206
772.9	25010.31128
773.09	25087.78091
773.281	25297.7805
773.471	25038.85234
773.661	25118.36193
773.851	25446.62892
774.041	25130.59447
774.231	25599.5668
774.421	25326.3259
774.611	25102.05199
774.802	25193.79722
774.992	25628.11645
775.182	24957.30763
775.372	24608.74651
775.562	24294.89991
775.752	24382.52622
775.942	23899.62511
776.131	23809.98993
776.321	23922.03478
776.511	24370.299
776.701	23922.03478
776.891	24052.42514
777.081	24013.71429
777.271	24248.03204
777.461	24478.30934
777.651	24824.80539
777.84	24559.83136
778.03	23862.9555
778.22	24341.76919
778.41	24398.82932
778.599	24252.10745
778.789	24223.5798
778.979	24188.9398
779.169	23771.28558
779.358	23333.39111
779.548	23590.0005
779.738	23418.92207
779.927	23437.25086
780.117	23288.5914
780.307	23372.083
780.496	23272.30098
780.686	23284.51878
780.875	23245.82949
781.065	23895.55067
781.254	23940.37022
781.444	24011.67691
781.633	23632.77349
781.823	23304.88203
782.012	23530.93525
782.202	23453.54333
782.391	23315.06377
782.581	22983.18071
782.77	22913.96466
782.96	23221.39475
783.149	22366.48468
783.338	22622.8934
783.528	22867.14425
783.717	22519.10207
783.906	22407.18066
784.096	22342.06779
784.285	22555.73325
784.474	22439.73849
784.663	22429.56407
784.853	22295.27022
785.042	22388.86729
785.231	22584.22496
785.42	22219.99125
785.61	22602.54143
785.799	22567.9439
785.988	22319.6861
786.177	21996.21904
786.366	22067.41436
786.555	22130.47693
786.744	22073.51703
786.933	21874.18075
787.122	21813.16678
787.312	21955.53808
787.501	22246.44004
787.69	21642.34623
787.879	22085.72247
788.068	21376.00291
788.257	21683.0153
788.445	21308.91957
788.634	21864.01152
788.823	21831.47061
789.012	22079.61974
789.201	21906.72295
789.39	21900.62121
789.579	22156.92359
789.768	21937.23215
789.957	21615.91218
790.145	21357.70702
790.334	20874.00154
790.523	21447.15666
790.712	21670.81441
790.9	22057.24332
791.089	21538.64723
791.278	21693.18281
791.467	21300.78856
791.655	21436.99154
791.844	21441.05758
792.033	21231.67753
792.221	21213.38422
792.41	21455.28883
792.599	21056.88821
792.787	21040.63027
792.976	21085.34023
793.164	21243.87325
793.353	21113.79306
793.541	21239.808
793.73	21373.97001
793.918	21146.31155
794.107	20874.00154
794.295	20983.72955
794.484	21004.05087
794.672	20786.63414
794.861	20494.11087
795.049	20201.67433
795.238	20351.94335
795.426	20683.02228
795.614	20390.52965
795.803	20396.62236
795.991	20217.91852
796.179	20469.73784
796.368	20427.08648
796.556	20262.59143
796.744	19968.19385
796.932	20073.76075
797.121	20041.27741
797.309	20252.43832
797.497	19925.56429
797.685	19836.25123
797.874	19621.12129
798.062	19797.68673
798.25	19227.51421
798.438	19870.75758
798.626	19968.19385
798.814	19813.92423
799.002	20027.06629
799.19	20025.03615
799.378	20016.91562
799.566	20075.79099
799.755	19631.26787
799.943	19734.76897
800.131	19426.32714
800.318	19718.53278
800.506	19641.41455
800.694	19578.50678
800.882	19529.80675
801.07	19692.14955
801.258	19610.97481
801.446	19730.7099
801.634	19556.18564
801.822	19546.03983
802.01	19448.64536
802.197	19734.76897
802.385	19335.03057
802.573	19720.56229
802.761	19448.64536
802.949	19761.15335
803.136	19219.40024
803.324	19460.81914
803.512	19686.06121
803.699	19600.82844
803.887	19475.02208
804.075	19992.55443
804.262	19767.24215
804.45	19748.97586
804.638	19499.37045
804.825	19882.93659
805.013	19755.06458
805.201	19972.25391
805.388	19554.15647
805.576	19343.14548
805.763	19075.38812
805.951	19335.03057
806.138	18925.31279
806.326	18864.47772
806.513	19397.92286
806.701	19661.70824
806.888	19657.64947
807.075	19757.09417
807.263	19696.20846
807.45	19742.88717
807.638	19706.35582
807.825	19300.54293
808.012	19042.93752
808.2	19290.39973
808.387	19700.26739
808.574	19679.97291
808.761	20016.91562
808.949	20238.22414
809.136	19891.05601
809.323	19874.81723
809.51	19994.58451
809.698	19702.29687
809.885	19706.35582
810.072	19621.12129
810.259	19521.69031
810.446	19412.1249
810.633	19548.06898
810.82	19637.35587
811.008	19675.91407
811.195	19929.62417
811.382	19862.63833
811.569	19667.79643
811.756	19765.21255
811.943	20230.10184
812.13	19832.19173
812.317	19870.75758
812.504	19649.53198
812.691	19639.38521
812.878	19568.36075
813.064	19550.09814
813.251	19479.0801
813.438	20195.58283
813.625	19801.74608
813.812	19495.31235
813.999	19249.82798
814.186	19472.99308
814.372	19233.59974
814.559	19111.89629
814.746	18619.14591
814.933	18915.17336
815.12	18860.42218
815.306	19223.45722
815.493	19375.60579
815.68	19397.92286
815.866	19393.86518
816.053	19712.44428
816.24	19777.39024
816.426	19663.73763
816.613	19375.60579
816.799	19432.41388
816.986	19024.68452
817.173	19442.55852
817.359	18827.97841
817.546	19176.80296
817.732	19018.60026
817.919	19562.27317
818.105	19481.10912
818.292	19324.88702
818.478	19215.34328
818.665	19858.57873
818.851	19556.18564
819.037	19132.17918
819.224	19055.10638
819.41	19065.2472
819.597	18994.26357
819.783	19207.22941
819.969	19120.0094
820.156	19209.25787
820.342	19172.74617
820.528	18998.31965
820.714	18635.36442
820.901	18801.6186
821.087	18832.03382
821.273	18754.98365
821.459	18815.81226
821.646	19130.15087
821.832	18754.98365
822.018	18933.42441
822.204	18679.9666
822.39	18945.59195
822.576	18734.70824
822.762	18738.76329
822.948	18728.62569
823.134	19077.41632
823.32	18690.10372
823.507	18945.59195
823.693	18823.92301
823.879	18684.02144
824.065	18602.92765
824.25	18388.05906
824.436	18576.57351
824.622	18692.13116
824.808	18653.61053
824.994	18420.4893
825.18	18357.65659
825.366	18534.00283
825.552	18759.03878
825.738	18653.61053
825.923	18396.16652
826.109	18459.00147
826.295	18088.12467
826.481	17992.89196
826.667	18256.32112
826.852	18124.59887
827.038	17703.18898
827.224	17948.31766
827.409	17770.0373
827.595	18252.2679
827.781	17741.67696
827.966	18142.83641
828.152	17761.93427
828.338	17545.19821
828.523	17476.33659
828.709	17859.17413
828.894	17808.52739
829.08	17654.57431
829.266	17460.13439
829.451	17859.17413
829.637	17117.90826
829.822	17757.88278
830.008	17751.80557
830.193	17899.69308
830.378	17723.44566
830.564	17816.63072
830.749	17583.68131
830.935	17579.6304
831.12	17458.10913
831.305	17257.62349
831.491	17281.9232
831.676	17166.50331
831.861	16955.93629
832.047	16968.08359
832.232	16832.44407
832.417	17144.23038
832.602	16700.86422
832.788	16727.17937
832.973	16532.8612
833.158	16555.12578
833.343	16557.14985
833.528	17245.47379
833.714	17168.52814
833.899	17042.99406
834.084	16686.69468
834.269	16745.39779
834.454	17061.21608
834.639	16611.80045
834.824	16425.58997
835.009	16621.92111
835.194	16368.92068
835.379	16634.06598
835.564	16619.89698
835.749	16775.76226
835.934	16441.78149
836.119	16682.64627
836.304	16575.36654
836.489	16603.70397
836.674	16265.70544
836.859	16403.32685
837.044	16144.28168
837.228	16318.32437
837.413	16538.93333
837.598	16860.7857
837.783	16166.54225
837.968	16397.25513
838.152	16122.0213
838.337	16162.49486
838.522	16020.84015
838.707	16047.14689
838.891	15790.15992
839.076	15753.73813
839.261	15739.57419
839.445	15808.37094
839.63	15838.72285
839.815	15875.14549
839.999	15701.12946
840.184	16103.80841
840.368	16358.80132
840.553	16233.32517
840.737	16093.6902
840.922	15510.93375
841.106	15757.78498
841.291	15622.21762
841.475	15203.39353
841.66	15217.55643
841.844	15448.21097
842.029	15599.96067
842.213	15595.91396
842.397	15691.01248
842.582	15409.76823
842.766	15547.35369
842.951	15199.34699
843.135	15320.7435
843.319	14958.57713
843.504	15173.04447
843.688	15519.02705
843.872	15456.3042
844.056	15630.31109
844.241	15804.32404
844.425	15523.0737
844.609	15405.72163
844.793	15502.84045
844.977	15504.86377
845.161	14711.73158
845.346	14966.67029
845.53	14847.29546
845.714	14800.75898
845.898	14948.46067
846.082	14869.55192
846.266	15023.32224
846.45	15278.25465
846.634	14721.84841
846.818	14875.62185
847.002	14642.93652
847.186	14899.90153
847.37	14742.08201
847.554	14721.84841
847.738	14628.77269
847.922	14418.3317
848.106	14667.21726
848.29	14481.0608
848.473	14535.69473
848.657	14379.88413
848.841	14339.41238
849.025	14529.62434
849.209	14128.94757
849.392	14286.79809
849.576	14145.13794
849.76	14236.20627
849.944	14130.97138
850.127	13956.91591
850.311	13859.76061
850.495	13950.84389
850.678	13851.66405
850.862	14420.35525
851.046	13610.76939
851.229	14027.75456
851.413	13821.30155
851.596	13892.1464
851.78	13705.91797
851.964	13892.1464
852.147	13596.59769
852.331	13780.8172
852.514	13718.06408
852.698	13709.96668
852.881	13758.5503
853.065	13673.52778
853.248	13714.01539
853.431	13481.19312
853.615	13521.68729
853.798	13367.80134
853.982	13219.96788
854.165	13120.72408
854.348	13029.57189
854.532	13390.0757
854.715	13309.07568
854.898	13454.87111
855.081	12968.79823
855.265	12999.18563
855.448	12756.05316
855.631	12768.21166
855.814	12960.69473
855.997	13325.27621
856.181	12786.44902
856.364	12985.00499
856.547	12820.89612
856.73	13039.7004
856.913	12800.63331
857.096	12749.97384
857.279	12492.56652
857.462	12600.00047
857.645	12328.3396
857.828	12417.55474
858.011	12399.30726
858.194	12642.5638
858.377	12346.58923
858.56	12265.47542
858.743	12482.43031
858.926	12851.2893
859.109	12841.15838
859.292	12954.61706
859.475	12593.91977
859.658	13017.41752
859.841	12697.28419
860.023	12672.96455
860.206	12208.68899
860.389	12397.27973
860.572	12125.52704
860.755	12237.08291
860.937	12449.99337
861.12	12308.06157
861.303	12208.68899
861.486	12301.97803
861.668	12198.54795
861.851	12080.89834
862.034	12007.8615
862.216	12056.55385
862.399	11628.30401
862.581	11762.29967
862.764	11770.41939
862.947	11768.38947
863.129	11829.28321
863.312	11603.93697
863.494	11642.51752
863.677	11776.50908
863.859	11488.17525
864.042	11447.54982
864.224	11234.20166
864.406	11341.90548
864.589	11114.27072
864.771	11341.90548
864.954	10949.55862
865.136	11358.16019
865.318	11254.52533
865.501	11264.68678
865.683	11077.67424
865.865	11238.26648
866.048	11148.83087
866.23	10945.49073
866.412	10811.22483
866.594	10917.01426
866.777	10744.07286
866.959	11077.67424
867.141	10845.81328
867.323	10815.29424
867.505	10699.29766
867.687	10894.63832
867.869	10607.69374
868.052	10799.01634
868.234	10691.15609
868.416	10866.15785
868.598	10621.94487
868.78	10599.54996
868.962	10697.26229
869.144	10841.74422
869.326	10632.12388
869.508	10884.46698
869.69	10626.01651
869.872	10931.25277
870.054	10735.93234
870.236	10601.58593
870.417	10656.55225
870.599	10695.2269
870.781	10556.79187
870.963	10499.77246
871.145	10436.63217
871.327	10689.12067
871.508	10291.97333
871.69	10589.36996
871.872	10212.4842
872.054	10444.78
872.235	10404.03877
872.417	10670.80131
872.599	10385.70352
872.78	10573.08132
872.962	10410.15029
873.144	10408.11313
873.325	10516.06473
873.507	10813.25954
873.689	10809.19011
873.87	10733.89719
874.052	10312.35185
874.233	10564.93669
874.415	10279.74557
874.596	10459.0382
874.778	10153.36343
874.959	10318.46515
875.141	10389.77811
875.322	10438.66914
875.503	10059.56166
875.685	10214.52264
875.866	10222.67627
876.048	10481.44268
876.229	10190.06044
876.41	10418.29879
876.592	10094.23099
876.773	10316.42739
876.954	10073.83776
877.136	10275.66954
877.317	10218.59948
877.498	10676.90787
877.679	10483.47937
877.86	10526.24699
878.042	10365.32978
878.223	10359.2174
878.404	10310.31406
878.585	10457.00135
878.766	10430.52116
878.947	10532.35619
879.128	10279.74557
879.309	10410.15029
879.49	10375.51681
879.672	10630.0881
879.853	10238.98287
880.034	10116.66192
880.215	9971.85028
880.396	10000.41038
880.576	9961.64955
880.757	10135.01324
880.938	10059.56166
881.119	10157.4411
881.3	10079.95588
881.481	10232.86799
881.662	9988.17068
881.843	10263.44114
882.023	10316.42739
882.204	10261.40302
882.385	10153.36343
882.566	10157.4411
882.747	10069.75895
882.927	10067.71952
883.108	9977.97054
883.289	9790.22252
883.469	9712.63753
883.65	10232.86799
883.831	10018.76896
884.011	9994.2906
884.192	9873.90827
884.373	10141.1301
884.553	10167.63502
884.734	10312.35185
884.914	10073.83776
885.095	10438.66914
885.275	10031.00737
885.456	10328.65371
885.636	10086.07387
885.817	10296.04914
885.997	9986.13068
886.178	10273.63151
886.358	10336.80431
886.538	10393.85265
886.719	10214.52264
886.899	10505.88216
887.08	10385.70352
887.26	10634.15964
887.44	10542.53795
887.621	10573.08132
887.801	10448.85383
887.981	10583.26181
888.161	10361.25487
888.342	10269.5554
888.522	10053.44312
888.702	10075.87715
888.882	10047.32445
889.062	10373.47943
889.242	10159.47991
889.423	10346.99228
889.603	10096.27024
889.783	10383.66621
889.963	9971.85028
890.143	10422.37297
890.323	9955.52894
890.503	10424.41003
890.683	10436.63217
890.863	10312.35185
891.043	10261.40302
891.223	10630.0881
891.403	10344.95471
891.583	10420.33589
891.763	10190.06044
891.943	10656.55225
892.122	10202.29179
892.302	10412.18743
892.482	10279.74557
892.662	10432.55817
892.842	10132.97426
893.022	10391.81539
893.201	10018.76896
893.381	10132.97426
893.561	10149.28571
893.741	10059.56166
893.92	10206.36879
894.1	10273.63151
894.28	10141.1301
894.459	10316.42739
894.639	10232.86799
894.819	10149.28571
894.998	10143.16902
895.178	10328.65371
895.357	10045.28487
895.537	10402.00158
895.716	9880.03063
895.896	10263.44114
896.075	10090.15246
896.255	10275.66954
896.434	10190.06044
896.614	10452.92762
896.793	10116.66192
896.973	10090.15246
897.152	9843.29444
897.331	10004.49017
897.511	9788.18109
897.69	9853.49942
897.87	9455.22189
898.049	9655.45552
898.228	9628.90261
898.407	9967.77003
898.587	9800.42945
898.766	10075.87715
898.945	9792.26394
899.124	9931.0452
899.304	9600.30422
899.483	9826.9657
899.662	9816.75975
899.841	9704.46941
900.02	9502.22918
900.199	9641.15812
900.378	9549.22802
900.557	9696.30105
900.737	9487.92351
900.916	9688.13243
901.095	9592.13269
901.274	9716.7215
901.453	9279.37923
901.632	9557.40088
901.811	9639.11558
901.989	9657.49794
902.168	9622.77464
902.347	9847.37648
902.526	9553.31448
902.705	9342.77839
902.884	9168.90359
903.063	9338.6886
903.242	9236.42232
903.42	9220.05583
903.599	8820.78101
903.778	9136.16057
903.957	9142.30022
904.135	9332.55379
904.314	9177.08866
904.493	9273.24298
904.672	9070.66136
904.85	9105.46001
905.029	9305.96792
905.207	9424.56036
905.386	9164.81095
905.565	9041.99988
905.743	8890.44638
905.922	8751.09473
906.1	8796.18825
906.279	8884.30027
906.457	8869.95872
906.636	8712.1432
906.814	8396.182
906.993	8589.09455
907.171	8463.92581
907.35	8517.28505
907.528	8626.01618
907.707	8728.54465
907.885	8630.11821
908.063	8865.86098
908.242	8669.08378
908.42	8566.52834
908.598	8502.92036
908.777	8654.72882
908.955	8537.80441
909.133	8398.23516
909.311	8190.76847
909.49	8390.02244
909.668	8122.93866
909.846	8129.10591
910.024	8211.31867
910.202	8379.7561
910.38	8268.84872
910.559	7978.98474
910.737	8275.01174
910.915	8468.03083
911.093	8281.17458
911.271	8055.08702
911.449	7906.97036
911.627	7822.57856
911.805	7600.10991
911.983	7616.59752
912.161	7595.98779
912.339	7793.75385
912.517	7771.103
912.695	8190.76847
912.872	7839.04799
913.05	7981.04192
913.228	7964.58387
913.406	7898.73855
913.584	7501.15547
913.762	7731.97282
913.939	7519.71319
914.117	7608.35389
914.295	7676.35373
914.473	7309.28958
914.65	7288.6476
914.828	7288.6476
915.006	7193.66612
915.184	7381.51926
915.361	7383.58257
915.539	7560.94634
915.716	6980.81961
915.894	7247.35704
916.072	7061.43989
916.249	7009.76416
916.427	7055.23955
916.604	6898.09653
916.782	6686.98806
916.959	7005.62949
917.137	6780.15343
917.314	6927.05372
917.492	6616.56561
917.669	6715.97781
917.847	6284.80643
918.024	6442.46624
918.201	6459.05418
918.379	6463.20094
918.556	6288.9571
918.733	6525.39109
918.911	6174.77953
919.088	6541.9716
919.265	6291.0324
919.442	6529.53635
919.62	6189.31516
919.797	6365.72764
919.974	6523.31842
920.151	6525.39109
920.328	6178.93268
920.506	6450.7604
920.683	6409.28589
920.86	6048.06317
921.037	5927.49753
921.214	5960.76494
921.391	5902.54301
921.568	6214.23071
921.745	5865.10487
921.922	5935.81495
922.099	5850.54353
922.276	6274.42935
922.453	5736.09274
922.63	5981.554
922.807	5677.79946
922.984	5552.82301
923.161	5411.08051
923.338	5613.23889
923.514	5515.31353
923.691	5744.41884
923.868	5394.39777
924.045	5519.48162
924.222	4893.22124
924.399	5246.27272
924.575	5321.39314
924.752	5486.13421
924.929	5068.78512
925.105	5252.53391
925.282	5087.58587
925.459	5354.77025
925.635	5183.64924
925.812	5471.54282
925.989	5292.18324
926.165	5398.56859
926.342	5158.59397
926.518	5402.73933
926.695	5252.53391
926.871	5327.6518
927.048	4868.12745
927.224	4968.4828
927.401	4642.13603
927.577	4960.12188
927.754	4759.34974
927.93	4955.94128
928.107	4769.81181
928.283	4861.85349
928.459	4918.31174
928.636	5143.97686
928.812	4533.23178
928.988	4859.76212
929.165	4352.98981
929.341	4549.99019
929.517	4373.95649
929.693	4512.28176
929.87	4189.3759
930.046	4526.947
930.222	4352.98981
930.398	4384.43901
930.574	4122.21482
930.751	4417.97942
930.927	3905.8959
931.103	4050.83271
931.279	3718.80754
931.455	3966.82319
931.631	3861.76558
931.807	4164.19302
931.983	3805.01369
932.159	4174.68625
932.335	3760.86341
932.511	3762.966
932.687	3556.8211
932.863	3895.38949
933.039	3577.8646
933.215	3510.51891
933.391	3188.27051
933.566	3384.19563
933.742	3369.45375
933.918	3565.23872
934.094	3318.90366
934.27	3670.43375
934.445	3152.4406
934.621	3466.31311
934.797	3049.14021
934.973	3080.76681
935.148	2821.32872
935.324	2829.76919
935.5	2827.65909
935.675	2994.31254
935.851	2793.89566
936.027	2606.02451
936.202	2456.08
936.378	2593.35543
936.553	2356.79032
936.729	2470.86582
936.904	2107.41705
937.08	2096.84781
937.255	1898.11431
937.431	1857.93841
937.606	1853.70926
937.782	1955.20303
937.957	1633.77123
938.133	1809.30205
938.308	1557.63163
938.483	1549.17155
938.659	1263.64323
938.834	1422.26885
939.009	1295.3676
939.185	1168.47394
939.36	1100.80262
939.535	1310.17248
939.71	1113.49065
939.886	1246.72379
940.061	1088.11478
940.236	1151.5557
940.411	957.01892
940.586	1071.19793
940.761	931.6484
940.937	948.56196
941.112	790.01762
941.287	855.54351
941.462	735.06755
941.637	787.90403
941.812	792.13122
941.987	783.67688
942.162	716.048
942.337	785.79045
942.512	652.65602
942.687	855.54351
942.862	631.5277
943.037	661.10768
943.212	652.65602
943.386	669.55954
943.561	549.13933
943.736	580.82481
943.911	525.90526
944.086	673.78553
944.26	551.2516
944.435	654.76892
944.61	589.27478
944.785	720.27449
944.959	648.43026
945.134	675.89855
945.309	547.02707
945.483	770.99567
945.658	618.85129
945.833	589.27478
946.007	458.32515
946.182	631.5277
946.357	519.56899
946.531	468.88354
946.706	449.87871
946.88	454.1019
947.055	483.66592
947.229	547.02707
947.404	644.20454
947.578	582.93728
947.752	525.90526
947.927	633.64047
948.101	530.12951
948.276	559.70082
948.45	574.48747
948.624	635.75326
948.799	644.20454
948.973	665.33358
949.147	494.22521
949.321	665.33358
949.496	563.92551
949.67	678.01157
949.844	728.7276
950.018	580.82481
950.193	589.27478
950.367	775.2227
950.541	551.2516
950.715	589.27478
950.889	595.61239
951.063	682.23766
951.237	601.95012
951.411	703.36879
951.585	604.06272
951.759	669.55954
951.933	492.11332
952.107	834.40517
952.281	688.57688
952.455	800.58571
952.629	762.54173
952.803	787.90403
952.977	637.86606
953.151	781.56332
953.325	703.36879
953.499	722.38775
953.672	694.9162
953.846	813.26773
954.02	697.02933
954.194	724.50103
954.368	680.12461
954.541	836.51897
954.715	787.90403
954.889	779.44977
955.062	663.22063
955.236	813.26773
955.41	775.2227
955.583	906.27896
955.757	694.9162
955.93	840.74658
956.104	754.08795
956.278	830.17761
956.451	705.48196
956.625	783.67688
956.798	665.33358
956.972	656.88183
957.145	485.77775
957.319	669.55954
957.492	587.16227
957.665	728.7276
957.839	646.31739
958.012	697.02933
958.185	694.9162
958.359	722.38775
958.532	722.38775
958.705	796.35845
958.879	688.57688
959.052	722.38775
959.225	629.41493
959.398	644.20454
959.572	709.70835
959.745	737.18088
959.918	509.00883
960.091	678.01157
960.264	678.01157
960.438	699.14248
960.611	576.59991
960.784	654.76892
960.957	547.02707
961.13	656.88183
961.303	534.35382
961.476	661.10768
961.649	614.62592
961.822	673.78553
961.995	610.4006
962.168	680.12461
962.341	544.91483
962.514	667.44655
962.686	496.33711
962.859	519.56899
963.032	477.33052
963.205	671.67253
963.378	580.82481
963.551	680.12461
963.723	568.15026
963.896	728.7276
964.069	572.37505
964.242	749.86112
964.414	633.64047
964.587	665.33358
964.76	585.04977
964.932	547.02707
965.105	568.15026
965.278	585.04977
965.45	540.69038
965.623	479.44231
965.795	553.36388
965.968	593.49984
966.14	477.33052
966.313	500.56096
966.485	532.24166
966.658	451.9903
966.83	466.77183
967.003	547.02707
967.175	542.8026
967.348	635.75326
967.52	494.22521
967.692	525.90526
967.865	443.54405
968.037	458.32515
968.209	449.87871
968.382	487.88959
968.554	413.98415
968.726	449.87871
968.898	435.09805
969.071	506.89684
969.243	511.12083
969.415	445.65559
969.587	449.87871
969.759	530.12951
969.932	468.88354
970.104	504.78487
970.276	329.54508
970.448	496.33711
970.62	375.98323
970.792	432.98659
970.964	371.76124
971.136	399.20538
971.308	449.87871
971.48	373.87222
971.652	411.87285
971.824	496.33711
971.996	384.42741
972.168	504.78487
972.339	348.54149
972.511	418.2068
972.683	344.31995
972.855	356.9848
973.027	302.10835
973.199	348.54149
973.37	281.00526
973.542	331.65572
973.714	384.42741
973.886	365.42837
974.057	352.76311
974.229	435.09805
974.401	268.3443
974.572	365.42837
974.744	371.76124
974.915	335.87706
975.087	382.31634
975.259	297.88759
975.43	365.42837
975.602	386.5385
975.773	247.24421
975.945	306.32919
976.116	270.45441
976.288	344.31995
976.459	281.00526
976.63	257.79401
976.802	314.77108
976.973	335.87706
977.145	240.91455
977.316	266.2342
977.487	245.1343
977.659	276.78487
977.83	247.24421
978.001	342.2092
978.172	259.90403
978.344	228.25576
978.515	196.6119
978.686	255.68401
978.857	171.30008
979.028	399.20538
979.2	205.04983
979.371	272.56455
979.542	162.86346
979.713	213.48807
979.884	297.88759
980.055	213.48807
980.226	251.46407
980.397	251.46407
980.568	205.04983
980.739	202.94032
980.91	188.1743
981.081	318.99213
981.252	196.6119
981.423	221.92663
981.594	179.73703
981.765	251.46407
981.936	194.50247
982.106	262.01407
982.277	154.42718
982.448	188.1743
982.619	171.30008
982.79	230.36551
982.96	188.1743
983.131	323.21326
983.302	154.42718
983.472	264.12413
983.643	131.22915
983.814	257.79401
983.984	205.04983
984.155	167.08173
984.326	202.94032
984.496	192.39306
984.667	188.1743
984.837	122.79415
985.008	141.77339
985.178	175.51851
985.349	224.03632
985.519	228.25576
985.69	120.68545
985.86	245.1343
986.031	192.39306
986.201	133.33796
986.371	97.49122
986.542	175.51851
986.712	150.20917
986.882	145.99124
987.053	188.1743
987.223	129.12037
987.393	179.73703
987.563	103.81665
987.734	131.22915
987.904	129.12037
988.074	112.25088
988.244	129.12037
988.414	120.68545
988.585	186.06495
988.755	105.92518
988.925	129.12037
989.095	65.86705
989.265	120.68545
989.435	122.79415
989.605	171.30008
989.775	103.81665
989.945	150.20917
990.115	162.86346
990.285	95.38278
990.455	34.24801
990.625	116.46812
990.795	131.22915
990.965	137.55563
991.134	135.44678
991.304	105.92518
991.474	120.68545
991.644	55.32679
991.814	145.99124
991.984	112.25088
992.153	114.35949
992.323	143.8823
992.493	99.59967
992.662	53.21881
992.832	36.35578
993.002	53.21881
993.171	23.70949
993.341	74.29967
993.511	70.08331
993.68	53.21881
993.85	61.65088
994.019	103.81665
994.189	89.05761
994.358	86.94927
994.528	145.99124
994.697	145.99124
994.867	82.73264
995.036	114.35949
995.206	95.38278
995.375	70.08331
995.544	97.49122
995.714	120.68545
995.883	103.81665
996.052	114.35949
996.222	72.19148
996.391	124.90287
996.56	80.62436
996.73	11.06405
996.899	53.21881
997.068	95.38278
997.237	44.78711
997.406	44.78711
997.576	120.68545
997.745	86.94927
997.914	82.73264
998.083	124.90287
998.252	65.86705
998.421	36.35578
998.59	30.03253
998.759	8.95656
998.928	181.84631
999.097	116.46812
999.266	55.32679
999.435	99.59967
999.604	63.75895
999.773	51.11085
999.942	40.5714
1000.111	89.05761
1000.28	65.86705
1000.448	0.52684
1000.617	44.78711
1000.786	-60.57691
1000.955	32.14026
1001.124	32.14026
1001.292	2.63424
1001.461	49.00291
1001.63	84.84094
1001.798	-1.58052
1001.967	63.75895
1002.136	44.78711
1002.304	61.65088
1002.473	-31.08114
1002.642	72.19148
1002.81	49.00291
1002.979	59.54283
1003.147	133.33796
1003.316	80.62436
1003.484	53.21881
1003.653	13.17157
1003.821	11.06405
1003.99	-22.65289
1004.158	27.92483
1004.327	65.86705
1004.495	53.21881
1004.663	53.21881
1004.832	63.75895
1005	13.17157
1005.168	103.81665
1005.337	63.75895
1005.505	65.86705
1005.673	55.32679
1005.842	72.19148
1006.01	40.5714
1006.178	57.4348
1006.346	82.73264
1006.514	55.32679
1006.683	65.86705
1006.851	40.5714
1007.019	-12.11701
1007.187	53.21881
1007.355	82.73264
1007.523	21.60186
1007.691	6.8491
1007.859	86.94927
1008.027	40.5714
1008.195	38.46358
1008.363	120.68545
1008.531	53.21881
1008.699	80.62436
1008.867	78.51611
1009.035	40.5714
1009.203	13.17157
1009.37	2.63424
1009.538	30.03253
1009.706	4.74166
1009.874	-5.79519
1010.042	-35.29512
1010.209	-62.68356
1010.377	49.00291
1010.545	13.17157
1010.713	63.75895
1010.88	59.54283
1011.048	32.14026
1011.216	74.29967
1011.383	59.54283
1011.551	72.19148
1011.718	2.63424
1011.886	57.4348
1012.054	36.35578
1012.221	-10.00976
1012.389	114.35949
1012.556	-41.61591
1012.724	53.21881
1012.891	46.895
1013.058	6.8491
1013.226	2.63424
1013.393	4.74166
1013.561	-28.97412
1013.728	-3.68787
1013.895	36.35578
1014.063	46.895
1014.23	-47.93647
1014.397	-18.43861
1014.565	-20.54576
1014.732	15.2791
1014.899	-73.21644
1015.066	63.75895
1015.233	27.92483
1015.401	-31.08114
1015.568	-60.57691
1015.735	19.49425
1015.902	44.78711
1016.069	-18.43861
1016.236	53.21881
1016.403	44.78711
1016.57	32.14026
1016.737	38.46358
1016.904	2.63424
1017.071	-3.68787
1017.238	-5.79519
1017.405	19.49425
1017.572	-54.2568
1017.739	27.92483
1017.906	-3.68787
1018.073	53.21881
1018.24	-20.54576
1018.407	36.35578
1018.573	-35.29512
1018.74	-1.58052
1018.907	36.35578
1019.074	120.68545
1019.241	95.38278
1019.407	-45.82964
1019.574	-77.42941
1019.741	-35.29512
1019.907	19.49425
1020.074	114.35949
1020.241	36.35578
1020.407	103.81665
1020.574	6.8491
1020.74	38.46358
1020.907	-14.22423
1021.073	30.03253
1021.24	-20.54576
1021.406	89.05761
1021.573	-37.40208
1021.739	6.8491
1021.906	78.51611
1022.072	19.49425
1022.239	2.63424
1022.405	4.74166
1022.571	11.06405
1022.738	-22.65289
1022.904	2.63424
1023.07	-47.93647
1023.237	32.14026
1023.403	-14.22423
1023.569	36.35578
1023.735	95.38278
1023.902	46.895
1024.068	55.32679
1024.234	-12.11701
1024.4	42.67924
1024.566	-39.50901
1024.732	110.14229
1024.898	-24.75999
1025.065	25.81715
1025.231	0.52684
1025.397	6.8491
1025.563	-43.72279
1025.729	-37.40208
1025.895	-22.65289
1026.061	70.08331
1026.227	-20.54576
1026.392	53.21881
1026.558	-37.40208
1026.724	38.46358
1026.89	19.49425
1027.056	19.49425
1027.222	27.92483
1027.388	-1.58052
1027.553	-10.00976
1027.719	30.03253
1027.885	-1.58052
1028.051	21.60186
1028.216	-22.65289
1028.382	-31.08114
1028.548	38.46358
1028.713	-26.86706
1028.879	49.00291
1029.045	65.86705
1029.21	-31.08114
1029.376	-14.22423
1029.541	53.21881
1029.707	2.63424
1029.873	-31.08114
1030.038	86.94927
1030.204	0.52684
1030.369	-14.22423
1030.534	95.38278
1030.7	-24.75999
1030.865	-1.58052
1031.031	-10.00976
1031.196	-24.75999
1031.361	36.35578
1031.527	44.78711
1031.692	11.06405
1031.857	-14.22423
1032.023	63.75895
1032.188	19.49425
1032.353	53.21881
1032.518	-31.08114
1032.684	63.75895
1032.849	-12.11701
1033.014	30.03253
1033.179	-22.65289
1033.344	-45.82964
1033.509	4.74166
1033.674	2.63424
1033.839	-39.50901
1034.004	19.49425
1034.17	4.74166
1034.335	-22.65289
1034.5	44.78711
1034.664	-10.00976
1034.829	-1.58052
1034.994	-20.54576
1035.159	15.2791
1035.324	19.49425
1035.489	95.38278
1035.654	36.35578
1035.819	19.49425
1035.984	-73.21644
1036.148	-31.08114
1036.313	129.12037
1036.478	-26.86706
1036.643	-60.57691
1036.807	8.95656
1036.972	-26.86706
1037.137	55.32679
1037.301	44.78711
1037.466	72.19148
1037.631	-16.33143
1037.795	13.17157
1037.96	38.46358
1038.124	19.49425
1038.289	-22.65289
1038.454	-12.11701
1038.618	-43.72279
1038.783	11.06405
1038.947	2.63424
1039.111	6.8491
1039.276	-56.36353
1039.44	-22.65289
1039.605	-7.90249
1039.769	-28.97412
1039.933	-14.22423
1040.098	13.17157
1040.262	57.4348
1040.426	-77.42941
1040.591	-98.49271
1040.755	44.78711
1040.919	27.92483
1041.083	21.60186
1041.248	-64.79019
1041.412	46.895
1041.576	23.70949
1041.74	27.92483
1041.904	-31.08114
1042.068	-31.08114
1042.232	-10.00976
1042.397	-10.00976
1042.561	53.21881
1042.725	4.74166
1042.889	15.2791
1043.053	36.35578
1043.217	8.95656
1043.381	4.74166
1043.544	70.08331
1043.708	-47.93647
1043.872	30.03253
1044.036	19.49425
1044.2	-14.22423
1044.364	44.78711
1044.528	27.92483
1044.691	-31.08114
1044.855	-37.40208
1045.019	-90.0677
1045.183	-39.50901
1045.346	-28.97412
1045.51	-47.93647
1045.674	61.65088
1045.837	-14.22423
1046.001	15.2791
1046.165	-71.10991
1046.328	46.895
1046.492	40.5714
1046.655	-43.72279
1046.819	-20.54576
1046.983	44.78711
1047.146	-18.43861
1047.31	-45.82964
1047.473	78.51611
1047.636	-10.00976
1047.8	-31.08114
1047.963	-77.42941
1048.127	65.86705
1048.29	13.17157
