Data from mixed_try6.1_USB4F045381__10__00294.txt Node

Date: Thu Apr 03 20:32:05 EDT 2025
User: mmckonesweet
Spectrometer: USB4F04538
Trigger mode: 4
Integration Time (sec): 2.700000E-3
Scans to average: 1
Electric dark correction enabled: true
Nonlinearity correction enabled: true
Boxcar width: 0
XAxis mode: Wavelengths
Number of Pixels in Spectrum: 3648
>>>>>Begin Spectral Data<<<<<
345.52	5.26851
345.736	5.26851
345.952	5.26851
346.168	-34.76838
346.384	-49.51657
346.6	-13.69743
346.816	-22.12611
347.032	-11.5902
347.248	-5.26836
347.464	41.09836
347.68	11.59093
347.896	3.16109
348.112	-36.87534
348.328	36.88273
348.544	13.69845
348.76	-38.98228
348.975	22.12877
349.191	-30.55439
349.407	-45.30293
349.623	20.02115
349.839	-28.44736
350.055	70.61035
350.27	-17.91182
350.486	-20.01897
350.702	-68.47672
350.918	38.99053
351.133	53.7458
351.349	-1.05368
351.565	11.59093
351.781	51.63784
351.996	-3.16104
352.212	24.2364
352.428	20.02115
352.644	-47.40976
352.859	-45.30293
353.075	-13.69743
353.291	-3.16104
353.506	3.16109
353.722	70.61035
353.938	-32.6614
354.153	-47.40976
354.369	-26.3403
354.584	72.71852
354.8	-60.05024
355.016	-47.40976
355.231	11.59093
355.447	-55.83685
355.662	47.42198
355.878	36.88273
356.093	-5.26836
356.309	-62.1569
356.524	-76.90279
356.74	20.02115
356.955	13.69845
357.171	-7.37567
357.386	-13.69743
357.602	-13.69743
357.817	-36.87534
358.033	41.09836
358.248	-30.55439
358.464	30.55946
358.679	-53.73012
358.895	-30.55439
359.11	30.55946
359.325	-1.05368
359.541	-47.40976
359.756	-32.6614
359.972	15.80599
360.187	-34.76838
360.402	3.16109
360.618	38.99053
360.833	-3.16104
361.048	51.63784
361.264	-74.79631
361.479	20.02115
361.694	-3.16104
361.909	-41.08919
362.125	-38.98228
362.34	-26.3403
362.555	5.26851
362.77	17.91356
362.986	-3.16104
363.201	-64.26353
363.416	28.45175
363.631	-13.69743
363.847	-60.05024
364.062	32.66719
364.277	-62.1569
364.492	-55.83685
364.707	-83.22208
364.922	26.34407
365.138	-22.12611
365.353	-20.01897
365.568	-24.23321
365.783	74.82672
365.998	-13.69743
366.213	91.69308
366.428	-26.3403
366.643	30.55946
366.858	-38.98228
367.073	5.26851
367.288	28.45175
367.503	20.02115
367.718	-7.37567
367.933	36.88273
368.148	-22.12611
368.363	-3.16104
368.578	11.59093
368.793	57.9618
369.008	-87.4348
369.223	24.2364
369.438	3.16109
369.653	-38.98228
369.868	-5.26836
370.083	47.42198
370.298	-47.40976
370.513	-26.3403
370.728	-53.73012
370.943	-22.12611
371.157	-114.81498
371.372	30.55946
371.587	49.5299
371.802	20.02115
372.017	13.69845
372.232	49.5299
372.446	-13.69743
372.661	20.02115
372.876	-36.87534
373.091	-89.54113
373.306	3.16109
373.52	79.04317
373.735	-11.5902
373.95	5.26851
374.165	32.66719
374.379	-13.69743
374.594	17.91356
374.809	-5.26836
375.023	-3.16104
375.238	-22.12611
375.453	-11.5902
375.667	53.7458
375.882	22.12877
376.097	-5.26836
376.311	13.69845
376.526	-41.08919
376.741	-30.55439
376.955	-22.12611
377.17	-20.01897
377.384	-22.12611
377.599	3.16109
377.813	-1.05368
378.028	22.12877
378.242	-26.3403
378.457	-64.26353
378.672	-87.4348
378.886	34.77495
379.101	38.99053
379.315	13.69845
379.53	20.02115
379.744	-13.69743
379.958	-36.87534
380.173	-34.76838
380.387	-76.90279
380.602	-17.91182
380.816	5.26851
381.031	-9.48295
381.245	76.93493
381.459	-11.5902
381.674	-47.40976
381.888	-3.16104
382.103	-5.26836
382.317	11.59093
382.531	-17.91182
382.746	-9.48295
382.96	-57.94356
383.174	-13.69743
383.388	-5.26836
383.603	-1.05368
383.817	-24.23321
384.031	5.26851
384.246	-22.12611
384.46	-20.01897
384.674	-28.44736
384.888	-28.44736
385.103	-28.44736
385.317	20.02115
385.531	-9.48295
385.745	3.16109
385.959	30.55946
386.174	45.31408
386.388	9.48343
386.602	-26.3403
386.816	-22.12611
387.03	20.02115
387.244	-28.44736
387.458	11.59093
387.672	-26.3403
387.887	-28.44736
388.101	20.02115
388.315	11.59093
388.529	7.37596
388.743	32.66719
388.957	-5.26836
389.171	-93.7537
389.385	-64.26353
389.599	-5.26836
389.813	-28.44736
390.027	7.37596
390.241	47.42198
390.455	-55.83685
390.669	7.37596
390.883	-62.1569
391.097	28.45175
391.311	47.42198
391.525	-30.55439
391.738	-22.12611
391.952	-1.05368
392.166	-38.98228
392.38	-13.69743
392.594	20.02115
392.808	-17.91182
393.022	22.12877
393.236	-11.5902
393.449	-22.12611
393.663	53.7458
393.877	-30.55439
394.091	-28.44736
394.305	26.34407
394.518	38.99053
394.732	-20.01897
394.946	30.55946
395.16	17.91356
395.373	-43.19607
395.587	-60.05024
395.801	-13.69743
396.015	7.37596
396.228	-17.91182
396.442	-30.55439
396.656	-15.80464
396.869	-13.69743
397.083	-5.26836
397.297	36.88273
397.51	11.59093
397.724	17.91356
397.938	87.47635
398.151	36.88273
398.365	-3.16104
398.578	-20.01897
398.792	-3.16104
399.005	11.59093
399.219	11.59093
399.433	-57.94356
399.646	45.31408
399.86	-17.91182
400.073	-9.48295
400.287	-22.12611
400.5	-17.91182
400.714	-13.69743
400.927	-11.5902
401.141	22.12877
401.354	70.61035
401.567	3.16109
401.781	17.91356
401.994	-28.44736
402.208	7.37596
402.421	3.16109
402.635	-26.3403
402.848	-15.80464
403.061	-11.5902
403.275	3.16109
403.488	-3.16104
403.701	-3.16104
403.915	-5.26836
404.128	-30.55439
404.341	-1.05368
404.555	7.37596
404.768	1.05369
404.981	-15.80464
405.195	3.16109
405.408	22.12877
405.621	-13.69743
405.834	-32.6614
406.048	36.88273
406.261	-72.68981
406.474	11.59093
406.687	-9.48295
406.9	-9.48295
407.114	-22.12611
407.327	-34.76838
407.54	7.37596
407.753	-64.26353
407.966	-22.12611
408.179	-17.91182
408.392	11.59093
408.605	28.45175
408.819	5.26851
409.032	-45.30293
409.245	7.37596
409.458	-53.73012
409.671	57.9618
409.884	-11.5902
410.097	1.05369
410.31	7.37596
410.523	3.16109
410.736	-22.12611
410.949	-5.26836
411.162	-7.37567
411.375	-26.3403
411.588	-43.19607
411.801	47.42198
412.014	22.12877
412.227	24.2364
412.44	15.80599
412.653	-41.08919
412.865	55.85379
413.078	-17.91182
413.291	5.26851
413.504	-51.62336
413.717	-11.5902
413.93	-22.12611
414.143	-28.44736
414.356	-60.05024
414.568	22.12877
414.781	-47.40976
414.994	13.69845
415.207	60.06984
415.42	-26.3403
415.632	-20.01897
415.845	-100.07236
416.058	13.69845
416.271	45.31408
416.483	3.16109
416.696	28.45175
416.909	17.91356
417.121	41.09836
417.334	-13.69743
417.547	38.99053
417.759	-89.54113
417.972	-28.44736
418.185	34.77495
418.397	49.5299
418.61	-22.12611
418.823	3.16109
419.035	-22.12611
419.248	-47.40976
419.46	1.05369
419.673	9.48343
419.885	3.16109
420.098	-43.19607
420.311	-20.01897
420.523	15.80599
420.736	36.88273
420.948	-38.98228
421.161	-47.40976
421.373	-34.76838
421.586	7.37596
421.798	34.77495
422.01	-60.05024
422.223	-26.3403
422.435	-9.48295
422.648	-51.62336
422.86	-3.16104
423.073	5.26851
423.285	-64.26353
423.497	72.71852
423.71	3.16109
423.922	3.16109
424.134	-22.12611
424.347	13.69845
424.559	3.16109
424.771	20.02115
424.984	15.80599
425.196	28.45175
425.408	-3.16104
425.621	13.69845
425.833	-13.69743
426.045	74.82672
426.257	7.37596
426.47	-3.16104
426.682	-1.05368
426.894	-3.16104
427.106	-26.3403
427.318	20.02115
427.531	22.12877
427.743	11.59093
427.955	57.9618
428.167	62.17789
428.379	9.48343
428.591	7.37596
428.804	-22.12611
429.016	-22.12611
429.228	-5.26836
429.44	24.2364
429.652	26.34407
429.864	-17.91182
430.076	-28.44736
430.288	-85.32845
430.5	-20.01897
430.712	30.55946
430.924	45.31408
431.136	-24.23321
431.348	-49.51657
431.56	3.16109
431.772	-89.54113
431.984	17.91356
432.196	-1.05368
432.408	-72.68981
432.62	-11.5902
432.832	-13.69743
433.044	36.88273
433.256	11.59093
433.468	-5.26836
433.679	-72.68981
433.891	3.16109
434.103	-30.55439
434.315	53.7458
434.527	-22.12611
434.739	-13.69743
434.95	-13.69743
435.162	-30.55439
435.374	11.59093
435.586	66.39408
435.798	-1.05368
436.009	57.9618
436.221	28.45175
436.433	-15.80464
436.645	-5.26836
436.856	-47.40976
437.068	28.45175
437.28	3.16109
437.491	9.48343
437.703	-28.44736
437.915	74.82672
438.126	3.16109
438.338	-38.98228
438.55	-34.76838
438.761	20.02115
438.973	-30.55439
439.184	81.15143
439.396	26.34407
439.608	13.69845
439.819	-49.51657
440.031	-20.01897
440.242	-30.55439
440.454	-47.40976
440.665	15.80599
440.877	-20.01897
441.088	-9.48295
441.3	3.16109
441.511	28.45175
441.723	-43.19607
441.934	34.77495
442.146	-22.12611
442.357	-60.05024
442.569	-45.30293
442.78	-64.26353
442.991	41.09836
443.203	15.80599
443.414	-38.98228
443.626	51.63784
443.837	13.69845
444.048	-38.98228
444.26	53.7458
444.471	3.16109
444.682	41.09836
444.894	41.09836
445.105	-13.69743
445.316	-64.26353
445.528	-20.01897
445.739	38.99053
445.95	24.2364
446.161	-7.37567
446.373	3.16109
446.584	-60.05024
446.795	-60.05024
447.006	30.55946
447.217	28.45175
447.429	-43.19607
447.64	-5.26836
447.851	-22.12611
448.062	-76.90279
448.273	-9.48295
448.484	-5.26836
448.695	-9.48295
448.907	-24.23321
449.118	91.69308
449.329	-38.98228
449.54	49.5299
449.751	26.34407
449.962	-60.05024
450.173	41.09836
450.384	-26.3403
450.595	38.99053
450.806	11.59093
451.017	-30.55439
451.228	24.2364
451.439	34.77495
451.65	-64.26353
451.861	28.45175
452.072	-5.26836
452.283	32.66719
452.494	13.69845
452.705	32.66719
452.915	104.34378
453.126	72.71852
453.337	-51.62336
453.548	30.55946
453.759	-13.69743
453.97	28.45175
454.181	-74.79631
454.391	-36.87534
454.602	95.90989
454.813	5.26851
455.024	34.77495
455.235	7.37596
455.445	-17.91182
455.656	20.02115
455.867	49.5299
456.078	-60.05024
456.288	-45.30293
456.499	-30.55439
456.71	11.59093
456.921	62.17789
457.131	38.99053
457.342	-11.5902
457.553	41.09836
457.763	-64.26353
457.974	-20.01897
458.184	-45.30293
458.395	-26.3403
458.606	5.26851
458.816	-20.01897
459.027	30.55946
459.237	-5.26836
459.448	24.2364
459.659	-20.01897
459.869	-85.32845
460.08	11.59093
460.29	45.31408
460.501	-93.7537
460.711	-5.26836
460.922	3.16109
461.132	36.88273
461.343	38.99053
461.553	-22.12611
461.764	24.2364
461.974	-13.69743
462.184	11.59093
462.395	-38.98228
462.605	-36.87534
462.816	15.80599
463.026	38.99053
463.236	-26.3403
463.447	-24.23321
463.657	-22.12611
463.867	-26.3403
464.078	55.85379
464.288	-3.16104
464.498	45.31408
464.709	-3.16104
464.919	95.90989
465.129	-20.01897
465.339	-51.62336
465.55	-24.23321
465.76	79.04317
465.97	47.42198
466.18	79.04317
466.391	-13.69743
466.601	-5.26836
466.811	22.12877
467.021	-13.69743
467.231	7.37596
467.441	-45.30293
467.651	79.04317
467.862	-22.12611
468.072	-7.37567
468.282	-72.68981
468.492	-9.48295
468.702	-13.69743
468.912	53.7458
469.122	-13.69743
469.332	-13.69743
469.542	-22.12611
469.752	-26.3403
469.962	47.42198
470.172	-3.16104
470.382	-11.5902
470.592	5.26851
470.802	45.31408
471.012	5.26851
471.222	-22.12611
471.432	-13.69743
471.642	-55.83685
471.852	-5.26836
472.062	5.26851
472.272	-51.62336
472.482	11.59093
472.691	-17.91182
472.901	45.31408
473.111	24.2364
473.321	62.17789
473.531	-13.69743
473.741	-1.05368
473.95	36.88273
474.16	15.80599
474.37	20.02115
474.58	15.80599
474.79	20.02115
474.999	28.45175
475.209	53.7458
475.419	32.66719
475.628	-30.55439
475.838	22.12877
476.048	45.31408
476.258	-15.80464
476.467	-20.01897
476.677	20.02115
476.886	98.01833
477.096	-28.44736
477.306	62.17789
477.515	5.26851
477.725	-47.40976
477.935	15.80599
478.144	-85.32845
478.354	-20.01897
478.563	30.55946
478.773	-72.68981
478.982	28.45175
479.192	13.69845
479.401	-38.98228
479.611	30.55946
479.82	-3.16104
480.03	22.12877
480.239	41.09836
480.449	-13.69743
480.658	15.80599
480.868	-15.80464
481.077	-36.87534
481.287	43.20621
481.496	72.71852
481.705	-43.19607
481.915	20.02115
482.124	-24.23321
482.333	47.42198
482.543	87.47635
482.752	-36.87534
482.961	-49.51657
483.171	17.91356
483.38	-51.62336
483.589	53.7458
483.799	-36.87534
484.008	7.37596
484.217	62.17789
484.426	55.85379
484.636	81.15143
484.845	22.12877
485.054	79.04317
485.263	47.42198
485.472	22.12877
485.682	36.88273
485.891	53.7458
486.1	-38.98228
486.309	24.2364
486.518	64.28597
486.727	-20.01897
486.936	-26.3403
487.146	43.20621
487.355	-11.5902
487.564	26.34407
487.773	34.77495
487.982	7.37596
488.191	45.31408
488.4	36.88273
488.609	60.06984
488.818	-28.44736
489.027	-1.05368
489.236	55.85379
489.445	74.82672
489.654	7.37596
489.863	28.45175
490.072	3.16109
490.281	62.17789
490.49	11.59093
490.698	-5.26836
490.907	-13.69743
491.116	24.2364
491.325	7.37596
491.534	30.55946
491.743	3.16109
491.952	89.5847
492.16	57.9618
492.369	-43.19607
492.578	-5.26836
492.787	15.80599
492.996	17.91356
493.204	9.48343
493.413	28.45175
493.622	13.69845
493.831	30.55946
494.039	26.34407
494.248	-30.55439
494.457	13.69845
494.665	66.39408
494.874	32.66719
495.083	36.88273
495.291	43.20621
495.5	38.99053
495.709	-5.26836
495.917	15.80599
496.126	-5.26836
496.335	36.88273
496.543	7.37596
496.752	15.80599
496.96	24.2364
497.169	5.26851
497.377	13.69845
497.586	20.02115
497.794	-1.05368
498.003	41.09836
498.211	62.17789
498.42	53.7458
498.628	30.55946
498.837	98.01833
499.045	-22.12611
499.254	45.31408
499.462	30.55946
499.671	28.45175
499.879	11.59093
500.087	91.69308
500.296	20.02115
500.504	95.90989
500.713	64.28597
500.921	55.85379
501.129	74.82672
501.338	-30.55439
501.546	108.56086
501.754	45.31408
501.962	41.09836
502.171	68.5022
502.379	62.17789
502.587	62.17789
502.795	20.02115
503.004	17.91356
503.212	66.39408
503.42	28.45175
503.628	30.55946
503.837	-26.3403
504.045	87.47635
504.253	-32.6614
504.461	-3.16104
504.669	41.09836
504.877	81.15143
505.085	57.9618
505.294	70.61035
505.502	7.37596
505.71	51.63784
505.918	106.45231
506.126	13.69845
506.334	57.9618
506.542	-13.69743
506.75	-24.23321
506.958	41.09836
507.166	32.66719
507.374	3.16109
507.582	112.77803
507.79	11.59093
507.998	133.86516
508.206	-11.5902
508.414	15.80599
508.622	72.71852
508.83	5.26851
509.037	41.09836
509.245	20.02115
509.453	36.88273
509.661	45.31408
509.869	76.93493
510.077	60.06984
510.285	24.2364
510.492	76.93493
510.7	70.61035
510.908	49.5299
511.116	64.28597
511.324	7.37596
511.531	91.69308
511.739	45.31408
511.947	66.39408
512.155	28.45175
512.362	125.43005
512.57	98.01833
512.778	66.39408
512.985	-17.91182
513.193	100.12679
513.401	79.04317
513.608	121.21262
513.816	22.12877
514.024	66.39408
514.231	53.7458
514.439	95.90989
514.646	104.34378
514.854	144.40954
515.061	38.99053
515.269	68.5022
515.477	70.61035
515.684	38.99053
515.892	62.17789
516.099	119.10394
516.307	125.43005
516.514	70.61035
516.722	112.77803
516.929	62.17789
517.136	114.88664
517.344	148.62743
517.551	81.15143
517.759	64.28597
517.966	60.06984
518.173	138.08285
518.381	121.21262
518.588	32.66719
518.796	20.02115
519.003	62.17789
519.21	28.45175
519.418	57.9618
519.625	62.17789
519.832	131.75635
520.039	95.90989
520.247	131.75635
520.454	17.91356
520.661	93.80147
520.868	100.12679
521.076	108.56086
521.283	146.51847
521.49	62.17789
521.697	123.32132
521.904	36.88273
522.112	131.75635
522.319	104.34378
522.526	129.64756
522.733	95.90989
522.94	66.39408
523.147	138.08285
523.354	98.01833
523.561	98.01833
523.768	112.77803
523.975	146.51847
524.183	95.90989
524.39	108.56086
524.597	100.12679
524.804	112.77803
525.011	87.47635
525.218	87.47635
525.425	70.61035
525.632	30.55946
525.838	165.49987
526.045	148.62743
526.252	47.42198
526.459	87.47635
526.666	112.77803
526.873	104.34378
527.08	108.56086
527.287	182.37364
527.494	154.95444
527.701	64.28597
527.907	121.21262
528.114	131.75635
528.321	70.61035
528.528	157.06349
528.735	89.5847
528.941	142.30062
529.148	148.62743
529.355	95.90989
529.562	108.56086
529.768	165.49987
529.975	165.49987
530.182	167.60902
530.388	83.25972
530.595	79.04317
530.802	104.34378
531.008	95.90989
531.215	95.90989
531.422	165.49987
531.628	188.70164
531.835	131.75635
532.042	163.39074
532.248	182.37364
532.455	167.60902
532.661	188.70164
532.868	157.06349
533.074	201.3582
533.281	169.71819
533.487	123.32132
533.694	131.75635
533.9	140.19172
534.107	167.60902
534.313	123.32132
534.52	171.82738
534.726	131.75635
534.933	154.95444
535.139	192.92041
535.345	186.59229
535.552	180.26435
535.758	154.95444
535.965	121.21262
536.171	192.92041
536.377	140.19172
536.584	249.88161
536.79	110.66943
536.996	180.26435
537.203	138.08285
537.409	116.99528
537.615	129.64756
537.821	197.13926
538.028	133.86516
538.234	224.56375
538.44	222.45405
538.646	173.93659
538.853	188.70164
539.059	207.68674
539.265	95.90989
539.471	182.37364
539.677	207.68674
539.883	184.48295
540.09	218.23472
540.296	214.01547
540.502	241.44201
540.708	199.24872
540.914	188.70164
541.12	211.90588
541.326	167.60902
541.532	180.26435
541.738	163.39074
541.944	138.08285
542.15	254.10153
542.356	207.68674
542.562	292.08415
542.768	220.34438
542.974	247.77168
543.18	245.66178
543.386	281.53282
543.592	197.13926
543.798	260.43154
544.004	247.77168
544.21	346.9584
544.415	199.24872
544.621	302.63595
544.827	188.70164
545.033	157.06349
545.239	251.99156
545.445	283.64305
545.651	188.70164
545.856	260.43154
546.062	340.62615
546.268	289.97385
546.474	285.7533
546.679	283.64305
546.885	298.41518
547.091	300.52556
547.297	224.56375
547.502	327.96211
547.708	296.30482
547.914	287.86356
548.119	239.33216
548.325	300.52556
548.531	235.11252
548.736	285.7533
548.942	304.74637
549.147	374.39997
549.353	254.10153
549.559	357.51251
549.764	340.62615
549.97	319.51977
550.175	319.51977
550.381	370.17801
550.586	334.29405
550.792	370.17801
550.997	340.62615
551.203	319.51977
551.408	285.7533
551.614	298.41518
551.819	323.7409
552.025	391.28851
552.23	304.74637
552.435	334.29405
552.641	376.51098
552.846	281.53282
553.052	332.18339
553.257	357.51251
553.462	306.8568
553.668	387.06628
553.873	450.40661
554.078	441.9604
554.283	439.84889
554.489	492.64129
554.694	408.17811
554.899	382.84411
555.105	361.73427
555.31	298.41518
555.515	469.41147
555.72	435.62591
555.925	452.5182
556.131	422.95736
556.336	321.63033
556.541	412.40067
556.746	431.403
556.951	403.95561
557.156	467.29976
557.361	526.43329
557.567	357.51251
557.772	420.84599
557.977	448.29503
558.182	469.41147
558.387	507.42484
558.592	420.84599
558.797	450.40661
559.002	501.08894
559.207	511.64884
559.412	570.79075
559.617	496.86509
559.822	513.76086
560.027	467.29976
560.232	562.34125
560.437	566.56597
560.642	543.33065
560.847	492.64129
561.051	564.4536
561.256	490.52941
561.461	492.64129
561.666	422.95736
561.871	520.09701
562.076	545.44289
562.281	587.69039
562.485	408.17811
562.69	613.04142
562.895	475.74669
563.1	591.91544
563.305	532.7697
563.509	606.70349
563.714	425.06875
563.919	644.73275
564.123	520.09701
564.328	545.44289
564.533	494.75318
564.737	530.65755
564.942	501.08894
565.147	670.08778
565.351	610.92877
565.556	587.69039
565.761	636.28146
565.965	619.37947
566.17	568.67835
566.374	686.99207
566.579	479.97025
566.784	568.67835
566.988	670.08778
567.193	577.12802
567.397	579.24047
567.602	570.79075
567.806	570.79075
568.011	653.18424
568.215	644.73275
568.42	676.4268
568.624	754.61631
568.828	739.82257
569.033	594.02798
569.237	737.70922
569.442	566.56597
569.646	661.63592
569.85	706.01026
570.055	665.86183
570.259	670.08778
570.463	771.52405
570.668	589.80291
570.872	729.25593
571.076	648.95847
571.281	718.68955
571.485	621.49217
571.689	796.88685
571.893	722.91607
572.098	826.47853
572.302	712.34986
572.506	771.52405
572.71	703.89708
572.914	779.97816
573.119	720.80281
573.323	763.0701
573.527	788.43243
573.731	822.25103
573.935	653.18424
574.139	807.4551
574.343	712.34986
574.547	746.16268
574.751	686.99207
574.955	820.1373
575.159	832.81983
575.364	748.27607
575.568	892.00914
575.772	847.61653
575.976	767.29705
576.18	883.55312
576.383	807.4551
576.587	773.63756
576.791	756.72974
576.995	866.64148
577.199	864.52756
577.403	813.79616
577.607	881.43914
577.811	832.81983
578.015	824.36477
578.219	875.09723
578.422	883.55312
578.626	902.57934
578.83	822.25103
579.034	919.49208
579.238	879.32516
579.442	919.49208
579.645	953.31898
579.849	906.80748
580.053	989.26206
580.257	913.14974
580.46	957.54748
580.664	999.83392
580.868	809.56877
581.071	1014.63479
581.275	796.88685
581.479	1001.94831
581.682	915.26385
581.886	906.80748
582.09	940.63367
582.293	966.00455
582.497	1016.74922
582.7	1018.86366
582.904	923.72034
583.107	1088.64343
583.311	1219.75881
583.515	1025.20702
583.718	968.11884
583.922	1094.98734
584.125	974.46173
584.329	1105.56061
584.532	1008.29152
584.735	1217.64393
584.939	1048.46646
585.142	1143.62536
585.346	995.60516
585.549	1145.74011
585.753	1088.64343
585.956	1281.09157
586.159	1046.35194
586.363	1109.78996
586.566	1088.64343
586.769	1128.82223
586.973	1046.35194
587.176	1194.38047
587.379	1135.1664
587.582	1236.67796
587.786	1160.54348
587.989	1247.25252
588.192	1143.62536
588.395	1198.61016
588.599	1230.33325
588.802	1367.80654
589.005	1177.46186
589.208	1228.21836
589.411	1177.46186
589.615	1308.58624
589.818	1399.5321
590.021	1323.39119
590.224	1164.77305
590.427	1431.25782
590.63	1270.5168
590.833	1416.45247
591.036	1147.85487
591.239	1422.79762
591.442	1177.46186
591.645	1560.27541
591.848	1255.71222
592.051	1532.78008
592.254	1257.82715
592.457	1418.56752
592.66	1321.2762
592.863	1446.06318
593.066	1312.81621
593.269	1458.75349
593.472	1458.75349
593.675	1422.79762
593.878	1433.37287
594.081	1482.01906
594.284	1213.41418
594.486	1475.67391
594.689	1355.11638
594.892	1534.89511
595.095	1498.93944
595.298	1522.2049
595.5	1342.42626
595.703	1592.00049
595.906	1403.76219
596.109	1465.09865
596.311	1484.13411
596.514	1492.5943
596.717	1336.08123
596.92	1644.8747
597.122	1355.11638
597.325	1604.69042
597.528	1551.81533
597.73	1604.69042
597.933	1486.24916
598.136	1632.18502
598.338	1452.40834
598.541	1617.38028
598.743	1666.02399
598.946	1632.18502
599.148	1568.73546
599.351	1710.43658
599.554	1532.78008
599.756	1638.52987
599.959	1651.21952
600.161	1795.02789
600.363	1600.46045
600.566	1718.89597
600.768	1545.47026
600.971	1710.43658
601.173	1587.7705
601.376	1940.93124
601.578	1621.61021
601.78	1854.2379
601.983	1708.32173
602.185	1689.28789
602.388	1608.92038
602.59	1646.98964
602.792	1710.43658
602.995	1924.01619
603.197	1672.36872
603.399	1928.24498
603.601	1778.11012
603.804	1775.99537
604.006	1828.86262
604.208	1841.55035
604.41	1592.00049
604.613	1894.41398
604.815	1721.01081
605.017	1921.90178
605.219	1799.25729
605.421	1778.11012
605.623	1820.40404
605.826	1998.01672
606.028	1687.173
606.23	1991.67411
606.432	1858.46705
606.634	1985.33145
606.836	1682.94322
607.038	1833.09188
607.24	1716.78113
607.442	1943.0456
607.644	2048.75544
607.846	1837.32112
608.048	1718.89597
608.25	1934.58814
608.452	1854.2379
608.654	2017.04419
608.856	1864.81073
609.058	1921.90178
609.26	1949.38863
609.462	1989.5599
609.664	1816.17473
609.866	2194.6058
610.067	1811.94539
610.269	2031.84296
610.471	1938.81688
610.673	2014.93006
610.875	1987.44568
611.077	2188.26527
611.278	1913.44409
611.48	2186.15174
611.682	1993.78832
611.884	2279.13874
612.085	1858.46705
612.287	1968.4174
612.489	2044.52736
612.69	2074.12331
612.892	1966.30312
613.094	2046.6414
613.295	1890.18501
613.497	2048.75544
613.699	1904.98632
613.9	2091.03465
614.102	2019.15832
614.304	2050.86947
614.505	2072.00936
614.707	2135.42461
614.908	1959.96023
615.11	2264.34651
615.311	1862.69617
615.513	2042.41331
615.714	1989.5599
615.916	2253.78036
616.117	1856.35248
616.319	2224.19394
616.52	1896.52846
616.722	2179.81111
616.923	1964.18883
617.124	2141.76576
617.326	1904.98632
617.527	2110.05933
617.729	2048.75544
617.93	2253.78036
618.131	1981.10297
618.333	2063.55349
618.534	2152.33418
618.735	2287.59124
618.937	2000.13091
619.138	2306.60881
619.339	2150.22051
619.54	2431.25977
619.742	2270.6861
619.943	2331.96437
620.144	1974.76022
620.345	2277.0256
620.546	2234.76072
620.748	2329.85146
620.949	1989.5599
621.15	2124.85588
621.351	2099.49014
621.552	2389.00918
621.753	2169.24322
621.954	2357.31852
622.155	2091.03465
622.356	2260.12008
622.558	2209.40008
622.759	2378.44588
622.96	2042.41331
623.161	2363.65683
623.362	2321.39972
623.563	2372.10778
623.764	2260.12008
623.965	2410.135
624.166	2279.13874
624.366	2403.79736
624.567	2192.4923
624.768	2302.38275
624.969	2116.40076
625.17	2336.19016
625.371	2226.30731
625.572	2382.67123
625.773	2224.19394
625.973	2348.8673
626.174	2312.94783
626.375	2393.23442
626.576	2175.58398
626.777	2614.99818
626.977	2315.06082
627.178	2420.69751
627.379	2234.76072
627.58	2500.96382
627.78	2177.69755
627.981	2412.24752
628.182	2238.98737
628.382	2361.54407
628.583	2395.34703
628.784	2541.09093
628.984	2359.4313
629.185	2422.80999
629.386	2321.39972
629.586	2684.66842
629.787	2357.31852
629.987	2410.135
630.188	2296.04359
630.388	2473.50608
630.589	2374.22049
630.79	2528.41966
630.99	2446.04647
631.191	2484.06698
631.391	2545.31459
631.591	2386.89654
631.792	2429.14734
631.992	2551.65
632.193	2507.29996
632.393	2629.77785
632.594	2488.29126
632.794	2530.53157
632.994	2467.16941
633.195	2638.22311
633.395	2524.19581
633.595	2678.33533
633.796	2509.41198
633.996	2885.15419
634.196	2581.21382
634.397	2775.4298
634.597	2587.54863
634.797	2682.5574
634.997	2669.89103
635.198	2614.99818
635.398	2600.21791
635.598	2655.11302
635.798	2555.87354
635.998	2650.89061
636.199	2456.60808
636.399	2625.55515
636.599	2507.29996
636.799	2699.44518
636.999	2631.88918
637.199	2735.32894
637.399	2604.4409
637.599	2452.38347
637.799	2509.41198
637.999	2834.51686
638.199	2608.66385
638.399	2826.07651
638.599	2585.43704
638.799	2758.54581
638.999	2849.28692
639.199	2906.25066
639.399	2737.43963
639.599	2931.56449
639.799	2557.9853
639.999	2783.87146
640.199	2644.55692
640.399	2716.33212
640.599	2462.94491
640.799	3009.60206
640.998	2631.88918
641.198	2855.61674
641.398	2648.77939
641.598	2785.98185
641.798	2842.95698
641.997	2906.25066
642.197	2840.84697
642.397	3039.12439
642.597	2851.39687
642.796	2878.82497
642.996	2733.21824
643.196	2904.14107
643.395	2781.76107
643.595	2948.43921
643.795	2771.20888
643.994	2893.59295
644.194	2914.68883
644.394	3045.45021
644.593	2923.12678
644.793	3011.7109
644.992	2925.23623
645.192	3024.3636
645.392	2914.68883
645.591	3163.50622
645.791	2887.2639
645.99	2988.51285
646.19	2762.76689
646.389	2982.1858
646.589	2874.60542
646.788	3098.15993
646.987	2842.95698
647.187	3066.53527
647.386	2804.97467
647.586	2988.51285
647.785	2929.45509
647.984	2994.83978
648.184	3009.60206
648.383	3171.93687
648.582	2929.45509
648.782	3270.97724
648.981	2935.78326
649.18	3020.1461
649.38	2876.71521
649.579	2954.76699
649.778	3100.26812
649.977	3220.40802
650.177	2868.27599
650.376	3254.12191
650.575	2944.22062
650.774	3030.68975
650.973	2889.3736
651.173	3136.10482
651.372	3018.03732
651.571	3148.75196
651.77	3011.7109
651.969	3138.21272
652.168	2889.3736
652.367	3171.93687
652.566	3030.68975
652.765	3357.3437
652.964	3121.34909
653.163	3201.44209
653.362	3053.88442
653.561	3171.93687
653.76	2931.56449
653.959	3081.29389
654.158	3085.51049
654.357	3190.90488
654.556	3182.47482
654.755	3365.76814
654.954	3205.65686
655.153	3285.72477
655.352	3218.30076
655.551	3222.51527
655.749	3169.82924
655.948	3409.99185
656.147	3249.90791
656.346	3247.80088
656.545	3083.4022
656.743	3249.90791
656.942	3140.3206
657.141	3439.47
657.34	3140.3206
657.538	3235.15838
657.737	3243.58678
657.936	3698.3025
658.135	3237.2655
658.333	3340.49398
658.532	3123.4571
658.731	3298.36485
658.929	3239.37261
659.128	3517.35956
659.326	3112.91689
659.525	3363.66206
659.724	3334.17505
659.922	3435.25905
660.121	3397.3573
660.319	3462.62894
660.518	3117.13302
660.716	3458.41838
660.915	3361.55596
661.113	3489.99578
661.312	3117.13302
661.51	3365.76814
661.709	3243.58678
661.907	3466.83942
662.105	3311.00431
662.304	3403.67466
662.502	3327.85597
662.701	3601.53631
662.899	3197.22725
663.097	3460.52367
663.296	3327.85597
663.494	3502.6256
663.692	3214.08619
663.891	3534.19728
664.089	3218.30076
664.287	3500.52068
664.485	3304.68466
664.684	3654.13161
664.882	3468.94463
665.08	3441.57544
665.278	3475.26017
665.476	3597.32818
665.675	3553.1383
665.873	3727.74506
666.071	3551.03381
666.269	3673.06302
666.467	3513.14995
666.665	3628.88734
666.863	3437.36453
667.061	3630.99113
667.259	3348.91898
667.457	3670.9596
667.655	3399.4631
667.853	3618.36809
668.051	3401.56889
668.249	3609.95235
668.447	3369.98026
668.645	3574.18212
668.843	3449.99706
669.041	3818.15199
669.239	3420.52016
669.437	3498.41574
669.635	3449.99706
669.833	3519.46434
670.031	3264.65662
670.229	3485.7857
670.426	3466.83942
670.624	3521.5691
670.822	3393.14564
671.02	3517.35956
671.218	3660.44225
671.415	3635.19866
671.613	3340.49398
671.811	3572.07782
672.009	3542.61569
672.206	3542.61569
672.404	3348.91898
672.602	3365.76814
672.799	3534.19728
672.997	3755.08119
673.195	3458.41838
673.392	3744.56768
673.59	3487.89075
673.788	3569.9735
673.985	3399.4631
674.183	3628.88734
674.38	3513.14995
674.578	3691.99288
674.775	3412.09755
674.973	3500.52068
675.17	3523.67384
675.368	3706.71504
675.565	3605.74437
675.763	3828.66206
675.96	3645.71715
676.158	3788.72114
676.355	3445.78629
676.553	3622.57584
676.75	3508.94027
676.947	3780.31162
677.145	3609.95235
677.342	3723.53921
677.539	3576.2864
677.737	3803.43705
677.934	3599.43225
678.131	3616.26418
678.329	3447.89168
678.526	3616.26418
678.723	3460.52367
678.92	3626.78352
679.118	3475.26017
679.315	3616.26418
679.512	3420.52016
679.709	3710.9212
679.906	3460.52367
680.104	3668.85617
680.301	3521.5691
680.498	3620.47197
680.695	3569.9735
680.892	3805.53924
681.089	3403.67466
681.286	3595.22409
681.483	3559.45164
681.68	3820.25404
681.877	3567.86917
682.075	3614.16026
682.272	3334.17505
682.469	3740.36214
682.665	3563.66044
682.862	3778.20919
683.059	3492.1008
683.256	3614.16026
683.453	3401.56889
683.65	3681.47648
683.847	3416.30889
684.044	3525.77857
684.241	3481.57554
684.438	3851.7825
684.635	3492.1008
684.831	3807.64141
685.028	3576.2864
685.225	3818.15199
685.422	3569.9735
685.619	3584.70334
685.815	3685.6831
686.012	3774.00428
686.209	3374.1923
686.405	3652.02802
686.602	3382.61618
686.799	3593.11997
686.996	3391.03978
687.192	3618.36809
687.389	3449.99706
687.586	3637.3024
687.782	3401.56889
687.979	3609.95235
688.175	3504.73051
688.372	3620.47197
688.568	3517.35956
688.765	3458.41838
688.962	3357.3437
689.158	3601.53631
689.355	3483.68063
689.551	3643.61349
689.748	3367.87421
689.944	3561.55605
690.14	3372.08629
690.337	3685.6831
690.533	3597.32818
690.73	3391.03978
690.926	3502.6256
691.123	3702.50881
691.319	3460.52367
691.515	3586.80752
691.712	3357.3437
691.908	3523.67384
692.104	3369.98026
692.301	3635.19866
692.497	3428.94249
692.693	3426.83693
692.889	3283.61803
693.086	3605.74437
693.282	3458.41838
693.478	3542.61569
693.674	3576.2864
693.87	3763.49165
694.067	3477.36531
694.263	3593.11997
694.459	3494.2058
694.655	3670.9596
694.851	3361.55596
695.047	3567.86917
695.243	3603.64035
695.439	3565.76481
695.635	3479.47044
695.831	3561.55605
696.027	3513.14995
696.224	3578.39066
696.42	3452.10241
696.615	3702.50881
696.811	3487.89075
697.007	3727.74506
697.203	3321.53672
697.399	3485.7857
697.595	3374.1923
697.791	3492.1008
697.987	3125.56509
698.183	3471.04983
698.379	3519.46434
698.575	3612.05631
698.77	3513.14995
698.966	3630.99113
699.162	3424.73136
699.358	3660.44225
699.554	3300.47147
699.749	3719.33328
699.945	3386.82802
700.141	3576.2864
700.337	3336.28138
700.532	3449.99706
700.728	3226.7297
700.924	3441.57544
701.119	3386.82802
701.315	3382.61618
701.511	3195.11981
701.706	3645.71715
701.902	3437.36453
702.097	3578.39066
702.293	3485.7857
702.489	3664.64925
702.684	3332.06871
702.88	3790.82347
703.075	3378.40428
703.271	3517.35956
703.466	3327.85597
703.662	3746.67042
703.857	3519.46434
704.053	3468.94463
704.248	3485.7857
704.443	3620.47197
704.639	3369.98026
704.834	3612.05631
705.03	3433.15355
705.225	3673.06302
705.42	3445.78629
705.616	3483.68063
705.811	3473.15501
706.006	3536.30191
706.202	3416.30889
706.397	3586.80752
706.592	3534.19728
706.787	3654.13161
706.983	3361.55596
707.178	3727.74506
707.373	3418.41454
707.568	3441.57544
707.763	3287.8315
707.959	3715.12728
708.154	3365.76814
708.349	3641.50981
708.544	3399.4631
708.739	3485.7857
708.934	3283.61803
709.129	3395.25148
709.324	3365.76814
709.519	3660.44225
709.714	3292.04489
709.909	3736.15652
710.104	3437.36453
710.299	3500.52068
710.494	3494.2058
710.689	3504.73051
710.884	3325.74957
711.079	3527.88327
711.274	3340.49398
711.469	3504.73051
711.664	3365.76814
711.859	3639.40611
712.054	3540.51112
712.249	3647.82079
712.443	3207.76422
712.638	3422.62577
712.833	3256.22889
713.028	3622.57584
713.223	3268.87039
713.417	3548.92931
713.612	3270.97724
713.807	3580.49491
714.002	3588.91169
714.196	3685.6831
714.391	3289.9382
714.586	3441.57544
714.78	3424.73136
714.975	3504.73051
715.17	3308.89778
715.364	3626.78352
715.559	3426.83693
715.754	3612.05631
715.948	3485.7857
716.143	3614.16026
716.337	3327.85597
716.532	3635.19866
716.726	3300.47147
716.921	3388.93391
717.115	3382.61618
717.31	3374.1923
717.504	3214.08619
717.699	3222.51527
717.893	3169.82924
718.088	3401.56889
718.282	3205.65686
718.476	3426.83693
718.671	3433.15355
718.865	3494.2058
719.059	3258.33585
719.254	3466.83942
719.448	3315.21733
719.642	3498.41574
719.837	3239.37261
720.031	3485.7857
720.225	3190.90488
720.419	3462.62894
720.614	3176.1521
720.808	3468.94463
721.002	3228.8369
721.196	3247.80088
721.39	3306.79123
721.585	3462.62894
721.779	3157.18306
721.973	3403.67466
722.167	3096.05173
722.361	3306.79123
722.555	3049.66735
722.749	3353.13137
722.943	3100.26812
723.137	3382.61618
723.331	3157.18306
723.525	3338.38769
723.719	3163.50622
723.913	3184.58236
724.107	3241.4797
724.301	3523.67384
724.495	3254.12191
724.689	3576.2864
724.883	3159.2908
725.077	3372.08629
725.271	3329.96234
725.465	3338.38769
725.659	3117.13302
725.853	3378.40428
726.046	3361.55596
726.24	3327.85597
726.434	3163.50622
726.628	3479.47044
726.822	3228.8369
727.015	3519.46434
727.209	3089.72704
727.403	3441.57544
727.596	3032.79843
727.79	3603.64035
727.984	3163.50622
728.177	3431.04803
728.371	3211.97888
728.565	3332.06871
728.758	3252.01492
728.952	3403.67466
729.146	3032.79843
729.339	3397.3573
729.533	3193.01236
729.726	3357.3437
729.92	3163.50622
730.113	3197.22725
730.307	3199.33468
730.5	3477.36531
730.694	3093.94352
730.887	3266.76351
731.081	3458.41838
731.274	3414.20323
731.468	3064.42684
731.661	3355.23755
731.854	3165.61391
732.048	3239.37261
732.241	3214.08619
732.435	3441.57544
732.628	3180.36726
732.821	3359.44984
733.014	3327.85597
733.208	3409.99185
733.401	3245.69384
733.594	3300.47147
733.788	3275.19091
733.981	3325.74957
734.174	3188.79739
734.367	3148.75196
734.56	3258.33585
734.754	3332.06871
734.947	3401.56889
735.14	3317.32381
735.333	3407.88614
735.526	3365.76814
735.719	3247.80088
735.912	3487.89075
736.105	3363.66206
736.298	3260.44279
736.491	3197.22725
736.684	3287.8315
736.877	3294.15156
737.07	3243.58678
737.263	3348.91898
737.456	3346.81276
737.649	3159.2908
737.842	3285.72477
738.035	3391.03978
738.228	3214.08619
738.421	3365.76814
738.614	3348.91898
738.807	3230.94407
739	3289.9382
739.192	3233.05123
739.385	3418.41454
739.578	3329.96234
739.771	3281.51128
739.964	3148.75196
740.156	3441.57544
740.349	3279.40451
740.542	3268.87039
740.735	3332.06871
740.927	3340.49398
741.12	3285.72477
741.313	3138.21272
741.505	3359.44984
741.698	3188.79739
741.891	3144.53631
742.083	3348.91898
742.276	3395.25148
742.468	3348.91898
742.661	3224.62249
742.854	3323.64315
743.046	3178.25969
743.239	3325.74957
743.431	3224.62249
743.624	3264.65662
743.816	3133.99691
744.009	3302.57807
744.201	3129.78103
744.393	3376.2983
744.586	3064.42684
744.778	3409.99185
744.971	3112.91689
745.163	3412.09755
745.355	3313.11083
745.548	3144.53631
745.74	3062.31839
745.932	3233.05123
746.125	3104.48444
746.317	3115.02497
746.509	3062.31839
746.702	3117.13302
746.894	3062.31839
747.086	3072.86049
747.278	3091.83529
747.471	3037.01575
747.663	3165.61391
747.855	3125.56509
748.047	3180.36726
748.239	3047.55879
748.431	3083.4022
748.623	3201.44209
748.815	3197.22725
749.008	3222.51527
749.2	3150.85976
749.392	3386.82802
749.584	3100.26812
749.776	3155.07531
749.968	3034.9071
750.16	3247.80088
750.352	3015.92853
750.544	3193.01236
750.736	3129.78103
750.928	3340.49398
751.12	3055.99294
751.311	3117.13302
751.503	3121.34909
751.695	3226.7297
751.887	2948.43921
752.079	3150.85976
752.271	3169.82924
752.463	3155.07531
752.654	2965.31298
752.846	3129.78103
753.038	3062.31839
753.23	3281.51128
753.421	3009.60206
753.613	2935.78326
753.805	3277.29772
753.997	3197.22725
754.188	3283.61803
754.38	3100.26812
754.572	2961.09463
754.763	3205.65686
754.955	2950.54848
755.146	3047.55879
755.338	2963.20381
755.53	3087.61877
755.721	2921.01732
755.913	3049.66735
756.104	2889.3736
756.296	3053.88442
756.487	2961.09463
756.679	2986.40385
756.87	2975.8586
757.062	3180.36726
757.253	2807.08492
757.445	3005.38434
757.636	3037.01575
757.827	3163.50622
758.019	3079.18556
758.21	3087.61877
758.401	2980.07675
758.593	2921.01732
758.784	2868.27599
758.975	2954.76699
759.167	2811.30537
759.358	3072.86049
759.549	3039.12439
759.74	2969.53128
759.932	3049.66735
760.123	2912.57931
760.314	2977.96768
760.505	2923.12678
760.696	2779.65066
760.888	2977.96768
761.079	2672.00212
761.27	2895.7026
761.461	2813.41558
761.652	2969.53128
761.843	2946.32992
762.034	2914.68883
762.225	2617.1096
762.416	3039.12439
762.607	2653.00182
762.798	2809.19515
762.989	2887.2639
763.18	2707.88875
763.371	2840.84697
763.562	2876.71521
763.753	2691.00139
763.944	3045.45021
764.135	2910.46977
764.326	3028.58105
764.517	2885.15419
764.708	2750.1035
764.899	2657.2242
765.089	2819.74611
765.28	2701.55609
765.471	2857.72665
765.662	2758.54581
765.853	2771.20888
766.043	2682.5574
766.234	2779.65066
766.425	2606.55238
766.615	2724.77529
766.806	2764.87741
766.997	2712.11047
767.187	2743.77163
767.378	2667.77992
767.569	2462.94491
767.759	2743.77163
767.95	2659.33537
768.141	2674.1132
768.331	2650.89061
768.522	2813.41558
768.712	2642.44566
768.903	2640.33439
769.093	2458.72037
769.284	2701.55609
769.474	2507.29996
769.665	2424.92245
769.855	2619.221
770.046	2691.00139
770.236	2659.33537
770.426	2492.51549
770.617	2530.53157
770.807	2585.43704
770.998	2414.36003
771.188	2625.55515
771.378	2547.4264
771.569	2621.3324
771.759	2538.97908
771.949	2591.77177
772.139	2336.19016
772.33	2526.30774
772.52	2532.64346
772.71	2454.49578
772.9	2369.99506
773.09	2433.37218
773.281	2454.49578
773.471	2775.4298
773.661	2572.76725
773.851	2452.38347
774.041	2593.88332
774.231	2574.87891
774.421	2583.32544
774.611	2562.20877
774.802	2359.4313
774.992	2657.2242
775.182	2346.75447
775.372	2437.59699
775.562	2378.44588
775.752	2365.76959
775.942	2222.08056
776.131	2372.10778
776.321	2395.34703
776.511	2490.40338
776.701	2336.19016
776.891	2431.25977
777.081	2226.30731
777.271	2538.97908
777.461	2336.19016
777.651	2587.54863
777.84	2353.09293
778.03	2513.63599
778.22	2277.0256
778.41	2298.15665
778.599	2230.53403
778.789	2369.99506
778.979	2315.06082
779.169	2224.19394
779.358	2260.12008
779.548	2302.38275
779.738	2177.69755
779.927	2395.34703
780.117	2353.09293
780.307	2298.15665
780.496	2112.17315
780.686	2302.38275
780.875	2160.78876
781.065	2188.26527
781.254	2179.81111
781.444	2327.73854
781.633	2160.78876
781.823	2264.34651
782.012	2171.35682
782.202	2217.85377
782.391	2135.42461
782.581	2243.21398
782.77	2116.40076
782.96	2270.6861
783.149	2006.47344
783.338	2262.2333
783.528	2268.57291
783.717	2217.85377
783.906	2209.40008
784.096	2192.4923
784.285	2143.87946
784.474	2200.94626
784.663	2033.95705
784.853	2126.96964
785.042	1983.21721
785.231	2093.14853
785.42	2141.76576
785.61	2057.21151
785.799	1900.7574
785.988	2234.76072
786.177	1828.86262
786.366	2012.81591
786.555	2050.86947
786.744	2033.95705
786.933	2014.93006
787.122	2234.76072
787.312	2169.24322
787.501	2084.69295
787.69	1981.10297
787.879	2150.22051
788.068	1983.21721
788.257	2118.51455
788.445	1896.52846
788.634	2143.87946
788.823	1907.10077
789.012	2017.04419
789.201	2017.04419
789.39	1957.84592
789.579	1915.55852
789.768	1934.58814
789.957	1879.61248
790.145	1985.33145
790.334	1833.09188
790.523	1955.73161
790.712	1909.21522
790.9	2008.5876
791.089	1957.84592
791.278	2184.03821
791.467	1959.96023
791.655	2184.03821
791.844	1875.38344
792.033	1858.46705
792.221	1839.43574
792.41	1873.2689
792.599	1803.48668
792.787	1919.78737
792.976	1904.98632
793.164	1974.76022
793.353	1746.38861
793.541	1998.01672
793.73	1824.63334
793.918	1972.64595
794.107	1630.07006
794.295	1924.01619
794.484	1746.38861
794.672	1998.01672
794.861	1723.12564
795.049	1983.21721
795.238	1809.83072
795.426	1955.73161
795.614	1773.88063
795.803	2002.24509
795.991	1862.69617
796.179	1841.55035
796.368	1706.20687
796.556	1883.84151
796.744	1723.12564
796.932	1896.52846
797.121	1644.8747
797.309	1875.38344
797.497	1778.11012
797.685	1790.79847
797.874	1828.86262
798.062	1943.0456
798.25	1689.28789
798.438	1666.02399
798.626	1721.01081
798.814	1644.8747
799.002	1685.05812
799.19	1879.61248
799.378	1585.6555
799.566	1805.60136
799.755	1771.76588
799.943	1773.88063
800.131	1752.73298
800.318	1701.97714
800.506	1666.02399
800.694	1966.30312
800.882	1418.56752
801.07	1769.65113
801.258	1712.55143
801.446	1852.12332
801.634	1663.90907
801.822	1699.86227
802.01	1670.25381
802.197	1737.9294
802.385	1634.29997
802.573	1744.27381
802.761	1761.19208
802.949	1790.79847
803.136	1600.46045
803.324	1761.19208
803.512	1718.89597
803.699	1687.173
803.887	1570.85047
804.075	1680.82833
804.262	1606.8054
804.45	1735.81459
804.638	1655.44938
804.825	1892.2995
805.013	1583.5405
805.201	1830.97725
805.388	1602.57544
805.576	1873.2689
805.763	1731.58495
805.951	1765.42162
806.138	1646.98964
806.326	1769.65113
806.513	1644.8747
806.701	1668.1389
806.888	1600.46045
807.075	1786.56903
807.263	1617.38028
807.45	1898.64293
807.638	1672.36872
807.825	1828.86262
808.012	1670.25381
808.2	1771.76588
808.387	1693.51765
808.574	1866.92528
808.761	1695.63253
808.949	1782.33958
809.136	1761.19208
809.323	1828.86262
809.51	1659.67923
809.698	1797.14259
809.885	1625.84014
810.072	1693.51765
810.259	1775.99537
810.446	1803.48668
810.633	1674.48363
810.82	1883.84151
811.008	1769.65113
811.195	2057.21151
811.382	1873.2689
811.569	1839.43574
811.756	1682.94322
811.943	1828.86262
812.13	1816.17473
812.317	1862.69617
812.504	1797.14259
812.691	1907.10077
812.878	1676.59853
813.064	1822.51869
813.251	1761.19208
813.438	1904.98632
813.625	1763.30685
813.812	1701.97714
813.999	1579.3105
814.186	1740.04421
814.372	1712.55143
814.559	1799.25729
814.746	1617.38028
814.933	1737.9294
815.12	1676.59853
815.306	1814.06006
815.493	1704.09201
815.68	1659.67923
815.866	1733.69977
816.053	1693.51765
816.24	1780.22485
816.426	1879.61248
816.613	1769.65113
816.799	1934.58814
816.986	1619.49525
817.173	1947.27429
817.359	1701.97714
817.546	1972.64595
817.732	1811.94539
817.919	1930.35937
818.105	1697.7474
818.292	1824.63334
818.478	1748.5034
818.665	1883.84151
818.851	1987.44568
819.037	1718.89597
819.224	1731.58495
819.41	1866.92528
819.597	1668.1389
819.783	1856.35248
819.969	1666.02399
820.156	1860.58161
820.342	1718.89597
820.528	1896.52846
820.714	1566.62045
820.901	1854.2379
821.087	1509.51466
821.273	1833.09188
821.459	1670.25381
821.646	1788.68375
821.832	1634.29997
822.018	1869.03983
822.204	1498.93944
822.39	1649.10458
822.576	1515.85979
822.762	1670.25381
822.948	1541.2402
823.134	1818.28939
823.32	1651.21952
823.507	1854.2379
823.693	1456.63844
823.879	1756.96254
824.065	1617.38028
824.25	1473.55886
824.436	1661.79415
824.622	1803.48668
824.808	1537.01014
824.994	1651.21952
825.18	1465.09865
825.366	1718.89597
825.552	1537.01014
825.738	1862.69617
825.923	1577.1955
826.109	1725.24048
826.295	1532.78008
826.481	1693.51765
826.667	1606.8054
826.852	1579.3105
827.038	1515.85979
827.224	1651.21952
827.409	1524.31994
827.595	1545.47026
827.781	1452.40834
827.966	1625.84014
828.152	1477.78896
828.338	1543.35523
828.523	1403.76219
828.709	1549.7003
828.894	1441.83308
829.08	1655.44938
829.266	1391.07193
829.451	1659.67923
829.637	1357.2314
829.822	1592.00049
830.008	1473.55886
830.193	1761.19208
830.378	1537.01014
830.564	1685.05812
830.749	1501.05449
830.935	1744.27381
831.12	1355.11638
831.305	1670.25381
831.491	1456.63844
831.676	1543.35523
831.861	1321.2762
832.047	1534.89511
832.232	1293.78137
832.417	1585.6555
832.602	1329.7362
832.788	1532.78008
832.973	1439.71802
833.158	1460.86855
833.343	1418.56752
833.528	1663.90907
833.714	1441.83308
833.899	1452.40834
834.084	1353.00136
834.269	1549.7003
834.454	1329.7362
834.639	1295.89635
834.824	1306.47125
835.009	1551.81533
835.194	1323.39119
835.379	1579.3105
835.564	1338.19624
835.749	1363.57648
835.934	1365.69151
836.119	1427.02772
836.304	1374.15163
836.489	1435.48792
836.674	1329.7362
836.859	1257.82715
837.044	1223.98858
837.228	1323.39119
837.413	1221.87369
837.598	1492.5943
837.783	1304.35626
837.968	1331.85121
838.152	1397.41706
838.337	1300.1263
838.522	1120.3634
838.707	1219.75881
838.891	1130.93695
839.076	1236.67796
839.261	1160.54348
839.445	1325.5062
839.63	1240.90777
839.815	1171.11744
839.999	1202.83986
840.184	1278.97661
840.368	1139.39587
840.553	1281.09157
840.737	1245.1376
840.922	1213.41418
841.106	1207.06958
841.291	1135.1664
841.475	1033.66492
841.66	1054.81006
841.844	1101.33129
842.029	1245.1376
842.213	1101.33129
842.397	1228.21836
842.582	1092.8727
842.766	1158.4287
842.951	959.66174
843.135	1317.0462
843.319	1063.26828
843.504	1158.4287
843.688	1069.612
843.872	1156.31393
844.056	1103.44595
844.241	1135.1664
844.425	1183.80631
844.609	1213.41418
844.793	1016.74922
844.977	1266.28691
845.161	1025.20702
845.346	987.14771
845.53	1012.52036
845.714	1037.8939
845.898	830.70605
846.082	1147.85487
846.266	999.83392
846.45	968.11884
846.634	881.43914
846.818	917.37796
847.002	883.55312
847.186	959.66174
847.37	851.84424
847.554	1092.8727
847.738	953.31898
847.922	1044.23742
848.106	858.18586
848.29	959.66174
848.473	970.23313
848.657	966.00455
848.841	959.66174
849.025	1069.612
849.209	906.80748
849.392	1143.62536
849.576	875.09723
849.76	989.26206
849.944	851.84424
850.127	1008.29152
850.311	957.54748
850.495	972.34743
850.678	902.57934
850.862	1008.29152
851.046	896.2372
851.229	919.49208
851.413	796.88685
851.596	989.26206
851.78	845.50269
851.964	930.06278
852.147	936.4053
852.331	796.88685
852.514	788.43243
852.698	982.91902
852.881	813.79616
853.065	839.16122
853.248	934.29112
853.431	972.34743
853.615	839.16122
853.798	919.49208
853.982	906.80748
854.165	978.69036
854.348	982.91902
854.532	963.89027
854.715	792.65962
854.898	940.63367
855.081	703.89708
855.265	686.99207
855.448	678.53983
855.631	900.46529
855.814	693.33136
855.997	875.09723
856.181	699.67076
856.364	866.64148
856.547	722.91607
856.73	830.70605
856.913	773.63756
857.096	684.87899
857.279	682.76593
857.462	765.18357
857.645	722.91607
857.828	737.70922
858.011	792.65962
858.194	917.37796
858.377	763.0701
858.56	813.79616
858.743	737.70922
858.926	727.14263
859.109	834.93362
859.292	684.87899
859.475	589.80291
859.658	822.25103
859.841	686.99207
860.023	670.08778
860.206	672.20078
860.389	754.61631
860.572	642.61991
860.755	828.59229
860.937	644.73275
861.12	729.25593
861.303	682.76593
861.486	670.08778
861.668	680.65288
861.851	695.44449
862.034	619.37947
862.216	627.83037
862.399	594.02798
862.581	621.49217
862.764	579.24047
862.947	629.94312
863.129	577.12802
863.312	644.73275
863.494	528.54541
863.677	577.12802
863.859	644.73275
864.042	560.2289
864.224	604.59088
864.406	581.35293
864.589	492.64129
864.771	602.47827
864.954	517.98495
865.136	564.4536
865.318	475.74669
865.501	610.92877
865.683	496.86509
865.865	581.35293
866.048	452.5182
866.23	594.02798
866.412	471.52319
866.594	515.8729
866.777	460.96471
866.959	524.32118
867.141	501.08894
867.323	585.57789
867.505	522.20909
867.687	636.28146
867.869	619.37947
868.052	492.64129
868.234	441.9604
868.416	437.73739
868.598	486.30571
868.78	564.4536
868.962	528.54541
869.144	589.80291
869.326	467.29976
869.508	591.91544
869.69	416.6233
869.872	577.12802
870.054	503.20089
870.236	577.12802
870.417	435.62591
870.599	543.33065
870.781	511.64884
870.963	479.97025
871.145	475.74669
871.327	450.40661
871.508	401.84439
871.69	551.77967
871.872	450.40661
872.054	522.20909
872.235	376.51098
872.417	543.33065
872.599	456.74142
872.78	575.01558
872.962	496.86509
873.144	403.95561
873.325	501.08894
873.507	507.42484
873.689	433.51445
873.87	501.08894
874.052	560.2289
874.233	454.6298
874.415	494.75318
874.596	564.4536
874.778	494.75318
874.959	441.9604
875.141	463.07638
875.322	598.2531
875.503	425.06875
875.685	545.44289
875.866	370.17801
876.048	387.06628
876.229	359.62338
876.41	460.96471
876.592	412.40067
876.773	467.29976
876.954	399.73318
877.136	479.97025
877.317	365.95611
877.498	505.31286
877.679	418.73464
877.86	399.73318
878.042	439.84889
878.223	467.29976
878.404	427.18015
878.585	528.54541
878.766	471.52319
878.947	594.02798
879.128	454.6298
879.309	515.8729
879.49	416.6233
879.672	547.55513
879.853	513.76086
880.034	549.6674
880.215	441.9604
880.396	486.30571
880.576	401.84439
880.757	526.43329
880.938	471.52319
881.119	475.74669
881.3	558.11657
881.481	496.86509
881.662	492.64129
881.843	477.85847
882.023	515.8729
882.204	520.09701
882.385	515.8729
882.566	520.09701
882.747	473.63494
882.927	488.41755
883.108	477.85847
883.289	433.51445
883.469	547.55513
883.65	610.92877
883.831	467.29976
884.011	471.52319
884.192	393.39965
884.373	553.89196
884.553	427.18015
884.734	515.8729
884.914	501.08894
885.095	460.96471
885.275	446.18347
885.456	490.52941
885.636	501.08894
885.817	479.97025
885.997	501.08894
886.178	560.2289
886.358	467.29976
886.538	448.29503
886.719	494.75318
886.899	509.53683
887.08	530.65755
887.26	511.64884
887.44	486.30571
887.621	551.77967
887.801	530.65755
887.981	448.29503
888.161	539.10623
888.342	475.74669
888.522	534.88186
888.702	513.76086
888.882	441.9604
889.062	594.02798
889.242	422.95736
889.423	469.41147
889.603	454.6298
889.783	399.73318
889.963	429.29157
890.143	458.85306
890.323	475.74669
890.503	564.4536
890.683	560.2289
890.863	501.08894
891.043	494.75318
891.223	551.77967
891.403	441.9604
891.583	543.33065
891.763	441.9604
891.943	536.99404
892.122	541.21844
892.302	492.64129
892.482	467.29976
892.662	437.73739
892.842	408.17811
893.022	513.76086
893.201	410.28938
893.381	509.53683
893.561	467.29976
893.741	441.9604
893.92	420.84599
894.1	410.28938
894.28	412.40067
894.459	433.51445
894.639	486.30571
894.819	498.97701
894.998	450.40661
895.178	503.20089
895.357	359.62338
895.537	391.28851
895.716	475.74669
895.896	551.77967
896.075	492.64129
896.255	425.06875
896.434	450.40661
896.614	389.17739
896.793	460.96471
896.973	486.30571
897.152	439.84889
897.331	501.08894
897.511	344.84764
897.69	410.28938
897.87	357.51251
898.049	410.28938
898.228	427.18015
898.407	458.85306
898.587	365.95611
898.766	469.41147
898.945	401.84439
899.124	420.84599
899.304	374.39997
899.483	378.62201
899.662	349.06919
899.841	410.28938
900.02	427.18015
900.199	384.95518
900.378	281.53282
900.557	454.6298
900.737	306.8568
900.916	391.28851
901.095	365.95611
901.274	374.39997
901.453	256.21151
901.632	311.07772
901.811	382.84411
901.989	222.45405
902.168	351.18
902.347	355.40166
902.526	361.73427
902.705	292.08415
902.884	304.74637
903.063	317.40923
903.242	249.88161
903.42	298.41518
903.599	298.41518
903.778	384.95518
903.957	340.62615
904.135	325.8515
904.314	230.89295
904.493	349.06919
904.672	287.86356
904.85	222.45405
905.029	260.43154
905.207	300.52556
905.386	273.09208
905.565	224.56375
905.743	222.45405
905.922	336.40473
906.1	228.7832
906.279	264.65165
906.457	214.01547
906.636	239.33216
906.814	226.67346
906.993	258.32152
907.171	296.30482
907.35	256.21151
907.528	163.39074
907.707	237.22233
907.885	224.56375
908.063	199.24872
908.242	129.64756
908.42	256.21151
908.598	190.81102
908.777	161.28164
908.955	216.12509
909.133	230.89295
909.311	247.77168
909.49	207.68674
909.668	199.24872
909.846	214.01547
910.024	266.76173
910.202	197.13926
910.38	199.24872
910.559	112.77803
910.737	184.48295
910.915	184.48295
911.093	201.3582
911.271	279.42261
911.449	233.00273
911.627	226.67346
911.805	123.32132
911.983	184.48295
912.161	216.12509
912.339	222.45405
912.517	199.24872
912.695	211.90588
912.872	138.08285
913.05	209.7963
913.228	203.46769
913.406	233.00273
913.584	205.57721
913.762	283.64305
913.939	251.99156
914.117	218.23472
914.295	321.63033
914.473	241.44201
914.65	205.57721
914.828	239.33216
915.006	188.70164
915.184	249.88161
915.361	184.48295
915.539	188.70164
915.716	163.39074
915.894	199.24872
916.072	235.11252
916.249	214.01547
916.427	201.3582
916.604	133.86516
916.782	195.02983
916.959	95.90989
917.137	157.06349
917.314	199.24872
917.492	190.81102
917.669	178.15507
917.847	171.82738
918.024	264.65165
918.201	138.08285
918.379	121.21262
918.556	150.73642
918.733	192.92041
918.911	150.73642
919.088	163.39074
919.265	112.77803
919.442	112.77803
919.62	163.39074
919.797	104.34378
919.974	235.11252
920.151	224.56375
920.328	131.75635
920.506	222.45405
920.683	116.99528
920.86	182.37364
921.037	171.82738
921.214	148.62743
921.391	207.68674
921.568	182.37364
921.745	171.82738
921.922	89.5847
922.099	138.08285
922.276	154.95444
922.453	62.17789
922.63	176.04582
922.807	112.77803
922.984	142.30062
923.161	87.47635
923.338	176.04582
923.514	114.88664
923.691	146.51847
923.868	121.21262
924.045	159.17255
924.222	138.08285
924.399	129.64756
924.575	142.30062
924.752	146.51847
924.929	106.45231
925.105	150.73642
925.282	102.23527
925.459	123.32132
925.635	100.12679
925.812	112.77803
925.989	146.51847
926.165	135.97399
926.342	173.93659
926.518	91.69308
926.695	123.32132
926.871	163.39074
927.048	135.97399
927.224	79.04317
927.401	81.15143
927.577	123.32132
927.754	95.90989
927.93	159.17255
928.107	176.04582
928.283	171.82738
928.459	72.71852
928.636	165.49987
928.812	93.80147
928.988	131.75635
929.165	150.73642
929.341	53.7458
929.517	129.64756
929.693	114.88664
929.87	125.43005
930.046	127.53879
930.222	70.61035
930.398	91.69308
930.574	116.99528
930.751	53.7458
930.927	121.21262
931.103	148.62743
931.279	95.90989
931.455	106.45231
931.631	123.32132
931.807	45.31408
931.983	87.47635
932.159	85.36802
932.335	93.80147
932.511	121.21262
932.687	104.34378
932.863	47.42198
933.039	53.7458
933.215	79.04317
933.391	55.85379
933.566	89.5847
933.742	114.88664
933.918	140.19172
934.094	55.85379
934.27	70.61035
934.445	28.45175
934.621	45.31408
934.797	45.31408
934.973	62.17789
935.148	106.45231
935.324	87.47635
935.5	45.31408
935.675	66.39408
935.851	47.42198
936.027	28.45175
936.202	83.25972
936.378	-1.05368
936.553	24.2364
936.729	79.04317
936.904	36.88273
937.08	64.28597
937.255	53.7458
937.431	17.91356
937.606	36.88273
937.782	30.55946
937.957	11.59093
938.133	49.5299
938.308	30.55946
938.483	64.28597
938.659	15.80599
938.834	-26.3403
939.009	47.42198
939.185	38.99053
939.36	-26.3403
939.535	-20.01897
939.71	81.15143
939.886	64.28597
940.061	-24.23321
940.236	-7.37567
940.411	7.37596
940.586	22.12877
940.761	-68.47672
940.937	22.12877
941.112	32.66719
941.287	51.63784
941.462	79.04317
941.637	15.80599
941.812	28.45175
941.987	-9.48295
942.162	30.55946
942.337	104.34378
942.512	20.02115
942.687	36.88273
942.862	15.80599
943.037	79.04317
943.212	-30.55439
943.386	62.17789
943.561	28.45175
943.736	9.48343
943.911	-34.76838
944.086	-9.48295
944.26	24.2364
944.435	30.55946
944.61	-24.23321
944.785	-9.48295
944.959	-13.69743
945.134	28.45175
945.309	-11.5902
945.483	-5.26836
945.658	1.05369
945.833	3.16109
946.007	3.16109
946.182	98.01833
946.357	22.12877
946.531	7.37596
946.706	1.05369
946.88	70.61035
947.055	28.45175
947.229	-13.69743
947.404	13.69845
947.578	20.02115
947.752	62.17789
947.927	85.36802
948.101	38.99053
948.276	30.55946
948.45	55.85379
948.624	-28.44736
948.799	-36.87534
948.973	5.26851
949.147	15.80599
949.321	45.31408
949.496	-30.55439
949.67	-47.40976
949.844	45.31408
950.018	-60.05024
950.193	89.5847
950.367	-30.55439
950.541	15.80599
950.715	28.45175
950.889	24.2364
951.063	38.99053
951.237	7.37596
951.411	28.45175
951.585	5.26851
951.759	3.16109
951.933	22.12877
952.107	38.99053
952.281	45.31408
952.455	20.02115
952.629	74.82672
952.803	55.85379
952.977	43.20621
953.151	24.2364
953.325	30.55946
953.499	-3.16104
953.672	38.99053
953.846	-5.26836
954.02	45.31408
954.194	-79.00925
954.368	70.61035
954.541	15.80599
954.715	-34.76838
954.889	53.7458
955.062	41.09836
955.236	91.69308
955.41	98.01833
955.583	11.59093
955.757	95.90989
955.93	45.31408
956.104	-38.98228
956.278	55.85379
956.451	32.66719
956.625	51.63784
956.798	43.20621
956.972	24.2364
957.145	87.47635
957.319	28.45175
957.492	-20.01897
957.665	64.28597
957.839	24.2364
958.012	53.7458
958.185	47.42198
958.359	36.88273
958.532	28.45175
958.705	53.7458
958.879	41.09836
959.052	11.59093
959.225	28.45175
959.398	66.39408
959.572	45.31408
959.745	32.66719
959.918	15.80599
960.091	-20.01897
960.264	81.15143
960.438	55.85379
960.611	30.55946
960.784	-28.44736
960.957	-13.69743
961.13	-53.73012
961.303	49.5299
961.476	-57.94356
961.649	53.7458
961.822	-55.83685
961.995	66.39408
962.168	66.39408
962.341	-9.48295
962.514	15.80599
962.686	36.88273
962.859	68.5022
963.032	-9.48295
963.205	11.59093
963.378	15.80599
963.551	36.88273
963.723	15.80599
963.896	-24.23321
964.069	13.69845
964.242	9.48343
964.414	87.47635
964.587	-89.54113
964.76	34.77495
964.932	62.17789
965.105	47.42198
965.278	79.04317
965.45	60.06984
965.623	1.05369
965.795	20.02115
965.968	-41.08919
966.14	55.85379
966.313	-20.01897
966.485	15.80599
966.658	41.09836
966.83	3.16109
967.003	5.26851
967.175	87.47635
967.348	55.85379
967.52	11.59093
967.692	9.48343
967.865	47.42198
968.037	53.7458
968.209	49.5299
968.382	-38.98228
968.554	24.2364
968.726	11.59093
968.898	64.28597
969.071	5.26851
969.243	-13.69743
969.415	7.37596
969.587	-13.69743
969.759	17.91356
969.932	-13.69743
970.104	36.88273
970.276	38.99053
970.448	-36.87534
970.62	32.66719
970.792	-1.05368
970.964	62.17789
971.136	-22.12611
971.308	7.37596
971.48	-7.37567
971.652	-5.26836
971.824	3.16109
971.996	28.45175
972.168	38.99053
972.339	20.02115
972.511	-26.3403
972.683	3.16109
972.855	11.59093
973.027	38.99053
973.199	-13.69743
973.37	60.06984
973.542	-11.5902
973.714	36.88273
973.886	68.5022
974.057	11.59093
974.229	-57.94356
974.401	-9.48295
974.572	41.09836
974.744	72.71852
974.915	55.85379
975.087	20.02115
975.259	53.7458
975.43	-30.55439
975.602	38.99053
975.773	47.42198
975.945	-41.08919
976.116	-22.12611
976.288	41.09836
976.459	57.9618
976.63	-17.91182
976.802	11.59093
976.973	28.45175
977.145	-28.44736
977.316	-17.91182
977.487	3.16109
977.659	13.69845
977.83	13.69845
978.001	-13.69743
978.172	17.91356
978.344	-20.01897
978.515	-22.12611
978.686	1.05369
978.857	-11.5902
979.028	36.88273
979.2	22.12877
979.371	-13.69743
979.542	30.55946
979.713	87.47635
979.884	-13.69743
980.055	49.5299
980.226	-5.26836
980.397	43.20621
980.568	72.71852
980.739	-47.40976
980.91	17.91356
981.081	3.16109
981.252	-22.12611
981.423	45.31408
981.594	32.66719
981.765	7.37596
981.936	-22.12611
982.106	62.17789
982.277	60.06984
982.448	20.02115
982.619	28.45175
982.79	-34.76838
982.96	-5.26836
983.131	-1.05368
983.302	81.15143
983.472	47.42198
983.643	-81.11567
983.814	-60.05024
983.984	15.80599
984.155	36.88273
984.326	32.66719
984.496	28.45175
984.667	-20.01897
984.837	22.12877
985.008	-13.69743
985.178	28.45175
985.349	28.45175
985.519	41.09836
985.69	-3.16104
985.86	45.31408
986.031	28.45175
986.201	-17.91182
986.371	5.26851
986.542	-26.3403
986.712	20.02115
986.882	-24.23321
987.053	79.04317
987.223	11.59093
987.393	74.82672
987.563	-26.3403
987.734	-13.69743
987.904	-72.68981
988.074	53.7458
988.244	91.69308
988.414	11.59093
988.585	-36.87534
988.755	53.7458
988.925	20.02115
989.095	-5.26836
989.265	5.26851
989.435	47.42198
989.605	28.45175
989.775	62.17789
989.945	7.37596
990.115	-1.05368
990.285	-51.62336
990.455	24.2364
990.625	1.05369
990.795	-36.87534
990.965	34.77495
991.134	-20.01897
991.304	-60.05024
991.474	-17.91182
991.644	20.02115
991.814	-11.5902
991.984	-24.23321
992.153	-53.73012
992.323	57.9618
992.493	70.61035
992.662	-7.37567
992.832	22.12877
993.002	7.37596
993.171	-20.01897
993.341	13.69845
993.511	7.37596
993.68	-5.26836
993.85	55.85379
994.019	-13.69743
994.189	-1.05368
994.358	-30.55439
994.528	7.37596
994.697	24.2364
994.867	28.45175
995.036	45.31408
995.206	45.31408
995.375	-55.83685
995.544	49.5299
995.714	20.02115
995.883	-9.48295
996.052	20.02115
996.222	-34.76838
996.391	36.88273
996.56	-64.26353
996.73	22.12877
996.899	41.09836
997.068	70.61035
997.237	-17.91182
997.406	-3.16104
997.576	15.80599
997.745	-17.91182
997.914	22.12877
998.083	64.28597
998.252	-20.01897
998.421	-60.05024
998.59	-81.11567
998.759	26.34407
998.928	5.26851
999.097	9.48343
999.266	74.82672
999.435	-106.39078
999.604	-22.12611
999.773	-5.26836
999.942	-24.23321
1000.111	-5.26836
1000.28	36.88273
1000.448	3.16109
1000.617	-43.19607
1000.786	-13.69743
1000.955	13.69845
1001.124	-28.44736
1001.292	-9.48295
1001.461	-26.3403
1001.63	28.45175
1001.798	24.2364
1001.967	-3.16104
1002.136	20.02115
1002.304	13.69845
1002.473	66.39408
1002.642	-3.16104
1002.81	70.61035
1002.979	64.28597
1003.147	-9.48295
1003.316	11.59093
1003.484	87.47635
1003.653	-49.51657
1003.821	41.09836
1003.99	-41.08919
1004.158	26.34407
1004.327	-49.51657
1004.495	45.31408
1004.663	3.16109
1004.832	45.31408
1005	53.7458
1005.168	-26.3403
1005.337	-85.32845
1005.505	62.17789
1005.673	49.5299
1005.842	38.99053
1006.01	-30.55439
1006.178	28.45175
1006.346	7.37596
1006.514	1.05369
1006.683	-70.58328
1006.851	-45.30293
1007.019	-47.40976
1007.187	3.16109
1007.355	57.9618
1007.523	45.31408
1007.691	-5.26836
1007.859	-13.69743
1008.027	-7.37567
1008.195	-30.55439
1008.363	-30.55439
1008.531	7.37596
1008.699	-30.55439
1008.867	32.66719
1009.035	32.66719
1009.203	5.26851
1009.37	-5.26836
1009.538	-47.40976
1009.706	-17.91182
1009.874	49.5299
1010.042	-34.76838
1010.209	-64.26353
1010.377	20.02115
1010.545	-62.1569
1010.713	-5.26836
1010.88	-5.26836
1011.048	-1.05368
1011.216	-76.90279
1011.383	5.26851
1011.551	-22.12611
1011.718	-1.05368
1011.886	49.5299
1012.054	22.12877
1012.221	41.09836
1012.389	-5.26836
1012.556	-45.30293
1012.724	-5.26836
1012.891	-22.12611
1013.058	11.59093
1013.226	-30.55439
1013.393	-11.5902
1013.561	20.02115
1013.728	41.09836
1013.895	-9.48295
1014.063	3.16109
1014.23	15.80599
1014.397	-26.3403
1014.565	74.82672
1014.732	-20.01897
1014.899	3.16109
1015.066	-7.37567
1015.233	-53.73012
1015.401	72.71852
1015.568	1.05369
1015.735	41.09836
1015.902	38.99053
1016.069	-22.12611
1016.236	-43.19607
1016.403	87.47635
1016.57	30.55946
1016.737	-11.5902
1016.904	-51.62336
1017.071	15.80599
1017.238	28.45175
1017.405	-13.69743
1017.572	28.45175
1017.739	13.69845
1017.906	20.02115
1018.073	74.82672
1018.24	20.02115
1018.407	7.37596
1018.573	-15.80464
1018.74	9.48343
1018.907	7.37596
1019.074	3.16109
1019.241	36.88273
1019.407	32.66719
1019.574	-70.58328
1019.741	28.45175
1019.907	57.9618
1020.074	-5.26836
1020.241	-38.98228
1020.407	-1.05368
1020.574	83.25972
1020.74	-5.26836
1020.907	45.31408
1021.073	-26.3403
1021.24	20.02115
1021.406	13.69845
1021.573	-26.3403
1021.739	20.02115
1021.906	-20.01897
1022.072	17.91356
1022.239	-32.6614
1022.405	-1.05368
1022.571	9.48343
1022.738	-28.44736
1022.904	3.16109
1023.07	62.17789
1023.237	-28.44736
1023.403	-5.26836
1023.569	57.9618
1023.735	22.12877
1023.902	-22.12611
1024.068	-49.51657
1024.234	-49.51657
1024.4	-20.01897
1024.566	-72.68981
1024.732	-28.44736
1024.898	-30.55439
1025.065	49.5299
1025.231	-28.44736
1025.397	22.12877
1025.563	20.02115
1025.729	-34.76838
1025.895	-11.5902
1026.061	49.5299
1026.227	13.69845
1026.392	28.45175
1026.558	-3.16104
1026.724	70.61035
1026.89	26.34407
1027.056	62.17789
1027.222	11.59093
1027.388	-28.44736
1027.553	13.69845
1027.719	-43.19607
1027.885	-38.98228
1028.051	-22.12611
1028.216	32.66719
1028.382	11.59093
1028.548	7.37596
1028.713	-22.12611
1028.879	-47.40976
1029.045	15.80599
1029.21	-55.83685
1029.376	-87.4348
1029.541	-22.12611
1029.707	47.42198
1029.873	112.77803
1030.038	-38.98228
1030.204	-5.26836
1030.369	7.37596
1030.534	28.45175
1030.7	7.37596
1030.865	-45.30293
1031.031	47.42198
1031.196	-11.5902
1031.361	-53.73012
1031.527	64.28597
1031.692	20.02115
1031.857	32.66719
1032.023	87.47635
1032.188	20.02115
1032.353	30.55946
1032.518	20.02115
1032.684	-5.26836
1032.849	-11.5902
1033.014	3.16109
1033.179	-30.55439
1033.344	87.47635
1033.509	-17.91182
1033.674	66.39408
1033.839	-11.5902
1034.004	5.26851
1034.17	28.45175
1034.335	-36.87534
1034.5	-20.01897
1034.664	7.37596
1034.829	-38.98228
1034.994	-1.05368
1035.159	-1.05368
1035.324	15.80599
1035.489	22.12877
1035.654	17.91356
1035.819	-28.44736
1035.984	55.85379
1036.148	-70.58328
1036.313	-49.51657
1036.478	5.26851
1036.643	26.34407
1036.807	-17.91182
1036.972	62.17789
1037.137	-24.23321
1037.301	34.77495
1037.466	36.88273
1037.631	13.69845
1037.795	36.88273
1037.96	3.16109
1038.124	30.55946
1038.289	72.71852
1038.454	13.69845
1038.618	-83.22208
1038.783	-5.26836
1038.947	-20.01897
1039.111	74.82672
1039.276	-13.69743
1039.44	-34.76838
1039.605	38.99053
1039.769	11.59093
1039.933	-24.23321
1040.098	-45.30293
1040.262	15.80599
1040.426	43.20621
1040.591	-53.73012
1040.755	20.02115
1040.919	32.66719
1041.083	-30.55439
1041.248	-47.40976
1041.412	-3.16104
1041.576	-13.69743
1041.74	76.93493
1041.904	-17.91182
1042.068	-55.83685
1042.232	32.66719
1042.397	20.02115
1042.561	-38.98228
1042.725	24.2364
1042.889	-30.55439
1043.053	-60.05024
1043.217	1.05369
1043.381	-5.26836
1043.544	-13.69743
1043.708	-74.79631
1043.872	20.02115
1044.036	3.16109
1044.2	-57.94356
1044.364	1.05369
1044.528	64.28597
1044.691	22.12877
1044.855	-5.26836
1045.019	-38.98228
1045.183	-5.26836
1045.346	3.16109
1045.51	-20.01897
1045.674	13.69845
1045.837	-47.40976
1046.001	-22.12611
1046.165	13.69845
1046.328	36.88273
1046.492	20.02115
1046.655	28.45175
1046.819	3.16109
1046.983	17.91356
1047.146	28.45175
1047.31	-24.23321
1047.473	62.17789
1047.636	-5.26836
1047.8	-55.83685
1047.963	-66.37014
1048.127	13.69845
1048.29	-9.48295
