Data from mixed_try6.1_USB4F045381__26__00310.txt Node

Date: Thu Apr 03 20:33:52 EDT 2025
User: mmckonesweet
Spectrometer: USB4F04538
Trigger mode: 4
Integration Time (sec): 2.700000E-3
Scans to average: 1
Electric dark correction enabled: true
Nonlinearity correction enabled: true
Boxcar width: 0
XAxis mode: Wavelengths
Number of Pixels in Spectrum: 3648
>>>>>Begin Spectral Data<<<<<
345.52	82.02988
345.736	82.02988
345.952	82.02988
346.168	63.05626
346.384	41.97663
346.6	-4.39031
346.816	-54.95905
347.032	-12.81942
347.248	27.22227
347.464	-21.24814
347.68	54.62413
347.896	14.57659
348.112	25.11459
348.328	-40.21131
348.544	-4.39031
348.76	20.89932
348.975	-4.39031
349.191	-17.03383
349.407	14.57659
349.623	86.24649
349.839	-21.24814
350.055	111.54801
350.27	-6.49763
350.486	16.68414
350.702	54.62413
350.918	-14.92664
351.133	41.97663
351.349	-31.78348
351.565	58.84015
351.781	52.51615
351.996	52.51615
352.212	84.13817
352.428	-35.99745
352.644	16.68414
352.859	37.76098
353.075	46.19237
353.291	41.97663
353.506	33.54542
353.722	63.05626
353.938	58.84015
354.153	86.24649
354.369	58.84015
354.584	52.51615
354.8	-42.31821
355.016	18.79172
355.231	-0.17561
355.447	18.79172
355.662	-14.92664
355.878	12.46906
356.093	67.27246
356.309	-8.60492
356.524	92.57157
356.74	33.54542
356.955	16.68414
357.171	27.22227
357.386	35.65319
357.602	84.13817
357.817	90.46319
358.033	60.94819
358.248	12.46906
358.464	-17.03383
358.679	16.68414
358.895	90.46319
359.11	10.36155
359.325	86.24649
359.541	27.22227
359.756	86.24649
359.972	29.32996
360.187	-31.78348
360.402	46.19237
360.618	75.70514
360.833	-8.60492
361.048	33.54542
361.264	25.11459
361.479	65.16435
361.694	-33.89048
361.909	35.65319
362.125	46.19237
362.34	52.51615
362.555	16.68414
362.77	41.97663
362.986	92.57157
363.201	-0.17561
363.416	-0.17561
363.631	60.94819
363.847	8.25407
364.062	-35.99745
364.277	41.97663
364.492	63.05626
364.707	41.97663
364.922	41.97663
365.138	109.43943
365.353	79.92161
365.568	79.92161
365.783	115.76524
365.998	12.46906
366.213	-46.53192
366.428	-44.42508
366.643	27.22227
366.858	56.73213
367.073	23.00695
367.288	48.30027
367.503	-8.60492
367.718	58.84015
367.933	35.65319
368.148	14.57659
368.363	33.54542
368.578	58.84015
368.793	-0.17561
369.008	25.11459
369.223	41.97663
369.438	33.54542
369.653	109.43943
369.868	84.13817
370.083	39.86879
370.298	18.79172
370.513	-0.17561
370.728	-0.17561
370.943	50.4082
371.157	29.32996
371.372	124.19996
371.587	67.27246
371.802	29.32996
372.017	6.14661
372.232	84.13817
372.446	23.00695
372.661	46.19237
372.876	46.19237
373.091	50.4082
373.306	-8.60492
373.52	31.43768
373.735	-33.89048
373.95	79.92161
374.165	48.30027
374.379	31.43768
374.594	46.19237
374.809	33.54542
375.023	37.76098
375.238	67.27246
375.453	41.97663
375.667	-8.60492
375.882	33.54542
376.097	35.65319
376.311	39.86879
376.526	56.73213
376.741	-33.89048
376.955	18.79172
377.17	71.48875
377.384	6.14661
377.599	71.48875
377.813	58.84015
378.028	46.19237
378.242	50.4082
378.457	69.38059
378.672	69.38059
378.886	-6.49763
379.101	-10.71218
379.315	29.32996
379.53	12.46906
379.744	25.11459
379.958	94.67998
380.173	46.19237
380.387	101.00532
380.602	67.27246
380.816	86.24649
381.031	109.43943
381.245	84.13817
381.459	-31.78348
381.674	52.51615
381.888	16.68414
382.103	-12.81942
382.317	58.84015
382.531	107.33087
382.746	54.62413
382.96	-46.53192
383.174	56.73213
383.388	126.30869
383.603	67.27246
383.817	-27.56942
384.031	-0.17561
384.246	33.54542
384.46	1.93177
384.674	75.70514
384.888	-14.92664
385.103	117.87389
385.317	8.25407
385.531	27.22227
385.745	-33.89048
385.959	60.94819
386.174	16.68414
386.388	101.00532
386.602	29.32996
386.816	86.24649
387.03	-0.17561
387.244	-29.67646
387.458	14.57659
387.672	52.51615
387.887	84.13817
388.101	16.68414
388.315	84.13817
388.529	12.46906
388.743	90.46319
388.957	122.09124
389.171	103.11382
389.385	18.79172
389.599	44.08449
389.813	-14.92664
390.027	46.19237
390.241	16.68414
390.455	10.36155
390.669	58.84015
390.883	16.68414
391.097	10.36155
391.311	58.84015
391.525	117.87389
391.738	50.4082
391.952	20.89932
392.166	50.4082
392.38	58.84015
392.594	31.43768
392.808	-17.03383
393.022	35.65319
393.236	10.36155
393.449	-8.60492
393.663	50.4082
393.877	29.32996
394.091	35.65319
394.305	52.51615
394.518	109.43943
394.732	41.97663
394.946	46.19237
395.16	94.67998
395.373	54.62413
395.587	39.86879
395.801	-25.46235
396.015	58.84015
396.228	-0.17561
396.442	94.67998
396.656	75.70514
396.869	-6.49763
397.083	58.84015
397.297	31.43768
397.51	8.25407
397.724	-33.89048
397.938	33.54542
398.151	71.48875
398.365	35.65319
398.578	12.46906
398.792	128.41744
399.005	39.86879
399.219	56.73213
399.433	35.65319
399.646	12.46906
399.86	39.86879
400.073	14.57659
400.287	77.81336
400.5	8.25407
400.714	67.27246
400.927	58.84015
401.141	-14.92664
401.354	115.76524
401.567	84.13817
401.781	25.11459
401.994	50.4082
402.208	16.68414
402.421	1.93177
402.635	35.65319
402.848	10.36155
403.061	82.02988
403.275	41.97663
403.488	-8.60492
403.701	109.43943
403.915	105.22233
404.128	71.48875
404.341	44.08449
404.555	50.4082
404.768	101.00532
404.981	-12.81942
405.195	48.30027
405.408	35.65319
405.621	84.13817
405.834	63.05626
406.048	-0.17561
406.261	31.43768
406.474	33.54542
406.687	18.79172
406.9	58.84015
407.114	27.22227
407.327	10.36155
407.54	75.70514
407.753	35.65319
407.966	16.68414
408.179	50.4082
408.392	-21.24814
408.605	-38.10439
408.819	25.11459
409.032	-0.17561
409.245	-14.92664
409.458	-21.24814
409.671	20.89932
409.884	-8.60492
410.097	35.65319
410.31	20.89932
410.523	-23.35526
410.736	67.27246
410.949	25.11459
411.162	46.19237
411.375	31.43768
411.588	92.57157
411.801	41.97663
412.014	46.19237
412.227	-42.31821
412.44	41.97663
412.653	63.05626
412.865	75.70514
413.078	-2.28298
413.291	-42.31821
413.504	48.30027
413.717	54.62413
413.93	82.02988
414.143	46.19237
414.356	33.54542
414.568	44.08449
414.781	8.25407
414.994	44.08449
415.207	-8.60492
415.42	-54.95905
415.632	109.43943
415.845	75.70514
416.058	-0.17561
416.271	73.59693
416.483	14.57659
416.696	27.22227
416.909	35.65319
417.121	90.46319
417.334	105.22233
417.547	92.57157
417.759	37.76098
417.972	37.76098
418.185	-0.17561
418.397	71.48875
418.61	23.00695
418.823	58.84015
419.035	63.05626
419.248	126.30869
419.46	48.30027
419.673	33.54542
419.885	60.94819
420.098	109.43943
420.311	27.22227
420.523	56.73213
420.736	54.62413
420.948	-17.03383
421.161	134.74384
421.373	130.52622
421.586	96.7884
421.798	35.65319
422.01	10.36155
422.223	84.13817
422.435	27.22227
422.648	-23.35526
422.86	126.30869
423.073	-6.49763
423.285	79.92161
423.497	41.97663
423.71	37.76098
423.922	31.43768
424.134	82.02988
424.347	147.39721
424.559	-17.03383
424.771	60.94819
424.984	67.27246
425.196	8.25407
425.408	56.73213
425.621	75.70514
425.833	84.13817
426.045	-50.74553
426.257	41.97663
426.47	10.36155
426.682	50.4082
426.894	69.38059
427.106	8.25407
427.318	29.32996
427.531	31.43768
427.743	-42.31821
427.955	46.19237
428.167	27.22227
428.379	-23.35526
428.591	69.38059
428.804	-14.92664
429.016	33.54542
429.228	-4.39031
429.44	-21.24814
429.652	33.54542
429.864	33.54542
430.076	77.81336
430.288	27.22227
430.5	54.62413
430.712	8.25407
430.924	37.76098
431.136	-6.49763
431.348	54.62413
431.56	46.19237
431.772	18.79172
431.984	18.79172
432.196	-2.28298
432.408	33.54542
432.62	58.84015
432.832	134.74384
433.044	-14.92664
433.256	109.43943
433.468	86.24649
433.679	71.48875
433.891	37.76098
434.103	44.08449
434.315	46.19237
434.527	20.89932
434.739	-25.46235
434.95	29.32996
435.162	153.72418
435.374	12.46906
435.586	98.89685
435.798	122.09124
436.009	1.93177
436.221	79.92161
436.433	58.84015
436.645	67.27246
436.856	115.76524
437.068	37.76098
437.28	44.08449
437.491	-17.03383
437.703	58.84015
437.915	88.35483
438.126	50.4082
438.338	60.94819
438.55	75.70514
438.761	8.25407
438.973	50.4082
439.184	69.38059
439.396	27.22227
439.608	60.94819
439.819	69.38059
440.031	67.27246
440.242	-31.78348
440.454	44.08449
440.665	58.84015
440.877	65.16435
441.088	44.08449
441.3	52.51615
441.511	29.32996
441.723	75.70514
441.934	73.59693
442.146	46.19237
442.357	54.62413
442.569	8.25407
442.78	101.00532
442.991	67.27246
443.203	46.19237
443.414	25.11459
443.626	18.79172
443.837	33.54542
444.048	117.87389
444.26	56.73213
444.471	41.97663
444.682	58.84015
444.894	92.57157
445.105	35.65319
445.316	71.48875
445.528	18.79172
445.739	12.46906
445.95	79.92161
446.161	-23.35526
446.373	79.92161
446.584	58.84015
446.795	67.27246
447.006	16.68414
447.217	75.70514
447.429	16.68414
447.64	44.08449
447.851	8.25407
448.062	130.52622
448.273	52.51615
448.484	50.4082
448.695	-27.56942
448.907	103.11382
449.118	109.43943
449.329	-31.78348
449.54	33.54542
449.751	117.87389
449.962	56.73213
450.173	122.09124
450.384	16.68414
450.595	1.93177
450.806	8.25407
451.017	33.54542
451.228	56.73213
451.439	113.65661
451.65	35.65319
451.861	86.24649
452.072	46.19237
452.283	-12.81942
452.494	79.92161
452.705	4.03918
452.915	31.43768
453.126	92.57157
453.337	6.14661
453.548	52.51615
453.759	50.4082
453.97	41.97663
454.181	73.59693
454.391	119.98255
454.602	-4.39031
454.813	-6.49763
455.024	20.89932
455.235	103.11382
455.445	71.48875
455.656	-2.28298
455.867	12.46906
456.078	77.81336
456.288	-0.17561
456.499	96.7884
456.71	20.89932
456.921	8.25407
457.131	-23.35526
457.342	96.7884
457.553	60.94819
457.763	20.89932
457.974	20.89932
458.184	41.97663
458.395	-0.17561
458.606	39.86879
458.816	41.97663
459.027	41.97663
459.237	92.57157
459.448	63.05626
459.659	67.27246
459.869	54.62413
460.08	60.94819
460.29	27.22227
460.501	41.97663
460.711	84.13817
460.922	-6.49763
461.132	4.03918
461.343	77.81336
461.553	67.27246
461.764	84.13817
461.974	8.25407
462.184	75.70514
462.395	71.48875
462.605	33.54542
462.816	94.67998
463.026	46.19237
463.236	67.27246
463.447	71.48875
463.657	143.17933
463.867	46.19237
464.078	130.52622
464.288	73.59693
464.498	67.27246
464.709	60.94819
464.919	155.83321
465.129	37.76098
465.339	109.43943
465.55	50.4082
465.76	109.43943
465.97	75.70514
466.18	60.94819
466.391	71.48875
466.601	4.03918
466.811	50.4082
467.021	134.74384
467.231	75.70514
467.441	84.13817
467.651	134.74384
467.862	92.57157
468.072	33.54542
468.282	31.43768
468.492	18.79172
468.702	145.28826
468.912	58.84015
469.122	136.85268
469.332	67.27246
469.542	126.30869
469.752	103.11382
469.962	77.81336
470.172	138.96154
470.382	134.74384
470.592	58.84015
470.802	-12.81942
471.012	119.98255
471.222	170.59702
471.432	41.97663
471.642	35.65319
471.852	41.97663
472.062	35.65319
472.272	50.4082
472.482	77.81336
472.691	113.65661
472.901	128.41744
473.111	52.51615
473.321	84.13817
473.531	88.35483
473.741	138.96154
473.95	75.70514
474.16	52.51615
474.37	151.61516
474.58	185.36184
474.79	147.39721
474.999	90.46319
475.209	96.7884
475.419	69.38059
475.628	136.85268
475.838	151.61516
476.048	134.74384
476.258	134.74384
476.467	138.96154
476.677	115.76524
476.886	20.89932
477.096	67.27246
477.306	75.70514
477.515	151.61516
477.725	136.85268
477.935	92.57157
478.144	134.74384
478.354	168.48784
478.563	79.92161
478.773	151.61516
478.982	160.05133
479.192	221.22341
479.401	153.72418
479.611	145.28826
479.82	206.45618
480.03	117.87389
480.239	164.26954
480.449	155.83321
480.658	208.56572
480.868	212.78487
481.077	164.26954
481.287	195.90876
481.496	162.16043
481.705	126.30869
481.915	155.83321
482.124	153.72418
482.333	204.34665
482.543	179.03394
482.752	198.0182
482.961	214.89448
483.171	267.64093
483.38	157.94226
483.589	229.66226
483.799	227.55252
484.008	185.36184
484.217	233.8818
484.426	231.77202
484.636	252.87071
484.845	288.74285
485.054	269.75104
485.263	235.99161
485.472	164.26954
485.682	248.65082
485.891	263.42077
486.1	240.21127
486.309	259.20069
486.518	263.42077
486.727	307.73615
486.936	246.5409
487.146	254.98069
487.355	210.67529
487.564	282.41208
487.773	396.39047
487.982	409.05781
488.191	360.50292
488.4	314.06758
488.609	409.05781
488.818	413.28038
489.027	421.72573
489.236	402.72406
489.445	461.84457
489.654	326.73092
489.863	356.28118
490.072	324.62032
490.281	468.17963
490.49	292.96345
490.698	480.85017
490.907	425.9485
491.116	404.83529
491.325	430.17133
491.534	373.16856
491.743	432.28277
491.952	539.98631
492.16	508.30483
492.369	514.64087
492.578	432.28277
492.787	506.19285
492.996	504.08088
493.204	497.74505
493.413	605.47113
493.622	584.34561
493.831	480.85017
494.039	637.1618
494.248	613.9217
494.457	630.82344
494.665	565.33375
494.874	683.64637
495.083	533.64976
495.291	588.57061
495.5	740.70313
495.709	827.35926
495.917	666.74223
496.126	721.68333
496.335	658.29044
496.543	797.76753
496.752	761.83724
496.96	679.42027
497.169	717.45683
497.377	702.6644
497.586	656.17752
497.794	856.95276
498.003	821.01802
498.211	859.06665
498.42	795.65391
498.628	840.04198
498.837	869.63621
499.045	846.38345
499.254	763.95071
499.462	945.743
499.671	886.54795
499.879	882.31996
500.087	880.20598
500.296	937.28621
500.504	916.14472
500.713	871.75015
500.921	1043.00395
501.129	992.2574
501.338	895.00401
501.546	1150.85078
501.754	1043.00395
501.962	888.66195
502.171	990.14304
502.379	1091.63916
502.587	975.34269
502.795	1047.23299
503.004	956.31416
503.212	1174.11341
503.42	1023.97359
503.628	1102.2124
503.837	1055.69112
504.045	1142.39176
504.253	1148.73602
504.461	1165.65421
504.669	1207.95077
504.877	1267.16813
505.085	1148.73602
505.294	1191.03198
505.502	1237.55917
505.71	1233.32936
505.918	1199.49135
506.126	1311.58247
506.334	1233.32936
506.542	1324.27245
506.75	1309.46748
506.958	1334.84747
507.166	1372.91786
507.374	1497.70566
507.582	1360.22769
507.79	1419.44879
507.998	1343.30752
508.206	1567.50171
508.414	1216.41025
508.622	1518.85609
508.83	1463.86487
509.037	1463.86487
509.245	1372.91786
509.453	1588.65175
509.661	1394.06824
509.869	1618.26152
510.077	1493.47557
510.285	1683.82443
510.492	1565.38669
510.7	1770.53228
510.908	1527.31624
511.116	1580.19175
511.324	1664.79029
511.531	1639.4111
511.739	1658.44552
511.947	1709.20292
512.155	1823.3998
512.362	1800.13841
512.57	1597.11172
512.778	1759.95847
512.985	1592.88174
513.193	1709.20292
513.401	1567.50171
513.608	1827.62908
513.816	1681.70954
514.024	1810.71184
514.231	1673.24993
514.439	1893.18053
514.646	1808.59716
514.854	1933.35475
515.061	1783.22072
515.269	1872.03543
515.477	1859.34812
515.684	2003.126
515.892	1903.75289
516.099	1977.75541
516.307	1990.44082
516.514	2123.62285
516.722	2113.0539
516.929	2058.09234
517.136	1969.29835
517.344	2146.87385
517.551	1971.41263
517.759	2047.52225
517.966	1994.66924
518.173	1958.72688
518.381	2062.32033
518.588	2218.73435
518.796	2231.4146
519.003	2235.64127
519.21	2123.62285
519.418	2256.77413
519.625	2058.09234
519.832	2210.28068
520.039	2079.23199
520.247	2332.84475
520.454	2117.2815
520.661	2514.51598
520.868	2159.55581
521.076	2442.70191
521.283	2193.37293
521.49	2362.42439
521.697	2468.04951
521.904	2476.49836
522.112	2189.14591
522.319	2493.39553
522.526	2468.04951
522.733	2497.61971
522.94	2341.29627
523.147	2605.32069
523.354	2512.40399
523.561	2700.32472
523.768	2531.41152
523.975	2493.39553
524.183	2381.43884
524.39	2603.2092
524.597	2408.90269
524.804	2643.32535
525.011	2596.87467
525.218	2653.88149
525.425	2552.52991
525.632	2712.98998
525.838	2506.06794
526.045	2729.87626
526.252	2742.54041
526.459	2761.53575
526.666	2704.54653
526.873	2873.37471
527.08	2763.64628
527.287	2940.88086
527.494	2750.98292
527.701	3046.32879
527.907	2791.08188
528.114	2936.66216
528.321	2902.91048
528.528	3082.17235
528.735	2759.42521
528.941	3023.1335
529.148	2873.37471
529.355	3021.02475
529.562	2932.44341
529.768	3170.70742
529.975	2907.12964
530.182	3153.84578
530.388	2940.88086
530.595	3349.79657
530.802	3058.97997
531.008	3193.89046
531.215	3261.32068
531.422	3193.89046
531.628	3126.44342
531.835	3362.4335
532.042	3240.25057
532.248	3231.82206
532.455	3200.21277
532.661	3387.70548
532.868	3244.46472
533.074	3434.03084
533.281	3261.32068
533.487	3505.60755
533.694	3356.11511
533.9	3547.70168
534.107	3375.0698
534.313	3507.71243
534.52	3398.23472
534.726	3480.34756
534.933	3421.3975
535.139	3716.00354
535.345	3463.50613
535.552	3501.39773
535.758	3507.71243
535.965	3673.93944
536.171	3442.45271
536.377	3657.11165
536.584	3471.92699
536.79	3812.72158
536.996	3617.14081
537.203	3690.766
537.409	3631.8677
537.615	3610.829
537.821	3692.86923
538.028	3924.10584
538.234	3673.93944
538.44	3917.80257
538.646	3898.89168
538.853	3915.70144
539.059	3652.90452
539.265	3978.72653
539.471	3697.07564
539.677	4041.73327
539.883	3816.92578
540.09	3926.20689
540.296	3867.36992
540.502	4096.32409
540.708	3869.47151
540.914	4123.61423
541.12	4142.50533
541.326	4171.88811
541.532	4119.41598
541.738	4220.15083
541.944	4066.93077
542.15	4373.25763
542.356	3863.16668
542.562	4194.97168
542.768	4165.59215
542.974	4241.13112
543.18	4052.23259
543.386	4173.98672
543.592	4115.21764
543.798	4329.22497
544.004	4069.03043
544.21	4356.48441
544.415	4188.67641
544.621	4505.29793
544.827	4243.22903
545.033	4530.43857
545.239	4173.98672
545.445	4649.81289
545.651	4404.70367
545.856	4475.96317
546.062	4513.6785
546.268	4794.22109
546.474	4509.48826
546.679	4633.06298
546.885	4463.38981
547.091	4461.29417
547.297	4341.8067
547.502	4697.9609
547.708	4538.81807
547.914	4727.26254
548.119	4557.67066
548.325	4610.0295
548.531	4471.77214
548.736	4584.899
548.942	4708.42628
549.147	4882.06885
549.353	4697.9609
549.559	4744.00435
549.764	4706.33325
549.97	4737.72635
550.175	4735.63363
550.381	4898.79719
550.586	4637.25059
550.792	4982.41686
550.997	4739.81904
551.203	5017.94407
551.408	5001.22621
551.614	4911.34249
551.819	4871.6129
552.025	5045.10743
552.23	4796.31317
552.435	5224.70478
552.641	5049.28606
552.846	5107.77718
553.052	5040.9287
553.257	5208.00531
553.462	5026.30244
553.668	5226.79211
553.873	5026.30244
554.078	5431.23681
554.283	4967.78607
554.489	5226.79211
554.694	5235.14119
554.899	5249.75118
555.105	5247.66411
555.31	5199.65501
555.515	5178.77765
555.72	5293.57429
555.925	5247.66411
556.131	5391.61717
556.336	5341.55919
556.541	5491.69253
556.746	5356.16083
556.951	5429.15177
557.156	5341.55919
557.361	5500.0297
557.567	5316.52514
557.772	5487.5238
557.977	5374.93268
558.182	5335.30099
558.387	5483.35498
558.592	5620.87627
558.797	5312.35247
559.002	5550.04479
559.207	5554.2121
559.412	5647.95169
559.617	5516.7029
559.822	5693.76256
560.027	5416.64108
560.232	5643.7865
560.437	5439.5767
560.642	6057.76041
560.847	5737.48045
561.051	5783.26899
561.256	5495.86116
561.461	5816.56257
561.666	5558.37932
561.871	5910.16837
562.076	5652.11679
562.281	5870.65174
562.485	5841.52878
562.69	5964.22994
562.895	5872.73178
563.1	5912.24795
563.305	5710.41822
563.509	5856.09084
563.714	5785.35001
563.919	5937.20115
564.123	5679.18761
564.328	5804.07818
564.533	5641.70387
564.737	5716.6637
564.942	5887.29136
565.147	6132.55046
565.351	5926.80439
565.556	5943.43892
565.761	5966.30892
565.965	6273.73752
566.17	6028.66715
566.374	6201.08126
566.579	6182.39357
566.784	5970.46679
566.988	6012.04036
567.193	6101.39164
567.397	5939.28043
567.602	6323.54238
567.806	6165.78071
568.011	6317.31751
568.215	6232.22317
568.42	6122.16478
568.624	6203.15755
568.828	6250.90579
569.033	6036.97998
569.237	6309.01736
569.442	6325.61729
569.646	6219.76704
569.85	6103.46906
570.055	6265.4354
570.259	6140.85859
570.463	6425.18555
570.668	6294.49118
570.872	6450.06923
571.076	6385.77954
571.281	6684.2269
571.485	6242.60263
571.689	6559.93216
571.893	6329.76704
572.098	6468.7298
572.302	6196.9286
572.506	6524.7002
572.71	6298.64163
572.914	6582.72574
573.119	6373.33379
573.323	6646.94718
573.527	6673.87217
573.731	6692.51026
573.935	6634.51896
574.139	6709.0759
574.343	6516.40935
574.547	6421.03795
574.751	6582.72574
574.955	6853.96274
575.159	6615.87506
575.364	6630.37603
575.568	6713.21708
575.772	6862.23861
575.976	6609.66001
576.18	6713.21708
576.383	6959.45294
576.587	6930.50071
576.791	6564.07665
576.995	6913.95459
577.199	6754.62383
577.403	7033.88125
577.607	6947.04539
577.811	7000.8056
578.015	6880.858
578.219	7035.94828
578.422	6738.06223
578.626	7159.92955
578.83	7004.94037
579.034	6971.85969
579.238	6845.6865
579.442	7159.92955
579.645	7176.45433
579.849	7126.87574
580.053	6969.79195
580.257	7091.74981
580.46	7153.7324
580.664	7360.19709
580.868	7135.13972
581.071	7164.06088
581.275	6947.04539
581.479	7438.5962
581.682	7062.81772
581.886	7054.55061
582.09	7112.4129
582.293	7325.11361
582.497	7019.41136
582.7	7329.24141
582.904	7335.43294
583.107	7354.00635
583.311	7184.71618
583.515	7712.74821
583.718	7219.8251
583.922	7382.8948
584.125	7403.5268
584.329	7589.1174
584.532	7358.13353
584.735	7764.2386
584.939	7401.46369
585.142	7556.13625
585.346	7558.19773
585.549	7638.57889
585.753	7453.03472
585.956	7673.60671
586.159	7428.28232
586.363	7667.42577
586.566	7613.84968
586.769	7582.93386
586.973	7440.65891
587.176	7576.75011
587.379	7698.32854
587.582	7729.22656
587.786	7704.50853
587.989	7848.65454
588.192	7685.96801
588.395	7883.64602
588.599	7793.0675
588.802	7838.36179
589.005	7624.15389
589.208	8231.18198
589.411	7953.61111
589.615	7821.8923
589.818	7799.24459
590.021	7998.87
590.224	7953.61111
590.427	8066.73987
590.63	7817.77472
590.833	8183.91796
591.036	8002.98396
591.239	8206.5238
591.442	7749.82261
591.645	8218.85325
591.848	7951.55365
592.051	8329.78636
592.254	8192.13854
592.457	8037.94929
592.66	7986.52765
592.863	8081.13368
593.066	7949.49617
593.269	8188.02829
593.472	8013.26849
593.675	8444.76807
593.878	8259.94627
594.081	8247.61919
594.284	8099.63855
594.486	8214.74351
594.689	8144.86582
594.892	8377.01833
595.095	8383.17827
595.298	8528.91292
595.5	8247.61919
595.703	8502.23631
595.906	8288.7067
596.109	8524.80903
596.311	8313.35543
596.514	8617.12819
596.717	8290.76087
596.92	8588.41076
597.122	8448.87344
597.325	8537.12046
597.528	8389.33803
597.73	8571.99914
597.933	8323.62491
598.136	8615.07707
598.338	8296.92326
598.541	8489.92295
598.743	8682.75432
598.946	8822.1472
599.148	8658.14675
599.351	8727.86128
599.554	8600.71868
599.756	8838.54083
599.959	8602.76993
600.161	8690.95625
600.363	8518.65306
600.566	8530.96483
600.768	8606.87239
600.971	8717.61048
601.173	8637.6384
601.376	8758.61093
601.578	8826.24571
601.78	8904.10382
601.983	8651.99444
602.185	8854.9333
602.388	8514.54899
602.59	8877.47107
602.792	8748.36151
602.995	8809.85122
603.197	9000.36642
603.399	9090.44944
603.601	9166.17517
603.804	8895.90945
604.006	8988.07975
604.208	8945.07141
604.41	8813.94995
604.613	9000.36642
604.815	8840.58995
605.017	9145.71107
605.219	8598.6674
605.421	8805.75241
605.623	8758.61093
605.826	9280.74282
606.028	8932.78188
606.23	9061.79031
606.432	9082.26147
606.634	9280.74282
606.836	8834.44253
607.038	9192.77596
607.24	8760.66076
607.442	9321.64711
607.644	9151.85048
607.846	9141.61805
608.048	8813.94995
608.25	9200.96023
608.452	9237.78615
608.654	9061.79031
608.856	9186.63757
609.058	9329.82717
609.26	9237.78615
609.462	9248.0146
609.664	9380.94657
609.866	9481.11101
610.067	9325.73717
610.269	9063.83751
610.471	9166.17517
610.673	9235.7404
610.875	9329.82717
611.077	9534.2438
611.278	9346.18649
611.48	9299.15057
611.682	9464.76029
611.884	9346.18649
612.085	9178.45281
612.287	9697.66246
612.489	9215.28207
612.69	9530.15704
612.892	9358.4553
613.094	9286.87889
613.295	9112.96495
613.497	9419.79046
613.699	9231.64887
613.9	9493.37338
614.102	9264.37925
614.304	9460.67244
614.505	9252.10586
614.707	9430.01157
614.908	9110.91817
615.11	9413.65761
615.311	9374.81278
615.513	9452.49657
615.714	9207.09827
615.916	9493.37338
616.117	9137.52495
616.319	9697.66246
616.52	9231.64887
616.722	9411.61329
616.923	9620.05105
617.124	9389.12472
617.326	9260.28818
617.527	9693.5782
617.729	9182.54522
617.93	9489.28599
618.131	9452.49657
618.333	9477.02343
618.534	9344.14164
618.735	9534.2438
618.937	9313.46678
619.138	9613.92288
619.339	9241.87758
619.54	9519.93988
619.742	9571.02174
619.943	9691.53605
620.144	9505.63518
620.345	9822.20297
620.546	9403.43586
620.748	9526.07023
620.949	9568.97865
621.15	9807.91429
621.351	9323.69215
621.552	9550.59018
621.753	9399.34704
621.954	9432.05574
622.155	9378.90199
622.356	9624.13642
622.558	9519.93988
622.759	9852.8191
622.96	9460.67244
623.161	9869.14634
623.362	9834.44982
623.563	9887.51335
623.764	9891.59474
623.965	10020.12881
624.166	9550.59018
624.366	9844.65513
624.567	9491.3297
624.768	9566.93555
624.969	9660.90195
625.17	9885.47263
625.371	9816.07934
625.572	9854.86006
625.773	9789.54205
625.973	9960.96949
626.174	9615.96562
626.375	9660.90195
626.576	9750.7522
626.777	9885.47263
626.977	9895.67608
627.178	10193.45809
627.379	9969.13012
627.58	9883.43189
627.78	9521.98334
627.981	9754.8356
628.182	9632.30697
628.382	10164.91668
628.583	9914.04136
628.784	9740.54343
628.984	9546.50368
629.185	9973.21034
629.386	9673.15601
629.586	10024.20832
629.787	9789.54205
629.987	10191.41951
630.188	9836.49091
630.388	10016.04925
630.589	9901.79797
630.79	10091.51198
630.99	9552.63341
631.191	9895.67608
631.391	9838.53199
631.591	10130.2556
631.792	9971.17024
631.992	10105.78653
632.193	10036.4465
632.393	10268.87604
632.594	10011.96962
632.794	9869.14634
632.994	9844.65513
633.195	10024.20832
633.395	9873.228
633.595	10289.25609
633.796	9916.08188
633.996	10311.67259
634.196	10113.94311
634.397	10189.38091
634.597	9889.55405
634.797	10113.94311
634.997	10040.52578
635.198	10240.34171
635.398	9999.73041
635.598	10215.88159
635.798	10134.33358
635.998	10356.50074
636.199	10138.41151
636.399	10370.7629
636.599	10283.14222
636.799	10448.17486
636.999	10058.88183
637.199	10389.09902
637.399	10083.35478
637.599	10266.83796
637.799	10040.52578
637.999	10175.11035
638.199	10101.70816
638.399	10497.057
638.599	10132.2946
638.799	10399.28529
638.999	10299.44561
639.199	10521.49531
639.399	10385.02442
639.599	10710.83122
639.799	10295.36984
639.999	10653.83807
640.199	10403.35971
640.399	10582.58312
640.599	9926.28423
640.799	10928.54072
640.998	10411.50839
641.198	10615.15869
641.398	10344.27552
641.598	10505.20331
641.798	10305.55916
641.997	10678.26487
642.197	10523.53175
642.397	10415.58265
642.597	10592.76333
642.796	10635.51681
642.996	10409.47124
643.196	10737.28911
643.395	10450.21177
643.595	10861.41089
643.795	10531.6774
643.994	10737.28911
644.194	10537.7865
644.394	10639.58829
644.593	10602.94323
644.793	10735.25396
644.992	10643.65972
645.192	10865.47972
645.392	10751.53482
645.591	10727.11324
645.791	10668.08725
645.99	10674.19386
646.19	10525.56818
646.389	10670.1228
646.589	10448.17486
646.788	10820.72004
646.987	10696.58383
647.187	10977.35464
647.386	10716.93707
647.586	11046.49669
647.785	10782.05939
647.984	10865.47972
648.184	10822.75469
648.383	10810.54659
648.582	10533.71378
648.782	10712.86652
648.981	10621.26626
649.18	10574.43873
649.38	10391.1363
649.579	11038.363
649.778	10735.25396
649.977	11030.22912
650.177	10869.5485
650.376	10865.47972
650.575	10834.96236
650.774	11024.1286
650.973	10769.84989
651.173	10615.15869
651.372	10812.58131
651.571	11109.52693
651.77	10666.05169
651.969	10765.77996
652.168	10676.22937
652.367	10765.77996
652.566	10839.0315
652.765	10743.39449
652.964	10688.44219
653.163	10562.22178
653.362	10696.58383
653.561	10641.62401
653.76	10828.85858
653.959	10965.15177
654.158	10881.75458
654.357	10989.55711
654.556	10973.28706
654.755	11160.35023
654.954	10887.85746
655.153	11213.19945
655.352	11038.363
655.551	11036.32954
655.749	11087.16256
655.948	11081.06295
656.147	10900.06292
656.346	11259.9448
656.545	11046.49669
656.743	11042.42987
656.942	11109.52693
657.141	11046.49669
657.34	10863.44531
657.538	11123.75813
657.737	11146.12038
657.936	11430.62142
658.135	11050.56348
658.333	11249.78324
658.532	10873.61724
658.731	11237.58901
658.929	10904.13131
659.128	11131.89001
659.326	10969.21943
659.525	10926.50666
659.724	10977.35464
659.922	11119.69213
660.121	11003.79282
660.319	11178.645
660.518	11154.25179
660.716	11107.49386
660.915	10991.59082
661.113	11249.78324
661.312	11129.85705
661.51	11375.76874
661.709	11343.26006
661.907	11247.75089
662.105	11280.26717
662.304	11345.29193
662.502	10912.26796
662.701	11280.26717
662.899	11083.09617
663.097	11302.6206
663.296	11020.06153
663.494	11302.6206
663.692	10995.65819
663.891	11164.41581
664.089	10995.65819
664.287	11107.49386
664.485	10973.28706
664.684	11294.49222
664.882	11146.12038
665.08	11229.45932
665.278	11327.00476
665.476	11304.65267
665.675	11255.88021
665.873	11335.13249
666.071	11367.64181
666.269	11469.21719
666.467	11278.23498
666.665	11493.59169
666.863	11333.10057
667.061	11318.87687
667.259	11018.02798
667.457	11324.9728
667.655	11109.52693
667.853	11497.65397
668.051	11156.28461
668.249	11229.45932
668.447	11060.73024
668.645	11247.75089
668.843	11343.26006
669.041	11410.30645
669.239	11066.83017
669.437	11329.03671
669.635	11410.30645
669.833	11294.49222
670.031	11081.06295
670.229	11231.49176
670.426	11286.36368
670.624	11394.05377
670.822	11089.19573
671.02	11178.645
671.218	11266.04162
671.415	11306.68473
671.613	11182.71038
671.811	11345.29193
672.009	11231.49176
672.206	11253.84789
672.404	10981.42217
672.602	11113.59304
672.799	11107.49386
672.997	11400.14859
673.195	10834.96236
673.392	11436.71572
673.59	11255.88021
673.788	11264.00936
673.985	10747.46468
674.183	11278.23498
674.38	11142.05461
674.578	11261.97709
674.775	11127.82409
674.973	11150.18611
675.17	11099.36147
675.368	11290.42797
675.565	11058.69691
675.763	11166.44858
675.96	11379.83215
676.158	11339.19629
676.355	11198.97151
676.553	11554.52194
676.75	11148.15325
676.947	11503.74732
677.145	11117.65911
677.342	11517.9648
677.539	11410.30645
677.737	11587.01463
677.934	11225.39442
678.131	11239.62141
678.329	11335.13249
678.526	11135.95588
678.723	11180.6777
678.92	11306.68473
679.118	11188.80839
679.315	11213.19945
679.512	10865.47972
679.709	11079.02973
679.906	10904.13131
680.104	11123.75813
680.301	11042.42987
680.498	10930.57476
680.695	10898.0287
680.892	11070.89673
681.089	11174.57957
681.286	11209.13438
681.483	10771.88483
681.68	11176.61229
681.877	10950.91457
682.075	11201.00411
682.272	10887.85746
682.469	11113.59304
682.665	11225.39442
682.862	11201.00411
683.059	11282.29935
683.256	11194.90629
683.453	10948.88064
683.65	11172.54684
683.847	11097.32834
684.044	10959.05018
684.241	10889.89173
684.438	11036.32954
684.635	10708.79592
684.831	11013.96085
685.028	10818.68537
685.225	11302.6206
685.422	10822.75469
685.619	11249.78324
685.815	10651.80242
686.012	11158.31743
686.209	10645.69541
686.405	10995.65819
686.602	10824.78933
686.799	11241.65379
686.996	11040.39644
687.192	10777.98961
687.389	10564.25797
687.586	10912.26796
687.782	10798.33808
687.979	11231.49176
688.175	11009.89367
688.372	11079.02973
688.568	10725.07803
688.765	11046.49669
688.962	10790.19883
689.158	10749.49976
689.355	10810.54659
689.551	10847.16962
689.748	10895.99448
689.944	10922.43852
690.14	10808.51187
690.337	10977.35464
690.533	10839.0315
690.73	10944.81274
690.926	10537.7865
691.123	10725.07803
691.319	10716.93707
691.515	10794.26848
691.712	10749.49976
691.908	10863.44531
692.104	10659.94494
692.301	10680.30036
692.497	10661.98053
692.693	10908.19966
692.889	10702.68993
693.086	10798.33808
693.282	10802.40763
693.478	10824.78933
693.674	10692.51303
693.87	11194.90629
694.067	10802.40763
694.263	10948.88064
694.459	10668.08725
694.655	10924.4726
694.851	10621.26626
695.047	10704.72527
695.243	10666.05169
695.439	10702.68993
695.635	10627.37371
695.831	10721.00757
696.027	10497.057
696.224	10511.3129
696.42	10657.90933
696.615	10898.0287
696.811	10678.26487
697.007	10739.32425
697.203	10830.89319
697.399	10912.26796
697.595	10889.89173
697.791	10564.25797
697.987	10490.94714
698.183	10676.22937
698.379	10700.65457
698.575	10731.18362
698.77	10562.22178
698.966	10857.34201
699.162	10661.98053
699.358	10727.11324
699.554	10187.3423
699.749	11125.79111
699.945	10749.49976
700.141	10664.01612
700.337	10501.13018
700.532	10629.40951
700.728	10374.83769
700.924	10552.04063
701.119	10647.7311
701.315	10464.46973
701.511	10440.02712
701.706	10853.27309
701.902	10505.20331
702.097	10533.71378
702.293	10611.08692
702.489	10550.00436
702.684	10495.02039
702.88	10580.54705
703.075	10586.65524
703.271	10541.85917
703.466	10509.27638
703.662	10533.71378
703.857	10552.04063
704.053	10718.97233
704.248	10586.65524
704.443	10586.65524
704.639	10325.93679
704.834	10382.9871
705.03	10158.80031
705.225	10633.48106
705.42	10285.18019
705.616	10554.07688
705.811	10244.41821
706.006	10741.35937
706.202	10511.3129
706.397	10541.85917
706.592	10111.90399
706.787	10370.7629
706.983	10327.97448
707.178	10607.0151
707.373	10370.7629
707.568	10423.73101
707.763	9975.25044
707.959	10558.14936
708.154	10368.72549
708.349	10295.36984
708.544	10391.1363
708.739	10378.91242
708.934	10115.98222
709.129	10407.43407
709.324	10289.25609
709.519	10476.69034
709.714	10340.20034
709.909	10464.46973
710.104	10490.94714
710.299	10509.27638
710.494	10295.36984
710.689	10474.65361
710.884	10130.2556
711.079	10460.39609
711.274	10048.68417
711.469	10505.20331
711.664	10238.30344
711.859	10539.82284
712.054	10209.76626
712.249	10374.83769
712.443	10348.35065
712.638	10325.93679
712.833	10130.2556
713.028	10448.17486
713.223	10048.68417
713.417	10452.24866
713.612	10179.18772
713.807	10429.84215
714.002	10126.17756
714.196	10103.74735
714.391	9954.84887
714.586	10113.94311
714.78	9901.79797
714.975	10132.2946
715.17	10115.98222
715.364	10252.57104
715.559	10305.55916
715.754	10313.71037
715.948	10303.52132
716.143	10450.21177
716.337	10325.93679
716.532	10197.53521
716.726	10044.605
716.921	10179.18772
717.115	10158.80031
717.31	10268.87604
717.504	10109.86485
717.699	10336.12511
717.893	10081.31545
718.088	10309.63479
718.282	9999.73041
718.476	10109.86485
718.671	10113.94311
718.865	9934.44584
719.059	9824.24415
719.254	9765.04383
719.448	9918.12238
719.642	9885.47263
719.837	9746.66874
720.031	9920.16286
720.225	9624.13642
720.419	9869.14634
720.614	9952.80863
720.808	9836.49091
721.002	9660.90195
721.196	10011.96962
721.39	9779.33472
721.585	9652.73227
721.779	9948.72811
721.973	9820.16177
722.167	9648.64733
722.361	9732.37615
722.555	9716.04084
722.749	9601.66612
722.943	9638.43473
723.137	9546.50368
723.331	9599.62327
723.525	9846.69614
723.719	9440.23226
723.913	9903.83857
724.107	9840.57305
724.301	9711.95686
724.495	9722.1667
724.689	9793.62487
724.883	9595.53753
725.077	9756.87727
725.271	9685.40951
725.465	9828.32646
725.659	9754.8356
725.853	9675.19829
726.046	9524.02679
726.24	9791.58347
726.434	9470.89193
726.628	10009.92979
726.822	9914.04136
727.015	10164.91668
727.209	9573.06481
727.403	9493.37338
727.596	9765.04383
727.79	9585.32289
727.984	9413.65761
728.177	9691.53605
728.371	9430.01157
728.565	9758.91894
728.758	9722.1667
728.952	9534.2438
729.146	9756.87727
729.339	9922.20333
729.533	9472.93578
729.726	9513.80939
729.92	9526.07023
730.113	9566.93555
730.307	9258.24263
730.5	9554.67662
730.694	9618.00835
730.887	9587.36585
731.081	9389.12472
731.274	9577.1509
731.468	9493.37338
731.661	9773.21014
731.854	9501.54798
732.048	9838.53199
732.241	9550.59018
732.435	9493.37338
732.628	9583.27991
732.821	9697.66246
733.014	9742.58522
733.208	9912.00083
733.401	9530.15704
733.594	9650.68981
733.788	9816.07934
733.981	9646.60484
734.174	9560.80616
734.367	9662.94433
734.56	9528.11364
734.754	9440.23226
734.947	9720.12476
735.14	9881.39114
735.333	9787.50061
735.526	9795.66626
735.719	9624.13642
735.912	9730.33429
736.105	9499.50435
736.298	9526.07023
736.491	9499.50435
736.684	9615.96562
736.877	9689.49389
737.07	9501.54798
737.263	9395.25816
737.456	9552.63341
737.649	9558.76299
737.842	9726.25052
738.035	9440.23226
738.228	9503.59159
738.421	9591.45172
738.614	9667.02905
738.807	9754.8356
739	9615.96562
739.192	9517.8964
739.385	9697.66246
739.578	9566.93555
739.771	9579.19392
739.964	9499.50435
740.156	9450.45256
740.349	9364.58948
740.542	9738.50163
740.735	9779.33472
740.927	9430.01157
741.12	9554.67662
741.313	9233.69465
741.505	9601.66612
741.698	9266.42475
741.891	9374.81278
742.083	9415.70191
742.276	9436.14403
742.468	9340.05187
742.661	9239.83187
742.854	9174.36033
743.046	9074.07321
743.239	9241.87758
743.431	9256.19706
743.624	9317.55698
743.816	9315.51189
744.009	9295.06008
744.201	9299.15057
744.393	9626.17908
744.586	9489.28599
744.778	9354.36576
744.971	9329.82717
745.163	9517.8964
745.355	9378.90199
745.548	9125.24526
745.74	9364.58948
745.932	9149.80403
746.125	9319.60205
746.317	9268.47024
746.509	9280.74282
746.702	9591.45172
746.894	9094.54333
747.086	9288.92421
747.278	9344.14164
747.471	9098.63714
747.663	9178.45281
747.855	9432.05574
748.047	9321.64711
748.239	9542.41712
748.431	9374.81278
748.623	9284.83355
748.815	9084.30849
749.008	9248.0146
749.2	9315.51189
749.392	9389.12472
749.584	9121.15189
749.776	9411.61329
749.968	9354.36576
750.16	9143.66457
750.352	9108.87138
750.544	9157.98974
750.736	8867.2269
750.928	9288.92421
751.12	9125.24526
751.311	8916.39485
751.503	8916.39485
751.695	8795.50508
751.887	8953.26407
752.079	8895.90945
752.271	8654.04523
752.463	8938.92672
752.654	8990.12757
752.846	8854.9333
753.038	8818.04861
753.23	8893.86082
753.421	9045.41214
753.613	9057.69587
753.805	9084.30849
753.997	9098.63714
754.188	8856.98228
754.38	8990.12757
754.572	8748.36151
754.763	8934.83018
754.955	8731.96148
755.146	8928.68523
755.338	8809.85122
755.53	8709.40951
755.721	8775.00906
755.913	9020.84279
756.104	8608.92358
756.296	9117.05846
756.487	8695.0571
756.679	8832.39335
756.87	8793.45556
757.062	8799.60407
757.253	8584.30796
757.445	8617.12819
757.636	8617.12819
757.827	8842.63905
758.019	8658.14675
758.21	8711.45978
758.401	8625.3325
758.593	8690.95625
758.784	8672.50149
758.975	8772.95936
759.167	8807.80183
759.358	8801.65354
759.549	8541.22412
759.74	8621.23038
759.932	8625.3325
760.123	8477.6089
760.314	8465.29416
760.505	8744.26161
760.696	8344.1624
760.888	8641.74022
761.079	8545.3277
761.27	8809.85122
761.461	8633.53651
761.652	8742.21163
761.843	8452.97874
762.034	8567.89605
762.225	8356.48396
762.416	8436.5571
762.607	8116.08595
762.798	8317.46328
762.989	8348.26966
763.18	8455.03135
763.371	8362.64447
763.562	8489.92295
763.753	8383.17827
763.944	8432.4515
764.135	8188.02829
764.326	8438.60987
764.517	8282.54407
764.708	8405.76321
764.899	8212.68861
765.089	8411.92233
765.28	8142.81025
765.471	8192.13854
765.662	7939.20847
765.853	8124.30917
766.043	7920.68932
766.234	8198.30377
766.425	7963.89809
766.615	8255.83732
766.806	8033.83603
766.997	8050.2886
767.187	7937.15087
767.378	8124.30917
767.569	7992.69892
767.759	8120.1976
767.95	8255.83732
768.141	8124.30917
768.331	8060.5708
768.522	8132.53207
768.712	7758.06045
768.903	8052.34508
769.093	7745.70357
769.284	7895.99453
769.474	7832.18589
769.665	8033.83603
769.855	7745.70357
770.046	7828.06852
770.236	7508.71623
770.426	8093.47044
770.617	7807.48041
770.807	7885.70416
770.998	7980.35619
771.188	8068.79619
771.378	7558.19773
771.569	7774.53511
771.759	7387.02137
771.949	7599.42289
772.139	7786.89022
772.33	7541.70527
772.52	7607.6669
772.71	7836.30317
772.9	7380.83148
773.09	7679.78745
773.281	7799.24459
773.471	7924.80484
773.661	7838.36179
773.851	7636.51824
774.041	7444.78426
774.231	7803.36254
774.421	7533.45853
774.611	7450.97214
774.802	7389.08463
774.992	7413.84198
775.182	7347.81541
775.372	7401.46369
775.562	7308.60155
775.752	7415.90495
775.942	7329.24141
776.131	7351.94272
776.321	7252.86296
776.511	7450.97214
776.701	7170.2577
776.891	7209.49961
777.081	7420.03082
777.271	7314.79373
777.461	7217.76005
777.651	7432.40794
777.84	7199.17357
778.03	7259.05693
778.22	7170.2577
778.41	7174.38881
778.599	7345.75172
778.789	7448.90953
778.979	7110.34669
779.169	7211.56476
779.358	7029.74711
779.548	7209.49961
779.738	7176.45433
779.927	7273.50875
780.117	7131.00778
780.307	7287.95949
780.496	6992.53579
780.686	7197.1083
780.875	6988.40075
781.065	7190.91234
781.254	7102.08163
781.444	7073.15111
781.633	7089.68337
781.823	6949.11337
782.012	6800.16069
782.202	6816.71681
782.391	6787.74264
782.581	7056.61742
782.77	7009.07505
782.96	6870.51412
783.149	6783.60311
783.338	6756.69393
783.528	6835.34069
783.717	6847.7556
783.906	6588.94169
784.096	6785.67289
784.285	6704.93463
784.474	6599.30114
784.663	6549.57051
784.853	6729.78088
785.042	6593.08554
785.231	6607.58828
785.42	6721.49916
785.61	6671.80115
785.799	6489.46155
785.988	6680.08507
786.177	6576.50959
786.366	6617.9467
786.555	6528.84548
786.744	6692.51026
786.933	6530.91809
787.122	6709.0759
787.312	6682.156
787.501	6485.31538
787.69	6491.53459
787.879	6680.08507
788.068	6651.08974
788.257	6485.31538
788.445	6234.29911
788.634	6622.0899
788.823	6373.33379
789.012	6539.20829
789.201	6464.58317
789.39	6387.85375
789.579	6360.8872
789.768	6522.62752
789.957	6118.01034
790.145	6377.48247
790.334	6360.8872
790.523	6431.40679
790.712	6327.69218
790.9	6667.65905
791.089	6340.14101
791.278	6530.91809
791.467	6257.1329
791.655	6323.54238
791.844	6178.2405
792.033	6309.01736
792.221	6032.82361
792.41	6300.71683
792.599	6236.37503
792.787	6383.70531
792.976	6047.37049
793.164	6207.31006
793.353	6211.46248
793.541	6331.84188
793.73	6082.69381
793.918	6317.31751
794.107	5974.62457
794.295	6275.81299
794.484	6232.22317
794.672	6275.81299
794.861	6174.08733
795.049	6005.80493
795.238	6028.66715
795.426	6329.76704
795.614	6199.00494
795.803	6161.62725
795.991	5891.45103
796.179	5895.6106
796.368	5957.99288
796.556	5962.15095
796.744	5903.92947
796.932	5924.72497
797.121	6107.62383
797.309	6188.62301
797.497	5976.70343
797.685	5833.20709
797.874	5743.72501
798.062	5962.15095
798.25	5670.85855
798.438	6007.88343
798.626	5783.26899
798.814	5710.41822
799.002	5795.75479
799.19	5999.56928
799.378	5860.25122
799.566	5895.6106
799.755	6001.64785
799.943	5735.39888
800.131	5922.64553
800.318	5801.99737
800.506	5635.45584
800.694	5683.352
800.882	5756.21351
801.07	5666.69388
801.258	5993.33342
801.446	6091.0042
801.634	5820.72384
801.822	5841.52878
802.01	5645.86911
802.197	5974.62457
802.385	5841.52878
802.573	5829.0461
802.761	5816.56257
802.949	6130.47337
803.136	5737.48045
803.324	5764.53869
803.512	5622.95914
803.699	5851.93037
803.887	5577.13063
804.075	5866.4916
804.262	5456.25537
804.45	5695.8446
804.638	5506.28232
804.825	5629.20759
805.013	5727.07237
805.201	5928.88379
805.388	5716.6637
805.576	5791.59295
805.763	5618.79338
805.951	5777.02577
806.138	5756.21351
806.326	5724.99069
806.513	5547.9611
806.701	5856.09084
806.888	5845.68949
807.075	5918.48657
807.263	5808.23974
807.45	5910.16837
807.638	5595.88004
807.825	6024.5106
808.012	5691.68049
808.2	5854.01062
808.387	5864.4115
808.574	5727.07237
808.761	5812.4012
808.949	5985.01861
809.136	5845.68949
809.323	5997.49069
809.51	5841.52878
809.698	5962.15095
809.885	5731.23567
810.072	5752.05077
810.259	5677.10538
810.446	5645.86911
810.633	5718.74548
810.82	5995.41207
811.008	6178.2405
811.195	6034.90181
811.382	5710.41822
811.569	6020.35395
811.756	5700.00861
811.943	5810.32048
812.13	5987.09735
812.317	5976.70343
812.504	5918.48657
812.691	5995.41207
812.878	5760.37615
813.064	5754.13215
813.251	5704.17252
813.438	6047.37049
813.625	5675.02313
813.812	5962.15095
813.999	5641.70387
814.186	6099.3142
814.372	5939.28043
814.559	5864.4115
814.746	5591.71367
814.933	5695.8446
815.12	5616.71047
815.306	5550.04479
815.493	5587.5472
815.68	5766.61993
815.866	5625.04198
816.053	5878.97174
816.24	5760.37615
816.426	5883.1316
816.613	5702.09058
816.799	5849.8501
816.986	5650.03425
817.173	5679.18761
817.359	5570.88041
817.546	5724.99069
817.732	5600.04631
817.919	5849.8501
818.105	5777.02577
818.292	5801.99737
818.478	5829.0461
818.665	6012.04036
818.851	5920.56606
819.037	5901.84978
819.224	5760.37615
819.41	5833.20709
819.597	5722.90898
819.783	5789.51199
819.969	5747.88794
820.156	5718.74548
820.342	5650.03425
820.528	5795.75479
820.714	5652.11679
820.901	5485.43941
821.087	5510.45063
821.273	5589.63045
821.459	5616.71047
821.646	5785.35001
821.832	5660.4467
822.018	5801.99737
822.204	5656.28179
822.39	5758.29484
822.576	5714.5819
822.762	5560.46289
822.948	5424.98164
823.134	5477.10158
823.32	5264.36003
823.507	5650.03425
823.693	5516.7029
823.879	5625.04198
824.065	5443.74651
824.25	5660.4467
824.436	5364.50411
824.622	5635.45584
824.808	5606.29555
824.994	5697.92661
825.18	5358.24668
825.366	5475.01706
825.552	5337.38708
825.738	5612.54457
825.923	5249.75118
826.109	5358.24668
826.295	5091.06729
826.481	5437.49176
826.667	5251.83823
826.852	5128.66246
827.038	5182.95331
827.224	5514.61883
827.409	5291.48771
827.595	5450.00104
827.781	5285.22783
827.966	5500.0297
828.152	5320.69772
828.338	5291.48771
828.523	5088.97845
828.709	5233.05396
828.894	5015.85442
829.08	5203.83021
829.266	5024.21288
829.451	5049.28606
829.637	4953.15416
829.822	5139.10423
830.008	4741.91171
830.193	5410.38542
830.378	5116.13157
830.564	5304.00685
830.749	4994.95664
830.935	5189.21662
831.12	5036.74989
831.305	5205.91777
831.491	4961.51539
831.676	5130.75086
831.861	5159.98602
832.047	5086.88958
832.232	4980.32682
832.417	4963.60564
832.602	4856.9736
832.788	4905.06994
832.973	4651.90653
833.158	4852.79074
833.343	4911.34249
833.528	5310.2661
833.714	5099.42242
833.899	5162.07407
834.084	4649.81289
834.269	4917.61482
834.454	4683.30841
834.639	5013.76474
834.824	4727.26254
835.009	4961.51539
835.194	4712.61227
835.379	4938.52112
835.564	4723.07686
835.749	4865.33905
835.934	4871.6129
836.119	4854.88218
836.304	4434.04889
836.489	4840.2416
836.674	4593.27619
836.859	4651.90653
837.044	4448.71988
837.228	4622.59355
837.413	4664.46789
837.598	4769.11436
837.783	4637.25059
837.968	4787.94471
838.152	4662.37439
838.337	4850.69927
838.522	4656.09374
838.707	4689.58818
838.891	4633.06298
839.076	4555.57602
839.261	4415.1846
839.445	4633.06298
839.63	4442.43244
839.815	4557.67066
839.999	4429.85698
840.184	4616.31163
840.368	4490.63109
840.553	4748.18958
840.737	4570.23805
840.922	4643.53184
841.106	4431.95294
841.291	4383.74019
841.475	4356.48441
841.66	4589.08764
841.844	4383.74019
842.029	4522.05871
842.213	4358.58114
842.397	4484.34497
842.582	4392.12585
842.766	4547.19722
842.951	4157.19724
843.135	4287.28024
843.319	4220.15083
843.504	4272.59755
843.688	4408.89611
843.872	4218.05268
844.056	4434.04889
844.241	4649.81289
844.425	4278.89026
844.609	4488.53574
844.793	4241.13112
844.977	4322.93381
845.161	4029.1334
845.346	4190.77486
845.53	4178.18388
845.714	4459.19851
845.898	3976.62599
846.082	4190.77486
846.266	3968.22362
846.45	4052.23259
846.634	3957.7202
846.818	4031.23343
847.002	3892.58769
847.186	4129.91145
847.37	3835.84367
847.554	3997.63049
847.738	3728.62127
847.922	3987.1285
848.106	3762.26514
848.29	4062.7314
848.473	3848.4547
848.657	3871.57308
848.841	3858.96336
849.025	3974.52543
849.209	3766.47027
849.392	3985.02804
849.576	3766.47027
849.76	3949.31709
849.944	3837.94556
850.127	3991.32935
850.311	3615.03689
850.495	3802.21076
850.678	3589.78842
850.862	3850.55647
851.046	3768.57281
851.229	3814.82369
851.413	3623.45245
851.596	3734.92987
851.78	3625.55629
851.964	3829.53788
852.147	3619.24471
852.331	3823.23192
852.514	3673.93944
852.698	3636.07522
852.881	3547.70168
853.065	3707.59133
853.248	3408.76352
853.431	3861.06503
853.615	3429.8198
853.798	3593.99669
853.982	3593.99669
854.165	3604.51702
854.348	3341.3716
854.532	3488.76785
854.715	3396.12891
854.898	3448.76892
855.081	3120.11941
855.265	3490.87288
855.448	3345.58412
855.631	3366.64567
855.814	3101.14652
855.997	3278.17555
856.181	3328.73363
856.364	3257.10679
856.547	3261.32068
856.73	3434.03084
856.913	3278.17555
857.096	3558.22406
857.279	3292.92267
857.462	3354.00895
857.645	3088.49722
857.828	3389.81136
858.011	3056.87148
858.194	3322.41441
858.377	2917.6773
858.56	3174.92267
858.743	3118.01137
858.926	3383.49366
859.109	2999.93636
859.292	3273.96193
859.475	3149.63021
859.658	3307.66896
859.841	3210.74961
860.023	3052.65445
860.206	2993.60955
860.389	3042.1116
860.572	2942.99019
860.755	3075.84735
860.937	3088.49722
861.12	3189.67551
861.303	2953.5366
861.486	3069.5222
861.668	2902.91048
861.851	2818.51518
862.034	2894.47198
862.216	2938.77152
862.399	2696.10287
862.581	2928.22459
862.764	2875.4845
862.947	3010.48075
863.129	2761.53575
863.312	2848.05611
863.494	2683.43699
863.677	2883.92352
863.859	2712.98998
864.042	2685.548
864.224	2565.20037
864.406	2740.42976
864.589	2560.97693
864.771	2710.87914
864.954	2582.09366
865.136	2706.65741
865.318	2453.2636
865.501	2679.21493
865.683	2655.99268
865.865	2740.42976
866.048	2544.08269
866.23	2774.1987
866.412	2444.81427
866.594	2683.43699
866.777	2478.61055
866.959	2556.75344
867.141	2273.67976
867.323	2645.4366
867.505	2449.03895
867.687	2535.63529
867.869	2425.80264
868.052	2601.0977
868.234	2495.50763
868.416	2527.18771
868.598	2411.01522
868.78	2641.21409
868.962	2324.39307
869.144	2805.85395
869.326	2413.12774
869.508	2468.04951
869.69	2280.01922
869.872	2459.60048
870.054	2339.18341
870.236	2529.29962
870.417	2299.03709
870.599	2525.07578
870.781	2258.88736
870.963	2579.98204
871.145	2320.16717
871.327	2408.90269
871.508	2294.81097
871.69	2527.18771
871.872	2227.18788
872.054	2453.2636
872.235	2113.0539
872.417	2322.28012
872.599	2396.22728
872.78	2476.49836
872.962	2311.71525
873.144	2546.19451
873.325	2225.07451
873.507	2603.2092
873.689	2239.86792
873.87	2415.24025
874.052	2299.03709
874.233	2417.35274
874.415	2290.5848
874.596	2430.02752
874.778	2351.86046
874.959	2487.05918
875.141	2324.39307
875.322	2459.60048
875.503	2214.50754
875.685	2392.00206
875.866	2239.86792
876.048	2436.36476
876.229	1967.18407
876.41	2396.22728
876.592	2315.94123
876.773	2501.84385
876.954	2320.16717
877.136	2427.91508
877.317	2197.59992
877.498	2370.87536
877.679	2301.15014
877.86	2484.94704
878.042	2324.39307
878.223	2404.67759
878.404	2292.69789
878.585	2385.66416
878.766	2273.67976
878.947	2463.82502
879.128	2332.84475
879.309	2639.10281
879.49	2157.44217
879.672	2375.10078
879.853	2286.35859
880.034	2484.94704
880.215	2113.0539
880.396	2368.76263
880.576	2218.73435
880.757	2273.67976
880.938	2121.50908
881.119	2408.90269
881.3	2201.82687
881.481	2383.5515
881.662	2199.7134
881.843	2239.86792
882.023	2349.74764
882.204	2474.38617
882.385	2265.22702
882.566	2430.02752
882.747	2115.16771
882.927	2463.82502
883.108	2047.52225
883.289	2345.52198
883.469	2180.69176
883.65	2495.50763
883.831	2159.55581
884.011	2189.14591
884.192	2235.64127
884.373	2512.40399
884.553	2406.79014
884.734	2402.56503
884.914	2229.30125
885.095	2558.86519
885.275	2231.4146
885.456	2495.50763
885.636	2343.40913
885.817	2487.05918
885.997	2482.83489
886.178	2569.42377
886.358	2206.0538
886.538	2569.42377
886.719	2277.90607
886.899	2432.13994
887.08	2212.39411
887.26	2491.28343
887.44	2273.67976
887.621	2535.63529
887.801	2239.86792
887.981	2487.05918
888.161	2421.57771
888.342	2362.42439
888.522	2459.60048
888.702	2522.96385
888.882	2218.73435
889.062	2375.10078
889.242	2189.14591
889.423	2470.16174
889.603	2282.13235
889.783	2493.39553
889.963	2290.5848
890.143	2375.10078
890.323	2233.52794
890.503	2453.2636
890.683	2231.4146
890.863	2411.01522
891.043	2138.41905
891.223	2400.45246
891.403	2307.48924
891.583	2565.20037
891.763	2392.00206
891.943	2461.71276
892.122	2231.4146
892.302	2455.3759
892.482	2075.00412
892.662	2282.13235
892.842	2299.03709
893.022	2510.29198
893.201	2132.07787
893.381	2265.22702
893.561	2125.73662
893.741	2322.28012
893.92	2140.53276
894.1	2404.67759
894.28	2096.14319
894.459	2349.74764
894.639	2157.44217
894.819	2292.69789
894.998	2153.21487
895.178	2250.43437
895.357	2011.58266
895.537	2294.81097
895.716	2036.95199
895.896	2250.43437
896.075	1910.09624
896.255	2022.15333
896.434	2117.2815
896.614	2290.5848
896.793	2015.81095
896.973	2180.69176
897.152	2079.23199
897.331	2206.0538
897.511	1958.72688
897.69	2026.38155
897.87	1958.72688
898.049	2066.54829
898.228	2079.23199
898.407	2081.34592
898.587	1943.92658
898.766	2195.48643
898.945	1922.78278
899.124	2089.80154
899.304	1867.80634
899.483	2062.32033
899.662	1804.3678
899.841	2081.34592
900.02	1833.97297
900.199	2005.24018
900.378	1819.17049
900.557	1931.24037
900.737	1943.92658
900.916	1916.43953
901.095	1743.04018
901.274	1817.05584
901.453	1770.53228
901.632	1867.80634
901.811	1563.27168
901.989	1751.49935
902.168	1717.66231
902.347	1814.94117
902.526	1622.49145
902.705	1647.87087
902.884	1385.60808
903.063	1732.46613
903.242	1377.14793
903.42	1476.55518
903.599	1387.72312
903.778	1527.31624
903.957	1233.32936
904.135	1514.62601
904.314	1377.14793
904.493	1535.77637
904.672	1398.29832
904.85	1537.8914
905.029	1379.26297
905.207	1601.3417
905.386	1396.18328
905.565	1463.86487
905.743	1307.35249
905.922	1442.71435
906.1	1216.41025
906.279	1341.19251
906.457	1093.7538
906.636	1286.20273
906.814	1021.85913
906.993	1104.32706
907.171	1064.14935
907.35	1214.29538
907.528	1076.83684
907.707	1214.29538
907.885	1089.52453
908.063	1229.09956
908.242	1123.35923
908.42	1303.12252
908.598	1203.72105
908.777	1286.20273
908.955	960.54268
909.133	1076.83684
909.311	899.23209
909.49	1212.1805
909.668	975.34269
909.846	1007.05811
910.024	903.4602
910.202	1197.3765
910.38	958.42842
910.559	1004.94371
910.737	1127.58865
910.915	1131.81809
911.093	1165.65421
911.271	1178.34303
911.449	1055.69112
911.627	1097.98309
911.805	1083.18066
911.983	1026.08805
912.161	1142.39176
912.339	1207.95077
912.517	1246.01882
912.695	1368.6878
912.872	1108.5564
913.05	1277.74289
913.228	1047.23299
913.406	1085.29528
913.584	1100.09774
913.762	1220.64001
913.939	1032.43147
914.117	1303.12252
914.295	1182.57266
914.473	1193.14681
914.65	1072.60766
914.828	1317.92745
915.006	1108.5564
915.184	1224.86978
915.361	1123.35923
915.539	1178.34303
915.716	933.05785
915.894	1254.47851
916.072	1030.31699
916.249	1070.49307
916.427	920.37296
916.604	1047.23299
916.782	945.743
916.959	1093.7538
917.137	911.91652
917.314	1004.94371
917.492	863.29445
917.669	852.72501
917.847	890.77596
918.024	952.08568
918.201	810.44948
918.379	992.2574
918.556	816.79058
918.733	958.42842
918.911	878.09201
919.088	1064.14935
919.265	713.23036
919.442	895.00401
919.62	848.4973
919.797	865.40836
919.974	856.95276
920.151	954.19992
920.328	812.56317
920.506	1021.85913
920.683	1009.17253
920.86	928.82952
921.037	812.56317
921.214	878.09201
921.391	795.65391
921.568	962.65695
921.745	812.56317
921.922	869.63621
922.099	776.63172
922.276	825.2455
922.453	744.92987
922.63	856.95276
922.807	685.75944
922.984	785.08593
923.161	725.90988
923.338	837.92817
923.514	618.14706
923.691	717.45683
923.868	812.56317
924.045	709.00395
924.222	711.11715
924.399	717.45683
924.575	626.59793
924.752	761.83724
924.929	658.29044
925.105	744.92987
925.282	616.03437
925.459	804.10846
925.635	641.38743
925.812	789.31309
925.989	575.89576
926.165	660.40337
926.342	643.50026
926.518	624.48519
926.695	616.03437
926.871	641.38743
927.048	594.90821
927.224	711.11715
927.401	605.47113
927.577	620.25976
927.754	480.85017
927.93	643.50026
928.107	514.64087
928.283	734.3631
928.459	491.40936
928.636	709.00395
928.812	466.06793
928.988	582.23313
929.165	497.74505
929.341	656.17752
929.517	527.31334
929.693	476.6266
929.87	461.84457
930.046	489.29749
930.222	535.76193
930.398	588.57061
930.574	432.28277
930.751	501.96892
930.927	411.16909
931.103	491.40936
931.279	417.50302
931.455	474.51483
931.631	447.06329
931.807	444.95174
931.983	345.72712
932.159	447.06329
932.335	419.61437
932.511	485.0738
932.687	311.95708
932.863	455.50964
933.039	421.72573
933.215	396.39047
933.391	356.28118
933.566	381.61266
933.742	328.84154
933.918	305.62571
934.094	305.62571
934.27	404.83529
934.445	364.72473
934.621	301.40489
934.797	286.63257
934.973	223.33309
935.148	280.30186
935.324	324.62032
935.5	328.84154
935.675	221.22341
935.851	172.70621
936.027	231.77202
936.202	305.62571
936.378	259.20069
936.553	198.0182
936.729	189.58055
936.904	195.90876
937.08	235.99161
937.255	172.70621
937.431	240.21127
937.606	145.28826
937.782	202.23715
937.957	117.87389
938.133	126.30869
938.308	168.48784
938.483	217.0041
938.659	151.61516
938.834	119.98255
939.009	189.58055
939.185	187.47118
939.36	162.16043
939.535	155.83321
939.71	119.98255
939.886	109.43943
940.061	183.25252
940.236	128.41744
940.411	109.43943
940.586	69.38059
940.761	132.63502
940.937	33.54542
941.112	136.85268
941.287	101.00532
941.462	82.02988
941.637	103.11382
941.812	41.97663
941.987	54.62413
942.162	73.59693
942.337	101.00532
942.512	130.52622
942.687	101.00532
942.862	60.94819
943.037	92.57157
943.212	109.43943
943.386	77.81336
943.561	235.99161
943.736	138.96154
943.911	69.38059
944.086	138.96154
944.26	75.70514
944.435	79.92161
944.61	52.51615
944.785	8.25407
944.959	8.25407
945.134	136.85268
945.309	75.70514
945.483	92.57157
945.658	138.96154
945.833	63.05626
946.007	50.4082
946.182	84.13817
946.357	109.43943
946.531	75.70514
946.706	134.74384
946.88	109.43943
947.055	75.70514
947.229	25.11459
947.404	117.87389
947.578	151.61516
947.752	52.51615
947.927	33.54542
948.101	86.24649
948.276	103.11382
948.45	109.43943
948.624	96.7884
948.799	50.4082
948.973	105.22233
949.147	107.33087
949.321	119.98255
949.496	151.61516
949.67	4.03918
949.844	105.22233
950.018	69.38059
950.193	35.65319
950.367	149.50617
950.541	82.02988
950.715	128.41744
950.889	41.97663
951.063	153.72418
951.237	111.54801
951.411	122.09124
951.585	88.35483
951.759	103.11382
951.933	113.65661
952.107	58.84015
952.281	147.39721
952.455	111.54801
952.629	77.81336
952.803	151.61516
952.977	122.09124
953.151	58.84015
953.325	41.97663
953.499	101.00532
953.672	117.87389
953.846	153.72418
954.02	67.27246
954.194	130.52622
954.368	88.35483
954.541	149.50617
954.715	65.16435
954.889	109.43943
955.062	-6.49763
955.236	86.24649
955.41	111.54801
955.583	92.57157
955.757	113.65661
955.93	56.73213
956.104	67.27246
956.278	101.00532
956.451	103.11382
956.625	82.02988
956.798	126.30869
956.972	179.03394
957.145	134.74384
957.319	162.16043
957.492	103.11382
957.665	151.61516
957.839	143.17933
958.012	168.48784
958.185	111.54801
958.359	79.92161
958.532	151.61516
958.705	105.22233
958.879	84.13817
959.052	134.74384
959.225	130.52622
959.398	117.87389
959.572	58.84015
959.745	109.43943
959.918	101.00532
960.091	109.43943
960.264	145.28826
960.438	103.11382
960.611	128.41744
960.784	105.22233
960.957	90.46319
961.13	50.4082
961.303	82.02988
961.476	160.05133
961.649	107.33087
961.822	84.13817
961.995	69.38059
962.168	101.00532
962.341	88.35483
962.514	96.7884
962.686	25.11459
962.859	138.96154
963.032	96.7884
963.205	109.43943
963.378	134.74384
963.551	128.41744
963.723	119.98255
963.896	109.43943
964.069	67.27246
964.242	58.84015
964.414	107.33087
964.587	92.57157
964.76	151.61516
964.932	174.81543
965.105	67.27246
965.278	132.63502
965.45	136.85268
965.623	75.70514
965.795	41.97663
965.968	92.57157
966.14	77.81336
966.313	103.11382
966.485	105.22233
966.658	69.38059
966.83	67.27246
967.003	37.76098
967.175	117.87389
967.348	119.98255
967.52	69.38059
967.692	101.00532
967.865	82.02988
968.037	176.92467
968.209	176.92467
968.382	117.87389
968.554	96.7884
968.726	35.65319
968.898	37.76098
969.071	39.86879
969.243	71.48875
969.415	18.79172
969.587	65.16435
969.759	134.74384
969.932	130.52622
970.104	117.87389
970.276	41.97663
970.448	128.41744
970.62	88.35483
970.792	96.7884
970.964	75.70514
971.136	44.08449
971.308	84.13817
971.48	60.94819
971.652	122.09124
971.824	145.28826
971.996	6.14661
972.168	86.24649
972.339	98.89685
972.511	25.11459
972.683	27.22227
972.855	126.30869
973.027	111.54801
973.199	-8.60492
973.37	44.08449
973.542	126.30869
973.714	183.25252
973.886	71.48875
974.057	143.17933
974.229	94.67998
974.401	134.74384
974.572	63.05626
974.744	109.43943
974.915	75.70514
975.087	147.39721
975.259	113.65661
975.43	77.81336
975.602	50.4082
975.773	58.84015
975.945	16.68414
976.116	92.57157
976.288	75.70514
976.459	46.19237
976.63	86.24649
976.802	88.35483
976.973	77.81336
977.145	115.76524
977.316	25.11459
977.487	73.59693
977.659	96.7884
977.83	37.76098
978.001	94.67998
978.172	71.48875
978.344	101.00532
978.515	75.70514
978.686	77.81336
978.857	58.84015
979.028	44.08449
979.2	37.76098
979.371	77.81336
979.542	77.81336
979.713	12.46906
979.884	84.13817
980.055	73.59693
980.226	141.07043
980.397	119.98255
980.568	162.16043
980.739	54.62413
980.91	109.43943
981.081	29.32996
981.252	79.92161
981.423	54.62413
981.594	176.92467
981.765	50.4082
981.936	84.13817
982.106	92.57157
982.277	117.87389
982.448	46.19237
982.619	14.57659
982.79	60.94819
982.96	77.81336
983.131	86.24649
983.302	77.81336
983.472	107.33087
983.643	77.81336
983.814	52.51615
983.984	94.67998
984.155	63.05626
984.326	10.36155
984.496	67.27246
984.667	10.36155
984.837	8.25407
985.008	94.67998
985.178	58.84015
985.349	134.74384
985.519	37.76098
985.69	77.81336
985.86	4.03918
986.031	10.36155
986.201	25.11459
986.371	77.81336
986.542	46.19237
986.712	67.27246
986.882	-14.92664
987.053	94.67998
987.223	145.28826
987.393	101.00532
987.563	56.73213
987.734	88.35483
987.904	50.4082
988.074	33.54542
988.244	65.16435
988.414	77.81336
988.585	101.00532
988.755	134.74384
988.925	126.30869
989.095	84.13817
989.265	8.25407
989.435	103.11382
989.605	124.19996
989.775	16.68414
989.945	58.84015
990.115	84.13817
990.285	16.68414
990.455	75.70514
990.625	16.68414
990.795	113.65661
990.965	90.46319
991.134	41.97663
991.304	84.13817
991.474	41.97663
991.644	84.13817
991.814	-0.17561
991.984	16.68414
992.153	94.67998
992.323	-0.17561
992.493	50.4082
992.662	41.97663
992.832	39.86879
993.002	67.27246
993.171	16.68414
993.341	37.76098
993.511	71.48875
993.68	75.70514
993.85	18.79172
994.019	105.22233
994.189	109.43943
994.358	71.48875
994.528	84.13817
994.697	60.94819
994.867	8.25407
995.036	8.25407
995.206	111.54801
995.375	124.19996
995.544	75.70514
995.714	153.72418
995.883	10.36155
996.052	58.84015
996.222	101.00532
996.391	-33.89048
996.56	8.25407
996.73	41.97663
996.899	18.79172
997.068	103.11382
997.237	18.79172
997.406	4.03918
997.576	75.70514
997.745	58.84015
997.914	69.38059
998.083	56.73213
998.252	92.57157
998.421	134.74384
998.59	27.22227
998.759	71.48875
998.928	33.54542
999.097	54.62413
999.266	33.54542
999.435	29.32996
999.604	77.81336
999.773	98.89685
999.942	86.24649
1000.111	50.4082
1000.28	67.27246
1000.448	67.27246
1000.617	25.11459
1000.786	86.24649
1000.955	33.54542
1001.124	69.38059
1001.292	101.00532
1001.461	-33.89048
1001.63	60.94819
1001.798	75.70514
1001.967	33.54542
1002.136	92.57157
1002.304	75.70514
1002.473	16.68414
1002.642	33.54542
1002.81	103.11382
1002.979	84.13817
1003.147	101.00532
1003.316	35.65319
1003.484	69.38059
1003.653	8.25407
1003.821	73.59693
1003.99	105.22233
1004.158	14.57659
1004.327	88.35483
1004.495	75.70514
1004.663	63.05626
1004.832	67.27246
1005	50.4082
1005.168	84.13817
1005.337	37.76098
1005.505	10.36155
1005.673	92.57157
1005.842	4.03918
1006.01	109.43943
1006.178	58.84015
1006.346	50.4082
1006.514	-12.81942
1006.683	60.94819
1006.851	58.84015
1007.019	33.54542
1007.187	-19.141
1007.355	79.92161
1007.523	86.24649
1007.691	50.4082
1007.859	18.79172
1008.027	111.54801
1008.195	94.67998
1008.363	75.70514
1008.531	27.22227
1008.699	77.81336
1008.867	16.68414
1009.035	79.92161
1009.203	16.68414
1009.37	50.4082
1009.538	58.84015
1009.706	86.24649
1009.874	75.70514
1010.042	35.65319
1010.209	37.76098
1010.377	37.76098
1010.545	41.97663
1010.713	126.30869
1010.88	63.05626
1011.048	50.4082
1011.216	50.4082
1011.383	8.25407
1011.551	69.38059
1011.718	-17.03383
1011.886	44.08449
1012.054	73.59693
1012.221	75.70514
1012.389	96.7884
1012.556	-23.35526
1012.724	54.62413
1012.891	4.03918
1013.058	77.81336
1013.226	69.38059
1013.393	33.54542
1013.561	101.00532
1013.728	58.84015
1013.895	92.57157
1014.063	60.94819
1014.23	69.38059
1014.397	-0.17561
1014.565	41.97663
1014.732	1.93177
1014.899	86.24649
1015.066	-19.141
1015.233	-25.46235
1015.401	67.27246
1015.568	75.70514
1015.735	46.19237
1015.902	136.85268
1016.069	46.19237
1016.236	37.76098
1016.403	63.05626
1016.57	98.89685
1016.737	75.70514
1016.904	12.46906
1017.071	77.81336
1017.238	65.16435
1017.405	33.54542
1017.572	84.13817
1017.739	77.81336
1017.906	50.4082
1018.073	-6.49763
1018.24	20.89932
1018.407	46.19237
1018.573	-27.56942
1018.74	-48.63874
1018.907	84.13817
1019.074	27.22227
1019.241	16.68414
1019.407	-27.56942
1019.574	50.4082
1019.741	-31.78348
1019.907	79.92161
1020.074	20.89932
1020.241	98.89685
1020.407	-2.28298
1020.574	58.84015
1020.74	-10.71218
1020.907	86.24649
1021.073	46.19237
1021.24	31.43768
1021.406	27.22227
1021.573	58.84015
1021.739	-23.35526
1021.906	41.97663
1022.072	18.79172
1022.239	88.35483
1022.405	31.43768
1022.571	109.43943
1022.738	33.54542
1022.904	35.65319
1023.07	-33.89048
1023.237	39.86879
1023.403	65.16435
1023.569	58.84015
1023.735	-31.78348
1023.902	79.92161
1024.068	44.08449
1024.234	84.13817
1024.4	18.79172
1024.566	113.65661
1024.732	44.08449
1024.898	-21.24814
1025.065	52.51615
1025.231	96.7884
1025.397	35.65319
1025.563	-35.99745
1025.729	69.38059
1025.895	94.67998
1026.061	20.89932
1026.227	8.25407
1026.392	98.89685
1026.558	14.57659
1026.724	4.03918
1026.89	25.11459
1027.056	41.97663
1027.222	8.25407
1027.388	54.62413
1027.553	4.03918
1027.719	39.86879
1027.885	75.70514
1028.051	46.19237
1028.216	75.70514
1028.382	41.97663
1028.548	77.81336
1028.713	50.4082
1028.879	86.24649
1029.045	101.00532
1029.21	46.19237
1029.376	-0.17561
1029.541	-67.59898
1029.707	101.00532
1029.873	41.97663
1030.038	35.65319
1030.204	-65.49239
1030.369	50.4082
1030.534	101.00532
1030.7	101.00532
1030.865	33.54542
1031.031	60.94819
1031.196	50.4082
1031.361	33.54542
1031.527	67.27246
1031.692	6.14661
1031.857	46.19237
1032.023	1.93177
1032.188	-19.141
1032.353	33.54542
1032.518	69.38059
1032.684	44.08449
1032.849	29.32996
1033.014	41.97663
1033.179	67.27246
1033.344	31.43768
1033.509	31.43768
1033.674	-19.141
1033.839	29.32996
1034.004	88.35483
1034.17	77.81336
1034.335	41.97663
1034.5	-12.81942
1034.664	25.11459
1034.829	63.05626
1034.994	-14.92664
1035.159	27.22227
1035.324	117.87389
1035.489	69.38059
1035.654	44.08449
1035.819	60.94819
1035.984	16.68414
1036.148	41.97663
1036.313	82.02988
1036.478	31.43768
1036.643	37.76098
1036.807	58.84015
1036.972	31.43768
1037.137	96.7884
1037.301	77.81336
1037.466	27.22227
1037.631	10.36155
1037.795	84.13817
1037.96	63.05626
1038.124	71.48875
1038.289	77.81336
1038.454	86.24649
1038.618	46.19237
1038.783	54.62413
1038.947	117.87389
1039.111	20.89932
1039.276	71.48875
1039.44	12.46906
1039.605	69.38059
1039.769	41.97663
1039.933	75.70514
1040.098	96.7884
1040.262	58.84015
1040.426	-25.46235
1040.591	79.92161
1040.755	84.13817
1040.919	27.22227
1041.083	54.62413
1041.248	35.65319
1041.412	37.76098
1041.576	113.65661
1041.74	-17.03383
1041.904	-0.17561
1042.068	35.65319
1042.232	1.93177
1042.397	-8.60492
1042.561	86.24649
1042.725	-4.39031
1042.889	60.94819
1043.053	35.65319
1043.217	79.92161
1043.381	-12.81942
1043.544	77.81336
1043.708	-14.92664
1043.872	12.46906
1044.036	109.43943
1044.2	67.27246
1044.364	63.05626
1044.528	29.32996
1044.691	58.84015
1044.855	23.00695
1045.019	41.97663
1045.183	94.67998
1045.346	75.70514
1045.51	44.08449
1045.674	8.25407
1045.837	107.33087
1046.001	10.36155
1046.165	60.94819
1046.328	50.4082
1046.492	50.4082
1046.655	52.51615
1046.819	12.46906
1046.983	58.84015
1047.146	88.35483
1047.31	-8.60492
1047.473	25.11459
1047.636	35.65319
1047.8	92.57157
1047.963	1.93177
1048.127	27.22227
1048.29	1.93177
