Data from mixed_try6.1_USB4F045381__11__00295.txt Node

Date: Thu Apr 03 20:32:05 EDT 2025
User: mmckonesweet
Spectrometer: USB4F04538
Trigger mode: 4
Integration Time (sec): 2.700000E-3
Scans to average: 1
Electric dark correction enabled: true
Nonlinearity correction enabled: true
Boxcar width: 0
XAxis mode: Wavelengths
Number of Pixels in Spectrum: 3648
>>>>>Begin Spectral Data<<<<<
345.52	5.09289
345.736	5.09289
345.952	5.09289
346.168	-11.7658
346.384	-11.7658
346.6	7.20034
346.816	-30.72997
347.032	-11.7658
347.248	2.98547
347.464	36.70708
347.68	-56.01241
347.896	78.86748
348.112	28.27611
348.328	-39.15785
348.544	2.98547
348.76	-47.58533
348.975	28.27611
349.191	-58.11912
349.407	-39.15785
349.623	13.52282
349.839	-62.33245
350.055	-5.44397
350.27	-5.44397
350.486	-15.98024
350.702	-26.51589
350.918	11.4153
351.133	45.13842
351.349	-9.65855
351.565	30.38382
351.781	38.81488
351.996	11.4153
352.212	-5.44397
352.428	13.52282
352.644	7.20034
352.859	28.27611
353.075	21.95313
353.291	-5.44397
353.506	2.98547
353.722	-87.61033
353.938	-32.83698
354.153	-3.33665
354.369	-60.2258
354.584	-30.72997
354.8	47.24632
355.016	17.73793
355.231	-28.62294
355.447	-60.2258
355.662	59.89417
355.878	36.70708
356.093	38.81488
356.309	11.4153
356.524	-39.15785
356.74	45.13842
356.955	7.20034
357.171	21.95313
357.386	-13.87303
357.602	30.38382
357.817	-68.65227
358.033	19.84552
358.248	-28.62294
358.464	-3.33665
358.679	-1.2293
358.895	-26.51589
359.11	5.09289
359.325	-34.94396
359.541	-13.87303
359.756	11.4153
359.972	28.27611
360.187	-5.44397
360.402	2.98547
360.618	15.63036
360.833	-1.2293
361.048	17.73793
361.264	53.57014
361.479	13.52282
361.694	2.98547
361.909	-51.79892
362.125	-18.08741
362.34	45.13842
362.555	-34.94396
362.77	28.27611
362.986	-22.3017
363.201	-1.2293
363.416	9.30781
363.631	59.89417
363.847	13.52282
364.062	-15.98024
364.277	-64.43909
364.492	53.57014
364.707	-11.7658
364.922	-81.29121
365.138	-45.4785
365.353	-53.90568
365.568	5.09289
365.783	7.20034
365.998	-56.01241
366.213	30.38382
366.428	-5.44397
366.643	21.95313
366.858	-24.40881
367.073	-5.44397
367.288	-47.58533
367.503	7.20034
367.718	-9.65855
367.933	7.20034
368.148	26.16843
368.363	15.63036
368.578	19.84552
368.793	-1.2293
369.008	47.24632
369.223	-5.44397
369.438	-15.98024
369.653	32.49155
369.868	7.20034
370.083	28.27611
370.298	-20.19457
370.513	13.52282
370.728	-60.2258
370.943	-53.90568
371.157	-3.33665
371.372	-60.2258
371.587	-26.51589
371.802	19.84552
372.017	-22.3017
372.232	-18.08741
372.446	64.1103
372.661	19.84552
372.876	13.52282
373.091	28.27611
373.306	-68.65227
373.52	-64.43909
373.735	43.03055
373.95	47.24632
374.165	-18.08741
374.379	-22.3017
374.594	19.84552
374.809	-9.65855
375.023	-51.79892
375.238	13.52282
375.453	24.06077
375.667	76.75925
375.882	-32.83698
376.097	62.00222
376.311	45.13842
376.526	28.27611
376.741	-47.58533
376.955	24.06077
377.17	-9.65855
377.384	57.78613
377.599	-11.7658
377.813	53.57014
378.028	106.2766
378.242	-28.62294
378.457	-20.19457
378.672	97.84262
378.886	-72.86535
379.101	-11.7658
379.315	-28.62294
379.53	-11.7658
379.744	-3.33665
379.958	-70.75882
380.173	-9.65855
380.387	-18.08741
380.602	-1.2293
380.816	-45.4785
381.031	7.20034
381.245	30.38382
381.459	2.98547
381.674	-39.15785
381.888	40.92271
382.103	-11.7658
382.317	26.16843
382.531	78.86748
382.746	-34.94396
382.96	15.63036
383.174	95.73419
383.388	-39.15785
383.603	7.20034
383.817	32.49155
384.031	5.09289
384.246	40.92271
384.46	-22.3017
384.674	26.16843
384.888	-64.43909
385.103	66.2184
385.317	-22.3017
385.531	-70.75882
385.745	-32.83698
385.959	15.63036
386.174	-9.65855
386.388	19.84552
386.602	-11.7658
386.816	-64.43909
387.03	-43.37164
387.244	-5.44397
387.458	5.09289
387.672	28.27611
387.887	-9.65855
388.101	2.98547
388.315	-39.15785
388.529	-45.4785
388.743	-3.33665
388.957	-49.69214
389.171	28.27611
389.385	45.13842
389.599	-15.98024
389.813	19.84552
390.027	36.70708
390.241	57.78613
390.455	24.06077
390.669	19.84552
390.883	-30.72997
391.097	-28.62294
391.311	-18.08741
391.525	21.95313
391.738	-3.33665
391.952	11.4153
392.166	2.98547
392.38	-13.87303
392.594	-28.62294
392.808	13.52282
393.022	15.63036
393.236	5.09289
393.449	-13.87303
393.663	-5.44397
393.877	-49.69214
394.091	36.70708
394.305	-45.4785
394.518	17.73793
394.732	59.89417
394.946	-39.15785
395.16	-28.62294
395.373	5.09289
395.587	2.98547
395.801	-22.3017
396.015	53.57014
396.228	-37.05092
396.442	15.63036
396.656	-13.87303
396.869	9.30781
397.083	11.4153
397.297	-7.55127
397.51	-37.05092
397.724	-39.15785
397.938	0.87808
398.151	137.90711
398.365	-9.65855
398.578	15.63036
398.792	-28.62294
399.005	-26.51589
399.219	-9.65855
399.433	-28.62294
399.646	112.60231
399.86	0.87808
400.073	53.57014
400.287	-45.4785
400.5	-72.86535
400.714	28.27611
400.927	45.13842
401.141	40.92271
401.354	51.46218
401.567	-26.51589
401.781	-1.2293
401.994	2.98547
402.208	0.87808
402.421	-89.71665
402.635	-39.15785
402.848	-53.90568
403.061	19.84552
403.275	55.67812
403.488	19.84552
403.701	38.81488
403.915	-49.69214
404.128	49.35423
404.341	34.5993
404.555	0.87808
404.768	13.52282
404.981	13.52282
405.195	-22.3017
405.408	-39.15785
405.621	13.52282
405.834	-13.87303
406.048	80.97574
406.261	53.57014
406.474	13.52282
406.687	19.84552
406.9	55.67812
407.114	-11.7658
407.327	24.06077
407.54	-5.44397
407.753	-18.08741
407.966	-26.51589
408.179	19.84552
408.392	-7.55127
408.605	53.57014
408.819	21.95313
409.032	-49.69214
409.245	59.89417
409.458	-20.19457
409.671	-41.26476
409.884	-22.3017
410.097	-37.05092
410.31	70.43467
410.523	-47.58533
410.736	-1.2293
410.949	-30.72997
411.162	-11.7658
411.375	15.63036
411.588	-39.15785
411.801	-56.01241
412.014	28.27611
412.227	-64.43909
412.44	-9.65855
412.653	-34.94396
412.865	-9.65855
413.078	-39.15785
413.291	28.27611
413.504	-26.51589
413.717	47.24632
413.93	-47.58533
414.143	28.27611
414.356	-15.98024
414.568	15.63036
414.781	47.24632
414.994	5.09289
415.207	-47.58533
415.42	11.4153
415.632	-28.62294
415.845	-3.33665
416.058	15.63036
416.271	-56.01241
416.483	-22.3017
416.696	2.98547
416.909	-56.01241
417.121	-9.65855
417.334	-22.3017
417.547	64.1103
417.759	-56.01241
417.972	-47.58533
418.185	19.84552
418.397	11.4153
418.61	-56.01241
418.823	28.27611
419.035	7.20034
419.248	-11.7658
419.46	-20.19457
419.673	36.70708
419.885	40.92271
420.098	55.67812
420.311	-13.87303
420.523	2.98547
420.736	11.4153
420.948	64.1103
421.161	-68.65227
421.373	40.92271
421.586	40.92271
421.798	72.54284
422.01	-37.05092
422.223	21.95313
422.435	13.52282
422.648	24.06077
422.86	36.70708
423.073	38.81488
423.285	5.09289
423.497	7.20034
423.71	-15.98024
423.922	7.20034
424.134	-26.51589
424.347	15.63036
424.559	-15.98024
424.771	-18.08741
424.984	-64.43909
425.196	-5.44397
425.408	-85.50398
425.621	-37.05092
425.833	32.49155
426.045	-30.72997
426.257	45.13842
426.47	40.92271
426.682	28.27611
426.894	-56.01241
427.106	13.52282
427.318	7.20034
427.531	2.98547
427.743	91.51738
427.955	62.00222
428.167	-18.08741
428.379	55.67812
428.591	7.20034
428.804	-1.2293
429.016	-28.62294
429.228	-11.7658
429.44	15.63036
429.652	-28.62294
429.864	-13.87303
430.076	0.87808
430.288	72.54284
430.5	51.46218
430.712	-89.71665
430.924	-64.43909
431.136	-53.90568
431.348	36.70708
431.56	80.97574
431.772	55.67812
431.984	-39.15785
432.196	49.35423
432.408	-15.98024
432.62	2.98547
432.832	-13.87303
433.044	83.08402
433.256	28.27611
433.468	36.70708
433.679	17.73793
433.891	-13.87303
434.103	38.81488
434.315	-56.01241
434.527	-62.33245
434.739	-3.33665
434.95	-13.87303
435.162	-43.37164
435.374	-13.87303
435.586	-13.87303
435.798	5.09289
436.009	-5.44397
436.221	7.20034
436.433	11.4153
436.645	47.24632
436.856	-26.51589
437.068	36.70708
437.28	40.92271
437.491	2.98547
437.703	15.63036
437.915	-18.08741
438.126	30.38382
438.338	-13.87303
438.55	-28.62294
438.761	-34.94396
438.973	-47.58533
439.184	91.51738
439.396	62.00222
439.608	36.70708
439.819	-1.2293
440.031	-3.33665
440.242	53.57014
440.454	7.20034
440.665	36.70708
440.877	-15.98024
441.088	-41.26476
441.3	15.63036
441.511	-5.44397
441.723	47.24632
441.934	-1.2293
442.146	-47.58533
442.357	-70.75882
442.569	59.89417
442.78	5.09289
442.991	-30.72997
443.203	2.98547
443.414	53.57014
443.626	62.00222
443.837	-30.72997
444.048	-39.15785
444.26	-3.33665
444.471	99.95108
444.682	7.20034
444.894	-3.33665
445.105	-5.44397
445.316	-7.55127
445.528	-11.7658
445.739	-81.29121
445.95	-45.4785
446.161	-39.15785
446.373	11.4153
446.584	-34.94396
446.795	-30.72997
447.006	7.20034
447.217	21.95313
447.429	43.03055
447.64	72.54284
447.851	43.03055
448.062	24.06077
448.273	74.65103
448.484	-1.2293
448.695	62.00222
448.907	-39.15785
449.118	49.35423
449.329	15.63036
449.54	62.00222
449.751	-34.94396
449.962	40.92271
450.173	-9.65855
450.384	2.98547
450.595	17.73793
450.806	-22.3017
451.017	-39.15785
451.228	-30.72997
451.439	-22.3017
451.65	51.46218
451.861	21.95313
452.072	-39.15785
452.283	15.63036
452.494	30.38382
452.705	53.57014
452.915	43.03055
453.126	2.98547
453.337	-22.3017
453.548	-13.87303
453.759	-32.83698
453.97	43.03055
454.181	-11.7658
454.391	62.00222
454.602	36.70708
454.813	24.06077
455.024	36.70708
455.235	11.4153
455.445	-5.44397
455.656	28.27611
455.867	45.13842
456.078	-30.72997
456.288	-3.33665
456.499	-39.15785
456.71	45.13842
456.921	15.63036
457.131	-13.87303
457.342	24.06077
457.553	19.84552
457.763	-22.3017
457.974	11.4153
458.184	11.4153
458.395	51.46218
458.606	47.24632
458.816	-87.61033
459.027	15.63036
459.237	-45.4785
459.448	-3.33665
459.659	-18.08741
459.869	2.98547
460.08	-22.3017
460.29	28.27611
460.501	-13.87303
460.711	-18.08741
460.922	13.52282
461.132	-37.05092
461.343	66.2184
461.553	21.95313
461.764	2.98547
461.974	2.98547
462.184	45.13842
462.395	-7.55127
462.605	-45.4785
462.816	-37.05092
463.026	32.49155
463.236	2.98547
463.447	-51.79892
463.657	2.98547
463.867	-47.58533
464.078	30.38382
464.288	2.98547
464.498	11.4153
464.709	-49.69214
464.919	28.27611
465.129	-13.87303
465.339	-47.58533
465.55	28.27611
465.76	53.57014
465.97	30.38382
466.18	30.38382
466.391	-70.75882
466.601	-9.65855
466.811	49.35423
467.021	80.97574
467.231	-47.58533
467.441	-64.43909
467.651	55.67812
467.862	17.73793
468.072	83.08402
468.282	-3.33665
468.492	55.67812
468.702	-22.3017
468.912	57.78613
469.122	7.20034
469.332	21.95313
469.542	-62.33245
469.752	104.16807
469.962	85.19233
470.172	45.13842
470.382	-5.44397
470.592	30.38382
470.802	5.09289
471.012	2.98547
471.222	7.20034
471.432	32.49155
471.642	36.70708
471.852	-66.54569
472.062	-1.2293
472.272	-74.97185
472.482	-9.65855
472.691	-20.19457
472.901	-41.26476
473.111	-62.33245
473.321	40.92271
473.531	11.4153
473.741	38.81488
473.95	83.08402
474.16	-20.19457
474.37	28.27611
474.58	17.73793
474.79	38.81488
474.999	36.70708
475.209	-7.55127
475.419	32.49155
475.628	51.46218
475.838	40.92271
476.048	32.49155
476.258	78.86748
476.467	55.67812
476.677	19.84552
476.886	-1.2293
477.096	-20.19457
477.306	2.98547
477.515	5.09289
477.725	87.30066
477.935	11.4153
478.144	-24.40881
478.354	5.09289
478.563	28.27611
478.773	-13.87303
478.982	19.84552
479.192	47.24632
479.401	36.70708
479.611	2.98547
479.82	11.4153
480.03	-3.33665
480.239	-26.51589
480.449	19.84552
480.658	-11.7658
480.868	97.84262
481.077	32.49155
481.287	-5.44397
481.496	34.5993
481.705	17.73793
481.915	30.38382
482.124	-30.72997
482.333	13.52282
482.543	45.13842
482.752	-13.87303
482.961	21.95313
483.171	32.49155
483.38	38.81488
483.589	-11.7658
483.799	47.24632
484.008	55.67812
484.217	36.70708
484.426	38.81488
484.636	87.30066
484.845	32.49155
485.054	38.81488
485.263	7.20034
485.472	72.54284
485.682	53.57014
485.891	30.38382
486.1	62.00222
486.309	5.09289
486.518	68.32652
486.727	-15.98024
486.936	-72.86535
487.146	57.78613
487.355	-1.2293
487.564	15.63036
487.773	-9.65855
487.982	38.81488
488.191	62.00222
488.4	24.06077
488.609	-30.72997
488.818	-64.43909
489.027	49.35423
489.236	0.87808
489.445	49.35423
489.654	45.13842
489.863	11.4153
490.072	62.00222
490.281	47.24632
490.49	78.86748
490.698	80.97574
490.907	45.13842
491.116	11.4153
491.325	32.49155
491.534	85.19233
491.743	80.97574
491.952	24.06077
492.16	57.78613
492.369	104.16807
492.578	13.52282
492.787	-45.4785
492.996	19.84552
493.204	-11.7658
493.413	19.84552
493.622	-3.33665
493.831	62.00222
494.039	-18.08741
494.248	21.95313
494.457	-20.19457
494.665	11.4153
494.874	116.81956
495.083	142.12488
495.291	74.65103
495.5	55.67812
495.709	11.4153
495.917	78.86748
496.126	32.49155
496.335	40.92271
496.543	38.81488
496.752	53.57014
496.96	104.16807
497.169	28.27611
497.377	19.84552
497.586	51.46218
497.794	38.81488
498.003	112.60231
498.211	83.08402
498.42	28.27611
498.628	2.98547
498.837	40.92271
499.045	-1.2293
499.254	13.52282
499.462	78.86748
499.671	30.38382
499.879	47.24632
500.087	-30.72997
500.296	62.00222
500.504	26.16843
500.713	-1.2293
500.921	70.43467
501.129	-20.19457
501.338	24.06077
501.546	19.84552
501.754	11.4153
501.962	66.2184
502.171	53.57014
502.379	-13.87303
502.587	66.2184
502.795	24.06077
503.004	62.00222
503.212	62.00222
503.42	47.24632
503.628	45.13842
503.837	51.46218
504.045	21.95313
504.253	104.16807
504.461	74.65103
504.669	87.30066
504.877	64.1103
505.085	89.40901
505.294	40.92271
505.502	53.57014
505.71	72.54284
505.918	64.1103
506.126	87.30066
506.334	43.03055
506.542	28.27611
506.75	125.25432
506.958	34.5993
507.166	19.84552
507.374	5.09289
507.582	91.51738
507.79	89.40901
507.998	53.57014
508.206	112.60231
508.414	34.5993
508.622	24.06077
508.83	11.4153
509.037	129.47183
509.245	-9.65855
509.453	5.09289
509.661	13.52282
509.869	110.49372
510.077	13.52282
510.285	5.09289
510.492	95.73419
510.7	24.06077
510.908	123.1456
511.116	102.05957
511.324	135.79826
511.531	129.47183
511.739	57.78613
511.947	62.00222
512.155	95.73419
512.362	118.92822
512.57	19.84552
512.778	55.67812
512.985	70.43467
513.193	97.84262
513.401	59.89417
513.608	121.0369
513.816	36.70708
514.024	64.1103
514.231	91.51738
514.439	62.00222
514.646	148.45169
514.854	62.00222
515.061	53.57014
515.269	83.08402
515.477	110.49372
515.684	70.43467
515.892	70.43467
516.099	72.54284
516.307	55.67812
516.514	163.21498
516.722	99.95108
516.929	70.43467
517.136	135.79826
517.344	74.65103
517.551	47.24632
517.759	66.2184
517.966	76.75925
518.173	121.0369
518.381	87.30066
518.588	173.76082
518.796	104.16807
519.003	57.78613
519.21	99.95108
519.418	40.92271
519.625	78.86748
519.832	93.62577
520.039	121.0369
520.247	125.25432
520.454	78.86748
520.661	62.00222
520.868	131.58062
521.076	19.84552
521.283	99.95108
521.49	72.54284
521.697	47.24632
521.904	87.30066
522.112	112.60231
522.319	129.47183
522.526	156.88773
522.733	55.67812
522.94	97.84262
523.147	106.2766
523.354	99.95108
523.561	87.30066
523.768	72.54284
523.975	171.65161
524.183	137.90711
524.39	108.38515
524.597	154.77869
524.804	38.81488
525.011	112.60231
525.218	129.47183
525.425	91.51738
525.632	129.47183
525.838	47.24632
526.045	142.12488
526.252	85.19233
526.459	89.40901
526.666	53.57014
526.873	171.65161
527.08	146.34273
527.287	146.34273
527.494	148.45169
527.701	80.97574
527.907	129.47183
528.114	99.95108
528.321	161.10588
528.528	104.16807
528.735	129.47183
528.941	173.76082
529.148	171.65161
529.355	137.90711
529.562	125.25432
529.768	173.76082
529.975	154.77869
530.182	150.56067
530.388	207.51095
530.595	220.16857
530.802	190.63523
531.008	64.1103
531.215	144.23379
531.422	148.45169
531.628	137.90711
531.835	118.92822
532.042	177.9793
532.248	129.47183
532.455	112.60231
532.661	97.84262
532.868	234.9367
533.074	190.63523
533.281	245.48595
533.487	177.9793
533.694	144.23379
533.9	184.30718
534.107	163.21498
534.313	146.34273
534.52	222.27825
534.726	114.71092
534.933	232.82691
535.139	205.40141
535.345	196.96348
535.552	188.52586
535.758	196.96348
535.965	112.60231
536.171	171.65161
536.377	230.71714
536.584	180.08857
536.79	188.52586
536.996	182.19786
537.203	140.01598
537.409	224.38794
537.615	154.77869
537.821	137.90711
538.028	245.48595
538.234	249.70578
538.44	154.77869
538.646	264.47581
538.853	169.54242
539.059	209.6205
539.265	344.67174
539.471	241.26619
539.677	249.70578
539.883	182.19786
540.09	218.05892
540.296	266.58589
540.502	226.49765
540.708	230.71714
540.914	196.96348
541.12	243.37606
541.326	239.15634
541.532	247.59586
541.738	232.82691
541.944	196.96348
542.15	241.26619
542.356	270.8061
542.562	167.43326
542.768	241.26619
542.974	268.69598
543.18	180.08857
543.386	222.27825
543.592	275.02639
543.798	315.12283
544.004	222.27825
544.21	268.69598
544.415	277.13656
544.621	196.96348
544.827	315.12283
545.033	243.37606
545.239	260.25571
545.445	336.22884
545.651	247.59586
545.856	291.9083
546.062	226.49765
546.268	296.12896
546.474	285.57744
546.679	260.25571
546.885	258.14568
547.091	266.58589
547.297	315.12283
547.502	283.46719
547.708	327.78622
547.914	315.12283
548.119	334.11816
548.325	348.89329
548.531	298.23931
548.736	302.46008
548.942	260.25571
549.147	218.05892
549.353	317.23335
549.559	401.66845
549.764	289.79799
549.97	443.89597
550.175	348.89329
550.381	361.55837
550.586	249.70578
550.792	344.67174
550.997	361.55837
551.203	386.89035
551.408	317.23335
551.614	416.44736
551.819	357.33661
552.025	424.8928
552.23	386.89035
552.435	327.78622
552.641	405.89092
552.846	353.11491
553.052	310.90184
553.257	399.55725
553.462	401.66845
553.668	393.22373
553.873	304.5705
554.078	408.00217
554.283	361.55837
554.489	534.70585
554.694	348.89329
554.899	386.89035
555.105	351.00409
555.31	401.66845
555.515	511.47284
555.72	475.57071
555.925	424.8928
556.131	488.24157
556.336	391.11258
556.541	557.94055
556.746	467.12378
556.951	460.78874
557.156	405.89092
557.361	467.12378
557.567	382.66819
557.772	473.45896
557.977	441.78444
558.182	492.4653
558.387	517.80894
558.592	393.22373
558.797	471.34722
559.002	530.48154
559.207	437.56144
559.412	526.25728
559.617	488.24157
559.822	526.25728
560.027	505.13686
560.232	574.83955
560.437	513.58486
560.642	484.01789
560.847	530.48154
561.051	574.83955
561.256	513.58486
561.461	517.80894
561.666	522.03308
561.871	452.34223
562.076	587.51435
562.281	593.85193
562.485	486.12972
562.69	570.61472
562.895	581.17689
563.1	560.05288
563.305	492.4653
563.509	739.64646
563.714	475.57071
563.919	585.40185
564.123	610.75271
564.328	598.07705
564.533	494.57719
564.737	572.72712
564.942	572.72712
565.147	587.51435
565.351	648.7824
565.556	663.57279
565.761	576.95198
565.965	771.34792
566.17	593.85193
566.374	568.50232
566.579	678.36375
566.784	560.05288
566.988	646.66954
567.193	695.26839
567.397	545.26687
567.602	572.72712
567.806	595.96448
568.011	604.41482
568.215	581.17689
568.42	602.30222
568.624	610.75271
568.828	745.98656
569.033	627.6543
569.237	750.21336
569.442	672.02469
569.646	562.16522
569.85	648.7824
570.055	762.89398
570.259	758.66706
570.463	691.04216
570.668	707.94735
570.872	697.38152
571.076	707.94735
571.281	731.19313
571.485	669.9117
571.689	838.98507
571.893	691.04216
572.098	737.53311
572.302	655.12107
572.506	781.91558
572.71	745.98656
572.914	775.57496
573.119	754.44019
573.323	902.40317
573.527	731.19313
573.731	832.64368
573.935	722.73996
574.139	758.66706
574.343	779.80203
574.547	838.98507
574.751	765.00745
574.955	898.17507
575.159	686.81598
575.364	830.52991
575.568	684.7029
575.772	965.82836
575.976	762.89398
576.18	902.40317
576.383	714.28698
576.587	838.98507
576.791	908.74539
576.995	860.12359
577.199	832.64368
577.403	999.65772
577.607	872.80712
577.811	942.57169
578.015	756.55362
578.219	948.91433
578.422	779.80203
578.626	976.39985
578.83	838.98507
579.034	1058.86295
579.238	974.28554
579.442	1001.77211
579.645	923.54416
579.849	940.45749
580.053	887.60495
580.257	932.00077
580.46	915.08767
580.664	1041.9467
580.868	963.71408
581.071	929.8866
581.275	1006.00091
581.479	951.02856
581.682	1016.57302
581.886	1033.48871
582.09	870.69318
582.293	923.54416
582.497	1084.23797
582.7	1109.61373
582.904	995.42896
583.107	1071.55036
583.311	948.91433
583.515	1196.31908
583.718	1016.57302
583.922	1052.51931
584.125	1060.9775
584.329	1134.99018
584.532	1111.72841
584.735	1183.63007
584.939	1088.46722
585.142	1232.27191
585.346	1012.34416
585.549	1139.21965
585.753	1128.646
585.956	1202.66362
586.159	991.20022
586.363	1228.04212
586.566	1096.92576
586.769	1249.1912
586.973	1016.57302
587.176	1367.63028
587.379	1003.88651
587.582	1145.56388
587.786	1179.40043
587.989	1289.37518
588.192	1181.51525
588.395	1206.89334
588.599	1276.68541
588.802	1270.34055
589.005	1126.53129
589.208	1253.42105
589.411	1177.28562
589.615	1194.20423
589.818	1285.14525
590.021	1266.11066
590.224	1299.95005
590.427	1416.27622
590.63	1088.46722
590.833	1325.32995
591.036	1312.63997
591.239	1270.34055
591.442	1287.26021
591.645	1371.86035
591.848	1321.09995
592.051	1475.49765
592.254	1312.63997
592.457	1483.95785
592.66	1312.63997
592.863	1452.23208
593.066	1230.15701
593.269	1528.37376
593.472	1329.55995
593.675	1519.91361
593.878	1346.48005
594.081	1511.45345
594.284	1369.74532
594.486	1492.41805
594.689	1414.16117
594.892	1695.45629
595.095	1593.93924
595.298	1659.50299
595.5	1340.135
595.703	1591.82424
595.906	1481.8428
596.109	1541.06395
596.311	1543.17898
596.514	1634.12372
596.717	1414.16117
596.92	1636.23868
597.122	1598.16922
597.325	1625.66389
597.528	1342.25001
597.73	1706.03063
597.933	1551.63908
598.136	1577.01925
598.338	1651.04327
598.541	1634.12372
598.743	1625.66389
598.946	1737.75316
599.148	1608.74413
599.351	1725.06424
599.554	1448.00198
599.756	1775.81915
599.959	1703.91577
600.161	1741.98278
600.363	1621.43397
600.566	1775.81915
600.768	1598.16922
600.971	1917.49675
601.173	1653.1582
601.376	1854.06169
601.578	1655.27313
601.78	1665.84775
601.983	1602.39919
602.185	1701.8009
602.388	1653.1582
602.59	1898.46673
602.792	1754.67153
602.995	1775.81915
603.197	1636.23868
603.399	1881.55079
603.601	1585.47925
603.804	1805.42514
604.006	1748.32717
604.208	2027.4386
604.41	1737.75316
604.613	2014.75388
604.815	1676.42229
605.017	1904.81012
605.219	1824.45712
605.421	1794.85166
605.623	1786.39281
605.826	1989.38371
606.028	1777.93389
606.23	1938.64068
606.432	1815.99851
606.634	1985.15526
606.836	1784.27808
607.038	1896.35225
607.24	1807.53982
607.442	1972.46976
607.644	1898.46673
607.846	1906.92457
608.048	1678.53719
608.25	1989.38371
608.452	1890.0088
608.654	1980.92679
608.856	1839.25952
609.058	1947.09809
609.26	1968.24121
609.462	2126.7935
609.664	1849.83252
609.866	2012.63973
610.067	1761.01585
610.269	2031.66679
610.471	1870.97816
610.673	2067.60527
610.875	2027.4386
611.077	2090.85849
611.278	1782.16336
611.48	2141.58962
611.682	1980.92679
611.884	2150.04437
612.085	1826.57176
612.287	2086.6307
612.489	1955.55541
612.69	2023.21039
612.892	1794.85166
613.094	2044.35119
613.295	1966.12693
613.497	2088.7446
613.699	1902.69566
613.9	2135.24847
614.102	2016.86801
614.304	2107.76935
614.505	2027.4386
614.707	1957.66973
614.908	1919.61116
615.11	2175.40785
615.311	2027.4386
615.513	2078.17503
615.714	2107.76935
615.916	2069.71924
616.117	2042.23714
616.319	2150.04437
616.52	2084.51679
616.722	2124.67973
616.923	2027.4386
617.124	2006.29726
617.326	2040.12309
617.527	2173.29427
617.729	2006.29726
617.93	2302.20667
618.131	2154.2717
618.333	2118.3384
618.534	2122.56596
618.735	2283.18892
618.937	2126.7935
619.138	2177.52142
619.339	2059.14934
619.54	2215.56424
619.742	2221.90444
619.943	2251.491
620.144	1989.38371
620.345	2350.80405
620.546	2204.99707
620.748	2412.07148
620.949	2209.22396
621.15	2293.75443
621.351	2183.86208
621.552	2211.3374
621.753	2230.35792
621.954	2344.46555
622.155	2135.24847
622.356	2390.94575
622.558	2156.38535
622.759	2321.22365
622.96	2131.021
623.161	2272.62317
623.362	2204.99707
623.563	2488.11524
623.764	2238.81126
623.965	2388.83312
624.166	2251.491
624.366	2371.93172
624.567	2283.18892
624.768	2509.23598
624.969	2185.97562
625.17	2259.94398
625.371	2253.60426
625.572	2513.45999
625.773	2319.11069
625.973	2380.3825
626.174	2217.67765
626.375	2344.46555
626.576	2293.75443
626.777	2530.35557
626.977	2304.3197
627.178	2336.01409
627.379	2367.70627
627.58	2412.07148
627.78	2331.7883
627.981	2338.12697
628.182	2226.1312
628.382	2352.91686
628.583	2226.1312
628.784	2431.08373
628.984	2380.3825
629.185	2559.92106
629.386	2395.17098
629.586	2581.03786
629.787	2314.88474
629.987	2625.3792
630.188	2418.40899
630.388	2722.48862
630.589	2393.05837
630.79	2445.87044
630.99	2386.72048
631.191	2471.21785
631.391	2253.60426
631.591	2466.99339
631.792	2369.819
631.992	2749.92762
632.193	2386.72048
632.393	2688.7145
632.594	2585.26107
632.794	2724.59939
632.994	2420.52147
633.195	2475.44227
633.395	2543.02678
633.595	2583.14947
633.796	2545.1386
633.996	2728.82089
634.196	2551.47401
634.397	2600.04195
634.597	2610.59935
634.797	2616.93365
634.997	2538.80309
635.198	2733.04234
635.398	2492.33948
635.598	2796.3577
635.798	2422.63395
635.998	2642.26972
636.199	2479.66664
636.399	2692.93644
636.599	2469.10563
636.799	2625.3792
636.999	2646.49222
637.199	2667.60399
637.399	2614.82223
637.599	2796.3577
637.799	2445.87044
637.999	2775.25393
638.199	2543.02678
638.399	2739.37442
638.599	2568.36792
638.799	2906.07486
638.999	2819.57026
639.199	3011.53516
639.399	2800.57829
639.599	2984.11908
639.799	2606.37643
639.999	2794.24738
640.199	2439.53334
640.399	2893.41715
640.599	2545.1386
640.799	2977.79193
640.998	2602.15345
641.198	2946.15415
641.398	2817.46009
641.598	2844.89114
641.798	2733.04234
641.997	2716.15622
642.197	2606.37643
642.397	2844.89114
642.597	2749.92762
642.796	2872.31981
642.996	2813.23973
643.196	2929.2793
643.395	2809.0193
643.595	2979.90099
643.795	2874.42961
643.994	3180.19163
644.194	2918.73205
644.394	3045.2745
644.593	2946.15415
644.793	2897.63644
644.992	2868.10017
645.192	2933.4981
645.392	2912.40352
645.591	3247.6253
645.791	2859.66072
645.99	3119.06539
646.19	2842.78114
646.389	2863.88047
646.589	3036.84003
646.788	3171.76124
646.987	2671.8262
647.187	3003.09972
647.386	3019.97037
647.586	3112.74122
647.785	2973.57375
647.984	3005.2086
648.184	2979.90099
648.383	3083.22651
648.582	2901.85568
648.782	3142.25281
648.981	2861.7706
649.18	2884.97838
649.38	2868.10017
649.579	3076.90152
649.778	3140.14494
649.977	3338.21216
650.177	2859.66072
650.376	3049.49164
650.575	2901.85568
650.774	2910.29398
650.973	3024.18787
651.173	3165.43827
651.372	2971.46464
651.571	3253.94633
651.77	3045.2745
651.969	3173.86886
652.168	3076.90152
652.367	3205.48124
652.566	3003.09972
652.765	3165.43827
652.964	3108.52502
653.163	3184.40673
653.362	3060.03421
653.561	3163.33058
653.76	3112.74122
653.959	3190.72926
654.158	3205.48124
654.357	3161.22288
654.556	3150.68411
654.755	3315.04179
654.954	3167.54594
655.153	3376.1228
655.352	2956.70045
655.551	3213.91059
655.749	3283.44247
655.948	3348.74346
656.147	3218.12516
656.346	3264.48105
656.545	3180.19163
656.743	3283.44247
656.942	3148.57631
657.141	3390.8643
657.34	3382.44069
657.538	3333.99952
657.737	3336.10585
657.936	3355.06203
658.135	3119.06539
658.333	3485.61028
658.532	3247.6253
658.731	3424.5559
658.929	3211.80327
659.128	3565.58945
659.326	3234.98278
659.525	3536.12652
659.724	3211.80327
659.922	3348.74346
660.121	3291.86933
660.319	3266.58794
660.518	3213.91059
660.716	3392.97015
660.915	3449.82161
661.113	3392.97015
661.312	3125.38943
661.51	3502.45019
661.709	3519.28894
661.907	3420.34469
662.105	3323.46762
662.304	3620.29665
662.502	3167.54594
662.701	3491.92538
662.899	3325.57403
663.097	3380.33474
663.296	3302.40252
663.494	3529.81257
663.692	3220.23242
663.891	3165.43827
664.089	3245.51825
664.287	3441.39999
664.485	3424.5559
664.684	3483.50521
664.882	3293.976
665.08	3350.84967
665.278	3491.92538
665.476	3586.63217
665.675	3441.39999
665.873	3677.09451
666.071	3333.99952
666.269	3643.43819
666.467	3475.08474
666.665	3472.97958
666.863	3441.39999
667.061	3546.64941
667.259	3451.92697
667.457	3664.47396
667.655	3386.65253
667.853	3409.81638
668.051	3285.54921
668.249	3563.48508
668.447	3392.97015
668.645	3567.69381
668.843	3466.66398
669.041	3565.58945
669.239	3567.69381
669.437	3746.49519
669.635	3350.84967
669.833	3719.15803
670.031	3281.33571
670.229	3620.29665
670.426	3574.00676
670.624	3512.97455
670.822	3561.38068
671.02	3719.15803
671.218	3519.28894
671.415	3668.68088
671.613	3226.5541
671.811	3555.06739
672.009	3458.24294
672.206	3603.46501
672.404	3552.96292
672.602	3645.54185
672.799	3312.93529
672.997	3496.13536
673.195	3508.76486
673.392	3803.26186
673.59	3496.13536
673.788	3595.04874
673.985	3588.73634
674.183	3546.64941
674.38	3443.50542
674.578	3626.6082
674.775	3374.0168
674.973	3630.81581
675.17	3424.5559
675.368	3717.05504
675.565	3561.38068
675.763	3788.54595
675.96	3887.33422
676.158	3702.33355
676.355	3550.85844
676.553	3820.07887
676.75	3399.28762
676.947	3500.34527
677.145	3843.20019
677.342	3735.98129
677.539	3447.71623
677.737	3710.74594
677.934	3494.03038
678.131	3664.47396
678.329	3557.17184
678.526	3752.8033
678.723	3622.40052
678.92	3719.15803
679.118	3477.18988
679.315	3567.69381
679.512	3641.3345
679.709	3643.43819
679.906	3306.61568
680.104	3534.02189
680.301	3483.50521
680.498	3603.46501
680.695	3660.26696
680.892	3494.03038
681.089	3378.22878
681.286	3849.50559
681.483	3283.44247
681.68	3824.28293
681.877	3512.97455
682.075	3721.26101
682.272	3557.17184
682.469	3805.36406
682.665	3428.76703
682.862	3626.6082
683.059	3447.71623
683.256	3674.99113
683.453	3527.70788
683.65	3674.99113
683.847	3512.97455
684.044	3618.19276
684.241	3508.76486
684.438	3748.59792
684.635	3552.96292
684.831	3820.07887
685.028	3796.95516
685.225	3681.30121
685.422	3479.29501
685.619	3763.31643
685.815	3546.64941
686.012	3664.47396
686.209	3317.14827
686.405	3649.74912
686.602	3447.71623
686.799	3512.97455
686.996	3382.44069
687.192	3538.23114
687.389	3437.18907
687.586	3504.5551
687.782	3331.89318
687.979	3801.15965
688.175	3620.29665
688.372	3630.81581
688.568	3576.11105
688.765	3727.56982
688.962	3390.8643
689.158	3578.21531
689.355	3319.25474
689.551	3635.02335
689.748	3584.52799
689.944	3441.39999
690.14	3315.04179
690.337	3468.7692
690.533	3329.78681
690.73	3552.96292
690.926	3146.46849
691.123	3512.97455
691.319	3418.23907
691.515	3542.44031
691.712	3426.66147
691.908	3662.37047
692.104	3392.97015
692.301	3620.29665
692.497	3477.18988
692.693	3601.36097
692.889	3483.50521
693.086	3611.88098
693.282	3262.37414
693.478	3723.36396
693.674	3529.81257
693.87	3592.94463
694.067	3525.60317
694.263	3403.49918
694.459	3390.8643
694.655	3660.26696
694.851	3592.94463
695.047	3624.50437
695.243	3302.40252
695.439	3496.13536
695.635	3441.39999
695.831	3536.12652
696.027	3548.75393
696.224	3424.5559
696.42	3565.58945
696.615	3729.67271
696.811	3578.21531
697.007	3586.63217
697.203	3504.5551
697.399	3386.65253
697.595	3534.02189
697.791	3641.3345
697.987	3216.01788
698.183	3635.02335
698.379	3519.28894
698.575	3727.56982
698.77	3527.70788
698.966	3500.34527
699.162	3439.29454
699.358	3727.56982
699.554	3443.50542
699.749	3672.88773
699.945	3466.66398
700.141	3597.15284
700.337	3386.65253
700.532	3656.05988
700.728	3321.36119
700.924	3555.06739
701.119	3325.57403
701.315	3414.02776
701.511	3180.19163
701.706	3647.64549
701.902	3477.18988
702.097	3466.66398
702.293	3574.00676
702.489	3618.19276
702.684	3597.15284
702.88	3586.63217
703.075	3321.36119
703.271	3662.37047
703.466	3418.23907
703.662	3584.52799
703.857	3211.80327
704.053	3519.28894
704.248	3550.85844
704.443	3765.419
704.639	3399.28762
704.834	3464.55875
705.03	3475.08474
705.225	3586.63217
705.42	3506.65999
705.616	3531.91724
705.811	3521.39371
706.006	3584.52799
706.202	3289.76264
706.397	3595.04874
706.592	3447.71623
706.787	3552.96292
706.983	3226.5541
707.178	3571.90246
707.373	3163.33058
707.568	3601.36097
707.763	3184.40673
707.959	3538.23114
708.154	3411.92208
708.349	3550.85844
708.544	3401.39341
708.739	3563.48508
708.934	3559.27627
709.129	3519.28894
709.324	3483.50521
709.519	3651.85272
709.714	3435.08359
709.909	3719.15803
710.104	3264.48105
710.299	3531.91724
710.494	3298.1893
710.689	3508.76486
710.884	3312.93529
711.079	3510.86971
711.274	3283.44247
711.469	3550.85844
711.664	3323.46762
711.859	3622.40052
712.054	3376.1228
712.249	3546.64941
712.443	3531.91724
712.638	3550.85844
712.833	3230.76847
713.028	3338.21216
713.223	3298.1893
713.417	3403.49918
713.612	3441.39999
713.807	3733.87845
714.002	3409.81638
714.196	3613.98493
714.391	3178.08406
714.586	3462.4535
714.78	3477.18988
714.975	3664.47396
715.17	3213.91059
715.364	3660.26696
715.559	3561.38068
715.754	3609.77702
715.948	3399.28762
716.143	3561.38068
716.337	3458.24294
716.532	3696.02404
716.726	3422.4503
716.921	3540.33573
717.115	3306.61568
717.31	3384.54662
717.504	3357.16819
717.699	3529.81257
717.893	3213.91059
718.088	3483.50521
718.282	3230.76847
718.476	3569.79814
718.671	3268.69481
718.865	3542.44031
719.059	3226.5541
719.254	3378.22878
719.448	3416.13342
719.642	3451.92697
719.837	3268.69481
720.031	3401.39341
720.225	3112.74122
720.419	3470.8744
720.614	3454.03231
720.808	3525.60317
721.002	3097.98425
721.196	3376.1228
721.39	3348.74346
721.585	3435.08359
721.779	3182.29919
721.973	3382.44069
722.167	3171.76124
722.361	3523.49845
722.555	3302.40252
722.749	3173.86886
722.943	3205.48124
723.137	3397.18182
723.331	3026.29661
723.525	3378.22878
723.719	3226.5541
723.913	3517.18416
724.107	3167.54594
724.301	3416.13342
724.495	3258.16027
724.689	3323.46762
724.883	3291.86933
725.077	3479.29501
725.271	3028.40532
725.465	3306.61568
725.659	3260.26721
725.853	3521.39371
726.046	3022.07913
726.24	3342.42473
726.434	3154.89967
726.628	3487.71533
726.822	3266.58794
727.015	3424.5559
727.209	3239.19702
727.403	3506.65999
727.596	3154.89967
727.79	3470.8744
727.984	3344.53099
728.177	3481.40012
728.371	3279.22894
728.565	3306.61568
728.758	3218.12516
728.952	3449.82161
729.146	3150.68411
729.339	3346.63724
729.533	3131.71331
729.726	3205.48124
729.92	3144.36066
730.113	3475.08474
730.307	3414.02776
730.5	3222.33966
730.694	3190.72926
730.887	3466.66398
731.081	3272.90852
731.274	3458.24294
731.468	3034.73138
731.661	3361.38045
731.854	3397.18182
732.048	3475.08474
732.241	3114.84929
732.435	3253.94633
732.628	3251.83934
732.821	3232.87564
733.014	3350.84967
733.208	3340.31846
733.401	3175.97647
733.594	3239.19702
733.788	3226.5541
733.981	3291.86933
734.174	3180.19163
734.367	3306.61568
734.56	3264.48105
734.754	3298.1893
734.947	3249.73232
735.14	3382.44069
735.333	3203.37387
735.526	3609.77702
735.719	3289.76264
735.912	3365.59263
736.105	3192.83673
736.298	3338.21216
736.491	3232.87564
736.684	3251.83934
736.877	3234.98278
737.07	3451.92697
737.263	3081.1182
737.456	3502.45019
737.649	3258.16027
737.842	3197.05164
738.035	3173.86886
738.228	3239.19702
738.421	3087.44308
738.614	3289.76264
738.807	3239.19702
739	3032.62271
739.192	3110.63313
739.385	3312.93529
739.578	3256.05331
739.771	3517.18416
739.964	3072.68479
740.156	3624.50437
740.349	3228.6613
740.542	3298.1893
740.735	3251.83934
740.927	3350.84967
741.12	3241.30411
741.313	3106.4169
741.505	3180.19163
741.698	3207.5886
741.891	3190.72926
742.083	3323.46762
742.276	3306.61568
742.468	3289.76264
742.661	3226.5541
742.854	3199.15906
743.046	3140.14494
743.239	3201.26647
743.431	3361.38045
743.624	3306.61568
743.816	3060.03421
744.009	3173.86886
744.201	3104.30876
744.393	3243.41119
744.586	3207.5886
744.778	3477.18988
744.971	3024.18787
745.163	3247.6253
745.355	3213.91059
745.548	3089.55135
745.74	3087.44308
745.932	3095.87605
746.125	3163.33058
746.317	3110.63313
746.509	3135.92916
746.702	3336.10585
746.894	3079.00987
747.086	3142.25281
747.278	3123.28143
747.471	3180.19163
747.663	3213.91059
747.855	3367.6987
748.047	3097.98425
748.239	3275.01534
748.431	3017.86159
748.623	3321.36119
748.815	3222.33966
749.008	3201.26647
749.2	3108.52502
749.392	3032.62271
749.584	3068.46799
749.776	3342.42473
749.968	3157.00742
750.16	3146.46849
750.352	3091.6596
750.544	3188.62177
750.736	3015.7528
750.928	3173.86886
751.12	3079.00987
751.311	3070.5764
751.503	3154.89967
751.695	3182.29919
751.887	3131.71331
752.079	3157.00742
752.271	2952.48197
752.463	3085.3348
752.654	3074.79317
752.846	3213.91059
753.038	3045.2745
753.23	3216.01788
753.421	3180.19163
753.613	2941.93553
753.805	3022.07913
753.997	3205.48124
754.188	3125.38943
754.38	3154.89967
754.572	3089.55135
754.763	3154.89967
754.955	2906.07486
755.146	3032.62271
755.338	3032.62271
755.53	3036.84003
755.721	2956.70045
755.913	2948.26344
756.104	2903.96528
756.296	2948.26344
756.487	2906.07486
756.679	2990.44609
756.87	2897.63644
757.062	2994.66403
757.253	2849.11109
757.445	2998.8819
757.636	3169.6536
757.827	3108.52502
758.019	2948.26344
758.21	3053.70871
758.401	2893.41715
758.593	2912.40352
758.784	2825.90067
758.975	2884.97838
759.167	3022.07913
759.358	2965.13722
759.549	3057.92573
759.74	3081.1182
759.932	3121.17342
760.123	3007.31747
760.314	2971.46464
760.505	3091.6596
760.696	2868.10017
760.888	2990.44609
761.079	2825.90067
761.27	2893.41715
761.461	2876.53939
761.652	2876.53939
761.843	2735.15305
762.034	2918.73205
762.225	2899.74607
762.416	2678.15941
762.607	2792.13705
762.798	2986.2281
762.989	2910.29398
763.18	2986.2281
763.371	2777.36436
763.562	2963.02805
763.753	2859.66072
763.944	2910.29398
764.135	2809.0193
764.326	2973.57375
764.517	2798.468
764.708	3079.00987
764.899	2676.04835
765.089	2908.18443
765.28	2809.0193
765.471	2790.02671
765.662	2741.48509
765.853	2876.53939
766.043	2657.04827
766.234	2884.97838
766.425	2568.36792
766.615	2741.48509
766.806	2724.59939
766.997	2703.49108
767.187	2608.48789
767.378	2836.45107
767.569	2564.14452
767.759	2654.93708
767.95	2659.15944
768.141	2621.15645
768.331	2627.49056
768.522	2901.85568
768.712	2572.59128
768.903	2648.60346
769.093	2388.83312
769.284	2711.93456
769.474	2564.14452
769.665	2669.7151
769.855	2606.37643
770.046	2551.47401
770.236	2606.37643
770.426	2811.12952
770.617	2688.7145
770.807	2676.04835
770.998	2547.25042
771.188	2612.71079
771.378	2464.88115
771.569	2724.59939
771.759	2481.77881
771.949	2509.23598
772.139	2471.21785
772.33	2378.26982
772.52	2498.67575
772.71	2545.1386
772.9	2555.69756
773.09	2492.33948
773.281	2479.66664
773.471	2481.77881
773.661	2466.99339
773.851	2486.00311
774.041	2543.02678
774.231	2532.46747
774.421	2424.74641
774.611	2433.19615
774.802	2304.3197
774.992	2486.00311
775.182	2378.26982
775.372	2557.80932
775.562	2526.13175
775.752	2479.66664
775.942	2302.20667
776.131	2437.42096
776.321	2268.39681
776.511	2507.12396
776.701	2281.07579
776.891	2361.36801
777.081	2382.49517
777.271	2619.04505
777.461	2471.21785
777.651	2530.35557
777.84	2181.74854
778.03	2397.28358
778.22	2209.22396
778.41	2395.17098
778.599	2327.56246
778.789	2409.95895
778.979	2264.17041
779.169	2302.20667
779.358	2059.14934
779.548	2361.36801
779.738	2219.79105
779.927	2344.46555
780.117	2262.0572
780.307	2213.45083
780.496	2209.22396
780.686	2190.20267
780.875	2255.71751
781.065	2352.91686
781.254	2124.67973
781.444	2323.33659
781.633	2173.29427
781.823	2325.44953
782.012	2048.57927
782.202	2185.97562
782.391	2209.22396
782.581	2264.17041
782.77	2133.13474
782.96	2219.79105
783.149	2308.54575
783.338	2200.77014
783.528	2177.52142
783.717	2238.81126
783.906	2054.92133
784.096	2118.3384
784.285	2304.3197
784.474	2076.06109
784.663	2158.49899
784.853	1985.15526
785.042	2137.36219
785.231	2278.96265
785.42	2124.67973
785.61	2194.42968
785.799	2038.00902
785.988	2192.31618
786.177	1828.6864
786.366	2217.67765
786.555	2048.57927
786.744	2200.77014
786.933	1980.92679
787.122	2133.13474
787.312	2204.99707
787.501	2057.03534
787.69	1940.75504
787.879	2114.1108
788.068	1966.12693
788.257	2095.08625
788.445	1993.61214
788.634	2243.03788
788.823	1940.75504
789.012	2040.12309
789.201	2038.00902
789.39	2031.66679
789.579	1997.84054
789.768	2078.17503
789.957	1883.6653
790.145	1966.12693
790.334	1921.72558
790.523	2128.90725
790.712	2018.98215
790.9	2251.491
791.089	1987.26949
791.278	2040.12309
791.467	1847.71793
791.655	2065.4913
791.844	1792.73696
792.033	1913.26789
792.221	1870.97816
792.41	2092.97237
792.599	1815.99851
792.787	2040.12309
792.976	1870.97816
793.164	1854.06169
793.353	1847.71793
793.541	1794.85166
793.73	1913.26789
793.918	1955.55541
794.107	1706.03063
794.295	1934.41194
794.484	1763.13062
794.672	1915.38232
794.861	1866.74907
795.049	2061.26334
795.238	1710.26034
795.426	1938.64068
795.614	1642.58352
795.803	1887.8943
795.991	1930.18318
796.179	1938.64068
796.368	1824.45712
796.556	1898.46673
796.744	1737.75316
796.932	1854.06169
797.121	1663.73283
797.309	1851.94711
797.497	1663.73283
797.685	1788.50753
797.874	1629.89381
798.062	1828.6864
798.25	1651.04327
798.438	1826.57176
798.626	1754.67153
798.814	1830.80103
799.002	1695.45629
799.19	1813.88384
799.378	1602.39919
799.566	1765.24539
799.755	1784.27808
799.943	1741.98278
800.131	1767.36015
800.318	1765.24539
800.506	1653.1582
800.694	1940.75504
800.882	1667.96266
801.07	1710.26034
801.258	1538.94892
801.446	1864.63452
801.634	1577.01925
801.822	1735.63835
802.01	1644.69846
802.197	1843.48873
802.385	1712.3752
802.573	1790.62224
802.761	1731.40872
802.949	1794.85166
803.136	1686.99676
803.324	1885.7798
803.512	1767.36015
803.699	1769.4749
803.887	1731.40872
804.075	1777.93389
804.262	1608.74413
804.45	1763.13062
804.638	1655.27313
804.825	1815.99851
805.013	1439.54177
805.201	1672.19248
805.388	1589.70925
805.576	1761.01585
805.763	1746.21237
805.951	1596.05423
806.138	1553.7541
806.326	1691.22653
806.513	1680.65209
806.701	1883.6653
806.888	1583.36425
807.075	1921.72558
807.263	1847.71793
807.45	1803.31045
807.638	1729.2939
807.825	1955.55541
808.012	1636.23868
808.2	1773.7044
808.387	1663.73283
808.574	1756.78631
808.761	1686.99676
808.949	1934.41194
809.136	1672.19248
809.323	1746.21237
809.51	1653.1582
809.698	1792.73696
809.885	1706.03063
810.072	1868.86362
810.259	1587.59425
810.446	1813.88384
810.633	1703.91577
810.82	1862.51996
811.008	1748.32717
811.195	1930.18318
811.382	1655.27313
811.569	1997.84054
811.756	1769.4749
811.943	1936.52631
812.13	1752.55675
812.317	1896.35225
812.504	1756.78631
812.691	1837.1449
812.878	1678.53719
813.064	1826.57176
813.251	1629.89381
813.438	1932.29756
813.625	1811.76917
813.812	1676.42229
813.999	1672.19248
814.186	1667.96266
814.372	1598.16922
814.559	1839.25952
814.746	1593.93924
814.933	1788.50753
815.12	1653.1582
815.306	1659.50299
815.493	1786.39281
815.68	1722.94941
815.866	1706.03063
816.053	1904.81012
816.24	1896.35225
816.426	1811.76917
816.613	1761.01585
816.799	1788.50753
816.986	1710.26034
817.173	1909.03901
817.359	1600.2842
817.546	1811.76917
817.732	1674.30739
817.919	2002.06891
818.105	1733.52354
818.292	1904.81012
818.478	1828.6864
818.665	1997.84054
818.851	1794.85166
819.037	1995.72634
819.224	1727.17907
819.41	1854.06169
819.597	1761.01585
819.783	1822.34247
819.969	1615.08906
820.156	1830.80103
820.342	1773.7044
820.528	1881.55079
820.714	1733.52354
820.901	1746.21237
821.087	1845.60333
821.273	1835.03028
821.459	1657.38806
821.646	1769.4749
821.832	1739.86797
822.018	1868.86362
822.204	1543.17898
822.39	1752.55675
822.576	1636.23868
822.762	1672.19248
822.948	1577.01925
823.134	1780.04862
823.32	1606.62915
823.507	1805.42514
823.693	1545.294
823.879	1748.32717
824.065	1524.14369
824.25	1604.51417
824.436	1549.52405
824.622	1693.34141
824.808	1574.90424
824.994	1617.20403
825.18	1538.94892
825.366	1473.3826
825.552	1693.34141
825.738	1777.93389
825.923	1720.83457
826.109	1659.50299
826.295	1572.78923
826.481	1634.12372
826.667	1549.52405
826.852	1638.35363
827.038	1467.03745
827.224	1708.14549
827.409	1304.18002
827.595	1655.27313
827.781	1380.32048
827.966	1625.66389
828.152	1354.94013
828.338	1589.70925
828.523	1321.09995
828.709	1678.53719
828.894	1414.16117
829.08	1562.21417
829.266	1464.9224
829.451	1551.63908
829.637	1460.69229
829.822	1701.8009
830.008	1505.10832
830.193	1543.17898
830.378	1593.93924
830.564	1608.74413
830.749	1627.77886
830.935	1636.23868
831.12	1490.303
831.305	1655.27313
831.491	1475.49765
831.676	1500.87823
831.861	1236.50171
832.047	1445.88693
832.232	1519.91361
832.417	1376.09041
832.602	1312.63997
832.788	1409.93107
832.973	1414.16117
833.158	1598.16922
833.343	1295.7201
833.528	1511.45345
833.714	1323.21494
833.899	1524.14369
834.084	1333.78997
834.269	1596.05423
834.454	1270.34055
834.639	1551.63908
834.824	1316.86995
835.009	1481.8428
835.194	1354.94013
835.379	1574.90424
835.564	1295.7201
835.749	1373.97538
835.934	1342.25001
836.119	1475.49765
836.304	1280.91532
836.489	1407.81603
836.674	1318.98495
836.859	1329.55995
837.044	1151.90816
837.228	1376.09041
837.413	1263.99572
837.598	1422.62136
837.783	1340.135
837.968	1502.99328
838.152	1283.03028
838.337	1325.32995
838.522	1217.46769
838.707	1373.97538
838.891	1223.81234
839.076	1287.26021
839.261	1204.77848
839.445	1278.80036
839.63	1151.90816
839.815	1228.04212
839.999	1185.7449
840.184	1219.58257
840.368	1082.12336
840.553	1278.80036
840.737	1194.20423
840.922	1329.55995
841.106	1084.23797
841.291	1357.05515
841.475	982.74283
841.66	1255.53598
841.844	1143.44913
842.029	1120.18717
842.213	1105.38439
842.397	1120.18717
842.582	1075.77955
842.766	1206.89334
842.951	1101.15507
843.135	1270.34055
843.319	1162.48203
843.504	1107.49906
843.688	999.65772
843.872	1124.41658
844.056	1050.40478
844.241	1257.65091
844.425	1067.3212
844.609	1225.92723
844.793	1160.36725
844.977	1147.67864
845.161	893.947
845.346	1130.76072
845.53	1008.11532
845.714	1069.43578
845.898	1022.91636
846.082	1063.09206
846.266	940.45749
846.45	1120.18717
846.634	982.74283
846.818	934.11494
847.002	917.20178
847.186	1016.57302
847.37	986.97151
847.554	1018.68746
847.738	957.37129
847.922	1118.07247
848.106	991.20022
848.29	868.57925
848.473	940.45749
848.657	982.74283
848.841	972.17123
849.025	1080.00875
849.209	889.71896
849.392	951.02856
849.576	984.85717
849.76	1039.83219
849.944	974.28554
850.127	1067.3212
850.311	885.49095
850.495	1046.17573
850.678	813.62002
850.862	1037.71769
851.046	885.49095
851.229	1001.77211
851.413	792.48349
851.596	982.74283
851.78	830.52991
851.964	1029.25975
852.147	900.28912
852.331	877.03503
852.514	874.92107
852.698	991.20022
852.881	923.54416
853.065	923.54416
853.248	864.3514
853.431	1012.34416
853.615	879.149
853.798	826.30238
853.982	858.0097
854.165	917.20178
854.348	809.39263
854.532	881.26297
854.715	765.00745
854.898	953.1428
855.081	762.89398
855.265	737.53311
855.448	663.57279
855.631	883.37696
855.814	737.53311
855.997	906.63131
856.181	805.16529
856.364	832.64368
856.547	701.60782
856.73	872.80712
856.913	794.5971
857.096	951.02856
857.279	800.93799
857.462	881.26297
857.645	606.52744
857.828	729.07982
858.011	665.68575
858.194	906.63131
858.377	598.07705
858.56	896.06103
858.743	627.6543
858.926	784.02915
859.109	627.6543
859.292	883.37696
859.475	699.49467
859.658	733.30644
859.841	705.83416
860.023	714.28698
860.206	688.92907
860.389	805.16529
860.572	765.00745
860.755	653.00817
860.937	653.00817
861.12	745.98656
861.303	644.55668
861.486	737.53311
861.668	672.02469
861.851	762.89398
862.034	661.45984
862.216	655.12107
862.399	631.87982
862.581	729.07982
862.764	648.7824
862.947	686.81598
863.129	579.06443
863.312	653.00817
863.494	519.921
863.677	707.94735
863.859	511.47284
864.042	600.18963
864.224	486.12972
864.406	623.42883
864.589	602.30222
864.771	553.71593
864.954	503.0249
865.136	646.66954
865.318	469.23549
865.501	562.16522
865.683	492.4653
865.865	614.97804
866.048	389.00146
866.23	549.49137
866.412	509.36083
866.594	509.36083
866.777	454.45383
866.959	490.35343
867.141	452.34223
867.323	515.69689
867.505	511.47284
867.687	547.37911
867.869	441.78444
868.052	492.4653
868.234	509.36083
868.416	576.95198
868.598	367.89113
868.78	488.24157
868.962	547.37911
869.144	579.06443
869.326	479.79427
869.508	560.05288
869.69	469.23549
869.872	486.12972
870.054	456.56545
870.236	515.69689
870.417	515.69689
870.599	530.48154
870.781	486.12972
870.963	536.81802
871.145	511.47284
871.327	469.23549
871.508	418.55869
871.69	511.47284
871.872	450.23064
872.054	625.54156
872.235	433.33849
872.417	500.91295
872.599	496.6891
872.78	511.47284
872.962	479.79427
873.144	593.85193
873.325	513.58486
873.507	612.86537
873.689	460.78874
873.87	509.36083
874.052	528.3694
874.233	591.73939
874.415	564.27757
874.596	479.79427
874.778	386.89035
874.959	496.6891
875.141	437.56144
875.322	557.94055
875.503	389.00146
875.685	589.62687
875.866	484.01789
876.048	562.16522
876.229	460.78874
876.41	454.45383
876.592	477.68249
876.773	528.3694
876.954	389.00146
877.136	427.0042
877.317	422.78141
877.498	509.36083
877.679	477.68249
877.86	448.11907
878.042	545.26687
878.223	519.921
878.404	408.00217
878.585	471.34722
878.766	519.921
878.947	492.4653
879.128	519.921
879.309	619.20341
879.49	494.57719
879.672	547.37911
879.853	484.01789
880.034	507.24884
880.215	488.24157
880.396	509.36083
880.576	475.57071
880.757	481.90607
880.938	450.23064
881.119	443.89597
881.3	403.77968
881.481	536.81802
881.662	382.66819
881.843	467.12378
882.023	441.78444
882.204	492.4653
882.385	435.44996
882.566	511.47284
882.747	494.57719
882.927	467.12378
883.108	471.34722
883.289	511.47284
883.469	458.67709
883.65	528.3694
883.831	443.89597
884.011	458.67709
884.192	458.67709
884.373	340.45025
884.553	471.34722
884.734	555.82823
884.914	435.44996
885.095	490.35343
885.275	408.00217
885.456	562.16522
885.636	433.33849
885.817	500.91295
885.997	399.55725
886.178	443.89597
886.358	357.33661
886.538	543.15464
886.719	500.91295
886.899	536.81802
887.08	515.69689
887.26	653.00817
887.44	560.05288
887.621	610.75271
887.801	503.0249
887.981	562.16522
888.161	467.12378
888.342	566.38994
888.522	424.8928
888.702	467.12378
888.882	418.55869
889.062	496.6891
889.242	488.24157
889.423	515.69689
889.603	517.80894
889.783	560.05288
889.963	579.06443
890.143	543.15464
890.323	467.12378
890.503	500.91295
890.683	519.921
890.863	492.4653
891.043	484.01789
891.223	547.37911
891.403	431.22705
891.583	661.45984
891.763	437.56144
891.943	519.921
892.122	448.11907
892.302	422.78141
892.482	465.01208
892.662	458.67709
892.842	433.33849
893.022	443.89597
893.201	469.23549
893.381	553.71593
893.561	500.91295
893.741	513.58486
893.92	492.4653
894.1	477.68249
894.28	443.89597
894.459	477.68249
894.639	492.4653
894.819	475.57071
894.998	435.44996
895.178	568.50232
895.357	422.78141
895.537	492.4653
895.716	492.4653
895.896	410.11344
896.075	403.77968
896.255	450.23064
896.434	384.77926
896.614	443.89597
896.793	351.00409
896.973	475.57071
897.152	340.45025
897.331	522.03308
897.511	492.4653
897.69	454.45383
897.87	450.23064
898.049	401.66845
898.228	401.66845
898.407	473.45896
898.587	298.23931
898.766	492.4653
898.945	422.78141
899.124	467.12378
899.304	429.11561
899.483	458.67709
899.662	357.33661
899.841	488.24157
900.02	414.33604
900.199	429.11561
900.378	416.44736
900.557	420.67004
900.737	277.13656
900.916	408.00217
901.095	234.9367
901.274	310.90184
901.453	315.12283
901.632	418.55869
901.811	315.12283
901.989	323.56502
902.168	207.51095
902.347	410.11344
902.526	332.0075
902.705	298.23931
902.884	325.67561
903.063	308.79138
903.242	289.79799
903.42	359.44748
903.599	262.36575
903.778	285.57744
903.957	370.00209
904.135	287.68771
904.314	264.47581
904.493	268.69598
904.672	256.03568
904.85	304.5705
905.029	323.56502
905.207	302.46008
905.386	245.48595
905.565	306.68093
905.743	298.23931
905.922	230.71714
906.1	218.05892
906.279	296.12896
906.457	272.91624
906.636	241.26619
906.814	218.05892
906.993	296.12896
907.171	228.60739
907.35	218.05892
907.528	218.05892
907.707	279.24676
907.885	156.88773
908.063	218.05892
908.242	220.16857
908.42	275.02639
908.598	215.94929
908.777	256.03568
908.955	95.73419
909.133	184.30718
909.311	192.74463
909.49	213.83967
909.668	165.32411
909.846	296.12896
910.024	215.94929
910.202	258.14568
910.38	186.41651
910.559	150.56067
910.737	256.03568
910.915	207.51095
911.093	294.01862
911.271	222.27825
911.449	148.45169
911.627	251.81573
911.805	182.19786
911.983	243.37606
912.161	192.74463
912.339	247.59586
912.517	272.91624
912.695	264.47581
912.872	224.38794
913.05	308.79138
913.228	188.52586
913.406	317.23335
913.584	241.26619
913.762	188.52586
913.939	247.59586
914.117	215.94929
914.295	228.60739
914.473	182.19786
914.65	154.77869
914.828	226.49765
915.006	224.38794
915.184	222.27825
915.361	199.07293
915.539	232.82691
915.716	285.57744
915.894	175.87005
916.072	334.11816
916.249	199.07293
916.427	163.21498
916.604	239.15634
916.782	281.35697
916.959	163.21498
917.137	226.49765
917.314	213.83967
917.492	188.52586
917.669	247.59586
917.847	192.74463
918.024	154.77869
918.201	177.9793
918.379	245.48595
918.556	184.30718
918.733	234.9367
918.911	163.21498
919.088	97.84262
919.265	91.51738
919.442	218.05892
919.62	171.65161
919.797	173.76082
919.974	148.45169
920.151	186.41651
920.328	169.54242
920.506	188.52586
920.683	163.21498
920.86	123.1456
921.037	207.51095
921.214	201.1824
921.391	104.16807
921.568	163.21498
921.745	129.47183
921.922	188.52586
922.099	186.41651
922.276	180.08857
922.453	148.45169
922.63	190.63523
922.807	104.16807
922.984	165.32411
923.161	116.81956
923.338	150.56067
923.514	146.34273
923.691	156.88773
923.868	125.25432
924.045	161.10588
924.222	135.79826
924.399	123.1456
924.575	165.32411
924.752	140.01598
924.929	108.38515
925.105	165.32411
925.282	163.21498
925.459	196.96348
925.635	192.74463
925.812	190.63523
925.989	213.83967
926.165	150.56067
926.342	55.67812
926.518	182.19786
926.695	190.63523
926.871	104.16807
927.048	116.81956
927.224	118.92822
927.401	146.34273
927.577	148.45169
927.754	91.51738
927.93	150.56067
928.107	131.58062
928.283	95.73419
928.459	133.68943
928.636	171.65161
928.812	165.32411
928.988	116.81956
929.165	123.1456
929.341	129.47183
929.517	108.38515
929.693	112.60231
929.87	112.60231
930.046	7.20034
930.222	78.86748
930.398	129.47183
930.574	62.00222
930.751	116.81956
930.927	64.1103
931.103	140.01598
931.279	118.92822
931.455	163.21498
931.631	78.86748
931.807	194.85404
931.983	104.16807
932.159	83.08402
932.335	116.81956
932.511	78.86748
932.687	104.16807
932.863	59.89417
933.039	49.35423
933.215	32.49155
933.391	95.73419
933.566	123.1456
933.742	62.00222
933.918	87.30066
934.094	53.57014
934.27	89.40901
934.445	83.08402
934.621	62.00222
934.797	57.78613
934.973	43.03055
935.148	24.06077
935.324	123.1456
935.5	62.00222
935.675	15.63036
935.851	13.52282
936.027	89.40901
936.202	133.68943
936.378	34.5993
936.553	87.30066
936.729	89.40901
936.904	78.86748
937.08	11.4153
937.255	43.03055
937.431	-1.2293
937.606	53.57014
937.782	2.98547
937.957	72.54284
938.133	57.78613
938.308	104.16807
938.483	70.43467
938.659	112.60231
938.834	34.5993
939.009	114.71092
939.185	-22.3017
939.36	36.70708
939.535	11.4153
939.71	36.70708
939.886	2.98547
940.061	30.38382
940.236	-13.87303
940.411	-5.44397
940.586	49.35423
940.761	45.13842
940.937	95.73419
941.112	13.52282
941.287	21.95313
941.462	95.73419
941.637	137.90711
941.812	34.5993
941.987	13.52282
942.162	43.03055
942.337	-1.2293
942.512	-13.87303
942.687	-20.19457
942.862	70.43467
943.037	38.81488
943.212	36.70708
943.386	34.5993
943.561	32.49155
943.736	87.30066
943.911	-1.2293
944.086	36.70708
944.26	-26.51589
944.435	70.43467
944.61	45.13842
944.785	62.00222
944.959	87.30066
945.134	-9.65855
945.309	87.30066
945.483	125.25432
945.658	64.1103
945.833	7.20034
946.007	49.35423
946.182	7.20034
946.357	-1.2293
946.531	-13.87303
946.706	87.30066
946.88	72.54284
947.055	9.30781
947.229	66.2184
947.404	-77.07833
947.578	91.51738
947.752	-11.7658
947.927	-39.15785
948.101	7.20034
948.276	-18.08741
948.45	70.43467
948.624	110.49372
948.799	53.57014
948.973	11.4153
949.147	2.98547
949.321	5.09289
949.496	-47.58533
949.67	2.98547
949.844	34.5993
950.018	53.57014
950.193	11.4153
950.367	-11.7658
950.541	45.13842
950.715	38.81488
950.889	36.70708
951.063	36.70708
951.237	24.06077
951.411	5.09289
951.585	45.13842
951.759	53.57014
951.933	19.84552
952.107	-20.19457
952.281	28.27611
952.455	24.06077
952.629	28.27611
952.803	95.73419
952.977	24.06077
953.151	11.4153
953.325	45.13842
953.499	91.51738
953.672	-39.15785
953.846	66.2184
954.02	32.49155
954.194	49.35423
954.368	87.30066
954.541	38.81488
954.715	91.51738
954.889	76.75925
955.062	47.24632
955.236	32.49155
955.41	45.13842
955.583	13.52282
955.757	74.65103
955.93	70.43467
956.104	28.27611
956.278	95.73419
956.451	24.06077
956.625	11.4153
956.798	38.81488
956.972	11.4153
957.145	17.73793
957.319	-5.44397
957.492	32.49155
957.665	19.84552
957.839	24.06077
958.012	24.06077
958.185	99.95108
958.359	-1.2293
958.532	72.54284
958.705	-20.19457
958.879	49.35423
959.052	-1.2293
959.225	70.43467
959.398	5.09289
959.572	-45.4785
959.745	36.70708
959.918	28.27611
960.091	53.57014
960.264	43.03055
960.438	24.06077
960.611	11.4153
960.784	45.13842
960.957	85.19233
961.13	112.60231
961.303	62.00222
961.476	91.51738
961.649	51.46218
961.822	-32.83698
961.995	15.63036
962.168	-11.7658
962.341	-30.72997
962.514	72.54284
962.686	78.86748
962.859	40.92271
963.032	-13.87303
963.205	-68.65227
963.378	80.97574
963.551	97.84262
963.723	36.70708
963.896	28.27611
964.069	-28.62294
964.242	36.70708
964.414	-5.44397
964.587	2.98547
964.76	70.43467
964.932	30.38382
965.105	2.98547
965.278	21.95313
965.45	68.32652
965.623	53.57014
965.795	5.09289
965.968	62.00222
966.14	59.89417
966.313	5.09289
966.485	-45.4785
966.658	0.87808
966.83	13.52282
967.003	87.30066
967.175	47.24632
967.348	47.24632
967.52	19.84552
967.692	-45.4785
967.865	2.98547
968.037	21.95313
968.209	-45.4785
968.382	64.1103
968.554	-1.2293
968.726	53.57014
968.898	-37.05092
969.071	62.00222
969.243	38.81488
969.415	-89.71665
969.587	30.38382
969.759	40.92271
969.932	-20.19457
970.104	21.95313
970.276	51.46218
970.448	-5.44397
970.62	19.84552
970.792	34.5993
970.964	108.38515
971.136	2.98547
971.308	64.1103
971.48	9.30781
971.652	-60.2258
971.824	62.00222
971.996	36.70708
972.168	5.09289
972.339	-20.19457
972.511	5.09289
972.683	-5.44397
972.855	72.54284
973.027	45.13842
973.199	62.00222
973.37	5.09289
973.542	-62.33245
973.714	53.57014
973.886	150.56067
974.057	5.09289
974.229	15.63036
974.401	68.32652
974.572	45.13842
974.744	85.19233
974.915	-22.3017
975.087	7.20034
975.259	24.06077
975.43	-7.55127
975.602	-22.3017
975.773	49.35423
975.945	-5.44397
976.116	-37.05092
976.288	-28.62294
976.459	15.63036
976.63	30.38382
976.802	-11.7658
976.973	36.70708
977.145	51.46218
977.316	-1.2293
977.487	45.13842
977.659	45.13842
977.83	59.89417
978.001	36.70708
978.172	9.30781
978.344	-11.7658
978.515	45.13842
978.686	-58.11912
978.857	51.46218
979.028	47.24632
979.2	36.70708
979.371	40.92271
979.542	19.84552
979.713	104.16807
979.884	-11.7658
980.055	89.40901
980.226	19.84552
980.397	9.30781
980.568	104.16807
980.739	-30.72997
980.91	43.03055
981.081	45.13842
981.252	97.84262
981.423	-13.87303
981.594	57.78613
981.765	30.38382
981.936	-5.44397
982.106	-3.33665
982.277	-56.01241
982.448	104.16807
982.619	11.4153
982.79	11.4153
982.96	62.00222
983.131	5.09289
983.302	47.24632
983.472	-22.3017
983.643	78.86748
983.814	5.09289
983.984	45.13842
984.155	28.27611
984.326	-1.2293
984.496	91.51738
984.667	7.20034
984.837	47.24632
985.008	80.97574
985.178	43.03055
985.349	62.00222
985.519	62.00222
985.69	-34.94396
985.86	-22.3017
986.031	28.27611
986.201	-41.26476
986.371	-5.44397
986.542	13.52282
986.712	11.4153
986.882	19.84552
987.053	53.57014
987.223	11.4153
987.393	78.86748
987.563	2.98547
987.734	0.87808
987.904	11.4153
988.074	24.06077
988.244	15.63036
988.414	0.87808
988.585	28.27611
988.755	-13.87303
988.925	-9.65855
989.095	45.13842
989.265	-1.2293
989.435	28.27611
989.605	24.06077
989.775	74.65103
989.945	2.98547
990.115	13.52282
990.285	-72.86535
990.455	11.4153
990.625	2.98547
990.795	45.13842
990.965	24.06077
991.134	-64.43909
991.304	-1.2293
991.474	38.81488
991.644	-30.72997
991.814	11.4153
991.984	-18.08741
992.153	-96.03546
992.323	62.00222
992.493	-47.58533
992.662	0.87808
992.832	-7.55127
993.002	7.20034
993.171	-53.90568
993.341	-15.98024
993.511	45.13842
993.68	-47.58533
993.85	-37.05092
994.019	-39.15785
994.189	40.92271
994.358	72.54284
994.528	24.06077
994.697	5.09289
994.867	72.54284
995.036	49.35423
995.206	15.63036
995.375	-28.62294
995.544	13.52282
995.714	-7.55127
995.883	-22.3017
996.052	36.70708
996.222	57.78613
996.391	-3.33665
996.56	5.09289
996.73	19.84552
996.899	13.52282
997.068	87.30066
997.237	53.57014
997.406	24.06077
997.576	-22.3017
997.745	21.95313
997.914	28.27611
998.083	95.73419
998.252	-11.7658
998.421	19.84552
998.59	-39.15785
998.759	-28.62294
998.928	-3.33665
999.097	-22.3017
999.266	2.98547
999.435	-5.44397
999.604	19.84552
999.773	55.67812
999.942	-47.58533
1000.111	5.09289
1000.28	-11.7658
1000.448	21.95313
1000.617	49.35423
1000.786	78.86748
1000.955	24.06077
1001.124	-13.87303
1001.292	47.24632
1001.461	11.4153
1001.63	72.54284
1001.798	36.70708
1001.967	-81.29121
1002.136	-13.87303
1002.304	62.00222
1002.473	45.13842
1002.642	62.00222
1002.81	24.06077
1002.979	28.27611
1003.147	-11.7658
1003.316	30.38382
1003.484	-1.2293
1003.653	30.38382
1003.821	-24.40881
1003.99	19.84552
1004.158	-41.26476
1004.327	53.57014
1004.495	-13.87303
1004.663	91.51738
1004.832	-30.72997
1005	-22.3017
1005.168	-30.72997
1005.337	7.20034
1005.505	70.43467
1005.673	64.1103
1005.842	-56.01241
1006.01	21.95313
1006.178	62.00222
1006.346	21.95313
1006.514	-5.44397
1006.683	13.52282
1006.851	32.49155
1007.019	-5.44397
1007.187	-22.3017
1007.355	62.00222
1007.523	55.67812
1007.691	-28.62294
1007.859	-37.05092
1008.027	-15.98024
1008.195	19.84552
1008.363	-26.51589
1008.531	19.84552
1008.699	45.13842
1008.867	-22.3017
1009.035	-20.19457
1009.203	7.20034
1009.37	-1.2293
1009.538	17.73793
1009.706	28.27611
1009.874	-5.44397
1010.042	-9.65855
1010.209	-83.39761
1010.377	-1.2293
1010.545	-89.71665
1010.713	47.24632
1010.88	-79.18478
1011.048	99.95108
1011.216	51.46218
1011.383	-5.44397
1011.551	5.09289
1011.718	-64.43909
1011.886	32.49155
1012.054	57.78613
1012.221	-9.65855
1012.389	24.06077
1012.556	-20.19457
1012.724	13.52282
1012.891	-22.3017
1013.058	-11.7658
1013.226	13.52282
1013.393	-56.01241
1013.561	-22.3017
1013.728	11.4153
1013.895	-13.87303
1014.063	-1.2293
1014.23	7.20034
1014.397	9.30781
1014.565	-24.40881
1014.732	36.70708
1014.899	-9.65855
1015.066	5.09289
1015.233	-39.15785
1015.401	11.4153
1015.568	-3.33665
1015.735	34.5993
1015.902	40.92271
1016.069	-26.51589
1016.236	45.13842
1016.403	-70.75882
1016.57	21.95313
1016.737	-22.3017
1016.904	43.03055
1017.071	7.20034
1017.238	-32.83698
1017.405	13.52282
1017.572	-5.44397
1017.739	13.52282
1017.906	-22.3017
1018.073	-20.19457
1018.24	78.86748
1018.407	-5.44397
1018.573	-53.90568
1018.74	-20.19457
1018.907	-39.15785
1019.074	-5.44397
1019.241	26.16843
1019.407	-5.44397
1019.574	38.81488
1019.741	32.49155
1019.907	-32.83698
1020.074	72.54284
1020.241	64.1103
1020.407	-34.94396
1020.574	11.4153
1020.74	40.92271
1020.907	53.57014
1021.073	11.4153
1021.24	45.13842
1021.406	-20.19457
1021.573	13.52282
1021.739	2.98547
1021.906	-5.44397
1022.072	-47.58533
1022.239	-22.3017
1022.405	53.57014
1022.571	-26.51589
1022.738	-13.87303
1022.904	40.92271
1023.07	-1.2293
1023.237	7.20034
1023.403	24.06077
1023.569	-13.87303
1023.735	-30.72997
1023.902	2.98547
1024.068	78.86748
1024.234	-3.33665
1024.4	-22.3017
1024.566	43.03055
1024.732	47.24632
1024.898	-1.2293
1025.065	51.46218
1025.231	-11.7658
1025.397	49.35423
1025.563	-5.44397
1025.729	45.13842
1025.895	-13.87303
1026.061	64.1103
1026.227	21.95313
1026.392	45.13842
1026.558	24.06077
1026.724	11.4153
1026.89	-39.15785
1027.056	17.73793
1027.222	-5.44397
1027.388	-47.58533
1027.553	2.98547
1027.719	-13.87303
1027.885	28.27611
1028.051	7.20034
1028.216	-56.01241
1028.382	-32.83698
1028.548	87.30066
1028.713	30.38382
1028.879	-68.65227
1029.045	34.5993
1029.21	30.38382
1029.376	70.43467
1029.541	-47.58533
1029.707	-51.79892
1029.873	28.27611
1030.038	28.27611
1030.204	-72.86535
1030.369	5.09289
1030.534	-3.33665
1030.7	-47.58533
1030.865	-70.75882
1031.031	-62.33245
1031.196	-11.7658
1031.361	11.4153
1031.527	38.81488
1031.692	-20.19457
1031.857	15.63036
1032.023	26.16843
1032.188	-60.2258
1032.353	32.49155
1032.518	47.24632
1032.684	-3.33665
1032.849	-5.44397
1033.014	-5.44397
1033.179	30.38382
1033.344	70.43467
1033.509	99.95108
1033.674	49.35423
1033.839	-39.15785
1034.004	11.4153
1034.17	53.57014
1034.335	30.38382
1034.5	36.70708
1034.664	-1.2293
1034.829	7.20034
1034.994	-13.87303
1035.159	45.13842
1035.324	-3.33665
1035.489	5.09289
1035.654	36.70708
1035.819	38.81488
1035.984	110.49372
1036.148	11.4153
1036.313	64.1103
1036.478	104.16807
1036.643	5.09289
1036.807	-5.44397
1036.972	51.46218
1037.137	-47.58533
1037.301	7.20034
1037.466	5.09289
1037.631	-13.87303
1037.795	-51.79892
1037.96	53.57014
1038.124	15.63036
1038.289	70.43467
1038.454	47.24632
1038.618	-28.62294
1038.783	-87.61033
1038.947	45.13842
1039.111	11.4153
1039.276	36.70708
1039.44	0.87808
1039.605	7.20034
1039.769	34.5993
1039.933	-18.08741
1040.098	36.70708
1040.262	21.95313
1040.426	-32.83698
1040.591	-11.7658
1040.755	-56.01241
1040.919	74.65103
1041.083	11.4153
1041.248	19.84552
1041.412	-45.4785
1041.576	13.52282
1041.74	47.24632
1041.904	49.35423
1042.068	57.78613
1042.232	57.78613
1042.397	5.09289
1042.561	-28.62294
1042.725	2.98547
1042.889	-5.44397
1043.053	62.00222
1043.217	45.13842
1043.381	-64.43909
1043.544	-13.87303
1043.708	-5.44397
1043.872	-20.19457
1044.036	36.70708
1044.2	-39.15785
1044.364	11.4153
1044.528	-11.7658
1044.691	2.98547
1044.855	11.4153
1045.019	32.49155
1045.183	24.06077
1045.346	5.09289
1045.51	66.2184
1045.674	24.06077
1045.837	-43.37164
1046.001	5.09289
1046.165	32.49155
1046.328	-56.01241
1046.492	64.1103
1046.655	34.5993
1046.819	26.16843
1046.983	-3.33665
1047.146	28.27611
1047.31	-93.92922
1047.473	66.2184
1047.636	15.63036
1047.8	28.27611
1047.963	-1.2293
1048.127	-11.7658
1048.29	5.09289
