Data from mixed_try6.1_USB4F045381__31__00315.txt Node

Date: Thu Apr 03 20:34:25 EDT 2025
User: mmckonesweet
Spectrometer: USB4F04538
Trigger mode: 4
Integration Time (sec): 2.700000E-3
Scans to average: 1
Electric dark correction enabled: true
Nonlinearity correction enabled: true
Boxcar width: 0
XAxis mode: Wavelengths
Number of Pixels in Spectrum: 3648
>>>>>Begin Spectral Data<<<<<
345.52	-22.12611
345.736	-22.12611
345.952	-22.12611
346.168	-89.54113
346.384	45.31408
346.6	7.37596
346.816	-24.23321
347.032	-41.08919
347.248	-7.37567
347.464	9.48343
347.68	-9.48295
347.896	43.20621
348.112	26.34407
348.328	-38.98228
348.544	5.26851
348.76	36.88273
348.975	-7.37567
349.191	43.20621
349.407	26.34407
349.623	-62.1569
349.839	74.82672
350.055	38.99053
350.27	13.69845
350.486	-15.80464
350.702	-3.16104
350.918	-76.90279
351.133	-38.98228
351.349	26.34407
351.565	38.99053
351.781	-47.40976
351.996	9.48343
352.212	17.91356
352.428	-7.37567
352.644	1.05369
352.859	-41.08919
353.075	-47.40976
353.291	-53.73012
353.506	43.20621
353.722	9.48343
353.938	3.16109
354.153	-57.94356
354.369	26.34407
354.584	26.34407
354.8	-38.98228
355.016	-24.23321
355.231	-32.6614
355.447	-5.26836
355.662	79.04317
355.878	22.12877
356.093	-20.01897
356.309	55.85379
356.524	-24.23321
356.74	-79.00925
356.955	20.02115
357.171	-51.62336
357.386	13.69845
357.602	-26.3403
357.817	-3.16104
358.033	-15.80464
358.248	43.20621
358.464	3.16109
358.679	-41.08919
358.895	43.20621
359.11	-15.80464
359.325	30.55946
359.541	17.91356
359.756	-15.80464
359.972	-20.01897
360.187	-3.16104
360.402	-24.23321
360.618	24.2364
360.833	26.34407
361.048	-57.94356
361.264	-53.73012
361.479	-137.97932
361.694	-38.98228
361.909	53.7458
362.125	-81.11567
362.34	-13.69743
362.555	7.37596
362.77	81.15143
362.986	76.93493
363.201	87.47635
363.416	17.91356
363.631	26.34407
363.847	-5.26836
364.062	28.45175
364.277	-11.5902
364.492	62.17789
364.707	-34.76838
364.922	62.17789
365.138	30.55946
365.353	28.45175
365.568	-9.48295
365.783	-55.83685
365.998	-36.87534
366.213	43.20621
366.428	17.91356
366.643	1.05369
366.858	-15.80464
367.073	-28.44736
367.288	22.12877
367.503	-5.26836
367.718	17.91356
367.933	70.61035
368.148	-5.26836
368.363	-24.23321
368.578	26.34407
368.793	64.28597
369.008	-20.01897
369.223	22.12877
369.438	36.88273
369.653	-62.1569
369.868	36.88273
370.083	7.37596
370.298	1.05369
370.513	72.71852
370.728	-41.08919
370.943	-41.08919
371.157	1.05369
371.372	-81.11567
371.587	17.91356
371.802	-45.30293
372.017	30.55946
372.232	-9.48295
372.446	30.55946
372.661	-5.26836
372.876	11.59093
373.091	26.34407
373.306	-3.16104
373.52	-24.23321
373.735	1.05369
373.95	72.71852
374.165	17.91356
374.379	-66.37014
374.594	-7.37567
374.809	-30.55439
375.023	76.93493
375.238	34.77495
375.453	30.55946
375.667	-64.26353
375.882	-1.05368
376.097	-49.51657
376.311	-57.94356
376.526	17.91356
376.741	5.26851
376.955	-7.37567
377.17	49.5299
377.384	9.48343
377.599	9.48343
377.813	-72.68981
378.028	13.69845
378.242	32.66719
378.457	28.45175
378.672	-7.37567
378.886	41.09836
379.101	76.93493
379.315	-22.12611
379.53	51.63784
379.744	3.16109
379.958	-57.94356
380.173	-9.48295
380.387	-7.37567
380.602	-28.44736
380.816	-97.96616
381.031	-62.1569
381.245	-30.55439
381.459	-38.98228
381.674	57.9618
381.888	36.88273
382.103	-32.6614
382.317	-5.26836
382.531	1.05369
382.746	-7.37567
382.96	43.20621
383.174	24.2364
383.388	51.63784
383.603	26.34407
383.817	-5.26836
384.031	1.05369
384.246	-32.6614
384.46	-24.23321
384.674	32.66719
384.888	38.99053
385.103	7.37596
385.317	-1.05368
385.531	76.93493
385.745	-20.01897
385.959	89.5847
386.174	1.05369
386.388	-3.16104
386.602	-20.01897
386.816	-70.58328
387.03	-5.26836
387.244	36.88273
387.458	1.05369
387.672	1.05369
387.887	-3.16104
388.101	91.69308
388.315	-3.16104
388.529	17.91356
388.743	28.45175
388.957	43.20621
389.171	-64.26353
389.385	-7.37567
389.599	1.05369
389.813	-11.5902
390.027	30.55946
390.241	20.02115
390.455	85.36802
390.669	-62.1569
390.883	-83.22208
391.097	-47.40976
391.311	-13.69743
391.525	34.77495
391.738	9.48343
391.952	-3.16104
392.166	55.85379
392.38	-38.98228
392.594	26.34407
392.808	-7.37567
393.022	-15.80464
393.236	60.06984
393.449	43.20621
393.663	60.06984
393.877	-11.5902
394.091	17.91356
394.305	-22.12611
394.518	38.99053
394.732	55.85379
394.946	-30.55439
395.16	-7.37567
395.373	38.99053
395.587	9.48343
395.801	7.37596
396.015	-30.55439
396.228	1.05369
396.442	34.77495
396.656	70.61035
396.869	66.39408
397.083	20.02115
397.297	-7.37567
397.51	38.99053
397.724	20.02115
397.938	-15.80464
398.151	-41.08919
398.365	22.12877
398.578	-26.3403
398.792	22.12877
399.005	-64.26353
399.219	53.7458
399.433	13.69845
399.646	7.37596
399.86	13.69845
400.073	-7.37567
400.287	55.85379
400.5	22.12877
400.714	83.25972
400.927	-41.08919
401.141	55.85379
401.354	22.12877
401.567	72.71852
401.781	-89.54113
401.994	57.9618
402.208	20.02115
402.421	57.9618
402.635	47.42198
402.848	51.63784
403.061	1.05369
403.275	-15.80464
403.488	-45.30293
403.701	-3.16104
403.915	22.12877
404.128	41.09836
404.341	26.34407
404.555	-13.69743
404.768	1.05369
404.981	-47.40976
405.195	5.26851
405.408	-5.26836
405.621	121.21262
405.834	53.7458
406.048	15.80599
406.261	-13.69743
406.474	64.28597
406.687	-22.12611
406.9	13.69845
407.114	36.88273
407.327	26.34407
407.54	-24.23321
407.753	34.77495
407.966	22.12877
408.179	-24.23321
408.392	-32.6614
408.605	9.48343
408.819	36.88273
409.032	-15.80464
409.245	-3.16104
409.458	36.88273
409.671	-68.47672
409.884	114.88664
410.097	5.26851
410.31	41.09836
410.523	-5.26836
410.736	13.69845
410.949	17.91356
411.162	17.91356
411.375	38.99053
411.588	24.2364
411.801	-5.26836
412.014	55.85379
412.227	26.34407
412.44	-26.3403
412.653	28.45175
412.865	26.34407
413.078	-7.37567
413.291	-7.37567
413.504	43.20621
413.717	34.77495
413.93	11.59093
414.143	5.26851
414.356	-30.55439
414.568	-11.5902
414.781	72.71852
414.994	36.88273
415.207	64.28597
415.42	47.42198
415.632	3.16109
415.845	3.16109
416.058	-5.26836
416.271	1.05369
416.483	15.80599
416.696	-20.01897
416.909	11.59093
417.121	74.82672
417.334	-15.80464
417.547	26.34407
417.759	47.42198
417.972	43.20621
418.185	9.48343
418.397	62.17789
418.61	3.16109
418.823	-11.5902
419.035	22.12877
419.248	-24.23321
419.46	43.20621
419.673	-13.69743
419.885	-7.37567
420.098	85.36802
420.311	17.91356
420.523	45.31408
420.736	-11.5902
420.948	-24.23321
421.161	-57.94356
421.373	53.7458
421.586	43.20621
421.798	-11.5902
422.01	47.42198
422.223	-3.16104
422.435	-7.37567
422.648	13.69845
422.86	55.85379
423.073	5.26851
423.285	1.05369
423.497	-3.16104
423.71	22.12877
423.922	47.42198
424.134	-38.98228
424.347	30.55946
424.559	-20.01897
424.771	60.06984
424.984	47.42198
425.196	-7.37567
425.408	-13.69743
425.621	-26.3403
425.833	43.20621
426.045	34.77495
426.257	-7.37567
426.47	3.16109
426.682	57.9618
426.894	28.45175
427.106	68.5022
427.318	24.2364
427.531	-15.80464
427.743	26.34407
427.955	-76.90279
428.167	102.23527
428.379	47.42198
428.591	-41.08919
428.804	-102.17852
429.016	13.69845
429.228	102.23527
429.44	72.71852
429.652	20.02115
429.864	-20.01897
430.076	32.66719
430.288	20.02115
430.5	76.93493
430.712	85.36802
430.924	53.7458
431.136	36.88273
431.348	-51.62336
431.56	-7.37567
431.772	11.59093
431.984	26.34407
432.196	11.59093
432.408	3.16109
432.62	41.09836
432.832	-11.5902
433.044	51.63784
433.256	-20.01897
433.468	-20.01897
433.679	34.77495
433.891	22.12877
434.103	-5.26836
434.315	26.34407
434.527	7.37596
434.739	43.20621
434.95	-49.51657
435.162	17.91356
435.374	43.20621
435.586	-64.26353
435.798	-22.12611
436.009	13.69845
436.221	13.69845
436.433	110.66943
436.645	20.02115
436.856	64.28597
437.068	13.69845
437.28	1.05369
437.491	34.77495
437.703	68.5022
437.915	62.17789
438.126	-7.37567
438.338	68.5022
438.55	60.06984
438.761	43.20621
438.973	11.59093
439.184	-22.12611
439.396	28.45175
439.608	55.85379
439.819	1.05369
440.031	-15.80464
440.242	-28.44736
440.454	-13.69743
440.665	47.42198
440.877	76.93493
441.088	53.7458
441.3	98.01833
441.511	-47.40976
441.723	9.48343
441.934	70.61035
442.146	13.69845
442.357	9.48343
442.569	51.63784
442.78	15.80599
442.991	9.48343
443.203	93.80147
443.414	-5.26836
443.626	60.06984
443.837	43.20621
444.048	-30.55439
444.26	45.31408
444.471	104.34378
444.682	76.93493
444.894	20.02115
445.105	43.20621
445.316	30.55946
445.528	87.47635
445.739	53.7458
445.95	62.17789
446.161	-28.44736
446.373	81.15143
446.584	1.05369
446.795	93.80147
447.006	53.7458
447.217	60.06984
447.429	30.55946
447.64	22.12877
447.851	30.55946
448.062	45.31408
448.273	1.05369
448.484	11.59093
448.695	76.93493
448.907	28.45175
449.118	43.20621
449.329	55.85379
449.54	13.69845
449.751	51.63784
449.962	38.99053
450.173	108.56086
450.384	3.16109
450.595	38.99053
450.806	76.93493
451.017	85.36802
451.228	26.34407
451.439	11.59093
451.65	45.31408
451.861	9.48343
452.072	123.32132
452.283	20.02115
452.494	-3.16104
452.705	20.02115
452.915	41.09836
453.126	85.36802
453.337	-3.16104
453.548	-5.26836
453.759	51.63784
453.97	-11.5902
454.181	60.06984
454.391	17.91356
454.602	34.77495
454.813	102.23527
455.024	51.63784
455.235	102.23527
455.445	28.45175
455.656	76.93493
455.867	11.59093
456.078	51.63784
456.288	20.02115
456.499	66.39408
456.71	85.36802
456.921	55.85379
457.131	-36.87534
457.342	53.7458
457.553	199.24872
457.763	-47.40976
457.974	51.63784
458.184	22.12877
458.395	72.71852
458.606	60.06984
458.816	28.45175
459.027	30.55946
459.237	62.17789
459.448	45.31408
459.659	9.48343
459.869	144.40954
460.08	-5.26836
460.29	129.64756
460.501	108.56086
460.711	68.5022
460.922	102.23527
461.132	110.66943
461.343	91.69308
461.553	51.63784
461.764	121.21262
461.974	85.36802
462.184	119.10394
462.395	95.90989
462.605	28.45175
462.816	81.15143
463.026	76.93493
463.236	85.36802
463.447	76.93493
463.657	144.40954
463.867	51.63784
464.078	85.36802
464.288	116.99528
464.498	169.71819
464.709	60.06984
464.919	68.5022
465.129	106.45231
465.339	152.84542
465.55	106.45231
465.76	129.64756
465.97	95.90989
466.18	87.47635
466.391	144.40954
466.601	106.45231
466.811	207.68674
467.021	188.70164
467.231	70.61035
467.441	129.64756
467.651	178.15507
467.862	182.37364
468.072	146.51847
468.282	93.80147
468.492	182.37364
468.702	216.12509
468.912	228.7832
469.122	135.97399
469.332	188.70164
469.542	161.28164
469.752	186.59229
469.962	190.81102
470.172	195.02983
470.382	203.46769
470.592	203.46769
470.802	199.24872
471.012	279.42261
471.222	228.7832
471.432	315.29871
471.642	262.54158
471.852	245.66178
472.062	237.22233
472.272	323.7409
472.482	279.42261
472.691	264.65165
472.901	264.65165
473.111	279.42261
473.321	313.1882
473.531	340.62615
473.741	378.62201
473.95	431.403
474.16	399.73318
474.37	488.41755
474.58	380.73305
474.79	473.63494
474.999	475.74669
475.209	397.62199
475.419	397.62199
475.628	596.14053
475.838	473.63494
476.048	513.76086
476.258	469.41147
476.467	551.77967
476.677	585.57789
476.886	642.61991
477.096	651.07135
477.306	657.41006
477.515	568.67835
477.725	602.47827
477.935	756.72974
478.144	661.63592
478.354	655.29714
478.563	763.0701
478.773	758.84318
478.982	839.16122
479.192	786.31885
479.401	777.86462
479.611	803.22777
479.82	796.88685
480.03	989.26206
480.239	883.55312
480.449	972.34743
480.658	1033.66492
480.868	1023.09256
481.077	1080.18497
481.287	923.72034
481.496	1101.33129
481.705	1137.28114
481.915	1143.62536
482.124	1160.54348
482.333	1236.67796
482.543	1251.48236
482.752	1378.3817
482.961	1259.94209
483.171	1361.46145
483.38	1289.55143
483.589	1501.05449
483.799	1380.49674
484.008	1503.16953
484.217	1439.71802
484.426	1530.66505
484.636	1581.4255
484.845	1746.38861
485.054	1627.9551
485.263	1864.81073
485.472	1644.8747
485.682	1839.43574
485.891	1735.81459
486.1	1661.79415
486.309	1911.32966
486.518	1907.10077
486.727	1879.61248
486.936	2274.91244
487.146	1951.50296
487.355	2027.61478
487.564	2021.27245
487.773	2236.87405
487.982	2012.81591
488.191	2327.73854
488.4	2184.03821
488.609	2249.55384
488.818	2224.19394
489.027	2431.25977
489.236	2410.135
489.445	2511.52399
489.654	2524.19581
489.863	2498.85176
490.072	2471.39387
490.281	2549.53821
490.49	2479.84265
490.698	2595.99486
490.907	2555.87354
491.116	2716.33212
491.325	2762.76689
491.534	2766.98791
491.743	2853.50681
491.952	2859.83655
492.16	2796.53355
492.369	3011.7109
492.578	2788.09221
492.787	2870.38581
492.996	2988.51285
493.204	3180.36726
493.413	3102.37629
493.622	3252.01492
493.831	3068.64369
494.039	3275.19091
494.248	3119.24106
494.457	3342.60026
494.665	3306.79123
494.874	3332.06871
495.083	3460.52367
495.291	3489.99578
495.5	3428.94249
495.709	3607.84837
495.917	3477.36531
496.126	3414.20323
496.335	3591.01584
496.543	3734.05369
496.752	3727.74506
496.96	3679.37315
497.169	3525.77857
497.377	3719.33328
497.586	3795.02808
497.794	3916.9271
498.003	3818.15199
498.211	3914.82597
498.42	3893.81348
498.628	3940.03829
498.837	3887.50934
499.045	4189.90051
499.254	3931.63451
499.462	4078.6536
499.671	4099.64808
499.879	4137.43289
500.087	4244.4528
500.296	4263.33293
500.504	4257.03975
500.713	4269.62593
500.921	4189.90051
501.129	4372.38406
501.338	4263.33293
501.546	4412.21506
501.754	4278.01628
501.962	4519.09076
502.171	4544.22965
502.379	4506.52012
502.587	4479.28101
502.795	4636.37818
503.004	4466.70785
503.212	4891.65298
503.42	4590.30931
503.628	4722.20484
503.837	4707.55418
504.045	4728.48335
504.253	4812.17737
504.461	5012.89404
504.669	4837.27849
504.877	5102.72956
505.085	4933.46897
505.294	5094.37457
505.502	4766.15015
505.71	5154.9398
505.918	4820.54478
506.126	5148.67534
506.334	4891.65298
506.542	5236.35873
506.75	5086.01922
506.958	5188.34673
507.166	5012.89404
507.374	5190.43446
507.582	5190.43446
507.79	5177.9077
507.998	5090.19694
508.206	5505.41392
508.414	5280.18499
508.622	5455.38672
508.83	5340.69001
509.037	5159.11599
509.245	5332.34566
509.453	5878.10509
509.661	5255.14268
509.869	5665.82623
510.077	5401.17531
510.285	5561.6783
510.492	5476.23303
510.7	5605.42761
510.908	5597.09521
511.116	5576.26256
511.324	5659.57902
511.531	5736.61313
511.739	5784.48292
511.947	5763.6715
512.155	5651.24907
512.362	5803.21118
512.57	5778.23974
512.778	5726.20501
512.985	5830.25973
513.193	6050.66069
513.401	5907.22224
513.608	6002.86034
513.816	6137.91617
514.024	5967.52164
514.231	5747.02067
514.439	6135.83914
514.646	5892.66425
514.854	6233.43414
515.061	5925.93797
515.269	6225.1302
515.477	6272.87273
515.684	6127.53079
515.892	6056.8946
516.099	6349.64997
516.307	6287.40061
516.514	6552.85176
516.722	6218.902
516.929	6644.01282
517.136	6212.67358
517.344	6382.84104
517.551	6310.22782
517.759	6490.67083
517.966	6399.43433
518.173	6490.67083
518.381	6639.8701
518.588	6673.00925
518.796	6573.57411
519.003	6697.85974
519.21	6673.00925
519.418	6784.81048
519.625	6561.14098
519.832	6768.25155
520.039	6683.36402
520.247	6935.84342
520.454	6975.13356
520.661	6981.33652
520.868	7041.28803
521.076	7043.35498
521.283	6762.04157
521.49	6946.18372
521.697	6809.64614
521.904	7111.55198
522.112	6931.70714
522.319	7223.09473
522.526	6838.61693
522.733	7214.83452
522.94	6987.53927
523.147	7326.31756
523.354	7268.51955
523.561	7392.3514
523.768	7303.61325
523.975	7252.00267
524.183	7309.8056
524.39	7212.76941
524.597	7425.35995
524.804	7489.29823
525.011	7332.50918
525.218	7483.11156
525.425	7458.36295
525.632	7668.62764
525.838	7670.68796
526.045	7629.47753
526.252	7474.86237
526.459	7746.90497
526.666	7443.92482
526.873	7781.91395
527.08	7897.19504
527.287	8082.33312
527.494	7674.80853
527.701	8059.71397
527.907	7870.43916
528.114	7713.9498
528.321	7841.62122
528.528	8067.93939
528.735	7808.68144
528.941	8127.56411
529.148	7755.14292
529.355	8308.39168
529.562	7960.9835
529.768	8271.41666
529.975	7860.1475
530.182	8209.77747
530.388	8207.72253
530.595	8306.33768
530.802	8181.00642
531.008	8400.80157
531.215	8470.59642
531.422	8365.89579
531.628	8462.38641
531.835	8550.62805
532.042	8384.37601
532.248	8636.78385
532.455	8470.59642
532.661	8526.00601
532.868	8519.85007
533.074	8784.4033
533.281	8556.78313
533.487	9128.4858
533.694	8806.94791
533.9	9150.99779
534.107	8636.78385
534.313	8835.63787
534.52	8786.4529
534.726	8995.41769
534.933	8606.01771
535.139	8907.34735
535.345	8856.12854
535.552	8972.89118
535.758	8940.12154
535.965	9067.07886
536.171	8909.39587
536.377	8798.75012
536.584	9128.4858
536.79	9200.10772
536.996	9105.97172
537.203	9236.93376
537.409	9112.11213
537.615	9463.90866
537.821	9185.785
538.028	9371.91622
538.234	9296.25315
538.44	9531.34902
538.646	9373.96085
538.853	9283.98132
539.059	9388.27284
539.265	9655.96613
539.471	9265.57246
539.677	9445.5128
539.883	9363.73752
540.09	9727.44163
540.296	9666.17807
540.502	9510.91438
540.708	9676.38962
540.914	9939.71676
541.12	9890.74446
541.326	10115.1326
541.532	9641.66876
541.738	9907.0695
541.944	9658.00855
542.15	9996.84052
542.356	9692.72731
542.562	9935.63606
542.768	9702.93786
542.974	10000.92036
543.18	9988.68068
543.386	10139.60089
543.592	10086.5837
543.798	10196.68582
544.004	10335.27609
544.21	10312.86129
544.415	10094.74081
544.621	10282.29306
544.827	10453.43684
545.033	10538.97437
545.239	10347.50167
545.445	10673.34573
545.651	10223.18586
545.856	10371.95139
546.062	10410.65958
546.268	10563.40955
546.474	10196.68582
546.679	10341.38894
546.885	10369.91398
547.091	10376.02616
547.297	10353.61428
547.502	10477.87843
547.708	10512.50087
547.914	10549.15592
548.119	10832.08003
548.325	10587.84294
548.531	10545.08333
548.736	10978.54101
548.942	10600.05895
549.147	10622.45383
549.353	10685.55865
549.559	10907.35209
549.764	10893.11264
549.97	10732.37081
550.175	10420.84516
550.381	11145.27335
550.586	10864.63205
550.792	11063.94966
550.997	10980.57477
551.203	11129.00999
551.408	10889.04412
551.614	11021.24777
551.819	11039.54917
552.025	11293.64551
552.23	11600.38333
552.435	11492.74537
552.641	11289.58125
552.846	11425.71206
553.052	11267.2271
553.257	11393.20725
553.462	11366.79525
553.668	11513.05644
553.873	11620.68945
554.078	11545.55218
554.283	11527.27362
554.489	11443.99491
554.694	11289.58125
554.899	11710.02566
555.105	11360.69993
555.31	11474.4646
555.515	11413.52305
555.72	11515.08749
555.925	11470.4021
556.131	11543.52127
556.336	11580.07628
556.541	11815.58279
556.746	11614.59771
556.951	11582.10703
557.156	11600.38333
557.361	12055.03229
557.567	11827.76096
557.772	12107.77743
557.977	11979.9628
558.182	11904.88235
558.387	11752.65733
558.592	12121.97717
558.797	11880.52953
559.002	12142.26186
559.207	11799.34475
559.412	11850.08681
559.617	11827.76096
559.822	12294.37351
560.027	11738.4472
560.232	12117.92014
560.437	11955.6136
560.642	12168.63083
560.847	12456.58226
561.051	12310.59636
561.256	12128.06265
561.461	12197.02678
561.666	12304.51284
561.871	12476.85533
562.076	12377.51094
562.281	12432.2537
562.485	12245.70222
562.69	12326.81877
562.895	12107.77743
563.1	12551.86008
563.305	12296.40139
563.509	12505.23654
563.714	12367.37285
563.919	12537.67067
564.123	12513.34523
564.328	12422.11652
564.533	12557.94117
564.737	12450.50021
564.942	12391.70398
565.147	12965.25296
565.351	12683.6045
565.556	12940.94211
565.761	12564.0222
565.965	12934.86428
566.17	12456.58226
566.374	12857.87433
566.579	12855.84817
566.784	12645.09725
566.988	12675.49789
567.193	13040.20682
567.397	12624.8294
567.602	13074.64281
567.806	12699.81743
568.011	13325.78247
568.215	13143.51062
568.42	12762.63904
568.624	13040.20682
568.828	13135.40881
569.033	12926.76043
569.237	13250.85278
569.442	12981.45979
569.646	12930.81237
569.85	13406.78115
570.055	13271.10462
570.259	13092.87306
570.463	13169.84101
570.668	13412.85579
570.872	13181.99323
571.076	13271.10462
571.281	13295.40627
571.485	13325.78247
571.689	13532.31677
571.893	13453.35251
572.098	13665.93621
572.302	13696.30222
572.506	13463.47645
572.71	13449.30291
572.914	13477.64981
573.119	13576.85826
573.323	13716.54582
573.527	13473.6003
573.731	13422.98012
573.935	13566.73534
574.139	13335.90766
574.343	13416.90553
574.547	13629.49602
574.751	13649.7407
574.955	13582.93196
575.159	13536.36606
575.364	13736.78911
575.568	13827.88015
575.772	14020.16485
575.976	13825.85597
576.18	13809.66242
576.383	13817.75922
576.587	13827.88015
576.791	13888.60424
576.995	13902.77284
577.199	13971.58988
577.403	13957.42191
577.607	14024.2127
577.811	14001.9494
578.015	13874.43551
578.219	14014.09306
578.422	13957.42191
578.626	14246.83065
578.83	14238.73589
579.034	14311.58766
579.238	14070.76229
579.442	14659.62955
579.645	14238.73589
579.849	14352.05987
580.053	14435.02587
580.257	14513.94244
580.46	14412.76696
580.664	14451.21406
580.868	14256.94906
581.071	14408.71986
581.275	14337.89468
581.479	14766.86805
581.682	14469.42566
581.886	14475.49617
582.09	14376.34288
582.293	14748.65791
582.497	14505.84853
582.7	14617.13808
582.904	14534.17713
583.107	14542.27097
583.311	14566.55237
583.515	14485.61366
583.718	14503.82505
583.922	14542.27097
584.125	14813.4048
584.329	14661.65294
584.532	14758.77466
584.735	14621.1849
584.939	14940.87332
585.142	14821.49811
585.346	14805.31148
585.549	15189.73645
585.753	14926.71026
585.956	15064.2936
586.159	15226.15534
586.363	15203.89935
586.566	15052.15395
586.769	14801.26481
586.973	14702.12057
587.176	14936.82674
587.379	14837.68469
587.582	15145.2245
587.786	15165.4572
587.989	15436.57696
588.192	15214.01571
588.395	15363.73831
588.599	15390.04109
588.802	15501.32296
589.005	15242.34152
589.208	15499.29964
589.411	15630.81693
589.615	15341.48216
589.818	15383.97121
590.021	15351.59858
590.224	15365.7616
590.427	15982.89816
590.63	15195.80626
590.833	15711.75231
591.036	15679.37799
591.239	15865.53392
591.442	15849.34608
591.645	15794.71267
591.848	15574.16295
592.051	15549.88286
592.254	15472.99652
592.457	15883.74533
592.66	15559.99955
592.863	15752.22056
593.066	15681.40137
593.269	15440.62357
593.472	15731.98639
593.675	16094.19611
593.878	15938.38017
594.081	16059.79445
594.284	15879.69834
594.486	15887.79233
594.689	16108.36163
594.892	16061.81806
595.095	16140.74024
595.298	15940.40371
595.5	16132.64555
595.703	16229.7836
595.906	16116.45624
596.109	16223.71236
596.311	15954.56846
596.514	16472.64692
596.717	16239.90237
596.92	16482.76684
597.122	16288.4731
597.325	16302.63975
597.528	16391.68941
597.73	16422.0481
597.933	16104.31433
598.136	16411.92848
598.338	16185.26152
598.541	16541.46339
598.743	16448.35933
598.946	16529.31913
599.148	16909.87864
599.351	16725.66118
599.554	16642.66864
599.756	16596.11354
599.959	16626.47543
600.161	16719.58842
600.363	16565.75215
600.566	16650.7653
600.768	16772.21971
600.971	17120.43921
601.173	16559.67993
601.376	16980.73713
601.578	16337.04487
601.78	16917.97659
601.983	16509.07887
602.185	16994.90921
602.388	16861.29181
602.59	16899.75626
602.792	16719.58842
602.995	17003.0076
603.197	16800.56031
603.399	17331.03018
603.601	17213.58133
603.804	17219.65603
604.006	16956.44243
604.208	17071.8457
604.41	17055.64822
604.613	17248.00497
604.815	16804.60901
605.017	17102.21646
605.219	17023.25378
605.421	16830.92578
605.623	16893.68287
605.826	17098.16699
606.028	16877.48725
606.23	17179.15854
606.432	17057.67289
606.634	17347.23081
606.836	17094.11753
607.038	17144.73658
607.24	16873.43838
607.442	16897.73179
607.644	17290.52945
607.846	17383.68294
608.048	17333.05525
608.25	17059.69757
608.452	17132.58784
608.654	17756.36348
608.856	17241.93015
609.058	17136.63741
609.26	17436.33777
609.462	17460.6407
609.664	17405.95973
609.866	17136.63741
610.067	17499.12128
610.269	17432.28732
610.471	17270.27953
610.673	17497.09596
610.875	17199.40714
611.077	17642.92733
611.278	17456.59018
611.48	17420.13606
611.682	17235.85535
611.884	17788.77574
612.085	17748.26055
612.287	17894.12164
612.489	17557.857
612.69	17339.13047
612.892	17545.70456
613.094	17357.3563
613.295	17266.22959
613.497	17784.72416
613.699	17752.31201
613.9	17638.87623
614.102	17766.49222
614.304	17644.95288
614.505	17592.28953
614.707	17788.77574
614.908	17464.69124
615.11	17622.67196
615.311	17436.33777
615.513	17602.41693
615.714	17497.09596
615.916	17800.93056
616.117	17723.95208
616.319	17651.02956
616.52	17902.22556
616.722	17695.59281
616.923	17906.27754
617.124	17586.21314
617.326	17260.15469
617.527	17857.6547
617.729	17472.79234
617.93	17738.13196
618.131	17979.21557
618.333	17926.53765
618.534	17892.09567
618.735	17969.08502
618.937	17857.6547
619.138	17904.25155
619.339	17711.79803
619.54	17886.01778
619.742	17865.75837
619.943	18112.94726
620.144	17699.64409
620.345	17967.05892
620.546	17742.18339
620.748	18116.99998
620.949	17555.83158
621.15	17586.21314
621.351	17531.52686
621.552	17786.74995
621.753	17614.56991
621.954	17827.26643
622.155	17598.36596
622.356	17906.27754
622.558	17786.74995
622.759	17620.64645
622.96	17596.34048
623.161	17873.86209
623.362	17537.603
623.563	18066.34202
623.764	17616.59542
623.965	17999.47695
624.166	17867.78429
624.366	18042.027
624.567	18145.36943
624.768	18044.05323
624.969	17774.59527
625.17	17942.74599
625.371	18084.57862
625.572	17829.29229
625.773	17807.00802
625.973	17948.82417
626.174	17886.01778
626.375	18013.66012
626.576	17867.78429
626.777	18279.12079
626.977	17744.2091
627.178	18153.47511
627.379	18285.20078
627.58	18447.34633
627.78	18062.28948
627.981	18021.76487
628.182	18202.11047
628.382	18216.29618
628.583	18230.48207
628.784	18295.33417
628.984	18054.18444
629.185	18202.11047
629.386	17748.26055
629.586	18129.15823
629.787	18185.89845
629.987	18096.73652
630.188	18003.52927
630.388	18339.9222
630.589	18108.89455
630.79	17934.64179
630.99	18040.00077
631.191	18200.08395
631.391	18234.53521
631.591	18037.97454
631.792	17859.68061
631.992	18402.75389
632.193	18498.02179
632.393	18500.04886
632.594	18064.31575
632.794	18196.03093
632.994	17825.24058
633.195	18246.69474
633.395	17883.99182
633.595	17973.13723
633.796	18431.13068
633.996	18453.42726
634.196	18595.32543
634.397	18526.4011
634.597	18321.68142
634.797	18607.48901
634.997	17924.51162
635.198	18506.13009
635.398	18433.15762
635.598	18629.78928
635.798	18514.23845
635.998	18589.24369
636.199	18895.40176
636.399	18812.26383
636.599	18281.14745
636.799	18447.34633
636.999	18208.19004
637.199	18540.59104
637.399	18214.26964
637.599	18226.42894
637.799	18433.15762
637.999	18883.23482
638.199	18629.78928
638.399	18940.01514
638.599	18747.38033
638.799	18781.84918
638.999	18402.75389
639.199	19077.92337
639.399	18800.09786
639.599	18871.06801
639.799	18605.46174
639.999	18595.32543
640.199	18459.50822
640.399	18913.65246
640.599	17991.37236
640.799	18771.71116
640.998	18666.28164
641.198	18834.56847
641.398	18942.04307
641.598	18844.7071
641.798	18844.7071
641.997	19057.64157
642.197	18946.09893
642.397	19108.34683
642.597	19090.09264
642.796	18883.23482
642.996	18755.49054
643.196	19116.4599
643.395	18690.61058
643.595	18982.60245
643.795	18893.37393
643.994	18881.20701
644.194	19061.6979
644.394	19420.74767
644.593	19197.59426
644.793	19434.95003
644.992	19290.90689
645.192	19179.33846
645.392	19296.9928
645.591	19355.82516
645.791	19063.72607
645.99	19209.76498
646.19	18692.63802
646.389	18931.90347
646.589	19094.1491
646.788	19294.96416
646.987	18895.40176
647.187	19217.87888
647.386	19402.48778
647.586	19181.36687
647.785	19365.96902
647.984	19345.6814
648.184	19154.99791
648.383	19106.31857
648.582	18765.6284
648.782	19094.1491
648.981	19051.55711
649.18	19106.31857
649.38	19380.1706
649.579	19288.87826
649.778	19106.31857
649.977	19599.30649
650.177	19581.04331
650.376	19288.87826
650.575	19108.34683
650.774	19262.50647
650.973	19408.57437
651.173	19152.96956
651.372	19307.13606
651.571	19349.73889
651.77	19424.80546
651.969	19335.53775
652.168	19471.47133
652.367	19333.50903
652.566	19347.71015
652.765	19574.95566
652.964	19483.64539
653.163	19341.62393
653.362	19520.16849
653.561	19260.4779
653.76	19380.1706
653.959	19473.50033
654.158	19790.0755
654.357	19307.13606
654.556	18954.21071
654.755	19447.12365
654.954	19422.77656
655.153	19307.13606
655.352	19700.77476
655.551	19658.15681
655.749	19471.47133
655.948	19702.80423
656.147	19585.10177
656.346	19788.04585
656.545	19794.13482
656.743	19528.28491
656.942	19532.34315
657.141	19714.98115
657.34	19126.60134
657.538	19477.55834
657.737	19499.87771
657.936	19917.95207
658.135	19688.59802
658.333	19830.66943
658.532	19392.34355
658.731	19572.92645
658.929	19741.365
659.128	19603.36502
659.326	19599.30649
659.525	19909.83242
659.724	19700.77476
659.922	19593.21873
660.121	19558.72211
660.319	19372.05539
660.518	19570.89725
660.716	19684.53914
660.915	19806.31287
661.113	19946.37135
661.312	19589.16024
661.51	20027.57383
661.709	20127.05605
661.907	20001.18228
662.105	19895.62321
662.304	20234.67063
662.502	19652.06869
662.701	19820.52079
662.899	19473.50033
663.097	19779.92728
663.296	19867.2054
663.494	19704.83371
663.692	19666.27438
663.891	19686.56857
664.089	19179.33846
664.287	19735.27636
664.485	19426.83437
664.684	19548.57627
664.882	19688.59802
665.08	19871.26504
665.278	19798.19415
665.476	19893.59334
665.675	19676.42142
665.873	19775.86802
666.071	19848.93725
666.269	19980.88158
666.467	19940.28143
666.665	20072.23807
666.863	19386.25706
667.061	20179.84663
667.259	19863.14578
667.457	20173.75526
667.655	20064.11714
667.853	19861.11598
668.051	19855.02659
668.249	19946.37135
668.447	19812.40195
668.645	19798.19415
668.843	19678.45084
669.041	19834.72892
669.239	19601.33575
669.437	20080.35905
669.635	20137.20786
669.833	19771.80878
670.031	19686.56857
670.229	19822.55051
670.426	19654.09806
670.624	19980.88158
670.822	19781.95692
671.02	19688.59802
671.218	19717.01066
671.415	19682.5097
671.613	19710.92216
671.811	19739.33545
672.009	19857.05638
672.206	19891.56347
672.404	19808.34256
672.602	20135.17749
672.799	19818.49107
672.997	20171.72481
673.195	19850.96702
673.392	19824.58023
673.59	19688.59802
673.788	19583.07254
673.985	19574.95566
674.183	19587.131
674.38	19315.25075
674.578	19735.27636
674.775	19875.32469
674.973	19824.58023
675.17	19696.71583
675.368	20082.38931
675.565	20009.30268
675.763	19751.51282
675.96	19686.56857
676.158	19625.68724
676.355	19351.76764
676.553	20122.99535
676.75	19380.1706
676.947	19936.22151
677.145	19625.68724
677.342	20084.41957
677.539	19875.32469
677.737	19940.28143
677.934	19859.08618
678.131	20072.23807
678.329	19650.03932
678.526	19735.27636
678.723	19481.61637
678.92	19572.92645
679.118	19913.89224
679.315	19836.75866
679.512	19771.80878
679.709	20060.05671
679.906	19546.54712
680.104	19692.65692
680.301	19457.26844
680.498	19408.57437
680.695	19323.3655
680.892	19394.37239
681.089	19365.96902
681.286	19595.24798
681.483	19292.93552
681.68	20096.60123
681.877	19445.0947
682.075	19708.89268
682.272	18909.59672
682.469	19363.94024
682.665	19542.48882
682.862	19349.73889
683.059	19154.99791
683.256	19388.28588
683.453	19077.92337
683.65	19195.56583
683.847	19069.8106
684.044	19410.60324
684.241	19439.00789
684.438	19542.48882
684.635	19317.27943
684.831	19406.54551
685.028	19008.96692
685.225	19230.04984
685.422	19006.93886
685.619	19479.58735
685.815	19414.661
686.012	19416.68988
686.209	18802.12551
686.405	19150.94121
686.602	18909.59672
686.799	18676.41863
686.996	18927.84766
687.192	18846.73484
687.389	19102.26206
687.586	19142.82785
687.782	19023.16345
687.979	19455.23947
688.175	18798.07021
688.372	18779.82157
688.568	18279.12079
688.765	18619.65273
688.962	18530.45535
689.158	18883.23482
689.355	18929.87557
689.551	18887.29045
689.748	18883.23482
689.944	18682.50087
690.14	18933.93138
690.337	18826.45763
690.533	18842.67937
690.73	18911.62459
690.926	18966.3785
691.123	18733.1876
691.319	19029.24774
691.515	18889.31827
691.712	18542.61819
691.908	18976.51844
692.104	18712.91261
692.301	18785.90441
692.497	18542.61819
692.693	18917.70821
692.889	18362.2169
693.086	18595.32543
693.282	18400.727
693.478	19025.19154
693.674	18556.80834
693.87	18836.59619
694.067	18635.87125
694.263	18899.45745
694.459	18741.2977
694.655	18927.84766
694.851	18406.80767
695.047	18919.73609
695.243	18745.35278
695.439	18706.83019
695.635	18427.07681
695.831	18751.43543
696.027	18611.54357
696.224	18682.50087
696.42	18429.10374
696.615	18727.10506
696.811	18388.56577
697.007	18449.3733
697.203	17835.3699
697.399	18473.69727
697.595	18287.22745
697.791	18254.80116
697.987	18208.19004
698.183	18177.79253
698.379	17932.61575
698.575	18352.08289
698.77	18366.27053
698.966	18504.10301
699.162	18173.73959
699.358	18619.65273
699.554	18392.6195
699.749	18171.71312
699.945	18321.68142
700.141	18196.03093
700.337	18311.54779
700.532	18167.66021
700.728	18423.02295
700.924	18285.20078
701.119	18210.21657
701.315	18341.94898
701.511	18502.07593
701.706	18767.65598
701.902	18702.77527
702.097	18465.58922
702.293	18027.84347
702.489	18364.24372
702.684	18246.69474
702.88	18054.18444
703.075	17788.77574
703.271	18070.39457
703.466	18127.13184
703.662	18398.70012
703.857	18135.2374
704.053	18374.37784
704.248	18066.34202
704.443	18238.58837
704.639	18297.36086
704.834	18224.40238
705.03	18070.39457
705.225	18187.92494
705.42	17683.43904
705.616	18226.42894
705.811	17626.72301
706.006	17898.17359
706.202	17673.31099
706.397	18149.42226
706.592	17950.85024
706.787	17845.4993
706.983	18094.7102
707.178	18348.02931
707.373	18157.52798
707.568	18001.50311
707.763	17762.44071
707.959	18348.02931
708.154	17711.79803
708.349	17999.47695
708.544	18046.07947
708.739	17813.08551
708.934	18143.34301
709.129	18404.78078
709.324	17892.09567
709.519	18029.86968
709.714	17798.90475
709.909	18153.47511
710.104	17768.51797
710.299	17825.24058
710.494	17829.29229
710.689	17861.70653
710.884	17728.00346
711.079	17742.18339
711.274	17403.93455
711.469	17620.64645
711.664	17807.00802
711.859	18064.31575
712.054	17762.44071
712.249	17811.05968
712.443	17669.25979
712.638	17879.93992
712.833	17426.21168
713.028	17809.03385
713.223	17365.45675
713.417	17488.9947
713.612	17436.33777
713.807	17624.69749
714.002	17541.65377
714.196	17958.95455
714.391	17800.93056
714.586	17776.62104
714.78	17557.857
714.975	17434.31254
715.17	17329.00512
715.364	17594.31501
715.559	17677.3622
715.754	17638.87623
715.948	17614.56991
716.143	17975.16334
716.337	17871.83615
716.532	17954.90239
716.726	17610.5189
716.921	17713.82369
717.115	17468.74178
717.31	17756.36348
717.504	17693.56717
717.699	17626.72301
717.893	17264.20462
718.088	17890.0697
718.282	17770.54374
718.476	17574.06043
718.671	17201.43202
718.865	17353.3061
719.059	17343.18064
719.254	17207.50666
719.448	17043.50022
719.642	17098.16699
719.837	16602.18588
720.031	17395.83387
720.225	16920.00109
720.419	16861.29181
720.614	16691.24916
720.808	17071.8457
721.002	17075.8951
721.196	17290.52945
721.39	17493.04532
721.585	17480.8935
721.779	17205.48178
721.973	17043.50022
722.167	16758.04959
722.361	16893.68287
722.555	16958.46697
722.749	16893.68287
722.943	16565.75215
723.137	16719.58842
723.331	16650.7653
723.525	16863.31623
723.719	16490.86281
723.913	16760.07388
724.107	16792.46295
724.301	17031.35232
724.495	16699.34605
724.689	16804.60901
724.883	16482.76684
725.077	16679.10391
725.271	16519.19897
725.465	16891.65841
725.659	16606.23411
725.853	16731.73396
726.046	16642.66864
726.24	16725.66118
726.434	16308.7112
726.628	16940.24617
726.822	16567.77623
727.015	16988.83544
727.209	16715.53993
727.403	17142.71178
727.596	16861.29181
727.79	16962.51606
727.984	16938.22165
728.177	16772.21971
728.371	16642.66864
728.565	16685.17653
728.758	16436.21564
728.952	16602.18588
729.146	16569.80031
729.339	16772.21971
729.533	16618.37888
729.726	16383.59383
729.92	16268.23517
730.113	16490.86281
730.307	16575.87256
730.5	16630.52372
730.694	16462.52705
730.887	16555.6318
731.081	16610.28236
731.274	16697.32182
731.468	16594.08943
731.661	16932.14811
731.854	16432.16776
732.048	16217.64113
732.241	16213.59366
732.435	16290.4969
732.628	16122.52722
732.821	16185.26152
733.014	16152.88233
733.208	16274.30653
733.401	16391.68941
733.594	16377.52217
733.788	16519.19897
733.981	16472.64692
734.174	16519.19897
734.367	16509.07887
734.56	16658.862
734.754	16478.71886
734.947	16553.60773
735.14	16254.06873
735.333	16426.09596
735.526	16721.61267
735.719	16150.85864
735.912	16519.19897
736.105	16045.62918
736.298	16082.05429
736.491	16104.31433
736.684	16276.33032
736.877	16288.4731
737.07	16420.02417
737.263	16136.69289
737.456	16666.95874
737.649	16377.52217
737.842	16154.90602
738.035	16302.63975
738.228	16100.26703
738.421	16399.78501
738.614	16523.24703
738.807	16466.57499
739	16409.90457
739.192	16134.66922
739.385	16264.18761
739.578	16092.17247
739.771	15980.8746
739.964	15906.00386
740.156	16027.41681
740.349	15681.40137
740.542	16031.46399
740.735	15731.98639
740.927	16148.83496
741.12	15978.85104
741.313	15966.70972
741.505	16053.72361
741.698	16316.8065
741.891	16377.52217
742.083	16114.43259
742.276	16420.02417
742.468	16213.59366
742.661	15875.65136
742.854	15816.97062
743.046	15885.76883
743.239	16146.81128
743.431	15962.66263
743.624	15535.71952
743.816	15586.30304
744.009	15778.52514
744.201	15695.56512
744.393	15475.01983
744.586	15604.51322
744.778	15873.62787
744.971	15762.33769
745.163	15988.96884
745.355	16136.69289
745.548	15636.88703
745.74	15691.51833
745.932	15543.81285
746.125	15705.68211
746.317	15709.72891
746.509	15543.81285
746.702	15800.783
746.894	15715.79912
747.086	15863.51044
747.278	15841.25219
747.471	15839.22872
747.663	15721.86934
747.855	16146.81128
748.047	15922.19198
748.239	15816.97062
748.431	15723.89274
748.623	15804.8299
748.815	15760.31426
749.008	15897.90983
749.2	15918.14494
749.392	15782.57202
749.584	15566.06958
749.776	15760.31426
749.968	15499.29964
750.16	15489.18304
750.352	15495.253
750.544	15551.9062
750.736	15501.32296
750.928	15628.79356
751.12	15242.34152
751.311	15430.50705
751.503	15345.52873
751.695	15220.08552
751.887	15193.78299
752.079	15562.02289
752.271	15507.39293
752.463	15553.92954
752.654	15155.34085
752.846	15282.80702
753.038	15228.17861
753.23	15100.71253
753.421	15197.82953
753.613	15246.38807
753.805	15545.83619
753.997	15392.06439
754.188	15224.13206
754.38	15274.71391
754.572	15270.66736
754.763	15369.80818
754.955	15209.96916
755.146	15278.76047
755.338	15122.96852
755.53	15246.38807
755.721	14922.66366
755.913	15080.4798
756.104	14722.35425
756.296	15070.36343
756.487	14914.57047
756.679	15033.94445
756.87	14702.12057
757.062	14963.12953
757.253	14975.26926
757.445	14959.08295
757.636	15232.22515
757.827	15133.08487
758.019	15122.96852
758.21	15250.43461
758.401	14926.71026
758.593	14770.91474
758.784	14683.91018
758.975	14669.74649
759.167	14528.10674
759.358	14900.40736
759.549	14770.91474
759.74	14797.21814
759.932	14799.24148
760.123	14752.70461
760.314	14959.08295
760.505	14750.68126
760.696	14716.28416
760.888	14641.41897
761.079	14509.89549
761.27	14712.23742
761.461	14797.21814
761.652	14839.70801
761.843	14501.80157
762.034	14625.23173
762.225	14248.85434
762.416	14368.24857
762.607	14016.11699
762.798	14157.78657
762.989	14169.92917
763.18	14374.31931
763.371	14157.78657
763.562	14433.00234
763.753	13825.85597
763.944	14297.42222
764.135	14562.50548
764.326	14586.78674
764.517	14303.49314
764.708	14186.1192
764.899	14111.2392
765.089	14455.26109
765.28	14283.2567
765.471	14323.7294
765.662	14151.71524
765.853	14323.7294
766.043	13939.20577
766.234	14222.54628
766.425	14198.26163
766.615	13912.89318
766.806	14038.3801
766.997	13864.31491
767.187	13829.90433
767.378	13991.82963
767.569	13811.68663
767.759	13530.29211
767.95	13684.1559
768.141	13459.42689
768.331	13615.32454
768.522	13655.81404
768.712	13803.58979
768.903	13665.93621
769.093	13390.58193
769.284	13591.03019
769.474	13534.34142
769.665	13605.20196
769.855	13799.54136
770.046	13495.87243
770.236	13416.90553
770.426	13576.85826
770.617	13542.43998
770.807	13449.30291
770.998	13382.48222
771.188	13372.3575
771.378	13372.3575
771.569	13570.78452
771.759	13291.35604
771.949	13335.90766
772.139	13360.2077
772.33	13206.29719
772.52	13198.19594
772.71	13194.14529
772.9	12979.43395
773.09	13246.80236
773.281	12987.53726
773.471	13196.17062
773.661	13109.0774
773.851	12886.23994
774.041	12813.29763
774.231	12983.48562
774.421	12851.79584
774.611	12695.76423
774.802	12683.6045
774.992	12805.19249
775.182	12786.9556
775.372	12967.27883
775.562	12614.69525
775.752	12936.89023
775.942	12791.00829
776.131	12736.29517
776.321	12484.96438
776.511	12813.29763
776.701	12610.64155
776.891	12778.85017
777.081	12768.71826
777.271	12553.88712
777.461	12507.26372
777.651	12636.99018
777.84	12424.14397
778.03	12326.81877
778.22	12491.0461
778.41	12932.83833
778.599	12758.5862
778.789	12592.39959
778.979	12272.06634
779.169	12420.08907
779.358	12099.66313
779.548	12239.61802
779.738	12075.3195
779.927	12679.5512
780.117	12065.17599
780.307	12326.81877
780.496	12044.88839
780.686	12675.49789
780.875	12610.64155
781.065	12444.4181
781.254	12424.14397
781.444	12594.4265
781.633	12083.43417
781.823	12136.17653
782.012	11941.40936
782.202	12235.56185
782.391	12028.65775
782.581	12229.47754
782.77	12134.14807
782.96	12164.57415
783.149	11726.26675
783.338	11947.49694
783.528	11695.81424
783.717	11513.05644
783.906	11736.41715
784.096	11610.5365
784.285	11515.08749
784.474	11679.57208
784.663	11669.42045
784.853	11699.87469
785.042	11789.1957
785.231	11551.64486
785.42	11490.71421
785.61	11521.1806
785.799	11332.25394
785.988	11571.95321
786.177	11145.27335
786.366	11167.63436
786.555	11342.41345
786.744	11448.05766
786.933	11346.47718
787.122	11464.30828
787.312	11490.71421
787.501	11616.6283
787.69	11189.9941
787.879	11421.64909
788.068	11450.08902
788.257	10998.87817
788.445	10913.45454
788.634	11604.44463
788.823	11602.41398
789.012	11224.54756
789.201	11004.9791
789.39	11259.09802
789.579	11094.44806
789.768	11344.44532
789.957	11295.67762
790.145	11309.90213
790.334	11096.4812
790.523	11167.63436
790.712	11238.77458
790.9	11482.58948
791.089	11200.15719
791.278	11198.12459
791.467	11104.61366
791.655	11226.58002
791.844	11153.40478
792.033	11122.91105
792.221	10836.1492
792.41	10791.38582
792.599	10988.70973
792.787	10978.54101
792.976	11059.88302
793.164	11037.51573
793.353	11118.84504
793.541	10858.52877
793.73	10901.24954
793.918	10911.4204
794.107	10742.54652
794.295	10962.27047
794.484	10486.02522
794.672	10880.90695
794.861	10473.80496
795.049	10600.05895
795.238	10404.54807
795.426	10758.82705
795.614	10600.05895
795.803	10628.56126
795.991	10638.74007
796.179	10449.36306
796.368	10204.83992
796.556	10602.09491
796.744	10188.53149
796.932	10577.66258
797.121	10345.4641
797.309	10583.77083
797.497	10380.10087
797.685	10557.30093
797.874	10388.25015
798.062	10465.65787
798.25	10041.71556
798.438	10217.07067
798.626	10353.61428
798.814	10355.65178
799.002	10412.69672
799.19	10290.44488
799.378	10316.93683
799.566	10376.02616
799.755	10239.49243
799.943	10335.27609
800.131	10316.93683
800.318	10294.52071
800.506	10367.87657
800.694	10062.11102
800.882	10106.97605
801.07	10508.42783
801.258	10212.99381
801.446	10583.77083
801.634	10347.50167
801.822	10475.8417
802.01	10600.05895
802.197	10659.09677
802.385	10571.55422
802.573	10365.83914
802.761	10396.39921
802.949	10575.62647
803.136	10308.7857
803.324	10386.21285
803.512	10141.63983
803.699	10253.75997
803.887	10033.55697
804.075	10337.31372
804.262	10186.49287
804.45	10131.44502
804.638	10321.01232
804.825	10469.73144
805.013	10188.53149
805.201	10486.02522
805.388	10170.18345
805.576	10392.32471
805.763	10129.40601
805.951	10239.49243
806.138	10159.98961
806.326	10416.77096
806.513	9968.28006
806.701	9829.51713
806.888	9911.15061
807.075	10151.83429
807.263	10029.4776
807.45	10376.02616
807.638	10064.15048
807.825	10068.22938
808.012	9882.58158
808.2	9972.3603
808.387	9915.23166
808.574	10058.03204
808.761	9913.19114
808.949	10174.26089
809.136	10076.387
809.323	10058.03204
809.51	10302.67222
809.698	10204.83992
809.885	10060.07153
810.072	10274.14102
810.259	10272.10297
810.446	10237.45416
810.633	10164.06719
810.82	10473.80496
811.008	10212.99381
811.195	10404.54807
811.382	10333.23845
811.569	10263.95066
811.756	9956.039
811.943	10376.02616
812.13	10255.79814
812.317	10265.98876
812.504	10428.99339
812.691	10514.53737
812.878	10426.95635
813.064	10579.69868
813.251	10514.53737
813.438	10416.77096
813.625	10382.13821
813.812	10172.22218
813.999	10296.55861
814.186	10308.7857
814.372	10133.48401
814.559	10300.63436
814.746	10007.04
814.933	10284.33103
815.12	10162.02841
815.306	10380.10087
815.493	10157.9508
815.68	10151.83429
815.866	9960.11941
816.053	10229.30093
816.24	10066.18994
816.426	10465.65787
816.613	10155.91198
816.799	10376.02616
816.986	9960.11941
817.173	10111.05435
817.359	10051.91346
817.546	10115.1326
817.732	9925.43405
817.919	10172.22218
818.105	9919.31266
818.292	10111.05435
818.478	10074.34761
818.665	10225.22423
818.851	10298.59649
819.037	10164.06719
819.224	10074.34761
819.41	10119.21079
819.597	10049.87391
819.783	10153.87314
819.969	9927.47448
820.156	10294.52071
820.342	10188.53149
820.528	10227.26259
820.714	9992.76063
820.901	10221.14748
821.087	10139.60089
821.273	10223.18586
821.459	10117.1717
821.646	10361.76423
821.832	10053.953
822.018	10009.07986
822.204	9768.27636
822.39	9774.40104
822.576	9843.8047
822.762	9786.65001
822.948	9856.05061
823.134	10115.1326
823.32	10168.14471
823.507	10312.86129
823.693	10029.4776
823.879	9911.15061
824.065	9892.78514
824.25	9894.8258
824.436	9880.54083
824.622	9996.84052
824.808	9807.06375
824.994	9876.45927
825.18	9545.65232
825.366	9933.59569
825.552	9682.51637
825.738	9807.06375
825.923	9655.96613
826.109	9737.65088
826.295	9570.17045
826.481	9862.17336
826.667	9613.07174
826.852	9613.07174
827.038	9478.21565
827.224	9390.31734
827.409	9455.73288
827.595	9447.55685
827.781	9328.97509
827.966	9273.75434
828.152	9196.0156
828.338	9584.47165
828.523	9331.02007
828.709	9564.04113
828.894	9490.47815
829.08	9427.11563
829.266	9378.05008
829.451	9749.90148
829.637	9414.85012
829.822	9275.79977
830.008	9110.06534
830.193	9359.64807
830.378	9150.99779
830.564	9306.47921
830.749	8772.10531
830.935	8847.93249
831.12	8884.81245
831.305	8948.31437
831.491	8526.00601
831.676	8741.35747
831.861	8575.24737
832.047	8849.98153
832.232	8757.75683
832.417	9175.55398
832.602	9093.69044
832.788	8800.79959
832.973	8880.71497
833.158	8956.50692
833.343	8872.51978
833.528	8966.74722
833.714	9030.22722
833.899	9005.65631
834.084	8480.8585
834.269	8938.07328
834.454	8454.1761
834.639	8817.19473
834.824	8560.88643
835.009	8770.05558
835.194	8692.15234
835.379	8765.95607
835.564	8415.17291
835.749	8778.25439
835.934	8503.43341
836.119	8931.92842
836.304	8409.01388
836.489	8864.3243
836.674	8743.40745
836.859	8737.25745
837.044	8888.90987
837.228	8970.84321
837.413	8409.01388
837.598	8940.12154
837.783	8614.22243
837.968	8638.83477
838.152	8322.76914
838.337	8441.86005
838.522	8135.78688
838.707	8489.06783
838.891	8170.7301
839.076	8349.4676
839.261	7936.29353
839.445	8396.69529
839.63	8306.33768
839.815	8554.73146
839.999	7915.71631
840.184	8513.69396
840.368	8119.34102
840.553	8236.48997
840.737	8069.9957
840.922	7979.49903
841.106	7829.26942
841.291	8109.0617
841.475	7930.12058
841.66	8018.58196
841.844	7773.67708
842.029	7923.94744
842.213	7903.36898
842.397	8030.92242
842.582	7816.91688
842.766	8107.00577
842.951	7790.15047
843.135	8006.24078
843.319	7771.61782
843.504	7821.03448
843.688	7800.44566
843.872	7812.7992
844.056	7849.85533
844.241	7989.78473
844.425	7825.15199
844.609	7853.97226
844.793	7567.64592
844.977	7804.56359
845.161	7404.73026
845.346	7650.0838
845.53	7660.38614
845.714	7767.49922
845.898	7582.07501
846.082	7635.65963
846.266	7280.90629
846.45	7547.03111
846.634	7206.57396
846.818	7462.48794
847.002	7493.42257
847.186	7441.86215
847.37	7330.44533
847.554	7216.8996
847.738	7204.50876
847.922	7266.45502
848.106	7173.52817
848.29	7264.39046
848.473	7086.75589
848.657	7231.35458
848.841	7243.7437
849.025	7478.98701
849.209	7233.41949
849.392	7128.08092
849.576	6944.11571
849.76	7326.31756
849.944	7033.01998
850.127	7235.48437
850.311	6838.61693
850.495	7177.6592
850.678	7078.48981
850.862	7095.02161
851.046	7101.22067
851.229	7049.55572
851.413	6842.75525
851.596	7061.95658
851.78	6654.3692
851.964	6970.99814
852.147	6540.41724
852.331	6724.77739
852.514	6511.40012
852.698	6710.28375
852.881	6714.42491
853.065	6892.40799
853.248	6726.84781
853.431	6875.85853
853.615	6590.15032
853.798	6552.85176
853.982	6691.64743
854.165	6648.15544
854.348	6552.85176
854.532	6755.83139
854.715	6498.96282
854.898	6863.44548
855.081	6685.43491
855.265	6646.08414
855.448	6442.98464
855.631	6378.69248
855.814	6357.9483
855.997	6559.06871
856.181	6440.91105
856.364	6697.85974
856.547	6204.36871
856.73	6747.55083
856.913	6210.5974
857.096	6490.67083
857.279	6399.43433
857.462	6658.5116
857.645	6420.17385
857.828	6449.20527
858.011	6233.43414
858.194	6266.64615
858.377	6158.68517
858.56	6405.65643
858.743	6077.67278
858.926	6360.02282
859.109	6175.29868
859.292	6343.42598
859.475	6179.45182
859.658	6345.50067
859.841	5828.17922
860.023	6407.73042
860.206	6198.1398
860.389	6434.69013
860.572	6019.48797
860.755	6324.75275
860.937	6042.34848
861.12	6075.59506
861.303	5942.57257
861.486	5857.3043
861.668	5859.38448
861.851	5938.41406
862.034	5975.83724
862.216	5950.8893
862.399	5624.17413
862.581	5744.93921
862.764	5620.0084
862.947	5761.59023
863.129	5628.33977
863.312	5672.07323
863.494	5351.11992
863.677	5738.69469
863.859	5486.65531
864.042	5672.07323
864.224	5547.09289
864.406	5692.89503
864.589	5517.9186
864.771	5692.89503
864.954	5522.08664
865.136	5271.83793
865.318	5117.34989
865.501	5338.60396
865.683	5202.96038
865.865	5469.97939
866.048	5259.31663
866.23	5522.08664
866.412	5309.39677
866.594	5520.00263
866.777	5234.27151
866.959	5140.3224
867.141	4991.99593
867.323	5492.90839
867.505	5067.21831
867.687	5545.00916
867.869	5361.54924
868.052	5494.9927
868.234	5031.70036
868.416	5307.31037
868.598	4975.27578
868.78	5228.00971
868.962	5165.38011
869.144	5228.00971
869.326	5086.01922
869.508	5296.878
869.69	5173.73193
869.872	5388.66273
870.054	5305.22394
870.236	5159.11599
870.417	4952.28318
870.599	5108.99555
870.781	5050.50481
870.963	5215.48547
871.145	4874.92401
871.327	4991.99593
871.508	4877.01521
871.69	5004.53507
871.872	4768.24254
872.054	4946.01198
872.235	4879.10639
872.417	4918.83442
872.599	5019.16302
872.78	5269.75111
872.962	5108.99555
873.144	5192.52218
873.325	4958.55416
873.507	5209.22303
873.689	5004.53507
873.87	5182.08338
874.052	5098.55211
874.233	5111.08417
874.415	4927.19716
874.596	5021.25263
874.778	4799.62559
874.959	4904.19874
875.141	4667.78256
875.322	5017.07338
875.503	4715.92612
875.685	4973.18566
875.866	5050.50481
876.048	4991.99593
876.229	4766.15015
876.41	4950.1928
876.592	4814.26926
876.773	4931.37839
876.954	4684.5295
877.136	4778.70412
877.317	4720.11195
877.498	4954.37353
877.679	4826.82009
877.86	4996.17574
878.042	4768.24254
878.223	4950.1928
878.404	4854.01075
878.585	5019.16302
878.766	4872.83279
878.947	5098.55211
879.128	4958.55416
879.309	5050.50481
879.49	4937.65007
879.672	5353.20583
879.853	5042.14751
880.034	5154.9398
880.215	4782.88859
880.396	5234.27151
880.576	4985.72605
880.757	5175.81983
880.938	4952.28318
881.119	5104.81825
881.3	4991.99593
881.481	5146.58714
881.662	4887.47087
881.843	4923.01584
882.023	4979.45596
882.204	4977.36588
882.385	5033.78984
882.566	5194.60986
882.747	4799.62559
882.927	5148.67534
883.108	4699.18189
883.289	4816.36112
883.469	4799.62559
883.65	4897.92596
883.831	5040.05813
884.011	5019.16302
884.192	4753.59537
884.373	4996.17574
884.553	4535.85037
884.734	4937.65007
884.914	4728.48335
885.095	4920.92514
885.275	4916.74368
885.456	5188.34673
885.636	5157.02791
885.817	5311.48315
885.997	5081.8414
886.178	5238.44593
886.358	5008.7146
886.538	5042.14751
886.719	5000.35545
886.899	5223.83505
887.08	4960.64445
887.26	4977.36588
887.44	4690.80923
887.621	5311.48315
887.801	4856.10218
887.981	5092.28577
888.161	4797.53354
888.342	5236.35873
888.522	5104.81825
888.702	4987.81603
888.882	4812.17737
889.062	5121.52692
889.242	4810.08547
889.423	4831.00352
889.603	4883.28868
889.783	5309.39677
889.963	4977.36588
890.143	4962.73471
890.323	4893.744
890.503	5125.70385
890.683	4776.61185
890.863	4814.26926
891.043	4923.01584
891.223	4931.37839
891.403	4529.56568
891.583	5027.52134
891.763	4600.78045
891.943	4849.82782
892.122	5102.72956
892.302	5098.55211
892.482	4669.87601
892.662	4858.19358
892.842	4732.66891
893.022	4793.34938
893.201	4699.18189
893.381	4900.01691
893.561	4642.65946
893.741	5021.25263
893.92	4604.96876
894.1	4778.70412
894.28	4531.6606
894.459	4753.59537
894.639	4389.15597
894.819	4728.48335
894.998	4468.80343
895.178	4753.59537
895.357	4544.22965
895.537	4803.80961
895.716	4715.92612
895.896	4648.94054
896.075	4426.88765
896.255	4420.59953
896.434	4246.55068
896.614	4705.46114
896.793	4431.07963
896.973	4667.78256
897.152	4510.71042
897.331	4682.43621
897.511	4408.02269
897.69	4659.40855
897.87	4296.89333
898.049	4489.75803
898.228	4179.40804
898.407	4456.22962
898.587	4351.41723
898.766	4340.933
898.945	4089.1511
899.124	4162.61899
899.304	4187.80206
899.483	4252.84418
899.662	4011.45734
899.841	4154.22396
900.02	4017.75788
900.199	4137.43289
900.378	3954.74414
900.557	4080.75314
900.737	4017.75788
900.916	4122.7396
901.095	4061.85652
901.274	3940.03829
901.453	3942.13919
901.632	3982.05235
901.811	3879.10354
901.989	4017.75788
902.168	3860.18933
902.347	3801.33483
902.526	3529.98796
902.705	3515.25477
902.884	3511.04512
903.063	3694.09611
903.242	3489.99578
903.42	3607.84837
903.599	3348.91898
903.778	3525.77857
903.957	3447.89168
904.135	3837.06977
904.314	3559.45164
904.493	3637.3024
904.672	3466.83942
904.85	3496.31078
905.029	3136.10482
905.207	3449.99706
905.386	3178.25969
905.565	3348.91898
905.743	2861.94643
905.922	3171.93687
906.1	3085.51049
906.279	3228.8369
906.457	2988.51285
906.636	3193.01236
906.814	2750.1035
906.993	2893.59295
907.171	2826.07651
907.35	2918.90784
907.528	2750.1035
907.707	2851.39687
907.885	2530.53157
908.063	2828.18662
908.242	2530.53157
908.42	2714.2213
908.598	2733.21824
908.777	2809.19515
908.955	2562.20877
909.133	2758.54581
909.311	2769.0984
909.49	2779.65066
909.668	2562.20877
909.846	2864.0563
910.024	2752.2141
910.202	2874.60542
910.38	2496.73968
910.559	2912.57931
910.737	2612.88675
910.915	2705.77788
911.093	2672.00212
911.271	2762.76689
911.449	2562.20877
911.627	2834.51686
911.805	2598.10639
911.983	2857.72665
912.161	2585.43704
912.339	3009.60206
912.517	2796.53355
912.695	2891.48328
912.872	2809.19515
913.05	3001.16656
913.228	2672.00212
913.406	2716.33212
913.584	2589.6602
913.762	2813.41558
913.939	2589.6602
914.117	2834.51686
914.295	2747.99289
914.473	2815.52577
914.65	2735.32894
914.828	2912.57931
915.006	2674.1132
915.184	2840.84697
915.361	2562.20877
915.539	2811.30537
915.716	2479.84265
915.894	2781.76107
916.072	2443.93412
916.249	2743.77163
916.427	2593.88332
916.604	2638.22311
916.782	2336.19016
916.959	2638.22311
917.137	2431.25977
917.314	2667.77992
917.492	2350.98012
917.669	2511.52399
917.847	2226.30731
918.024	2401.68479
918.201	2236.87405
918.379	2500.96382
918.556	2258.00685
918.733	2446.04647
918.911	2224.19394
919.088	2319.28677
919.265	2158.67513
919.442	2403.79736
919.62	2042.41331
919.797	2363.65683
919.974	2279.13874
920.151	2325.62561
920.328	2207.28664
920.506	2344.64162
920.683	2260.12008
920.86	2169.24322
921.037	2029.72887
921.214	2264.34651
921.391	2241.10068
921.568	2437.59699
921.745	2203.05973
921.922	2359.4313
922.099	2014.93006
922.276	2171.35682
922.453	2099.49014
922.63	2258.00685
922.807	2040.29926
922.984	2131.19714
923.161	1911.32966
923.338	2232.64738
923.514	1921.90178
923.691	2122.74211
923.868	2014.93006
924.045	2008.5876
924.222	1957.84592
924.399	2076.23725
924.575	1780.22485
924.752	1858.46705
924.929	1822.51869
925.105	1974.76022
925.282	1847.89414
925.459	2031.84296
925.635	1911.32966
925.812	1909.21522
925.989	1786.56903
926.165	1949.38863
926.342	1797.14259
926.518	1879.61248
926.695	1718.89597
926.871	1672.36872
927.048	1600.46045
927.224	1839.43574
927.401	1357.2314
927.577	1752.73298
927.754	1556.04537
927.93	1513.74475
928.107	1422.79762
928.283	1742.15901
928.459	1427.02772
928.636	1663.90907
928.812	1467.2137
928.988	1488.36421
929.165	1361.46145
929.341	1439.71802
929.517	1367.80654
929.693	1524.31994
929.87	1340.31125
930.046	1589.8855
930.222	1412.22237
930.398	1556.04537
930.574	1344.54128
930.751	1446.06318
930.927	1200.72501
931.103	1372.0366
931.279	1124.5928
931.455	1264.17196
931.631	1149.96963
931.807	1094.98734
931.983	1133.05168
932.159	1386.84185
932.335	1116.13401
932.511	1213.41418
932.687	1006.17711
932.863	1156.31393
933.039	1082.29957
933.215	1196.49531
933.391	775.75109
933.566	1059.03916
933.742	822.25103
933.918	985.03336
934.094	760.95663
934.27	875.09723
934.445	765.18357
934.621	811.68246
934.797	754.61631
934.973	773.63756
935.148	689.10516
935.324	805.34143
935.5	638.39427
935.675	752.50288
935.851	543.33065
936.027	686.99207
936.202	591.91544
936.378	619.37947
936.553	490.52941
936.729	543.33065
936.904	490.52941
937.08	524.32118
937.255	482.08206
937.431	579.24047
937.606	321.63033
937.782	465.18806
937.957	439.84889
938.133	490.52941
938.308	302.63595
938.483	372.28898
938.659	298.41518
938.834	300.52556
939.009	205.57721
939.185	323.7409
939.36	323.7409
939.535	161.28164
939.71	207.68674
939.886	190.81102
940.061	123.32132
940.236	226.67346
940.411	192.92041
940.586	207.68674
940.761	167.60902
940.937	243.55189
941.112	176.04582
941.287	245.66178
941.462	114.88664
941.637	230.89295
941.812	186.59229
941.987	256.21151
942.162	171.82738
942.337	197.13926
942.512	135.97399
942.687	237.22233
942.862	135.97399
943.037	199.24872
943.212	119.10394
943.386	123.32132
943.561	131.75635
943.736	135.97399
943.911	211.90588
944.086	131.75635
944.26	119.10394
944.435	102.23527
944.61	152.84542
944.785	197.13926
944.959	220.34438
945.134	131.75635
945.309	133.86516
945.483	121.21262
945.658	57.9618
945.833	188.70164
946.007	87.47635
946.182	125.43005
946.357	112.77803
946.531	131.75635
946.706	161.28164
946.88	197.13926
947.055	146.51847
947.229	148.62743
947.404	146.51847
947.578	83.25972
947.752	142.30062
947.927	95.90989
948.101	89.5847
948.276	144.40954
948.45	152.84542
948.624	74.82672
948.799	102.23527
948.973	108.56086
949.147	192.92041
949.321	119.10394
949.496	119.10394
949.67	135.97399
949.844	123.32132
950.018	95.90989
950.193	144.40954
950.367	169.71819
950.541	102.23527
950.715	199.24872
950.889	138.08285
951.063	114.88664
951.237	178.15507
951.411	222.45405
951.585	104.34378
951.759	152.84542
951.933	114.88664
952.107	241.44201
952.281	140.19172
952.455	110.66943
952.629	157.06349
952.803	192.92041
952.977	195.02983
953.151	148.62743
953.325	163.39074
953.499	188.70164
953.672	127.53879
953.846	154.95444
954.02	169.71819
954.194	161.28164
954.368	165.49987
954.541	218.23472
954.715	152.84542
954.889	135.97399
955.062	195.02983
955.236	195.02983
955.41	152.84542
955.583	159.17255
955.757	188.70164
955.93	148.62743
956.104	182.37364
956.278	159.17255
956.451	142.30062
956.625	131.75635
956.798	135.97399
956.972	148.62743
957.145	165.49987
957.319	178.15507
957.492	157.06349
957.665	154.95444
957.839	146.51847
958.012	119.10394
958.185	262.54158
958.359	203.46769
958.532	116.99528
958.705	211.90588
958.879	197.13926
959.052	182.37364
959.225	169.71819
959.398	214.01547
959.572	125.43005
959.745	207.68674
959.918	123.32132
960.091	241.44201
960.264	144.40954
960.438	207.68674
960.611	186.59229
960.784	142.30062
960.957	205.57721
961.13	161.28164
961.303	148.62743
961.476	154.95444
961.649	135.97399
961.822	110.66943
961.995	154.95444
962.168	154.95444
962.341	178.15507
962.514	169.71819
962.686	165.49987
962.859	146.51847
963.032	127.53879
963.205	199.24872
963.378	161.28164
963.551	119.10394
963.723	146.51847
963.896	129.64756
964.069	112.77803
964.242	173.93659
964.414	195.02983
964.587	144.40954
964.76	144.40954
964.932	157.06349
965.105	135.97399
965.278	148.62743
965.45	110.66943
965.623	138.08285
965.795	127.53879
965.968	169.71819
966.14	186.59229
966.313	85.36802
966.485	53.7458
966.658	89.5847
966.83	163.39074
967.003	119.10394
967.175	188.70164
967.348	129.64756
967.52	114.88664
967.692	169.71819
967.865	83.25972
968.037	123.32132
968.209	119.10394
968.382	106.45231
968.554	142.30062
968.726	45.31408
968.898	157.06349
969.071	161.28164
969.243	135.97399
969.415	127.53879
969.587	93.80147
969.759	110.66943
969.932	161.28164
970.104	144.40954
970.276	131.75635
970.448	98.01833
970.62	106.45231
970.792	161.28164
970.964	197.13926
971.136	121.21262
971.308	127.53879
971.48	110.66943
971.652	127.53879
971.824	127.53879
971.996	148.62743
972.168	53.7458
972.339	93.80147
972.511	110.66943
972.683	144.40954
972.855	91.69308
973.027	159.17255
973.199	91.69308
973.37	140.19172
973.542	81.15143
973.714	72.71852
973.886	62.17789
974.057	93.80147
974.229	104.34378
974.401	131.75635
974.572	70.61035
974.744	188.70164
974.915	45.31408
975.087	91.69308
975.259	93.80147
975.43	55.85379
975.602	70.61035
975.773	127.53879
975.945	165.49987
976.116	127.53879
976.288	123.32132
976.459	114.88664
976.63	38.99053
976.802	47.42198
976.973	127.53879
977.145	152.84542
977.316	76.93493
977.487	89.5847
977.659	125.43005
977.83	110.66943
978.001	3.16109
978.172	93.80147
978.344	66.39408
978.515	47.42198
978.686	121.21262
978.857	85.36802
979.028	68.5022
979.2	138.08285
979.371	70.61035
979.542	36.88273
979.713	68.5022
979.884	22.12877
980.055	9.48343
980.226	32.66719
980.397	32.66719
980.568	135.97399
980.739	62.17789
980.91	62.17789
981.081	43.20621
981.252	-13.69743
981.423	116.99528
981.594	30.55946
981.765	91.69308
981.936	110.66943
982.106	45.31408
982.277	85.36802
982.448	30.55946
982.619	87.47635
982.79	102.23527
982.96	85.36802
983.131	32.66719
983.302	51.63784
983.472	70.61035
983.643	55.85379
983.814	76.93493
983.984	55.85379
984.155	-7.37567
984.326	62.17789
984.496	20.02115
984.667	49.5299
984.837	85.36802
985.008	51.63784
985.178	127.53879
985.349	47.42198
985.519	38.99053
985.69	62.17789
985.86	138.08285
986.031	76.93493
986.201	70.61035
986.371	70.61035
986.542	83.25972
986.712	34.77495
986.882	57.9618
987.053	72.71852
987.223	-26.3403
987.393	64.28597
987.563	51.63784
987.734	121.21262
987.904	32.66719
988.074	26.34407
988.244	43.20621
988.414	102.23527
988.585	55.85379
988.755	45.31408
988.925	123.32132
989.095	68.5022
989.265	70.61035
989.435	53.7458
989.605	53.7458
989.775	-7.37567
989.945	30.55946
990.115	17.91356
990.285	13.69845
990.455	85.36802
990.625	22.12877
990.795	81.15143
990.965	1.05369
991.134	9.48343
991.304	26.34407
991.474	30.55946
991.644	64.28597
991.814	17.91356
991.984	20.02115
992.153	76.93493
992.323	68.5022
992.493	26.34407
992.662	45.31408
992.832	-26.3403
993.002	112.77803
993.171	41.09836
993.341	-45.30293
993.511	70.61035
993.68	15.80599
993.85	34.77495
994.019	112.77803
994.189	-15.80464
994.358	36.88273
994.528	-9.48295
994.697	64.28597
994.867	68.5022
995.036	-22.12611
995.206	3.16109
995.375	72.71852
995.544	3.16109
995.714	26.34407
995.883	51.63784
996.052	3.16109
996.222	68.5022
996.391	1.05369
996.56	93.80147
996.73	34.77495
996.899	51.63784
997.068	32.66719
997.237	41.09836
997.406	110.66943
997.576	13.69845
997.745	-22.12611
997.914	-41.08919
998.083	32.66719
998.252	70.61035
998.421	57.9618
998.59	17.91356
998.759	24.2364
998.928	34.77495
999.097	68.5022
999.266	51.63784
999.435	26.34407
999.604	32.66719
999.773	60.06984
999.942	62.17789
1000.111	9.48343
1000.28	68.5022
1000.448	-62.1569
1000.617	70.61035
1000.786	13.69845
1000.955	17.91356
1001.124	28.45175
1001.292	34.77495
1001.461	17.91356
1001.63	-53.73012
1001.798	68.5022
1001.967	34.77495
1002.136	45.31408
1002.304	43.20621
1002.473	-32.6614
1002.642	26.34407
1002.81	13.69845
1002.979	106.45231
1003.147	41.09836
1003.316	11.59093
1003.484	22.12877
1003.653	34.77495
1003.821	32.66719
1003.99	9.48343
1004.158	17.91356
1004.327	-41.08919
1004.495	43.20621
1004.663	36.88273
1004.832	53.7458
1005	38.99053
1005.168	28.45175
1005.337	-3.16104
1005.505	45.31408
1005.673	1.05369
1005.842	81.15143
1006.01	49.5299
1006.178	-53.73012
1006.346	45.31408
1006.514	53.7458
1006.683	38.99053
1006.851	3.16109
1007.019	43.20621
1007.187	43.20621
1007.355	24.2364
1007.523	43.20621
1007.691	34.77495
1007.859	9.48343
1008.027	17.91356
1008.195	26.34407
1008.363	28.45175
1008.531	-15.80464
1008.699	9.48343
1008.867	-45.30293
1009.035	76.93493
1009.203	1.05369
1009.37	-15.80464
1009.538	-20.01897
1009.706	47.42198
1009.874	-17.91182
1010.042	83.25972
1010.209	34.77495
1010.377	13.69845
1010.545	26.34407
1010.713	-36.87534
1010.88	43.20621
1011.048	15.80599
1011.216	30.55946
1011.383	60.06984
1011.551	24.2364
1011.718	34.77495
1011.886	3.16109
1012.054	-68.47672
1012.221	34.77495
1012.389	55.85379
1012.556	38.99053
1012.724	87.47635
1012.891	-53.73012
1013.058	9.48343
1013.226	68.5022
1013.393	51.63784
1013.561	26.34407
1013.728	34.77495
1013.895	-32.6614
1014.063	43.20621
1014.23	62.17789
1014.397	17.91356
1014.565	-53.73012
1014.732	-15.80464
1014.899	36.88273
1015.066	-15.80464
1015.233	3.16109
1015.401	64.28597
1015.568	119.10394
1015.735	106.45231
1015.902	17.91356
1016.069	26.34407
1016.236	22.12877
1016.403	41.09836
1016.57	3.16109
1016.737	-32.6614
1016.904	43.20621
1017.071	-24.23321
1017.238	26.34407
1017.405	-47.40976
1017.572	110.66943
1017.739	49.5299
1017.906	3.16109
1018.073	1.05369
1018.24	22.12877
1018.407	43.20621
1018.573	30.55946
1018.74	-22.12611
1018.907	-45.30293
1019.074	36.88273
1019.241	-41.08919
1019.407	-43.19607
1019.574	43.20621
1019.741	64.28597
1019.907	30.55946
1020.074	28.45175
1020.241	102.23527
1020.407	51.63784
1020.574	13.69845
1020.74	-38.98228
1020.907	7.37596
1021.073	70.61035
1021.24	7.37596
1021.406	-53.73012
1021.573	-20.01897
1021.739	-76.90279
1021.906	-15.80464
1022.072	5.26851
1022.239	123.32132
1022.405	22.12877
1022.571	51.63784
1022.738	13.69845
1022.904	-7.37567
1023.07	3.16109
1023.237	7.37596
1023.403	-7.37567
1023.569	-81.11567
1023.735	26.34407
1023.902	-20.01897
1024.068	22.12877
1024.234	1.05369
1024.4	-15.80464
1024.566	30.55946
1024.732	11.59093
1024.898	9.48343
1025.065	26.34407
1025.231	26.34407
1025.397	1.05369
1025.563	5.26851
1025.729	60.06984
1025.895	-28.44736
1026.061	60.06984
1026.227	-3.16104
1026.392	45.31408
1026.558	47.42198
1026.724	1.05369
1026.89	-5.26836
1027.056	1.05369
1027.222	34.77495
1027.388	60.06984
1027.553	-41.08919
1027.719	38.99053
1027.885	-3.16104
1028.051	43.20621
1028.216	-22.12611
1028.382	34.77495
1028.548	24.2364
1028.713	53.7458
1028.879	9.48343
1029.045	13.69845
1029.21	-5.26836
1029.376	70.61035
1029.541	-30.55439
1029.707	-57.94356
1029.873	51.63784
1030.038	-24.23321
1030.204	5.26851
1030.369	-41.08919
1030.534	9.48343
1030.7	22.12877
1030.865	9.48343
1031.031	11.59093
1031.196	-30.55439
1031.361	-7.37567
1031.527	15.80599
1031.692	5.26851
1031.857	-43.19607
1032.023	-11.5902
1032.188	64.28597
1032.353	-41.08919
1032.518	3.16109
1032.684	34.77495
1032.849	43.20621
1033.014	3.16109
1033.179	-68.47672
1033.344	-17.91182
1033.509	43.20621
1033.674	-20.01897
1033.839	-9.48295
1034.004	9.48343
1034.17	34.77495
1034.335	47.42198
1034.5	34.77495
1034.664	-11.5902
1034.829	5.26851
1034.994	20.02115
1035.159	5.26851
1035.324	-15.80464
1035.489	-28.44736
1035.654	5.26851
1035.819	-28.44736
1035.984	28.45175
1036.148	-24.23321
1036.313	3.16109
1036.478	85.36802
1036.643	34.77495
1036.807	-13.69743
1036.972	1.05369
1037.137	-28.44736
1037.301	34.77495
1037.466	13.69845
1037.631	1.05369
1037.795	-1.05368
1037.96	17.91356
1038.124	-28.44736
1038.289	34.77495
1038.454	-13.69743
1038.618	11.59093
1038.783	-76.90279
1038.947	34.77495
1039.111	-36.87534
1039.276	-26.3403
1039.44	-3.16104
1039.605	45.31408
1039.769	-34.76838
1039.933	1.05369
1040.098	-13.69743
1040.262	70.61035
1040.426	9.48343
1040.591	1.05369
1040.755	-62.1569
1040.919	-47.40976
1041.083	38.99053
1041.248	43.20621
1041.412	34.77495
1041.576	36.88273
1041.74	-1.05368
1041.904	64.28597
1042.068	-22.12611
1042.232	5.26851
1042.397	43.20621
1042.561	34.77495
1042.725	60.06984
1042.889	-7.37567
1043.053	3.16109
1043.217	-30.55439
1043.381	85.36802
1043.544	-36.87534
1043.708	34.77495
1043.872	-57.94356
1044.036	68.5022
1044.2	9.48343
1044.364	-30.55439
1044.528	51.63784
1044.691	11.59093
1044.855	-24.23321
1045.019	51.63784
1045.183	-28.44736
1045.346	20.02115
1045.51	-41.08919
1045.674	-28.44736
1045.837	30.55946
1046.001	34.77495
1046.165	-36.87534
1046.328	-28.44736
1046.492	-5.26836
1046.655	-49.51657
1046.819	-13.69743
1046.983	51.63784
1047.146	28.45175
1047.31	15.80599
1047.473	22.12877
1047.636	-24.23321
1047.8	26.34407
1047.963	-38.98228
1048.127	62.17789
1048.29	5.26851
