Data from mixed_try6.1_USB4F045381__23__00307.txt Node

Date: Thu Apr 03 20:33:33 EDT 2025
User: mmckonesweet
Spectrometer: USB4F04538
Trigger mode: 4
Integration Time (sec): 2.700000E-3
Scans to average: 1
Electric dark correction enabled: true
Nonlinearity correction enabled: true
Boxcar width: 0
XAxis mode: Wavelengths
Number of Pixels in Spectrum: 3648
>>>>>Begin Spectral Data<<<<<
345.52	-47.93647
345.736	-47.93647
345.952	-47.93647
346.168	4.74166
346.384	34.24801
346.6	-41.61591
346.816	32.14026
347.032	-66.89679
347.248	-20.54576
347.464	93.27437
347.68	-16.33143
347.896	4.74166
348.112	27.92483
348.328	4.74166
348.544	21.60186
348.76	-14.22423
348.975	-24.75999
349.191	51.11085
349.407	11.06405
349.623	67.97517
349.839	34.24801
350.055	13.17157
350.27	17.38667
350.486	-7.90249
350.702	61.65088
350.918	55.32679
351.133	91.16598
351.349	53.21881
351.565	120.68545
351.781	15.2791
351.996	34.24801
352.212	4.74166
352.428	30.03253
352.644	8.95656
352.859	-43.72279
353.075	-94.28026
353.291	-3.68787
353.506	0.52684
353.722	86.94927
353.938	11.06405
354.153	17.38667
354.369	19.49425
354.584	55.32679
354.8	-1.58052
355.016	63.75895
355.231	135.44678
355.447	59.54283
355.662	59.54283
355.878	110.14229
356.093	97.49122
356.309	27.92483
356.524	86.94927
356.74	80.62436
356.955	89.05761
357.171	-7.90249
357.386	-56.36353
357.602	42.67924
357.817	-16.33143
358.033	59.54283
358.248	55.32679
358.464	-3.68787
358.679	67.97517
358.895	42.67924
359.11	0.52684
359.325	0.52684
359.541	78.51611
359.756	110.14229
359.972	59.54283
360.187	-1.58052
360.402	8.95656
360.618	-56.36353
360.833	2.63424
361.048	51.11085
361.264	51.11085
361.479	11.06405
361.694	76.40788
361.909	21.60186
362.125	42.67924
362.34	57.4348
362.555	51.11085
362.77	44.78711
362.986	19.49425
363.201	6.8491
363.416	-33.18815
363.631	51.11085
363.847	42.67924
364.062	101.70815
364.277	27.92483
364.492	25.81715
364.707	-16.33143
364.922	0.52684
365.138	-7.90249
365.353	42.67924
365.568	19.49425
365.783	38.46358
365.998	32.14026
366.213	8.95656
366.428	65.86705
366.643	38.46358
366.858	4.74166
367.073	17.38667
367.288	84.84094
367.503	-33.18815
367.718	-3.68787
367.933	-33.18815
368.148	11.06405
368.363	53.21881
368.578	27.92483
368.793	84.84094
369.008	8.95656
369.223	-31.08114
369.438	42.67924
369.653	74.29967
369.868	42.67924
370.083	53.21881
370.298	51.11085
370.513	0.52684
370.728	-7.90249
370.943	46.895
371.157	-16.33143
371.372	84.84094
371.587	-20.54576
371.802	59.54283
372.017	-56.36353
372.232	72.19148
372.446	19.49425
372.661	2.63424
372.876	67.97517
373.091	-45.82964
373.306	-14.22423
373.52	11.06405
373.735	44.78711
373.95	19.49425
374.165	49.00291
374.379	34.24801
374.594	78.51611
374.809	-33.18815
375.023	17.38667
375.238	49.00291
375.453	-35.29512
375.667	-79.53586
375.882	-14.22423
376.097	53.21881
376.311	97.49122
376.526	-14.22423
376.741	42.67924
376.955	93.27437
377.17	36.35578
377.384	17.38667
377.599	11.06405
377.813	25.81715
378.028	63.75895
378.242	-16.33143
378.457	40.5714
378.672	67.97517
378.886	34.24801
379.101	-3.68787
379.315	21.60186
379.53	34.24801
379.744	63.75895
379.958	17.38667
380.173	17.38667
380.387	86.94927
380.602	-5.79519
380.816	42.67924
381.031	25.81715
381.245	25.81715
381.459	36.35578
381.674	38.46358
381.888	2.63424
382.103	-39.50901
382.317	-41.61591
382.531	-5.79519
382.746	84.84094
382.96	-5.79519
383.174	59.54283
383.388	-7.90249
383.603	86.94927
383.817	-16.33143
384.031	34.24801
384.246	78.51611
384.46	78.51611
384.674	70.08331
384.888	17.38667
385.103	21.60186
385.317	17.38667
385.531	30.03253
385.745	2.63424
385.959	-31.08114
386.174	25.81715
386.388	38.46358
386.602	-28.97412
386.816	63.75895
387.03	44.78711
387.244	-20.54576
387.458	34.24801
387.672	11.06405
387.887	76.40788
388.101	46.895
388.315	42.67924
388.529	8.95656
388.743	17.38667
388.957	59.54283
389.171	46.895
389.385	-47.93647
389.599	34.24801
389.813	-20.54576
390.027	30.03253
390.241	6.8491
390.455	-5.79519
390.669	-31.08114
390.883	84.84094
391.097	-7.90249
391.311	13.17157
391.525	25.81715
391.738	15.2791
391.952	42.67924
392.166	86.94927
392.38	-5.79519
392.594	-14.22423
392.808	8.95656
393.022	-5.79519
393.236	25.81715
393.449	44.78711
393.663	2.63424
393.877	70.08331
394.091	21.60186
394.305	-14.22423
394.518	51.11085
394.732	25.81715
394.946	59.54283
395.16	55.32679
395.373	4.74166
395.587	86.94927
395.801	76.40788
396.015	59.54283
396.228	67.97517
396.442	-47.93647
396.656	13.17157
396.869	2.63424
397.083	51.11085
397.297	11.06405
397.51	42.67924
397.724	-20.54576
397.938	17.38667
398.151	27.92483
398.365	51.11085
398.578	-47.93647
398.792	61.65088
399.005	21.60186
399.219	93.27437
399.433	25.81715
399.646	122.79415
399.86	-24.75999
400.073	46.895
400.287	2.63424
400.5	-28.97412
400.714	84.84094
400.927	34.24801
401.141	34.24801
401.354	23.70949
401.567	70.08331
401.781	-22.65289
401.994	-3.68787
402.208	34.24801
402.421	17.38667
402.635	38.46358
402.848	86.94927
403.061	72.19148
403.275	-31.08114
403.488	25.81715
403.701	-1.58052
403.915	55.32679
404.128	46.895
404.341	-3.68787
404.555	42.67924
404.768	13.17157
404.981	21.60186
405.195	59.54283
405.408	133.33796
405.621	120.68545
405.834	110.14229
406.048	8.95656
406.261	36.35578
406.474	105.92518
406.687	46.895
406.9	8.95656
407.114	97.49122
407.327	53.21881
407.54	4.74166
407.753	-41.61591
407.966	-31.08114
408.179	59.54283
408.392	15.2791
408.605	0.52684
408.819	93.27437
409.032	59.54283
409.245	-62.68356
409.458	72.19148
409.671	38.46358
409.884	36.35578
410.097	38.46358
410.31	46.895
410.523	70.08331
410.736	76.40788
410.949	13.17157
411.162	-39.50901
411.375	-5.79519
411.588	103.81665
411.801	61.65088
412.014	17.38667
412.227	25.81715
412.44	0.52684
412.653	-31.08114
412.865	80.62436
413.078	-7.90249
413.291	44.78711
413.504	15.2791
413.717	51.11085
413.93	-22.65289
414.143	63.75895
414.356	-12.11701
414.568	49.00291
414.781	30.03253
414.994	-39.50901
415.207	44.78711
415.42	70.08331
415.632	42.67924
415.845	118.57677
416.058	0.52684
416.271	51.11085
416.483	70.08331
416.696	67.97517
416.909	11.06405
417.121	36.35578
417.334	27.92483
417.547	-41.61591
417.759	89.05761
417.972	51.11085
418.185	61.65088
418.397	-14.22423
418.61	-24.75999
418.823	46.895
419.035	-28.97412
419.248	46.895
419.46	0.52684
419.673	19.49425
419.885	25.81715
420.098	49.00291
420.311	0.52684
420.523	30.03253
420.736	-10.00976
420.948	99.59967
421.161	11.06405
421.373	13.17157
421.586	-5.79519
421.798	38.46358
422.01	74.29967
422.223	-39.50901
422.435	34.24801
422.648	70.08331
422.86	42.67924
423.073	72.19148
423.285	34.24801
423.497	82.73264
423.71	49.00291
423.922	8.95656
424.134	49.00291
424.347	36.35578
424.559	-33.18815
424.771	23.70949
424.984	-33.18815
425.196	-33.18815
425.408	-10.00976
425.621	8.95656
425.833	-20.54576
426.045	84.84094
426.257	21.60186
426.47	59.54283
426.682	84.84094
426.894	53.21881
427.106	17.38667
427.318	72.19148
427.531	72.19148
427.743	86.94927
427.955	59.54283
428.167	65.86705
428.379	59.54283
428.591	122.79415
428.804	36.35578
429.016	8.95656
429.228	76.40788
429.44	116.46812
429.652	27.92483
429.864	36.35578
430.076	53.21881
430.288	53.21881
430.5	27.92483
430.712	101.70815
430.924	49.00291
431.136	0.52684
431.348	101.70815
431.56	17.38667
431.772	23.70949
431.984	25.81715
432.196	-41.61591
432.408	70.08331
432.62	44.78711
432.832	25.81715
433.044	84.84094
433.256	59.54283
433.468	72.19148
433.679	51.11085
433.891	27.92483
434.103	13.17157
434.315	97.49122
434.527	89.05761
434.739	93.27437
434.95	-24.75999
435.162	44.78711
435.374	25.81715
435.586	17.38667
435.798	105.92518
436.009	0.52684
436.221	44.78711
436.433	51.11085
436.645	53.21881
436.856	53.21881
437.068	86.94927
437.28	27.92483
437.491	55.32679
437.703	67.97517
437.915	80.62436
438.126	76.40788
438.338	76.40788
438.55	59.54283
438.761	118.57677
438.973	80.62436
439.184	2.63424
439.396	-41.61591
439.608	25.81715
439.819	78.51611
440.031	51.11085
440.242	59.54283
440.454	61.65088
440.665	34.24801
440.877	124.90287
441.088	-1.58052
441.3	53.21881
441.511	80.62436
441.723	59.54283
441.934	38.46358
442.146	8.95656
442.357	-7.90249
442.569	80.62436
442.78	51.11085
442.991	53.21881
443.203	46.895
443.414	89.05761
443.626	74.29967
443.837	21.60186
444.048	101.70815
444.26	-5.79519
444.471	23.70949
444.682	114.35949
444.894	2.63424
445.105	65.86705
445.316	38.46358
445.528	59.54283
445.739	53.21881
445.95	135.44678
446.161	25.81715
446.373	-14.22423
446.584	-3.68787
446.795	74.29967
447.006	51.11085
447.217	89.05761
447.429	57.4348
447.64	97.49122
447.851	36.35578
448.062	27.92483
448.273	49.00291
448.484	76.40788
448.695	-3.68787
448.907	-47.93647
449.118	-50.04327
449.329	44.78711
449.54	30.03253
449.751	59.54283
449.962	-20.54576
450.173	61.65088
450.384	61.65088
450.595	152.31817
450.806	42.67924
451.017	80.62436
451.228	70.08331
451.439	8.95656
451.65	51.11085
451.861	95.38278
452.072	65.86705
452.283	89.05761
452.494	84.84094
452.705	63.75895
452.915	67.97517
453.126	70.08331
453.337	-14.22423
453.548	44.78711
453.759	49.00291
453.97	32.14026
454.181	72.19148
454.391	-22.65289
454.602	51.11085
454.813	84.84094
455.024	65.86705
455.235	67.97517
455.445	67.97517
455.656	17.38667
455.867	61.65088
456.078	61.65088
456.288	53.21881
456.499	78.51611
456.71	17.38667
456.921	46.895
457.131	72.19148
457.342	11.06405
457.553	44.78711
457.763	97.49122
457.974	76.40788
458.184	40.5714
458.395	76.40788
458.606	93.27437
458.816	95.38278
459.027	42.67924
459.237	38.46358
459.448	-3.68787
459.659	42.67924
459.869	23.70949
460.08	46.895
460.29	131.22915
460.501	51.11085
460.711	78.51611
460.922	80.62436
461.132	38.46358
461.343	76.40788
461.553	53.21881
461.764	51.11085
461.974	40.5714
462.184	78.51611
462.395	34.24801
462.605	38.46358
462.816	76.40788
463.026	110.14229
463.236	51.11085
463.447	173.40929
463.657	70.08331
463.867	139.6645
464.078	84.84094
464.288	84.84094
464.498	97.49122
464.709	78.51611
464.919	127.01161
465.129	-50.04327
465.339	46.895
465.55	27.92483
465.76	89.05761
465.97	118.57677
466.18	95.38278
466.391	93.27437
466.601	101.70815
466.811	67.97517
467.021	152.31817
467.231	-14.22423
467.441	27.92483
467.651	89.05761
467.862	164.97259
468.072	32.14026
468.282	34.24801
468.492	95.38278
468.702	30.03253
468.912	61.65088
469.122	67.97517
469.332	127.01161
469.542	93.27437
469.752	72.19148
469.962	95.38278
470.172	150.20917
470.382	122.79415
470.592	97.49122
470.802	118.57677
471.012	167.08173
471.222	44.78711
471.432	82.73264
471.642	34.24801
471.852	80.62436
472.062	190.28367
472.272	89.05761
472.482	72.19148
472.691	135.44678
472.901	99.59967
473.111	61.65088
473.321	76.40788
473.531	84.84094
473.741	93.27437
473.95	84.84094
474.16	105.92518
474.37	95.38278
474.58	127.01161
474.79	139.6645
474.999	137.55563
475.209	67.97517
475.419	76.40788
475.628	177.62776
475.838	148.10019
476.048	110.14229
476.258	143.8823
476.467	112.25088
476.677	110.14229
476.886	202.94032
477.096	99.59967
477.306	112.25088
477.515	156.53622
477.725	196.6119
477.935	211.37848
478.144	143.8823
478.354	112.25088
478.563	247.24421
478.773	171.30008
478.982	200.83082
479.192	169.1909
479.401	177.62776
479.611	162.86346
479.82	228.25576
480.03	167.08173
480.239	232.47528
480.449	95.38278
480.658	127.01161
480.868	205.04983
481.077	173.40929
481.287	202.94032
481.496	192.39306
481.705	228.25576
481.915	285.22573
482.124	186.06495
482.333	230.36551
482.543	274.6747
482.752	270.45441
482.961	253.57403
483.171	283.11549
483.38	304.21876
483.589	337.98775
483.799	316.8816
484.008	365.42837
484.217	340.09847
484.426	369.65026
484.636	325.32385
484.845	375.98323
485.054	297.88759
485.263	371.76124
485.472	359.09566
485.682	394.98302
485.891	337.98775
486.1	405.53904
486.309	380.20529
486.518	468.88354
486.727	378.09425
486.936	456.21352
487.146	430.87514
487.355	506.89684
487.564	473.107
487.773	451.9903
487.982	464.66014
488.191	473.107
488.4	521.68107
488.609	498.44903
488.818	371.76124
489.027	477.33052
489.236	553.36388
489.445	591.3873
489.654	568.15026
489.863	608.28796
490.072	540.69038
490.281	768.88217
490.49	566.03788
490.698	646.31739
490.907	633.64047
491.116	675.89855
491.325	547.02707
491.534	591.3873
491.743	697.02933
491.952	756.20138
492.16	800.58571
492.369	749.86112
492.578	697.02933
492.787	728.7276
492.996	775.2227
493.204	887.25261
493.413	760.42827
493.622	921.07767
493.831	762.54173
494.039	872.4548
494.248	870.34086
494.457	948.56196
494.665	937.99093
494.874	1045.82331
495.083	1001.41971
495.291	1035.25078
495.5	1020.4495
495.709	950.67619
495.917	1018.33505
496.126	946.44774
496.335	840.74658
496.543	1028.90734
496.752	1077.54171
496.96	1155.78523
497.169	950.67619
497.377	1031.02181
497.586	1003.53411
497.794	1276.33291
498.003	1052.16689
498.211	1280.56283
498.42	1075.42711
498.628	1136.75245
498.837	1160.01479
499.045	1181.16278
499.254	1229.80453
499.462	1327.09245
499.671	1339.7825
499.879	1466.68494
500.087	1369.39281
500.296	1377.85294
500.504	1250.95363
500.713	1422.26885
500.921	1344.01253
501.129	1489.95049
501.338	1388.42813
501.546	1477.2602
501.754	1259.41335
501.962	1496.29563
502.171	1386.31309
502.379	1464.56989
502.587	1473.03009
502.795	1650.69078
503.004	1445.53442
503.212	1508.9859
503.42	1591.47174
503.628	1616.85154
503.837	1426.49895
504.045	1578.78175
504.253	1479.37525
504.461	1743.74511
504.669	1699.33356
504.877	1815.64606
505.085	1699.33356
505.294	1834.67785
505.502	1580.89675
505.71	1800.84331
505.918	1699.33356
506.126	1902.34325
506.334	1919.25876
506.542	1838.90708
506.75	1828.33396
506.958	2001.71655
507.166	1830.44859
507.374	1955.20303
507.582	1906.57216
507.79	2113.7585
507.998	1902.34325
508.206	1887.54189
508.414	1925.60199
508.622	2175.05559
508.83	1917.14434
509.037	2063.02499
509.245	1870.62573
509.453	2259.59177
509.661	2065.13897
509.869	2149.69209
510.077	1946.7457
510.285	2124.32744
510.492	2024.97215
510.7	2208.87172
510.908	2147.57841
511.116	2117.9861
511.324	2014.40152
511.531	2399.04407
511.739	2320.87149
511.947	2255.3653
512.155	2194.07743
512.362	2306.08056
512.57	2149.69209
512.778	2472.97803
512.985	2255.3653
513.193	2399.04407
513.401	2329.32323
513.608	2513.10799
513.816	2249.02552
514.024	2648.25159
514.231	2346.22626
514.439	2462.41685
514.646	2443.40603
514.854	2401.15665
515.061	2377.91771
515.269	2631.36135
515.477	2658.80758
515.684	2559.56911
515.892	2462.41685
516.099	2696.80651
516.307	2555.3456
516.514	2684.14066
516.722	2428.61923
516.929	2814.99822
517.136	2622.91594
517.344	2665.14102
517.551	2519.44393
517.759	2886.73648
517.966	2553.23383
518.173	2863.52883
518.381	2806.55736
518.588	2979.54948
518.796	2810.77782
519.003	2954.23968
519.21	2690.47365
519.418	2971.11312
519.625	2705.25016
519.832	3004.85712
520.039	2869.85836
520.247	2941.58397
520.454	2987.9856
520.661	3203.02263
520.868	2865.63869
521.076	3129.25404
521.283	2983.76757
521.49	2952.13043
521.697	2992.20357
521.904	3152.4406
522.112	2987.9856
522.319	3327.32937
522.526	2928.92773
522.733	3304.15801
522.94	3175.6252
523.147	3356.81716
523.354	3146.11719
523.561	3236.73872
523.768	3203.02263
523.975	3253.59516
524.183	3236.73872
524.39	3476.83903
524.597	3363.13553
524.804	3464.20788
525.011	3405.25397
525.218	3542.08955
525.425	3422.09937
525.632	3506.30918
525.838	3297.83819
526.045	3687.26056
526.252	3430.52164
526.459	3666.22685
526.666	3472.62872
526.873	3800.80928
527.08	3592.59394
527.287	3775.58113
527.494	3670.43375
527.701	3769.27365
527.907	3575.76033
528.114	3929.00826
528.321	3720.91051
528.528	3868.07045
528.735	3649.39851
528.941	3849.1553
529.148	3542.08955
529.355	3838.64618
529.562	3651.50212
529.768	4073.92955
529.975	3733.52797
530.182	3935.3112
530.388	3683.05397
530.595	3870.17203
530.802	3901.6934
531.008	4136.90815
531.215	3857.56223
531.422	4308.95276
531.628	4010.93228
531.835	4258.61306
532.042	4090.72568
532.248	4250.22191
532.455	3886.98399
532.661	4057.1321
532.868	4086.52677
533.074	4267.00387
533.281	4292.17423
533.487	4329.92397
533.694	4262.80851
533.9	4491.32954
534.107	4191.47433
534.313	4275.39433
534.52	4296.36899
534.726	4468.27954
534.933	4608.63345
535.139	4422.17158
535.345	4340.40877
535.552	4514.37686
535.758	4392.82463
535.965	4558.36887
536.171	4485.04344
536.377	4573.0307
536.584	4497.61543
536.79	4516.47194
536.996	4667.25919
537.203	4815.83816
537.409	4493.42486
537.615	4633.76092
537.821	4573.0307
538.028	4878.5836
538.234	4673.53948
538.44	4773.99648
538.646	4792.82636
538.853	4765.62705
539.059	4654.69801
539.265	4767.71944
539.471	4658.88516
539.677	5035.35693
539.883	4753.07223
540.09	4983.11354
540.296	5001.92282
540.502	5141.8886
540.708	5012.37161
540.914	5112.65062
541.12	4964.30239
541.326	5214.9636
541.532	4991.47345
541.738	5024.9094
541.944	5102.20738
542.15	5133.53536
542.356	5077.14124
542.562	5206.61362
542.768	5217.05104
542.974	5256.70792
543.18	5212.87614
543.386	5275.48982
543.592	5223.31321
543.798	5325.5656
544.004	5198.26326
544.21	5346.42653
544.415	5421.50645
544.621	5700.7026
544.827	5252.53391
545.033	5554.90664
545.239	5379.79914
545.445	5496.55592
545.651	5506.97705
545.856	5567.40797
546.062	5592.40807
546.268	5534.06922
546.474	5609.07292
546.679	5679.88168
546.885	5477.79641
547.091	5640.31544
547.297	5556.99026
547.502	5667.388
547.708	5379.79914
547.914	5792.28659
548.119	5625.73626
548.325	5652.81096
548.531	5561.15741
548.736	5829.7396
548.942	5536.15307
549.147	5917.10023
549.353	5719.43941
549.559	5869.26504
549.764	5729.84792
549.97	5900.46332
550.175	5667.388
550.381	5950.36952
550.586	5642.39809
550.792	6218.38297
550.997	5871.34509
551.203	6137.39691
551.408	5846.38293
551.614	6016.89
551.819	6012.73318
552.025	6197.62072
552.23	6008.57626
552.435	6164.39623
552.641	6029.3599
552.846	6160.24275
553.052	6141.55091
553.257	6303.48371
553.462	6299.33337
553.668	6334.6083
553.873	6143.62788
554.078	6324.23402
554.283	6332.53349
554.489	6539.89912
554.694	6400.98988
554.899	6473.56741
555.105	6174.77953
555.31	6502.59046
555.515	6363.65318
555.72	6359.50419
555.925	6409.28589
556.131	6417.58154
556.336	6280.65567
556.541	6508.80909
556.746	6268.20281
556.951	6506.73623
557.156	6465.27428
557.361	6645.56631
557.567	6680.77538
557.772	6885.68495
557.977	6666.27833
558.182	6788.43255
558.387	6525.39109
558.592	6730.47101
558.797	6573.05608
559.002	6657.9938
559.207	6519.17301
559.412	6875.34134
559.617	6519.17301
559.822	6467.3476
560.027	6525.39109
560.232	6864.99716
560.437	6649.7089
560.642	6829.8227
560.847	6953.93858
561.051	6825.68409
561.256	6800.85056
561.461	6912.57568
561.666	6848.44529
561.871	6821.5454
562.076	6898.09653
562.281	7038.7043
562.485	6821.5454
562.69	6953.93858
562.895	6937.3945
563.1	7121.36621
563.305	6960.14223
563.509	7168.88065
563.714	6869.1349
563.919	7108.96921
564.123	7065.57335
564.328	7075.90659
564.533	6807.05925
564.737	7129.63044
564.942	7234.96815
565.147	7046.9721
565.351	7051.10587
565.556	7144.09198
565.761	7086.23927
565.965	7228.77341
566.17	7154.42098
566.374	7408.34061
566.579	7187.47005
566.784	7150.28944
566.988	7203.99246
567.193	7259.74513
567.397	7096.57139
567.602	7371.20237
567.806	7313.41771
568.011	7548.5773
568.215	7470.22205
568.42	7416.5926
568.624	7523.83689
568.828	7593.9267
569.033	7362.94847
569.237	7579.49847
569.442	7552.7004
569.646	7503.21752
569.85	7637.20513
570.055	7552.7004
570.259	7678.41397
570.463	7773.16227
570.668	7628.96234
570.872	7672.23318
571.076	7865.80798
571.281	7806.1078
571.485	7614.53665
571.689	7713.43483
571.893	7443.40916
572.098	7715.49469
572.302	7746.39008
572.506	7886.3902
572.71	7814.34334
572.914	7869.92459
573.119	7909.02827
573.323	7762.86569
573.527	7653.68968
573.731	8053.03057
573.935	7958.41176
574.139	8020.12456
574.343	7839.04799
574.547	7997.49866
574.751	7884.33207
574.955	7919.31747
575.159	7690.77497
575.364	7818.46099
575.568	8190.76847
575.772	8135.27297
575.976	7921.37525
576.18	8077.70667
576.383	8055.08702
576.587	8371.54269
576.791	7952.23947
576.995	8266.79434
577.199	8026.29483
577.403	8205.15382
577.607	8092.09972
577.811	8223.64784
578.015	8065.36898
578.219	8178.43739
578.422	8079.76288
578.626	8371.54269
578.83	8262.68552
579.034	8272.95742
579.238	8355.11493
579.442	8416.71264
579.645	8287.33724
579.849	8260.63109
580.053	8172.27158
580.257	8240.08563
580.46	8502.92036
580.664	8580.88892
580.868	8355.11493
581.071	8355.11493
581.275	8301.7161
581.479	8591.14591
581.682	8379.7561
581.886	8527.54496
582.09	8644.47473
582.293	8687.53881
582.497	8595.24857
582.7	8605.50491
582.904	8652.67804
583.107	8734.6949
583.311	8589.09455
583.515	8888.39769
583.718	8810.53435
583.922	8781.84127
584.125	8533.70069
584.329	8890.44638
584.532	8568.5799
584.735	8765.44363
584.939	8564.47675
585.142	8994.90575
585.346	8790.03966
585.549	8923.22292
585.753	8949.8505
585.956	8943.70594
586.159	8767.4934
586.363	9119.78742
586.566	8921.17452
586.769	9103.41317
586.973	8945.75414
587.176	8851.5183
587.379	8970.33122
587.582	9156.62547
587.786	8828.97802
587.989	9234.37657
588.192	9033.81026
588.395	9469.52935
588.599	8964.18719
588.802	9082.94381
589.005	9201.64225
589.208	9359.13688
589.411	9314.14848
589.615	9166.85728
589.818	9162.76461
590.021	9363.22634
590.224	9078.84973
590.427	9353.00257
590.63	9406.1617
590.833	9164.81095
591.036	9379.58352
591.239	9534.92492
591.442	9420.47188
591.645	9555.35769
591.848	9610.51828
592.051	9771.84911
592.254	9436.82541
592.457	9583.96091
592.66	9357.09213
592.863	9651.37063
593.066	9716.7215
593.269	9853.49942
593.472	9588.04683
593.675	9775.93219
593.878	9749.39105
594.081	9853.49942
594.284	9645.24317
594.486	9892.27497
594.689	9963.68972
594.892	9963.68972
595.095	9692.21677
595.298	9771.84911
595.5	9616.64653
595.703	9933.08559
595.906	9908.59992
596.109	9861.66314
596.311	9935.12597
596.514	10081.99523
596.717	9955.52894
596.92	10426.44709
597.122	9896.35629
597.325	9951.44846
597.528	9635.03044
597.73	10135.01324
597.933	9888.19358
598.136	10039.16602
598.338	9877.98986
598.541	10151.32458
598.743	10253.25043
598.946	10365.32978
599.148	10155.40227
599.351	10247.13584
599.554	10059.56166
599.756	9992.25064
599.959	10194.13761
600.161	10408.11313
600.363	10012.64956
600.566	10196.17618
600.768	10073.83776
600.971	10336.80431
601.173	10228.79134
601.376	10402.00158
601.578	10257.32675
601.78	10298.08702
601.983	10002.45028
602.185	10399.96436
602.388	10336.80431
602.59	10454.96449
602.792	10310.31406
602.995	10387.74083
603.197	10171.7125
603.399	10569.00903
603.601	10575.11744
603.804	10440.70611
604.006	10426.44709
604.208	10196.17618
604.41	10330.69138
604.613	10457.00135
604.815	10420.33589
605.017	10571.04518
605.219	10526.24699
605.421	10369.40463
605.623	10287.89746
605.826	10685.04979
606.028	10577.15355
606.23	10947.52468
606.432	10601.58593
606.634	10807.15538
606.836	10344.95471
607.038	10648.40965
607.24	10516.06473
607.442	10564.93669
607.644	10660.62347
607.846	10668.76577
608.048	10727.79164
608.25	10672.83685
608.452	10589.36996
608.654	10921.08246
608.856	10717.61549
609.058	11010.57154
609.26	10562.90051
609.462	10776.633
609.664	10717.61549
609.866	10811.22483
610.067	10556.79187
610.269	10855.98571
610.471	10689.12067
610.673	10729.82683
610.875	10746.10795
611.077	10996.33609
611.278	10762.38831
611.48	10803.08588
611.682	10709.47435
611.884	11189.48594
612.085	10668.76577
612.287	11055.308
612.489	10978.03256
612.69	10947.52468
612.892	10668.76577
613.094	11004.4707
613.295	10917.01426
613.497	10904.80937
613.699	10811.22483
613.9	11055.308
614.102	10937.35482
614.304	11120.3698
614.505	10849.88229
614.707	11049.20789
614.908	10782.73769
615.11	11093.93978
615.311	10961.76201
615.513	10733.89719
615.714	11034.9739
615.916	11400.82579
616.117	10638.23114
616.319	11215.90947
616.52	10894.63832
616.722	11209.81189
616.923	10961.76201
617.124	11152.89657
617.326	10868.19225
617.527	11400.82579
617.729	11323.61816
617.93	11262.65451
618.131	11177.28986
618.333	11307.36208
618.534	10980.06633
618.735	11276.88018
618.937	10898.70678
619.138	11057.34135
619.339	10933.2868
619.54	11039.04081
619.742	11085.8071
619.943	11242.33125
620.144	11116.30376
620.345	11110.20462
620.546	11234.20166
620.748	11319.5542
620.949	11207.77934
621.15	11270.78353
621.351	11061.40802
621.552	11158.99503
621.753	11224.03944
621.954	11083.7739
622.155	11059.37469
622.356	11425.20419
622.558	11193.55121
622.759	11132.56766
622.96	11100.03917
623.161	11583.63008
623.362	11108.17155
623.563	11205.74678
623.764	11102.07228
623.965	11506.45545
624.166	11583.63008
624.366	11543.01354
624.567	11396.76259
624.768	11408.95208
624.969	11065.47464
625.17	11327.68208
625.371	11295.16959
625.572	11473.95679
625.773	11205.74678
625.973	11496.29988
626.174	11325.65012
626.375	11331.74595
626.576	11319.5542
626.777	11581.59934
626.977	11226.0719
627.178	11660.79138
627.379	11410.98363
627.58	11555.19889
627.78	11293.13748
627.981	11313.45818
628.182	11417.07821
628.382	11545.04445
628.583	11538.95168
628.784	11707.48794
628.984	11532.85882
629.185	11569.41471
629.386	11287.04107
629.586	11431.29857
629.787	11494.26873
629.987	11668.91286
630.188	11695.30668
630.388	11886.11049
630.589	11705.45775
630.79	11705.45775
630.99	11226.0719
631.191	11603.93697
631.391	11583.63008
631.591	11646.57844
631.792	11642.51752
631.992	11618.15124
632.193	11636.42607
632.393	11681.09481
632.594	11329.71402
632.794	11636.42607
632.994	11713.57845
633.195	11575.50707
633.395	11242.33125
633.595	11315.4902
633.796	11536.92073
633.996	11930.75592
634.196	11563.32227
634.397	12013.9483
634.597	11772.44929
634.797	11985.54266
634.997	11695.30668
635.198	11833.34252
635.398	11612.05946
635.598	11835.37216
635.798	11776.50908
635.998	11963.22284
636.199	11701.39735
636.399	12212.74535
636.599	11811.01589
636.799	11930.75592
636.999	11701.39735
637.199	11823.19418
637.399	11888.13991
637.599	11971.33925
637.799	11543.01354
637.999	12026.12166
638.199	12052.49633
638.399	11896.25753
638.599	11829.28321
638.799	12005.83256
638.999	11886.11049
639.199	12028.15053
639.399	11802.89687
639.599	12078.86968
639.799	12050.46756
639.999	12036.26592
640.199	11835.37216
640.399	12222.88613
640.599	11626.27348
640.799	12306.03373
640.998	11831.31287
641.198	12030.17939
641.398	12001.77464
641.598	12162.0387
641.798	11928.72667
641.997	11928.72667
642.197	12168.12375
642.397	12247.22326
642.597	12131.61249
642.796	12086.98429
642.996	11865.81578
643.196	12089.01293
643.395	12230.99862
643.595	12147.84001
643.795	11644.54799
643.994	12216.80168
644.194	12109.29885
644.394	12249.25131
644.593	11823.19418
644.793	12147.84001
644.992	12133.64095
645.192	12326.31183
645.392	12431.74685
645.591	12561.48844
645.791	12350.64463
645.99	12326.31183
646.19	12354.7
646.389	12368.89357
646.589	12149.86842
646.788	12265.47542
646.987	11774.47919
647.187	12411.47231
647.386	12316.17287
647.586	12344.56152
647.785	12468.23936
647.984	12711.47025
648.184	12597.97357
648.383	12496.62095
648.582	12490.53929
648.782	12502.70256
648.981	12443.91126
649.18	12545.27218
649.38	12352.67231
649.579	12360.783
649.778	12541.21805
649.977	12679.04454
650.177	12271.55935
650.376	12539.19098
650.575	12198.54795
650.774	12701.33738
650.973	12330.36736
651.173	12770.23805
651.372	12429.71943
651.571	12589.86594
651.77	12632.42992
651.969	12780.36995
652.168	12640.53704
652.367	12514.86559
652.566	12391.19709
652.765	12772.26444
652.964	12160.01034
653.163	12409.44481
653.362	12334.42287
653.561	12164.06706
653.76	12350.64463
653.959	12472.29395
654.158	12658.7777
654.357	13009.31451
654.556	12760.10602
654.755	12725.65603
654.954	12573.65038
655.153	12764.15885
655.352	12772.26444
655.551	12405.38981
655.749	12525.00128
655.948	12577.7043
656.147	12766.18526
656.346	12792.52804
656.545	12683.09784
656.743	12859.39394
656.942	12533.10972
657.141	12800.63331
657.34	12950.56524
657.538	12863.44623
657.737	12658.7777
657.936	13027.54618
658.135	12646.61731
658.333	12788.47536
658.532	12602.02735
658.731	12897.8898
658.929	12597.97357
659.128	12893.83769
659.326	12735.78855
659.525	13088.31553
659.724	12962.72062
659.922	13110.59654
660.121	12634.45671
660.319	12824.94862
660.518	12693.23097
660.716	12956.64295
660.915	12853.31547
661.113	12910.04599
661.312	12893.83769
661.51	12960.69473
661.709	13013.36603
661.907	12952.59115
662.105	13001.21142
662.304	13195.66429
662.502	12845.21076
662.701	12829.00109
662.899	12522.97416
663.097	12829.00109
663.296	12814.81734
663.494	13286.79951
663.692	12768.21166
663.891	13171.36004
664.089	12644.59056
664.287	12883.70734
664.485	12711.47025
664.684	13104.51996
664.882	12634.45671
665.08	13023.49473
665.278	12968.79823
665.476	13001.21142
665.675	13005.26297
665.873	12966.77237
666.071	13031.59761
666.269	13215.91733
666.467	12829.00109
666.665	13035.64901
666.863	12910.04599
667.061	13483.21787
667.259	12940.43562
667.457	13373.87621
667.655	13177.43617
667.853	13138.95336
668.051	12766.18526
668.249	13080.2132
668.447	12875.60296
668.645	12968.79823
668.843	12938.40969
669.041	13147.05514
669.239	12920.176
669.437	13041.72609
669.635	12922.20198
669.833	12725.65603
670.031	12885.73342
670.229	12954.61706
670.426	12808.7385
670.624	12782.39631
670.822	12660.80441
671.02	12772.26444
671.218	12674.99122
671.415	12839.13218
671.613	12642.5638
671.811	13145.02971
672.009	12936.38374
672.206	12946.51341
672.404	12954.61706
672.602	12843.18457
672.799	12760.10602
672.997	12934.35779
673.195	12788.47536
673.392	13163.25849
673.59	13033.62331
673.788	13059.95705
673.985	12672.96455
674.183	12912.072
674.38	13033.62331
674.578	12982.97916
674.775	12993.10824
674.973	13031.59761
675.17	12985.00499
675.368	13011.34027
675.565	12985.00499
675.763	13298.95021
675.96	12869.52462
676.158	12972.84995
676.355	12729.70905
676.553	12980.95333
676.75	12709.44369
676.947	12780.36995
677.145	12709.44369
677.342	13126.80055
677.539	13031.59761
677.737	13161.23308
677.934	12976.90165
678.131	13420.44905
678.329	13031.59761
678.526	13076.16201
678.723	12642.5638
678.92	13232.11944
679.118	13076.16201
679.315	12816.8436
679.512	12790.5017
679.709	12859.39394
679.906	12701.33738
680.104	12774.29083
680.301	12766.18526
680.498	12636.48349
680.695	12506.75693
680.892	12518.91989
681.089	12674.99122
681.286	12425.66456
681.483	12362.81065
681.68	12644.59056
681.877	12950.56524
682.075	12918.15
682.272	12577.7043
682.469	13027.54618
682.665	12841.15838
682.862	13005.26297
683.059	12683.09784
683.256	12618.24222
683.453	12674.99122
683.65	12952.59115
683.847	12731.73556
684.044	12790.5017
684.241	12958.66885
684.438	12816.8436
684.635	12377.00404
684.831	12824.94862
685.028	12672.96455
685.225	12837.10597
685.422	12346.58923
685.619	12816.8436
685.815	12632.42992
686.012	12320.22847
686.209	12379.03164
686.405	12642.5638
686.602	12153.92521
686.799	12251.27935
686.996	12561.48844
687.192	12391.19709
687.389	12261.41944
687.586	12553.38036
687.782	12630.40312
687.979	12806.71222
688.175	12431.74685
688.372	12638.51027
688.568	12330.36736
688.765	12500.67536
688.962	12226.94239
689.158	12222.88613
689.355	12466.21205
689.551	12328.3396
689.748	12326.31183
689.944	12385.11439
690.14	12411.47231
690.337	12602.02735
690.533	12543.24512
690.73	12318.20067
690.926	12427.69199
691.123	12178.26533
691.319	12247.22326
691.515	12529.05551
691.712	12058.5826
691.908	12717.5499
692.104	12399.30726
692.301	12439.85648
692.497	12569.59642
692.693	12364.8383
692.889	12304.00588
693.086	12387.14197
693.282	12226.94239
693.478	12399.30726
693.674	12192.46324
693.87	12285.75493
694.067	11908.4337
694.263	12220.85799
694.459	12279.67115
694.655	12482.43031
694.851	12370.9212
695.047	12670.93788
695.243	12456.07543
695.439	12261.41944
695.635	12182.32192
695.831	12214.77352
696.027	12306.03373
696.224	12196.51972
696.42	12123.49854
696.615	12196.51972
696.811	12393.22464
697.007	12028.15053
697.203	12289.81075
697.399	12646.61731
697.595	12383.08682
697.791	12342.5338
697.987	12095.09879
698.183	12516.89274
698.379	12178.26533
698.575	12766.18526
698.77	12233.02673
698.966	12435.80168
699.162	12188.40674
699.358	12318.20067
699.554	11892.19873
699.749	12279.67115
699.945	12257.36342
700.141	12028.15053
700.337	12026.12166
700.532	12182.32192
700.728	11880.02216
700.924	12115.38448
701.119	11790.71807
701.315	11938.87285
701.511	11916.55099
701.706	12427.69199
701.902	12082.927
702.097	12160.01034
702.293	11973.36833
702.489	12022.06391
702.684	12241.13907
702.88	12322.25626
703.075	12052.49633
703.271	12245.1952
703.466	12259.39143
703.662	12245.1952
703.857	12022.06391
704.053	12482.43031
704.248	12338.47835
704.443	12212.74535
704.639	11951.04799
704.834	11914.52168
705.03	11817.10508
705.225	11997.71669
705.42	11890.16933
705.616	12346.58923
705.811	11798.8373
706.006	12013.9483
706.202	11693.27644
706.397	11902.34565
706.592	11555.19889
706.787	11957.13545
706.983	11752.14983
707.178	11924.66814
707.373	11849.57942
707.568	12042.35238
707.763	11833.34252
707.959	12082.927
708.154	11993.65871
708.349	12036.26592
708.544	12127.55553
708.739	12115.38448
708.934	11882.05161
709.129	11857.69767
709.324	11847.54984
709.519	12149.86842
709.714	11790.71807
709.909	12119.44153
710.104	11804.92664
710.299	11953.07715
710.494	11906.40436
710.689	11985.54266
710.884	11782.5987
711.079	12030.17939
711.274	11815.07536
711.469	12001.77464
711.664	11843.49064
711.859	12125.52704
712.054	11902.34565
712.249	11880.02216
712.443	11758.23976
712.638	12062.64008
712.833	11585.66081
713.028	12028.15053
713.223	11494.26873
713.417	11955.10631
713.612	11526.76587
713.807	11668.91286
714.002	11441.45567
714.196	11802.89687
714.391	11410.98363
714.586	11417.07821
714.78	11356.12839
714.975	11656.73058
715.17	11620.18181
715.364	11955.10631
715.559	11725.75923
715.754	11892.19873
715.948	11786.6584
716.143	11798.8373
716.337	11776.50908
716.532	11638.45657
716.726	11693.27644
716.921	11614.09006
717.115	11410.98363
717.31	11871.90428
717.504	11345.96921
717.699	12001.77464
717.893	11672.97355
718.088	11733.87957
718.282	11859.72721
718.476	11815.07536
718.671	11636.42607
718.865	11490.20642
719.059	11620.18181
719.254	11465.83174
719.448	11132.56766
719.642	11451.61254
719.837	11291.10535
720.031	11423.17271
720.225	11254.52533
720.419	11404.88896
720.614	11382.54107
720.808	11404.88896
721.002	11195.58383
721.196	11201.68163
721.39	11313.45818
721.585	11116.30376
721.779	11049.20789
721.973	11514.57973
722.167	11183.38794
722.361	11449.58118
722.555	11264.68678
722.749	11341.90548
722.943	11146.798
723.137	11073.60775
723.331	11002.43706
723.525	11120.3698
723.719	10839.70968
723.913	11331.74595
724.107	10919.04836
724.301	11345.96921
724.495	10829.53678
724.689	10914.98014
724.883	10766.45828
725.077	11077.67424
725.271	10906.84355
725.465	11051.24127
725.659	10766.45828
725.853	10978.03256
726.046	11108.17155
726.24	11187.45328
726.434	11144.76513
726.628	11299.2338
726.822	10973.96499
727.015	11315.4902
727.209	11095.97292
727.403	11400.82579
727.596	11291.10535
727.79	11376.44598
727.984	11305.33002
728.177	11238.26648
728.371	11002.43706
728.565	11266.71904
728.758	11313.45818
728.952	11181.35526
729.146	11169.15893
729.339	11250.46068
729.533	10874.29536
729.726	11014.63871
729.92	10921.08246
730.113	11002.43706
730.307	10906.84355
730.5	10914.98014
730.694	11043.10767
730.887	10908.87771
731.081	10998.36976
731.274	10935.32082
731.468	10872.261
731.661	11122.4028
731.854	10927.18468
732.048	11197.61644
732.241	11083.7739
732.435	11057.34135
732.628	10847.84779
732.821	10937.35482
733.014	11130.53471
733.208	11148.83087
733.401	11032.94043
733.594	11352.06475
733.788	11419.10972
733.981	11016.67228
734.174	10868.19225
734.367	11126.46877
734.56	10988.2013
734.754	11045.14109
734.947	11091.90662
735.14	11030.90695
735.333	11303.29796
735.526	11028.87346
735.719	10927.18468
735.912	11093.93978
736.105	11270.78353
736.298	11061.40802
736.491	10880.39837
736.684	11154.9294
736.877	10917.01426
737.07	10752.21318
737.263	10980.06633
737.456	10996.33609
737.649	10849.88229
737.842	10662.65906
738.035	10660.62347
738.228	10890.56982
738.421	10815.29424
738.614	10782.73769
738.807	10884.46698
739	10855.98571
739.192	10849.88229
739.385	11087.84028
739.578	10750.17811
739.771	11069.54122
739.964	10817.32892
740.156	10906.84355
740.349	10803.08588
740.542	11047.17449
740.735	10951.59254
740.927	10949.55862
741.12	10917.01426
741.313	10921.08246
741.505	10866.15785
741.698	10744.07286
741.891	10721.68599
742.083	10717.61549
742.276	10900.74099
742.468	10817.32892
742.661	10497.73587
742.854	10652.48097
743.046	10566.97287
743.239	10562.90051
743.431	10595.478
743.624	10457.00135
743.816	10542.53795
744.009	10613.80144
744.201	10505.88216
744.393	10581.22574
744.586	10628.05231
744.778	10794.94675
744.971	10522.17413
745.163	10540.50162
745.355	10536.42893
745.548	10497.73587
745.74	10528.2834
745.932	10534.39257
746.125	10404.03877
746.317	10866.15785
746.509	10748.14304
746.702	10591.40599
746.894	10489.58937
747.086	10385.70352
747.278	10611.76555
747.471	10487.55272
747.663	10469.22225
747.855	10713.54495
748.047	10740.00262
748.239	10858.02016
748.431	10770.5282
748.623	10770.5282
748.815	10670.80131
749.008	10668.76577
749.2	10650.44532
749.392	10717.61549
749.584	10595.478
749.776	10758.31829
749.968	10530.31981
750.16	10784.77256
750.352	10399.96436
750.544	10499.77246
750.736	10603.62188
750.928	10672.83685
751.12	10381.62888
751.311	10473.29577
751.503	10538.46528
751.695	10514.02824
751.887	10516.06473
752.079	10680.97885
752.271	10200.25327
752.463	10444.78
752.654	10369.40463
752.846	10518.10121
753.038	10328.65371
753.23	10326.61602
753.421	10383.66621
753.613	10371.44204
753.805	10320.50288
753.997	10355.14241
754.188	10371.44204
754.38	10312.35185
754.572	10342.91713
754.763	10253.25043
754.955	9914.72154
755.146	10257.32675
755.338	10004.49017
755.53	9998.37047
755.721	10161.51871
755.913	10053.44312
756.104	9953.48871
756.296	10077.91652
756.487	9796.34672
756.679	10018.76896
756.87	9845.33547
757.062	9877.98986
757.253	10004.49017
757.445	10122.77916
757.636	9898.39694
757.827	10053.44312
758.019	9982.05064
758.21	9945.32764
758.401	9988.17068
758.593	10114.62282
758.784	9955.52894
758.975	10026.92796
759.167	9792.26394
759.358	10049.36402
759.549	9771.84911
759.74	10122.77916
759.932	9920.84302
760.123	9931.0452
760.314	9794.30534
760.505	9780.01522
760.696	9714.67952
760.888	9857.58131
761.079	9363.22634
761.27	9665.66748
761.461	9632.98784
761.652	9845.33547
761.843	9579.87492
762.034	9818.80097
762.225	9718.76346
762.416	9771.84911
762.607	9445.00178
762.798	9831.04797
762.989	9586.00388
763.18	9530.83817
763.371	9322.32879
763.562	9586.00388
763.753	9201.64225
763.944	9679.96358
764.135	9263.01557
764.326	9567.61659
764.517	9563.53035
764.708	9357.09213
764.899	9144.34674
765.089	9263.01557
765.28	9324.37382
765.471	9514.49056
765.662	9177.08866
765.853	9242.55947
766.043	9271.19753
766.234	9481.79227
766.425	9033.81026
766.615	9344.82326
766.806	9191.41188
766.997	9234.37657
767.187	9103.41317
767.378	8855.61629
767.569	9060.42551
767.759	9119.78742
767.95	8783.8909
768.141	9111.60043
768.331	9256.87891
768.522	9326.41884
768.712	9150.48618
768.903	9215.96404
769.093	8816.6824
769.284	9148.43972
769.474	8783.8909
769.665	9091.13176
769.855	9144.34674
770.046	9044.04724
770.236	8863.81207
770.426	9091.13176
770.617	9048.14191
770.807	9060.42551
770.998	9021.52531
771.188	9136.16057
771.378	8919.1261
771.569	8949.8505
771.759	8691.63973
771.949	8669.08378
772.139	8839.22387
772.33	8550.11512
772.52	8578.83746
772.71	8746.99488
772.9	8806.43555
773.09	8863.81207
773.281	8613.70964
773.471	8660.88106
773.661	8751.09473
773.851	8749.04482
774.041	8732.64483
774.231	8804.38613
774.421	8718.29388
774.611	8431.08294
774.802	8426.97724
774.992	8597.29988
775.182	8406.44756
775.372	8488.55475
775.562	8336.63221
775.752	8468.03083
775.942	8314.04008
776.131	8361.27548
776.321	8377.70278
776.511	8820.78101
776.701	8297.60796
776.891	8318.14792
777.081	8498.816
777.271	8297.60796
777.461	8589.09455
777.651	8515.23301
777.84	8521.38907
778.03	8476.24063
778.22	8182.54783
778.41	8441.34687
778.599	8478.29303
778.789	8584.99177
778.979	8147.60656
779.169	8270.90308
779.358	7962.52652
779.548	8301.7161
779.738	7978.98474
779.927	8305.82417
780.117	8355.11493
780.307	8129.10591
780.496	8248.30405
780.686	8264.73994
780.875	8034.52158
781.065	8373.59607
781.254	8018.06776
781.444	8112.65952
781.633	7995.44164
781.823	7869.92459
782.012	7795.81289
782.202	8020.12456
782.391	8005.72655
782.581	8192.82357
782.77	7898.73855
782.96	8279.12032
783.149	7567.13058
783.338	7876.09935
783.528	7978.98474
783.717	8094.15579
783.906	7738.15178
784.096	7742.27097
784.285	7746.39008
784.474	7707.25512
784.663	7680.47419
784.853	7581.55971
785.042	7754.62806
785.231	7540.33084
785.42	7435.1583
785.61	7631.02307
785.799	7348.5033
785.988	7507.34157
786.177	7354.69422
786.366	7507.34157
786.555	7647.50813
786.744	7766.98439
786.933	7532.08404
787.122	7694.89514
787.312	7583.62093
787.501	7499.09339
787.69	7466.09723
787.879	7746.39008
788.068	7538.26917
788.257	7565.06919
788.445	7480.53373
788.634	7606.29292
788.823	7441.34647
789.012	7583.62093
789.201	7375.32919
789.39	7377.39257
789.579	7484.65825
789.768	7593.9267
789.957	7305.16136
790.145	7255.61586
790.334	6999.42733
790.523	7288.6476
790.712	7482.596
790.9	7449.59707
791.089	7230.83835
791.278	7391.8356
791.467	7439.28377
791.655	7360.88494
791.844	7288.6476
792.033	7069.70671
792.221	6939.46259
792.41	7284.51894
792.599	6924.9855
792.787	7193.66612
792.976	7226.70846
793.164	7210.188
793.353	7133.76242
793.541	7111.03543
793.73	7160.61811
793.918	7523.83689
794.107	7228.77341
794.295	7301.03305
794.484	7075.90659
794.672	7263.87432
794.861	7168.88065
795.049	6887.7536
795.238	6904.30202
795.426	7239.09787
795.614	6811.19826
795.803	7040.77128
795.991	6920.84899
796.179	6951.87065
796.368	6680.77538
796.556	7028.36904
796.744	6676.63348
796.932	6904.30202
797.121	6715.97781
797.309	7020.10043
797.497	6852.58339
797.685	6842.23796
797.874	6796.71131
798.062	6846.3762
798.25	6664.20724
798.438	6877.4101
798.626	6515.02751
798.814	6699.41279
799.002	6858.79038
799.19	6838.09963
799.378	6757.38396
799.566	6668.34941
799.755	6885.68495
799.943	6807.05925
800.131	6744.96307
800.318	6924.9855
800.506	6602.06356
800.694	6838.09963
800.882	6473.56741
801.07	6686.98806
801.258	6790.50228
801.446	6697.34206
801.634	6579.27235
801.822	6949.80269
802.01	6643.49498
802.197	6995.29244
802.385	6573.05608
802.573	6566.8396
802.761	6670.42046
802.949	6736.68203
803.136	6585.48841
803.324	6483.93331
803.512	6655.92261
803.699	6452.83388
803.887	6660.06497
804.075	6556.47834
804.262	6203.84964
804.45	6573.05608
804.638	6234.99108
804.825	6674.5625
805.013	6639.35225
805.201	6765.66408
805.388	6937.3945
805.576	6836.03043
805.763	6641.42363
805.951	6616.56561
806.138	6523.31842
806.326	6693.20053
806.513	6496.37161
806.701	6747.03328
806.888	6780.15343
807.075	6997.35989
807.263	6796.71131
807.45	6842.23796
807.638	6510.88192
807.825	6912.57568
808.012	6718.04834
808.2	6761.52407
808.387	6631.06652
808.574	6970.4812
808.761	6807.05925
808.949	7005.62949
809.136	6734.61171
809.323	6896.02799
809.51	6740.8226
809.698	6898.09653
809.885	6589.63234
810.072	6490.15256
810.259	6873.27255
810.446	6898.09653
810.633	6749.10346
810.82	6815.33719
811.008	6684.91719
811.195	7036.63729
811.382	6788.43255
811.569	6920.84899
811.756	6585.48841
811.943	6881.54757
812.13	6608.27886
812.317	7131.69644
812.504	6796.71131
812.691	7137.89431
812.878	6956.00648
813.064	6953.93858
813.251	6792.57198
813.438	6964.27789
813.625	6858.79038
813.812	6753.24375
813.999	6620.70884
814.186	7036.63729
814.372	6550.2613
814.559	6666.27833
814.746	6276.50481
814.933	6614.49396
815.12	6558.55064
815.306	6771.87394
815.493	6581.34439
815.68	6631.06652
815.866	6411.35984
816.053	6813.26774
816.24	6631.06652
816.426	7063.50663
816.613	6726.33021
816.799	6784.29304
816.986	6647.63762
817.173	6809.12877
817.359	6802.92014
817.546	6788.43255
817.732	6595.84805
817.919	6813.26774
818.105	6635.20944
818.292	6639.35225
818.478	6616.56561
818.665	6918.78069
818.851	6693.20053
819.037	6751.17362
819.224	6425.87681
819.41	6718.04834
819.597	6606.20712
819.783	6873.27255
819.969	6643.49498
820.156	6767.73406
820.342	6581.34439
820.528	6825.68409
820.714	6515.02751
820.901	6597.91991
821.087	6286.88178
821.273	6597.91991
821.459	6369.87649
821.646	6618.63724
821.832	6510.88192
822.018	6573.05608
822.204	6299.33337
822.39	6653.8514
822.576	6376.09958
822.762	6400.98988
822.948	6228.76322
823.134	6461.12757
823.32	6390.61933
823.507	6585.48841
823.693	6191.39158
823.879	6463.20094
824.065	6357.42966
824.25	6332.53349
824.436	6332.53349
824.622	6508.80909
824.808	6363.65318
824.994	6415.50766
825.18	6058.45305
825.366	6392.69349
825.552	6158.16597
825.738	6382.32247
825.923	6100.00668
826.109	6378.1739
826.295	6162.3195
826.481	6162.3195
826.667	6021.04673
826.852	6492.2256
827.038	5948.29037
827.224	6251.5977
827.409	6066.76453
827.595	6342.90731
827.781	6243.29458
827.966	6234.99108
828.152	5954.52776
828.338	6174.77953
828.523	5796.44842
828.709	6070.92013
828.894	5819.33676
829.08	6154.01235
829.266	5933.73563
829.451	6083.38636
829.637	5767.31367
829.822	5967.0019
830.008	5494.47163
830.193	6083.38636
830.378	5790.20565
830.564	6108.31628
830.749	5875.50512
830.935	5917.10023
831.12	5702.78456
831.305	6010.65473
831.491	5808.93332
831.676	6006.49776
831.861	5536.15307
832.047	6008.57626
832.232	5711.11217
832.417	5956.60684
832.602	5569.49144
832.788	5879.66506
832.973	5552.82301
833.158	5890.06448
833.343	5719.43941
833.528	5994.02631
833.714	5644.48071
833.899	5877.5851
834.084	5844.3026
834.269	6162.3195
834.454	5606.98989
834.639	5727.76626
834.824	5667.388
835.009	5706.94841
835.194	5502.80867
835.379	5887.98464
835.564	5354.77025
835.749	5638.23277
835.934	5333.91026
836.119	5561.15741
836.304	5394.39777
836.489	5527.81753
836.674	5454.86554
836.859	5575.74171
837.044	5204.52607
837.228	5417.33614
837.413	5502.80867
837.598	5644.48071
837.783	5454.86554
837.968	5471.54282
838.152	5367.28512
838.337	5481.96536
838.522	5231.66245
838.707	5600.74068
838.891	5200.35089
839.076	5404.82466
839.261	5150.24147
839.445	5538.23689
839.63	5302.61587
839.815	5162.77009
839.999	5143.97686
840.184	5452.78077
840.368	5267.14254
840.553	5688.21033
840.737	5192.00025
840.922	5427.76174
841.106	5187.82479
841.291	5344.34054
841.475	5152.32963
841.66	5335.99636
841.844	4851.39643
842.029	5235.83693
842.213	4857.67074
842.397	5075.05225
842.582	4922.49316
842.766	5298.44289
842.951	5081.31916
843.135	5217.05104
843.319	4824.2054
843.504	5091.76356
843.688	4853.48789
843.872	5279.66331
844.056	5244.18561
844.241	5114.7392
844.425	5001.92282
844.609	5164.85811
844.793	4801.1946
844.977	4866.03616
845.161	4581.40839
845.346	4826.29716
845.53	4738.42391
845.714	4920.40246
845.898	4702.84481
846.082	4750.97968
846.266	4617.00963
846.45	4916.22099
846.634	4338.31185
846.818	4539.51635
847.002	4482.94803
847.186	4650.51077
847.37	4516.47194
847.554	4487.13883
847.738	4573.0307
847.922	4476.66167
848.106	4669.35265
848.29	4606.53935
848.473	4413.78717
848.657	4539.51635
848.841	4665.16572
849.025	4673.53948
849.209	4531.13687
849.392	4723.77448
849.576	4501.80592
849.76	4681.91288
849.944	4482.94803
850.127	4675.63287
850.311	4334.11796
850.495	4539.51635
850.678	4279.58944
850.862	4598.16272
851.046	4311.04997
851.229	4296.36899
851.413	4397.01732
851.596	4258.61306
851.78	4214.55573
851.964	4399.11363
852.147	4063.4313
852.331	4413.78717
852.514	4130.61113
852.698	4264.9062
852.881	4071.82994
853.065	4371.85992
853.248	4036.13342
853.431	4172.58765
853.615	4176.78484
853.798	4338.31185
853.982	3989.92908
854.165	4246.02621
854.348	3975.22562
854.532	4248.12407
854.715	4304.75825
854.898	4105.4212
855.081	3901.6934
855.265	4088.62624
855.448	3901.6934
855.631	3868.07045
855.814	3943.71485
855.997	4118.01654
856.181	3876.47667
856.364	4180.98194
856.547	4038.23338
856.73	4151.60044
856.913	3811.32017
857.096	3968.92383
857.279	3754.55552
857.462	3994.12988
857.645	3626.25757
857.828	3790.29789
858.011	3699.87987
858.194	3659.91637
858.377	3634.67272
858.56	3733.52797
858.743	3527.3571
858.926	3828.13657
859.109	3657.81284
859.292	3737.73364
859.475	3415.78248
859.658	3983.62772
859.841	3947.91655
860.023	3716.70454
860.206	3316.79719
860.389	3762.966
860.572	3432.62717
860.755	3725.11641
860.937	3670.43375
861.12	3874.37514
861.303	3554.71665
861.486	3718.80754
861.668	3483.15436
861.851	3590.48981
862.034	3426.31054
862.216	3624.15373
862.399	3356.81716
862.581	3350.49864
862.764	3230.41728
862.947	3508.41405
863.129	3297.83819
863.312	3455.78675
863.494	3371.55978
863.677	3379.98375
863.859	3346.2862
864.042	3415.78248
864.224	3110.28178
864.406	3369.45375
864.589	3072.33339
864.771	3291.51822
864.954	3068.11659
865.136	3186.163
865.318	2985.8766
865.501	3135.57784
865.683	3127.14608
865.865	3167.19466
866.048	3156.65613
866.23	3066.00817
866.412	2880.40729
866.594	3278.87781
866.777	3011.18369
866.959	3084.98342
867.141	2823.43886
867.323	2954.23968
867.505	3000.63933
867.687	3013.29252
867.869	2907.83283
868.052	3015.40133
868.234	2895.17519
868.416	3047.03165
868.598	2909.94239
868.78	3011.18369
868.962	2846.64946
869.144	3097.63288
869.326	3019.6189
869.508	3049.14021
869.69	2884.62676
869.872	3072.33339
870.054	2831.87927
870.236	2907.83283
870.417	2690.47365
870.599	2990.0946
870.781	2821.32872
870.963	2937.36528
871.145	2772.79173
871.327	3061.79127
871.508	2589.13231
871.69	2715.80442
871.872	2814.99822
872.054	2821.32872
872.235	2743.24396
872.417	3009.07485
872.599	2760.12872
872.78	2994.31254
872.962	2755.90761
873.144	2783.34387
873.325	2901.50408
873.507	3011.18369
873.689	2772.79173
873.87	2966.89485
874.052	2631.36135
874.233	2701.02836
874.415	2654.58522
874.596	2861.41896
874.778	2791.78533
874.959	2912.05193
875.141	2614.47032
875.322	3025.94515
875.503	2774.90219
875.685	2935.25592
875.866	2808.6676
876.048	2783.34387
876.229	2717.91523
876.41	2654.58522
876.592	2741.13331
876.773	2713.69359
876.954	2817.1084
877.136	3017.51012
877.317	2622.91594
877.498	3000.63933
877.679	2827.65909
877.86	3025.94515
878.042	2764.34978
878.223	2831.87927
878.404	2798.11628
878.585	2952.13043
878.766	2603.91303
878.947	2876.18776
879.128	2857.19917
879.309	2874.07798
879.49	2724.24759
879.672	3049.14021
879.853	2874.07798
880.034	2766.46029
880.215	2751.68645
880.396	2861.41896
880.576	2445.51838
880.757	2941.58397
880.938	2610.24744
881.119	2969.00399
881.3	2707.36104
881.481	2882.51703
881.662	2565.90427
881.843	2713.69359
882.023	2591.24388
882.204	2924.70887
882.385	2599.69003
882.566	3017.51012
882.747	2675.6965
882.927	2969.00399
883.108	2597.57851
883.289	2950.02117
883.469	2578.57429
883.65	2945.8026
883.831	2650.36281
884.011	2914.16146
884.192	2675.6965
884.373	2945.8026
884.553	2971.11312
884.734	3000.63933
884.914	2950.02117
885.095	3076.55013
885.275	2903.61368
885.456	2928.92773
885.636	2736.91196
885.817	3004.85712
885.997	2793.89566
886.178	2996.42148
886.358	2656.6964
886.538	2931.03714
886.719	2783.34387
886.899	3059.6828
887.08	2958.45813
887.26	2962.67652
887.44	2823.43886
887.621	3120.82208
887.801	2840.31946
887.981	2869.85836
888.161	2817.1084
888.342	2880.40729
888.522	2768.57078
888.702	2857.19917
888.882	2705.25016
889.062	2971.11312
889.242	2646.14035
889.423	2663.02988
889.603	2620.80455
889.783	3038.59723
889.963	2684.14066
890.143	2827.65909
890.323	2713.69359
890.503	2950.02117
890.683	2713.69359
890.863	2829.76919
891.043	2663.02988
891.223	2952.13043
891.403	2734.80127
891.583	2817.1084
891.763	2726.35835
891.943	2979.54948
892.122	2690.47365
892.302	3101.84925
892.482	2698.91745
892.662	2798.11628
892.842	2713.69359
893.022	2810.77782
893.201	2692.58462
893.381	2888.84618
893.561	2601.80153
893.741	2846.64946
893.92	2781.23347
894.1	2798.11628
894.28	2616.58174
894.459	2743.24396
894.639	2557.45736
894.819	2785.45425
894.998	2570.12766
895.178	2789.67498
895.357	2540.56297
895.537	2749.57585
895.716	2688.36266
895.896	2871.96817
896.075	2536.33925
896.255	2800.22657
896.434	2510.99599
896.614	2650.36281
896.793	2616.58174
896.973	2703.13927
897.152	2369.46688
897.331	2557.45736
897.511	2274.38415
897.69	2198.30441
897.87	2240.57235
898.049	2390.59365
898.228	2187.73689
898.407	2508.88397
898.587	2494.09957
898.766	2722.13682
898.945	2422.28187
899.124	2422.28187
899.304	2308.19358
899.483	2580.68592
899.662	2223.6656
899.841	2430.73166
900.02	2489.87535
900.199	2557.45736
900.378	2441.29366
900.557	2333.54905
900.737	2168.71482
900.916	2280.7236
901.095	2139.12362
901.274	2284.94985
901.453	2215.21201
901.632	2287.06296
901.811	1942.51701
901.989	2242.68566
902.168	1944.63136
902.347	2181.39628
902.526	1851.59467
902.705	1961.54596
902.884	1783.92563
903.063	1991.14556
903.242	1885.42739
903.42	2020.74392
903.599	1885.42739
903.778	1961.54596
903.957	1830.44859
904.135	1893.88536
904.314	1887.54189
904.493	1974.23165
904.672	1817.76072
904.85	1860.05297
905.029	1758.54862
905.207	1887.54189
905.386	1519.56111
905.565	1758.54862
905.743	1485.72039
905.922	1644.34597
906.1	1597.81672
906.279	1623.19644
906.457	1481.4903
906.636	1733.17107
906.814	1312.28747
906.993	1599.9317
907.171	1496.29563
907.35	1631.65628
907.528	1420.1538
907.707	1625.3114
907.885	1320.74745
908.063	1540.71144
908.242	1470.91504
908.42	1635.88618
908.598	1358.81767
908.777	1473.03009
908.955	1405.34847
909.133	1506.87086
909.311	1261.52829
909.49	1335.55247
909.668	1132.52299
909.846	1145.21142
910.024	1234.03433
910.202	1420.1538
910.38	1210.77059
910.559	1312.28747
910.737	1329.20745
910.915	1477.2602
911.093	1352.4726
911.271	1511.10094
911.449	1411.69361
911.627	1426.49895
911.805	1318.63245
911.983	1339.7825
912.161	1344.01253
912.339	1475.14515
912.517	1350.35758
912.695	1487.83544
912.872	1386.31309
913.05	1485.72039
913.228	1411.69361
913.406	1411.69361
913.584	1544.9415
913.762	1530.13629
913.939	1386.31309
914.117	1462.45484
914.295	1352.4726
914.473	1339.7825
914.65	1312.28747
914.828	1445.53442
915.006	1145.21142
915.184	1403.23343
915.361	1369.39281
915.539	1373.62287
915.716	1263.64323
915.894	1407.46352
916.072	1208.65573
916.249	1390.54317
916.427	1208.65573
916.604	1519.56111
916.782	1206.54086
916.959	1255.18349
917.137	1109.26129
917.314	1301.71254
917.492	1124.06413
917.669	1193.85176
917.847	1007.76292
918.024	1267.87311
918.201	1005.64851
918.379	1225.57474
918.556	1189.62209
918.733	1115.60533
918.911	963.3617
919.088	1162.12957
919.265	988.73347
919.442	1134.63772
919.62	971.81885
919.797	1157.90001
919.974	1039.47978
920.151	1176.93315
920.328	995.07656
920.506	1077.54171
920.683	1083.88554
920.86	1149.44094
921.037	971.81885
921.214	1090.22941
921.391	914.73532
921.568	1107.14661
921.745	954.90467
921.922	1092.34404
922.099	897.82273
922.276	1185.39243
922.453	872.4548
922.63	1058.51052
922.807	933.76257
922.984	961.24743
923.161	914.73532
923.338	1107.14661
923.514	813.26773
923.691	954.90467
923.868	842.8604
924.045	834.40517
924.222	861.88518
924.399	878.79667
924.575	811.15404
924.752	838.63277
924.929	811.15404
925.105	897.82273
925.282	768.88217
925.459	863.99908
925.635	709.70835
925.812	876.6827
925.989	768.88217
926.165	861.88518
926.342	760.42827
926.518	768.88217
926.695	722.38775
926.871	798.47207
927.048	675.89855
927.224	868.22692
927.401	616.7386
927.577	728.7276
927.754	709.70835
927.93	675.89855
928.107	661.10768
928.283	764.6552
928.459	639.97888
928.636	663.22063
928.812	644.20454
928.988	817.49515
929.165	591.3873
929.341	585.04977
929.517	574.48747
929.693	743.52096
929.87	570.26265
930.046	751.97453
930.222	616.7386
930.398	635.75326
930.574	561.81316
930.751	585.04977
930.927	485.77775
931.103	595.61239
931.279	616.7386
931.455	608.28796
931.631	542.8026
931.807	523.79316
931.983	468.88354
932.159	597.72496
932.335	405.53904
932.511	574.48747
932.687	483.66592
932.863	578.71235
933.039	447.76714
933.215	445.65559
933.391	373.87222
933.566	428.76371
933.742	399.20538
933.918	441.43252
934.094	337.98775
934.27	354.87394
934.445	299.99796
934.621	350.65229
934.797	245.1343
934.973	331.65572
935.148	274.6747
935.324	272.56455
935.5	340.09847
935.675	308.43963
935.851	291.55658
936.027	283.11549
936.202	224.03632
936.378	272.56455
936.553	238.8047
936.729	194.50247
936.904	245.1343
937.08	190.28367
937.255	171.30008
937.431	179.73703
937.606	183.95562
937.782	226.14603
937.957	148.10019
938.133	194.50247
938.308	61.65088
938.483	194.50247
938.659	162.86346
938.834	196.6119
939.009	127.01161
939.185	164.97259
939.36	143.8823
939.535	179.73703
939.71	120.68545
939.886	135.44678
940.061	131.22915
940.236	105.92518
940.411	179.73703
940.586	158.64528
940.761	91.16598
940.937	76.40788
941.112	148.10019
941.287	135.44678
941.462	120.68545
941.637	34.24801
941.812	19.49425
941.987	103.81665
942.162	114.35949
942.337	135.44678
942.512	120.68545
942.687	145.99124
942.862	114.35949
943.037	127.01161
943.212	67.97517
943.386	80.62436
943.561	53.21881
943.736	95.38278
943.911	59.54283
944.086	59.54283
944.26	93.27437
944.435	59.54283
944.61	65.86705
944.785	139.6645
944.959	127.01161
945.134	116.46812
945.309	80.62436
945.483	19.49425
945.658	84.84094
945.833	93.27437
946.007	80.62436
946.182	-12.11701
946.357	59.54283
946.531	116.46812
946.706	156.53622
946.88	42.67924
947.055	38.46358
947.229	89.05761
947.404	76.40788
947.578	89.05761
947.752	150.20917
947.927	120.68545
948.101	42.67924
948.276	145.99124
948.45	108.03372
948.624	120.68545
948.799	156.53622
948.973	53.21881
949.147	188.1743
949.321	116.46812
949.496	177.62776
949.67	97.49122
949.844	103.81665
950.018	53.21881
950.193	84.84094
950.367	76.40788
950.541	131.22915
950.715	59.54283
950.889	91.16598
951.063	137.55563
951.237	118.57677
951.411	61.65088
951.585	213.48807
951.759	86.94927
951.933	112.25088
952.107	135.44678
952.281	129.12037
952.455	110.14229
952.629	101.70815
952.803	156.53622
952.977	103.81665
953.151	105.92518
953.325	116.46812
953.499	103.81665
953.672	116.46812
953.846	51.11085
954.02	120.68545
954.194	154.42718
954.368	59.54283
954.541	145.99124
954.715	139.6645
954.889	127.01161
955.062	78.51611
955.236	93.27437
955.41	135.44678
955.583	78.51611
955.757	65.86705
955.93	101.70815
956.104	65.86705
956.278	65.86705
956.451	42.67924
956.625	15.2791
956.798	53.21881
956.972	131.22915
957.145	59.54283
957.319	112.25088
957.492	129.12037
957.665	154.42718
957.839	51.11085
958.012	21.60186
958.185	139.6645
958.359	97.49122
958.532	173.40929
958.705	173.40929
958.879	61.65088
959.052	84.84094
959.225	110.14229
959.398	51.11085
959.572	120.68545
959.745	118.57677
959.918	93.27437
960.091	154.42718
960.264	42.67924
960.438	72.19148
960.611	139.6645
960.784	167.08173
960.957	70.08331
961.13	97.49122
961.303	97.49122
961.476	11.06405
961.649	89.05761
961.822	101.70815
961.995	57.4348
962.168	57.4348
962.341	120.68545
962.514	59.54283
962.686	124.90287
962.859	61.65088
963.032	135.44678
963.205	84.84094
963.378	127.01161
963.551	103.81665
963.723	139.6645
963.896	129.12037
964.069	99.59967
964.242	169.1909
964.414	93.27437
964.587	122.79415
964.76	70.08331
964.932	105.92518
965.105	97.49122
965.278	93.27437
965.45	93.27437
965.623	105.92518
965.795	95.38278
965.968	99.59967
966.14	99.59967
966.313	95.38278
966.485	84.84094
966.658	110.14229
966.83	86.94927
967.003	51.11085
967.175	127.01161
967.348	135.44678
967.52	84.84094
967.692	61.65088
967.865	32.14026
968.037	105.92518
968.209	150.20917
968.382	44.78711
968.554	72.19148
968.726	44.78711
968.898	34.24801
969.071	167.08173
969.243	70.08331
969.415	105.92518
969.587	30.03253
969.759	148.10019
969.932	158.64528
970.104	89.05761
970.276	4.74166
970.448	95.38278
970.62	46.895
970.792	59.54283
970.964	86.94927
971.136	110.14229
971.308	51.11085
971.48	145.99124
971.652	101.70815
971.824	89.05761
971.996	112.25088
972.168	72.19148
972.339	84.84094
972.511	99.59967
972.683	67.97517
972.855	21.60186
973.027	84.84094
973.199	95.38278
973.37	17.38667
973.542	82.73264
973.714	93.27437
973.886	55.32679
974.057	49.00291
974.229	30.03253
974.401	76.40788
974.572	4.74166
974.744	114.35949
974.915	67.97517
975.087	112.25088
975.259	61.65088
975.43	127.01161
975.602	61.65088
975.773	55.32679
975.945	11.06405
976.116	164.97259
976.288	131.22915
976.459	70.08331
976.63	97.49122
976.802	72.19148
976.973	101.70815
977.145	76.40788
977.316	72.19148
977.487	19.49425
977.659	8.95656
977.83	95.38278
978.001	84.84094
978.172	67.97517
978.344	72.19148
978.515	36.35578
978.686	86.94927
978.857	-5.79519
979.028	137.55563
979.2	110.14229
979.371	67.97517
979.542	38.46358
979.713	61.65088
979.884	59.54283
980.055	51.11085
980.226	40.5714
980.397	124.90287
980.568	99.59967
980.739	93.27437
980.91	17.38667
981.081	27.92483
981.252	110.14229
981.423	97.49122
981.594	78.51611
981.765	44.78711
981.936	72.19148
982.106	101.70815
982.277	59.54283
982.448	61.65088
982.619	67.97517
982.79	51.11085
982.96	42.67924
983.131	65.86705
983.302	99.59967
983.472	61.65088
983.643	74.29967
983.814	42.67924
983.984	78.51611
984.155	-20.54576
984.326	38.46358
984.496	120.68545
984.667	61.65088
984.837	44.78711
985.008	42.67924
985.178	63.75895
985.349	120.68545
985.519	38.46358
985.69	139.6645
985.86	51.11085
986.031	105.92518
986.201	61.65088
986.371	108.03372
986.542	27.92483
986.712	25.81715
986.882	89.05761
987.053	4.74166
987.223	63.75895
987.393	89.05761
987.563	53.21881
987.734	101.70815
987.904	-1.58052
988.074	82.73264
988.244	78.51611
988.414	127.01161
988.585	44.78711
988.755	70.08331
988.925	38.46358
989.095	25.81715
989.265	55.32679
989.435	42.67924
989.605	84.84094
989.775	114.35949
989.945	110.14229
990.115	80.62436
990.285	120.68545
990.455	55.32679
990.625	78.51611
990.795	23.70949
990.965	57.4348
991.134	93.27437
991.304	30.03253
991.474	4.74166
991.644	84.84094
991.814	2.63424
991.984	76.40788
992.153	55.32679
992.323	51.11085
992.493	44.78711
992.662	36.35578
992.832	70.08331
993.002	0.52684
993.171	86.94927
993.341	51.11085
993.511	95.38278
993.68	8.95656
993.85	-5.79519
994.019	61.65088
994.189	4.74166
994.358	65.86705
994.528	97.49122
994.697	-33.18815
994.867	27.92483
995.036	46.895
995.206	84.84094
995.375	-7.90249
995.544	80.62436
995.714	101.70815
995.883	15.2791
996.052	21.60186
996.222	42.67924
996.391	30.03253
996.56	27.92483
996.73	74.29967
996.899	17.38667
997.068	84.84094
997.237	80.62436
997.406	59.54283
997.576	93.27437
997.745	38.46358
997.914	2.63424
998.083	36.35578
998.252	25.81715
998.421	78.51611
998.59	82.73264
998.759	67.97517
998.928	44.78711
999.097	65.86705
999.266	84.84094
999.435	25.81715
999.604	-28.97412
999.773	34.24801
999.942	57.4348
1000.111	59.54283
1000.28	51.11085
1000.448	59.54283
1000.617	67.97517
1000.786	59.54283
1000.955	89.05761
1001.124	38.46358
1001.292	19.49425
1001.461	30.03253
1001.63	59.54283
1001.798	51.11085
1001.967	61.65088
1002.136	116.46812
1002.304	118.57677
1002.473	-1.58052
1002.642	80.62436
1002.81	63.75895
1002.979	59.54283
1003.147	2.63424
1003.316	42.67924
1003.484	76.40788
1003.653	2.63424
1003.821	-1.58052
1003.99	-18.43861
1004.158	19.49425
1004.327	67.97517
1004.495	-31.08114
1004.663	84.84094
1004.832	30.03253
1005	46.895
1005.168	101.70815
1005.337	46.895
1005.505	25.81715
1005.673	34.24801
1005.842	70.08331
1006.01	84.84094
1006.178	40.5714
1006.346	46.895
1006.514	114.35949
1006.683	59.54283
1006.851	93.27437
1007.019	67.97517
1007.187	-14.22423
1007.355	-20.54576
1007.523	2.63424
1007.691	110.14229
1007.859	17.38667
1008.027	61.65088
1008.195	99.59967
1008.363	11.06405
1008.531	-5.79519
1008.699	63.75895
1008.867	-22.65289
1009.035	70.08331
1009.203	-24.75999
1009.37	0.52684
1009.538	70.08331
1009.706	30.03253
1009.874	21.60186
1010.042	93.27437
1010.209	4.74166
1010.377	59.54283
1010.545	84.84094
1010.713	59.54283
1010.88	4.74166
1011.048	38.46358
1011.216	23.70949
1011.383	67.97517
1011.551	21.60186
1011.718	40.5714
1011.886	38.46358
1012.054	127.01161
1012.221	-7.90249
1012.389	51.11085
1012.556	59.54283
1012.724	53.21881
1012.891	34.24801
1013.058	84.84094
1013.226	61.65088
1013.393	21.60186
1013.561	0.52684
1013.728	17.38667
1013.895	-5.79519
1014.063	25.81715
1014.23	4.74166
1014.397	53.21881
1014.565	8.95656
1014.732	-5.79519
1014.899	2.63424
1015.066	51.11085
1015.233	17.38667
1015.401	34.24801
1015.568	23.70949
1015.735	-7.90249
1015.902	38.46358
1016.069	93.27437
1016.236	51.11085
1016.403	27.92483
1016.57	-24.75999
1016.737	30.03253
1016.904	-10.00976
1017.071	93.27437
1017.238	63.75895
1017.405	30.03253
1017.572	53.21881
1017.739	59.54283
1017.906	19.49425
1018.073	19.49425
1018.24	76.40788
1018.407	34.24801
1018.573	84.84094
1018.74	46.895
1018.907	-18.43861
1019.074	0.52684
1019.241	8.95656
1019.407	2.63424
1019.574	30.03253
1019.741	-45.82964
1019.907	-14.22423
1020.074	51.11085
1020.241	67.97517
1020.407	53.21881
1020.574	19.49425
1020.74	25.81715
1020.907	-22.65289
1021.073	78.51611
1021.24	11.06405
1021.406	30.03253
1021.573	53.21881
1021.739	25.81715
1021.906	-45.82964
1022.072	2.63424
1022.239	53.21881
1022.405	25.81715
1022.571	-39.50901
1022.738	34.24801
1022.904	61.65088
1023.07	46.895
1023.237	59.54283
1023.403	-37.40208
1023.569	-45.82964
1023.735	97.49122
1023.902	4.74166
1024.068	67.97517
1024.234	27.92483
1024.4	51.11085
1024.566	59.54283
1024.732	86.94927
1024.898	-10.00976
1025.065	21.60186
1025.231	67.97517
1025.397	-18.43861
1025.563	55.32679
1025.729	30.03253
1025.895	-22.65289
1026.061	55.32679
1026.227	46.895
1026.392	76.40788
1026.558	51.11085
1026.724	19.49425
1026.89	42.67924
1027.056	-7.90249
1027.222	30.03253
1027.388	17.38667
1027.553	25.81715
1027.719	2.63424
1027.885	53.21881
1028.051	-14.22423
1028.216	27.92483
1028.382	84.84094
1028.548	-12.11701
1028.713	2.63424
1028.879	11.06405
1029.045	38.46358
1029.21	-24.75999
1029.376	95.38278
1029.541	61.65088
1029.707	63.75895
1029.873	95.38278
1030.038	11.06405
1030.204	-12.11701
1030.369	-98.49271
1030.534	17.38667
1030.7	-26.86706
1030.865	-62.68356
1031.031	34.24801
1031.196	76.40788
1031.361	17.38667
1031.527	65.86705
1031.692	38.46358
1031.857	19.49425
1032.023	-14.22423
1032.188	19.49425
1032.353	38.46358
1032.518	61.65088
1032.684	30.03253
1032.849	-22.65289
1033.014	17.38667
1033.179	13.17157
1033.344	93.27437
1033.509	82.73264
1033.674	95.38278
1033.839	30.03253
1034.004	51.11085
1034.17	70.08331
1034.335	67.97517
1034.5	30.03253
1034.664	55.32679
1034.829	53.21881
1034.994	34.24801
1035.159	-14.22423
1035.324	-28.97412
1035.489	74.29967
1035.654	19.49425
1035.819	8.95656
1035.984	72.19148
1036.148	17.38667
1036.313	13.17157
1036.478	25.81715
1036.643	110.14229
1036.807	44.78711
1036.972	67.97517
1037.137	27.92483
1037.301	-20.54576
1037.466	78.51611
1037.631	36.35578
1037.795	-73.21644
1037.96	51.11085
1038.124	2.63424
1038.289	72.19148
1038.454	34.24801
1038.618	97.49122
1038.783	17.38667
1038.947	23.70949
1039.111	51.11085
1039.276	42.67924
1039.44	27.92483
1039.605	-7.90249
1039.769	84.84094
1039.933	-16.33143
1040.098	-12.11701
1040.262	76.40788
1040.426	-7.90249
1040.591	34.24801
1040.755	42.67924
1040.919	51.11085
1041.083	-16.33143
1041.248	42.67924
1041.412	-3.68787
1041.576	34.24801
1041.74	67.97517
1041.904	63.75895
1042.068	42.67924
1042.232	19.49425
1042.397	0.52684
1042.561	8.95656
1042.725	63.75895
1042.889	84.84094
1043.053	34.24801
1043.217	70.08331
1043.381	-7.90249
1043.544	-37.40208
1043.708	61.65088
1043.872	103.81665
1044.036	44.78711
1044.2	89.05761
1044.364	38.46358
1044.528	53.21881
1044.691	27.92483
1044.855	27.92483
1045.019	53.21881
1045.183	84.84094
1045.346	21.60186
1045.51	-12.11701
1045.674	11.06405
1045.837	59.54283
1046.001	118.57677
1046.165	-3.68787
1046.328	30.03253
1046.492	13.17157
1046.655	57.4348
1046.819	42.67924
1046.983	-12.11701
1047.146	42.67924
1047.31	11.06405
1047.473	-7.90249
1047.636	17.38667
1047.8	11.06405
1047.963	-47.93647
1048.127	72.19148
1048.29	63.75895
