Data from mixed_try6.1_USB4F045381__25__00309.txt Node

Date: Thu Apr 03 20:33:52 EDT 2025
User: mmckonesweet
Spectrometer: USB4F04538
Trigger mode: 4
Integration Time (sec): 2.700000E-3
Scans to average: 1
Electric dark correction enabled: true
Nonlinearity correction enabled: true
Boxcar width: 0
XAxis mode: Wavelengths
Number of Pixels in Spectrum: 3648
>>>>>Begin Spectral Data<<<<<
345.52	-37.75323
345.736	-37.75323
345.952	-37.75323
346.168	-48.28761
346.384	-90.41875
346.6	48.65159
346.816	-23.00407
347.032	31.78897
347.248	6.49786
347.464	36.00449
347.68	2.283
347.896	-6.14641
348.112	19.14299
348.328	-75.67402
348.544	-29.32529
348.76	-14.57544
348.975	4.39042
349.191	-23.00407
349.407	-6.14641
349.623	-23.00407
349.839	-25.11117
350.055	-4.03909
350.27	12.82031
350.486	17.0354
350.702	2.283
350.918	6.49786
351.133	-1.93175
351.349	-52.50118
351.565	-48.28761
351.781	-46.18078
351.996	-6.14641
352.212	-81.99334
352.428	-48.28761
352.644	-73.56752
352.859	-20.89695
353.075	-8.2537
353.291	2.283
353.506	-75.67402
353.722	-81.99334
353.938	38.11228
354.153	4.39042
354.369	-69.35446
354.584	65.5157
354.8	27.57355
355.016	4.39042
355.231	14.92785
355.447	-1.93175
355.662	36.00449
355.878	6.49786
356.093	-23.00407
356.309	6.49786
356.524	-12.46822
356.74	-1.93175
356.955	-37.75323
357.171	-31.43231
357.386	-12.46822
357.602	-69.35446
357.817	12.82031
358.033	-27.21824
358.248	-58.82135
358.464	27.57355
358.679	-37.75323
358.895	-23.00407
359.11	10.7128
359.325	21.25059
359.541	-39.86016
359.756	-37.75323
359.972	-48.28761
360.187	-20.89695
360.402	2.283
360.618	-20.89695
360.833	-77.78048
361.048	-6.14641
361.264	-29.32529
361.479	-18.7898
361.694	-71.461
361.909	4.39042
362.125	-46.18078
362.34	10.7128
362.555	-4.03909
362.77	-31.43231
362.986	-10.36097
363.201	27.57355
363.416	-1.93175
363.631	130.87769
363.847	-60.92802
364.062	-6.14641
364.277	-6.14641
364.492	-56.71465
364.707	-60.92802
364.922	2.283
365.138	-71.461
365.353	42.32793
365.568	61.29953
365.783	-1.93175
365.998	-29.32529
366.213	-136.75099
366.428	12.82031
366.643	-56.71465
366.858	-27.21824
367.073	-107.26832
367.288	-25.11117
367.503	-1.93175
367.718	10.7128
367.933	-39.86016
368.148	-27.21824
368.363	-20.89695
368.578	-65.14129
368.793	31.78897
369.008	-50.3944
369.223	14.92785
369.438	-33.53931
369.653	14.92785
369.868	-77.78048
370.083	2.283
370.298	-79.88693
370.513	10.7128
370.728	-79.88693
370.943	-27.21824
371.157	-4.03909
371.372	-69.35446
371.587	50.75953
371.802	-18.7898
372.017	-10.36097
372.232	-25.11117
372.446	6.49786
372.661	-39.86016
372.876	-10.36097
373.091	-67.24789
373.306	-37.75323
373.52	-86.2061
373.735	6.49786
373.95	-37.75323
374.165	36.00449
374.379	2.283
374.594	19.14299
374.809	-27.21824
375.023	-103.05609
375.238	-23.00407
375.453	63.4076
375.667	-18.7898
375.882	-77.78048
376.097	2.283
376.311	-31.43231
376.526	54.97546
376.741	-46.18078
376.955	-10.36097
377.17	-60.92802
377.384	36.00449
377.599	-6.14641
377.813	-6.14641
378.028	-16.68263
378.242	-20.89695
378.457	-52.50118
378.672	19.14299
378.886	14.92785
379.101	2.283
379.315	-54.60793
379.53	6.49786
379.744	-12.46822
379.958	-39.86016
380.173	36.00449
380.387	36.00449
380.602	-1.93175
380.816	-1.93175
381.031	-73.56752
381.245	-29.32529
381.459	-14.57544
381.674	-29.32529
381.888	-54.60793
382.103	2.283
382.317	-63.03467
382.531	-6.14641
382.746	-63.03467
382.96	-14.57544
383.174	-50.3944
383.388	-1.93175
383.603	-20.89695
383.817	6.49786
384.031	-39.86016
384.246	-54.60793
384.46	-56.71465
384.674	-20.89695
384.888	-39.86016
385.103	-52.50118
385.317	-48.28761
385.531	61.29953
385.745	-63.03467
385.959	-23.00407
386.174	-48.28761
386.388	10.7128
386.602	2.283
386.816	-69.35446
387.03	-79.88693
387.244	-35.64629
387.458	-6.14641
387.672	-48.28761
387.887	36.00449
388.101	-48.28761
388.315	-23.00407
388.529	2.283
388.743	-1.93175
388.957	-16.68263
389.171	4.39042
389.385	-113.58648
389.599	21.25059
389.813	-44.07393
390.027	-20.89695
390.241	10.7128
390.455	-14.57544
390.669	-31.43231
390.883	36.00449
391.097	-25.11117
391.311	21.25059
391.525	-50.3944
391.738	-14.57544
391.952	-81.99334
392.166	23.35822
392.38	2.283
392.594	19.14299
392.808	6.49786
393.022	40.22009
393.236	-6.14641
393.449	2.283
393.663	27.57355
393.877	-4.03909
394.091	-23.00407
394.305	-12.46822
394.518	-48.28761
394.732	-1.93175
394.946	-48.28761
395.16	-37.75323
395.373	-14.57544
395.587	-65.14129
395.801	-18.7898
396.015	-48.28761
396.228	-23.00407
396.442	-4.03909
396.656	-56.71465
396.869	27.57355
397.083	-48.28761
397.297	36.00449
397.51	-1.93175
397.724	10.7128
397.938	-67.24789
398.151	-18.7898
398.365	48.65159
398.578	-27.21824
398.792	-31.43231
399.005	25.46587
399.219	-69.35446
399.433	10.7128
399.646	-90.41875
399.86	12.82031
400.073	-31.43231
400.287	-37.75323
400.5	-10.36097
400.714	-37.75323
400.927	-73.56752
401.141	14.92785
401.354	4.39042
401.567	-65.14129
401.781	-10.36097
401.994	19.14299
402.208	-39.86016
402.421	-23.00407
402.635	14.92785
402.848	-44.07393
403.061	-44.07393
403.275	8.60532
403.488	-20.89695
403.701	-1.93175
403.915	-29.32529
404.128	-54.60793
404.341	-18.7898
404.555	10.7128
404.768	-35.64629
404.981	27.57355
405.195	-60.92802
405.408	29.68125
405.621	12.82031
405.834	19.14299
406.048	-52.50118
406.261	-12.46822
406.474	40.22009
406.687	-18.7898
406.9	6.49786
407.114	-6.14641
407.327	-56.71465
407.54	10.7128
407.753	-18.7898
407.966	44.4358
408.179	10.7128
408.392	-73.56752
408.605	-6.14641
408.819	-60.92802
409.032	-4.03909
409.245	-46.18078
409.458	-18.7898
409.671	-23.00407
409.884	-27.21824
410.097	-44.07393
410.31	-33.53931
410.523	27.57355
410.736	19.14299
410.949	-33.53931
411.162	6.49786
411.375	-94.6313
411.588	-8.2537
411.801	-54.60793
412.014	-29.32529
412.227	6.49786
412.44	-60.92802
412.653	-23.00407
412.865	29.68125
413.078	69.73195
413.291	-14.57544
413.504	-60.92802
413.717	10.7128
413.93	-31.43231
414.143	-6.14641
414.356	-56.71465
414.568	27.57355
414.781	-63.03467
414.994	-27.21824
415.207	25.46587
415.42	-1.93175
415.632	-88.31244
415.845	-39.86016
416.058	-37.75323
416.271	-14.57544
416.483	38.11228
416.696	-29.32529
416.909	-50.3944
417.121	-56.71465
417.334	-14.57544
417.547	-6.14641
417.759	69.73195
417.972	27.57355
418.185	23.35822
418.397	-81.99334
418.61	-31.43231
418.823	73.9483
419.035	-92.52504
419.248	0.17561
419.46	-1.93175
419.673	-79.88693
419.885	-46.18078
420.098	-46.18078
420.311	-44.07393
420.523	-48.28761
420.736	-23.00407
420.948	-18.7898
421.161	25.46587
421.373	-4.03909
421.586	-10.36097
421.798	19.14299
422.01	-18.7898
422.223	38.11228
422.435	-94.6313
422.648	23.35822
422.86	10.7128
423.073	-14.57544
423.285	-90.41875
423.497	59.19149
423.71	-29.32529
423.922	-14.57544
424.134	-50.3944
424.347	46.54368
424.559	-46.18078
424.771	-31.43231
424.984	-23.00407
425.196	-20.89695
425.408	65.5157
425.621	-63.03467
425.833	-6.14641
426.045	52.86748
426.257	-63.03467
426.47	-46.18078
426.682	-6.14641
426.894	4.39042
427.106	12.82031
427.318	2.283
427.531	36.00449
427.743	-111.48045
427.955	27.57355
428.167	-6.14641
428.379	17.0354
428.591	-31.43231
428.804	8.60532
429.016	8.60532
429.228	-67.24789
429.44	46.54368
429.652	27.57355
429.864	-35.64629
430.076	-44.07393
430.288	-14.57544
430.5	-14.57544
430.712	38.11228
430.924	27.57355
431.136	-35.64629
431.348	-48.28761
431.56	-98.84375
431.772	-56.71465
431.984	-56.71465
432.196	-18.7898
432.408	-56.71465
432.62	14.92785
432.832	17.0354
433.044	2.283
433.256	-48.28761
433.468	31.78897
433.679	-14.57544
433.891	-88.31244
434.103	-29.32529
434.315	-50.3944
434.527	31.78897
434.739	57.08346
434.95	-10.36097
435.162	27.57355
435.374	-31.43231
435.586	14.92785
435.798	-31.43231
436.009	14.92785
436.221	6.49786
436.433	-54.60793
436.645	0.17561
436.856	10.7128
437.068	42.32793
437.28	-48.28761
437.491	-52.50118
437.703	-14.57544
437.915	-16.68263
438.126	-37.75323
438.338	-25.11117
438.55	-29.32529
438.761	-8.2537
438.973	-48.28761
439.184	-25.11117
439.396	19.14299
439.608	10.7128
439.819	-31.43231
440.031	-12.46822
440.242	-54.60793
440.454	-27.21824
440.665	99.24826
440.877	-6.14641
441.088	-29.32529
441.3	-14.57544
441.511	10.7128
441.723	-1.93175
441.934	-48.28761
442.146	-41.96706
442.357	-39.86016
442.569	-37.75323
442.78	-52.50118
442.991	-31.43231
443.203	27.57355
443.414	-39.86016
443.626	44.4358
443.837	-27.21824
444.048	-92.52504
444.26	52.86748
444.471	8.60532
444.682	-12.46822
444.894	38.11228
445.105	-4.03909
445.316	19.14299
445.528	-18.7898
445.739	-37.75323
445.95	-6.14641
446.161	27.57355
446.373	33.89672
446.584	-6.14641
446.795	10.7128
447.006	-18.7898
447.217	-54.60793
447.429	8.60532
447.64	8.60532
447.851	-1.93175
448.062	6.49786
448.273	-37.75323
448.484	6.49786
448.695	4.39042
448.907	23.35822
449.118	-18.7898
449.329	27.57355
449.54	4.39042
449.751	-27.21824
449.962	-67.24789
450.173	-35.64629
450.384	-31.43231
450.595	2.283
450.806	-4.03909
451.017	-23.00407
451.228	-54.60793
451.439	33.89672
451.65	-52.50118
451.861	-8.2537
452.072	-10.36097
452.283	-46.18078
452.494	19.14299
452.705	-14.57544
452.915	-44.07393
453.126	-23.00407
453.337	19.14299
453.548	-23.00407
453.759	27.57355
453.97	-4.03909
454.181	6.49786
454.391	-12.46822
454.602	31.78897
454.813	-31.43231
455.024	-39.86016
455.235	-18.7898
455.445	12.82031
455.656	27.57355
455.867	-4.03909
456.078	-23.00407
456.288	63.4076
456.499	-84.09974
456.71	-14.57544
456.921	-77.78048
457.131	71.84011
457.342	17.0354
457.553	-10.36097
457.763	-39.86016
457.974	-50.3944
458.184	4.39042
458.395	-23.00407
458.606	52.86748
458.816	10.7128
459.027	10.7128
459.237	-37.75323
459.448	29.68125
459.659	-27.21824
459.869	-63.03467
460.08	19.14299
460.29	42.32793
460.501	36.00449
460.711	-29.32529
460.922	29.68125
461.132	10.7128
461.343	12.82031
461.553	-27.21824
461.764	-6.14641
461.974	33.89672
462.184	-54.60793
462.395	-4.03909
462.605	10.7128
462.816	-48.28761
463.026	29.68125
463.236	88.70622
463.447	36.00449
463.657	69.73195
463.867	-71.461
464.078	27.57355
464.288	40.22009
464.498	38.11228
464.709	-14.57544
464.919	12.82031
465.129	54.97546
465.339	-6.14641
465.55	10.7128
465.76	-44.07393
465.97	-31.43231
466.18	46.54368
466.391	-63.03467
466.601	12.82031
466.811	-20.89695
467.021	52.86748
467.231	23.35822
467.441	-79.88693
467.651	4.39042
467.862	10.7128
468.072	-29.32529
468.282	38.11228
468.492	14.92785
468.702	36.00449
468.912	29.68125
469.122	-18.7898
469.332	36.00449
469.542	12.82031
469.752	61.29953
469.962	-4.03909
470.172	-103.05609
470.382	-10.36097
470.592	10.7128
470.802	33.89672
471.012	-8.2537
471.222	-1.93175
471.432	67.62381
471.642	111.89944
471.852	21.25059
472.062	-6.14641
472.272	124.55141
472.482	-6.14641
472.691	36.00449
472.901	-1.93175
473.111	36.00449
473.321	21.25059
473.531	25.46587
473.741	46.54368
473.95	88.70622
474.16	107.68229
474.37	29.68125
474.58	-14.57544
474.79	36.00449
474.999	38.11228
475.209	78.16474
475.419	103.46523
475.628	-8.2537
475.838	120.334
476.048	57.08346
476.258	2.283
476.467	71.84011
476.677	128.76891
476.886	42.32793
477.096	105.57375
477.306	80.27299
477.515	103.46523
477.725	78.16474
477.935	111.89944
478.144	88.70622
478.354	57.08346
478.563	181.49477
478.773	149.85767
478.982	12.82031
479.192	80.27299
479.401	44.4358
479.611	107.68229
479.82	198.36978
480.03	170.94855
480.239	175.16697
480.449	128.76891
480.658	132.98649
480.868	111.89944
481.077	154.07568
481.287	145.63975
481.496	6.49786
481.705	135.09531
481.915	88.70622
482.124	126.66015
482.333	145.63975
482.543	213.13647
482.752	162.51195
482.961	137.20416
483.171	198.36978
483.38	213.13647
483.589	204.69824
483.799	162.51195
484.008	130.87769
484.217	149.85767
484.426	173.05775
484.636	114.00805
484.845	132.98649
485.054	162.51195
485.263	179.38548
485.472	238.45306
485.682	261.6624
485.891	217.35571
486.1	223.68471
486.309	244.78265
486.518	249.00247
486.727	223.68471
486.936	255.33235
487.146	198.36978
487.355	255.33235
487.564	255.33235
487.773	198.36978
487.982	333.4146
488.191	392.52001
488.4	333.4146
488.609	276.43317
488.818	282.76378
489.027	327.08269
489.236	318.64038
489.445	356.63299
489.654	291.20486
489.863	432.63468
490.072	318.64038
490.281	373.52039
490.49	322.8615
490.698	377.74241
490.907	373.52039
491.116	453.74996
491.325	394.63116
491.534	407.29842
491.743	417.85491
491.952	438.9691
492.16	398.85351
492.369	466.41988
492.578	464.30819
492.787	424.189
492.996	525.55324
493.204	527.66536
493.413	536.11396
493.622	504.43287
493.831	557.23644
494.039	599.48543
494.248	445.30366
494.457	512.88085
494.665	593.14775
494.874	629.0628
495.083	652.30387
495.291	553.01184
495.5	618.49918
495.709	660.75553
495.917	588.92269
496.126	677.6594
496.335	633.28834
496.543	635.40113
496.752	696.67715
496.96	637.51393
497.169	610.0485
497.377	766.41643
497.586	648.07811
497.794	865.76068
498.003	683.99855
498.211	686.11162
498.42	734.71533
498.628	836.16667
498.837	686.11162
499.045	946.09537
499.254	732.602
499.462	815.02915
499.671	770.64342
499.879	804.46074
500.087	787.55177
500.296	908.04069
500.504	755.84914
500.713	1028.55493
500.921	910.15478
501.129	753.73571
501.338	931.29604
501.546	1049.69993
501.754	893.24232
501.962	1075.07468
502.171	872.10247
502.379	982.03805
502.587	922.83945
502.795	1045.47089
503.004	950.32382
503.212	1049.69993
503.42	1017.98265
503.628	1125.82639
503.837	1030.6694
504.045	1115.25289
504.253	1043.35637
504.461	992.6098
504.669	1070.8455
504.877	1176.58068
505.085	1142.74422
505.294	1360.58019
505.502	1123.71168
505.71	1269.63557
505.918	1144.85897
506.126	1261.1758
506.334	1163.89189
506.542	1337.31498
506.75	1269.63557
506.958	1358.46517
507.166	1159.66232
507.374	1407.11101
507.582	1231.56694
507.79	1369.04031
507.998	1178.6955
508.206	1540.35894
508.414	1339.42999
508.622	1341.54501
508.83	1316.16495
509.037	1510.74844
509.245	1288.67019
509.453	1521.32364
509.661	1396.53579
509.869	1443.06686
510.077	1426.14645
510.285	1481.13779
510.492	1514.97852
510.7	1610.15412
510.908	1544.58899
511.116	1531.89881
511.324	1451.52707
511.531	1586.88925
511.739	1542.47397
511.947	1747.62224
512.155	1658.79801
512.362	1658.79801
512.57	1677.83222
512.778	1574.19924
512.985	1743.39264
513.193	1777.22897
513.401	1686.2918
513.608	1768.76998
513.816	1569.96922
514.024	1760.31093
514.231	1493.82808
514.439	1796.26147
514.646	1654.56816
514.854	1844.89847
515.061	1675.71732
515.269	1768.76998
515.477	1815.29362
515.684	1802.60556
515.892	1823.75224
516.099	1887.18947
516.307	1899.87637
516.514	1946.39331
516.722	1889.30397
516.929	1990.79319
517.136	1914.67751
517.344	1893.53295
517.551	1827.98152
517.759	2216.97318
517.966	2094.38162
518.173	2056.33067
518.381	1866.04422
518.588	2244.44674
518.796	2244.44674
519.003	2115.52001
519.21	2047.87459
519.418	2075.35644
519.625	1980.22204
519.832	2265.57922
520.039	2066.90062
520.247	2216.97318
520.454	2204.29258
520.661	2373.34019
520.868	2229.65347
521.076	2428.26715
521.283	2295.16314
521.49	2434.60442
521.697	2282.48454
521.904	2445.16632
522.112	2322.63228
522.319	2343.76127
522.526	2339.53555
522.733	2335.30979
522.94	2362.77652
523.147	2470.51378
523.354	2252.89984
523.561	2546.54648
523.768	2616.22984
523.975	2723.8958
524.183	2261.35279
524.39	2766.10854
524.597	2529.65161
524.804	2709.12009
525.011	2571.88739
525.218	2601.44962
525.425	2478.96258
525.632	2677.45572
525.838	2711.23095
526.045	2833.63766
526.252	2569.77571
526.459	2920.13837
526.666	2804.0954
526.873	2979.19797
527.08	2635.2321
527.287	2673.23359
527.494	2675.34466
527.701	2660.56688
527.907	2698.56562
528.114	3021.37621
528.321	2782.99213
528.528	2867.39689
528.735	2920.13837
528.941	2926.46674
529.148	2793.54394
529.355	3053.00587
529.562	2717.56343
529.768	2953.88814
529.975	2723.8958
530.182	3162.62802
530.388	2850.51773
530.595	3095.17331
530.802	2926.46674
531.008	3276.41988
531.215	3031.91982
531.422	3333.29741
531.628	2993.96104
531.835	3156.30484
532.042	3099.38971
532.248	3204.77879
532.455	3059.33139
532.661	3337.51006
532.868	3128.90272
533.074	3379.63276
533.281	3080.41542
533.487	3322.76548
533.694	3358.57228
533.9	3541.73879
534.107	3364.89061
534.313	3369.10274
534.52	3423.85403
534.726	3385.95056
534.933	3419.64282
535.139	3484.90859
535.345	3430.17072
535.552	3590.13911
535.758	3432.27625
535.965	3638.52957
536.171	3501.74855
536.377	3655.35869
536.584	3484.90859
536.79	3693.21977
536.996	3493.32872
537.203	3691.11654
537.409	3470.17267
537.615	3714.25102
537.821	3634.3221
538.028	3962.27174
538.234	3499.64362
538.44	3588.03496
538.646	3739.48598
538.853	3920.25386
539.059	3718.45704
539.265	3712.14798
539.471	3680.6001
539.677	3976.97608
539.883	3827.78624
540.09	3997.98055
540.296	3802.56113
540.502	4054.68236
540.708	3825.68426
540.914	4147.05294
541.12	3993.77982
541.326	4258.26344
541.532	4058.88189
541.738	4134.45933
541.944	3810.96981
542.15	4113.46831
542.356	3913.95049
542.562	4151.25064
542.768	4197.41978
542.974	4235.18692
543.18	3880.32941
543.386	4268.75191
543.592	3981.17714
543.798	4381.99314
544.004	4088.27633
544.21	4499.36148
544.415	4063.08135
544.621	4272.94715
544.827	4308.60322
545.033	4465.83469
545.239	4216.30421
545.445	4534.97751
545.651	4511.93257
545.856	4545.45159
546.062	4635.50576
546.268	4417.63007
546.474	4434.39821
546.679	4543.35682
546.885	4308.60322
547.091	4560.11438
547.297	4285.53235
547.502	4356.83387
547.708	4277.1423
547.914	4599.90788
548.119	4528.69279
548.325	4687.84382
548.531	4398.76424
548.736	4541.26203
548.942	4599.90788
549.147	4679.47068
549.353	4641.78707
549.559	4754.81601
549.764	4710.86812
549.97	4817.58137
550.175	4759.001
550.381	5014.11302
550.586	4574.77608
550.792	4913.78175
550.997	4761.09346
551.203	4940.96004
551.408	4869.87018
551.614	4878.23507
551.819	4796.66185
552.025	5087.23773
552.23	4846.86486
552.435	5009.93361
552.641	5060.08043
552.846	5039.18754
553.052	4995.30495
553.257	5154.06975
553.462	5093.50424
553.668	5245.92487
553.873	5039.18754
554.078	5467.0262
554.283	4959.7735
554.489	5310.61383
554.694	5101.85926
554.899	5385.70825
555.105	5204.17814
555.31	5298.09514
555.515	5124.83367
555.72	5379.45154
555.925	5118.5682
556.131	5469.11081
556.336	5055.90204
556.541	5435.7543
556.746	5009.93361
556.951	5408.6477
557.156	5239.66345
557.361	5381.53713
557.567	5335.64868
557.772	5427.41423
557.977	5206.2657
558.182	5421.15893
558.387	5285.57561
558.592	5527.47021
558.797	5252.18607
559.002	5617.05762
559.207	5181.21346
559.412	5567.06072
559.617	5335.64868
559.822	5485.78681
560.027	5281.40224
560.232	5544.14094
560.437	5454.51808
560.642	5706.60143
560.847	5706.60143
561.051	5752.39767
561.256	5694.10956
561.461	5775.2915
561.666	5777.37262
561.871	5839.79513
562.076	5587.89441
562.281	5781.53478
562.485	5637.88566
562.69	5764.88557
562.895	5775.2915
563.1	5746.1534
563.305	5810.66727
563.509	6018.62198
563.714	5769.04801
563.919	5829.39285
564.123	5537.88959
564.328	5806.50577
564.533	5779.45371
564.737	5787.77785
564.942	5837.71472
565.147	6016.5436
565.351	5964.57644
565.556	5868.91836
565.761	5927.15096
565.965	6137.05074
566.17	5785.69685
566.374	5918.83315
566.579	5752.39767
566.784	5979.12873
566.988	6010.30832
567.193	6197.27466
567.397	5810.66727
567.602	6195.1983
567.806	5835.63429
568.011	6141.20475
568.215	6218.03695
568.42	6251.25174
568.624	6226.34121
568.828	6359.15844
569.033	6168.20351
569.237	6269.93243
569.442	6080.96244
569.646	6207.6561
569.85	6309.3632
570.055	6242.94861
570.259	6180.66314
570.463	6379.90249
570.668	6228.41722
570.872	6458.70862
571.076	6168.20351
571.281	6392.34779
571.485	6215.96083
571.689	6386.12524
571.893	6209.73232
572.098	6450.41482
572.302	6471.14862
572.506	6437.97342
572.71	6402.71824
572.914	6690.78459
573.119	6408.94023
573.323	6431.75241
573.527	6570.63858
573.731	6512.60926
573.935	6400.6442
574.139	6866.72123
574.343	6330.11285
574.547	6458.70862
574.751	6653.50619
574.955	6612.077
575.159	6572.71072
575.364	6462.85538
575.568	6475.2951
575.772	6740.47755
575.976	6651.43495
576.18	6835.68556
576.383	6777.73862
576.587	6941.18598
576.791	6350.86017
576.995	6806.71433
577.199	6630.72128
577.403	6984.61022
577.607	6835.68556
577.811	6678.35929
578.015	6715.63272
578.219	6908.09416
578.422	6748.75843
578.626	6835.68556
578.83	6792.22703
579.034	7110.69106
579.238	6943.25403
579.442	7015.62145
579.645	6812.92282
579.849	7280.04612
580.053	7133.41809
580.257	7129.2861
580.46	7003.21756
580.664	7178.86407
580.868	7187.12582
581.071	7333.71309
581.275	7141.6818
581.479	7515.24575
581.682	7129.2861
581.886	7216.03915
582.09	7102.42602
582.293	7327.5215
582.497	7313.0737
582.7	7306.88146
582.904	7259.40103
583.107	7358.47746
583.311	7354.35028
583.515	7467.81591
583.718	7108.62483
583.922	7467.81591
584.125	7104.49231
584.329	7577.09366
584.532	7154.07669
584.735	7587.39977
584.939	7203.64826
585.142	7277.98171
585.346	7174.73306
585.549	7525.55508
585.753	7438.93998
585.956	7552.35681
586.159	7537.92556
586.363	7599.7664
586.566	7428.62612
586.769	7535.86386
586.973	7717.21123
587.176	7605.94943
587.379	7453.37848
587.582	7628.61888
587.786	7517.30766
587.989	7811.94134
588.192	7533.80215
588.395	8011.55443
588.599	7640.98296
588.802	7659.52764
589.005	7750.16586
589.208	7898.39555
589.411	7789.29252
589.615	7956.01145
589.818	7873.69807
590.021	7846.93912
590.224	7739.86812
590.427	7941.60898
590.63	7896.33754
590.833	7916.9167
591.036	7916.9167
591.239	7984.81337
591.442	7865.46492
591.645	7900.45353
591.848	7962.18363
592.051	8081.47638
592.254	7947.78159
592.457	7980.69906
592.66	7949.83909
592.863	8227.41495
593.066	8044.46179
593.269	8106.14913
593.472	7986.8705
593.675	8163.70766
593.878	8104.09318
594.081	8328.07486
594.284	7980.69906
594.486	8346.55831
594.689	8313.69776
594.892	8332.18243
595.095	8377.36056
595.298	8225.36017
595.5	8032.12214
595.703	8441.00475
595.906	8293.15737
596.109	8480.00335
596.311	8512.83893
596.514	8365.04018
596.717	8471.79369
596.92	8650.28544
597.122	8340.39734
597.325	8315.75169
597.528	8422.52931
597.73	8676.94444
597.933	8313.69776
598.136	8576.44407
598.338	8529.2549
598.541	8767.15177
598.743	8736.40327
598.946	8676.94444
599.148	8779.45002
599.351	8662.58998
599.554	8521.04707
599.756	8664.64067
599.959	8518.99507
600.161	8625.67434
600.363	8570.28953
600.566	8541.56608
600.768	8549.77316
600.971	8621.57223
601.173	8637.98022
601.376	8873.71493
601.578	8508.73475
601.78	8965.89388
601.983	8746.65323
602.185	8824.53801
602.388	8525.15102
602.59	8726.15285
602.792	8635.92929
602.995	8881.91007
603.197	8898.29951
603.399	9101.02517
603.601	8799.94565
603.804	9031.42157
604.006	8812.24216
604.208	8775.35068
604.41	8881.91007
604.613	9033.46902
604.815	8640.03114
605.017	8924.9299
605.219	8941.31634
605.421	8877.81254
605.623	8918.78469
605.826	9058.03708
606.028	9113.30608
606.23	9252.44679
606.432	9062.13151
606.634	9315.85274
606.836	9033.46902
607.038	9055.98984
607.24	8834.78406
607.442	9066.22588
607.644	8974.08582
607.846	8892.1536
608.048	9031.42157
608.25	8935.17156
608.452	9234.03561
608.654	8990.46887
608.856	9170.60884
609.058	9281.08372
609.26	8992.51667
609.462	9209.48524
609.664	9103.07203
609.866	9293.35569
610.067	8906.4938
610.269	9090.7906
610.471	9066.22588
610.673	9195.16307
610.875	9156.2844
611.077	9350.61696
611.278	9184.93243
611.48	9201.30124
611.682	9270.85662
611.884	9223.80658
612.085	9319.94289
612.287	9319.94289
612.489	9360.84083
612.69	9628.56217
612.892	9184.93243
613.094	9358.79609
613.295	9047.80069
613.497	9225.85242
613.699	9311.76251
613.9	9458.96916
614.102	9084.64965
614.304	9405.82097
614.505	9289.2651
614.707	9493.714
614.908	9334.25792
615.11	9483.49541
615.311	9250.40117
615.513	9403.77659
615.714	9184.93243
615.916	9614.26334
616.117	9184.93243
616.319	9448.7492
616.52	9319.94289
616.722	9287.21978
616.923	9209.48524
617.124	9516.19348
617.326	9227.89824
617.527	9508.01935
617.729	9123.5397
617.93	9418.08691
618.131	9475.32025
618.333	9438.52884
618.534	9184.93243
618.735	9510.06291
618.937	9418.08691
619.138	9456.9252
619.339	9413.99833
619.54	9465.10094
619.742	9324.03298
619.943	9757.21755
620.144	9577.4914
620.345	9585.66338
620.546	9463.05703
620.748	9838.87217
620.949	9557.06035
621.15	9689.83425
621.351	9217.66896
621.552	9358.79609
621.753	9225.85242
621.954	9604.04942
622.155	9225.85242
622.356	9628.56217
622.558	9356.75133
622.759	9655.11511
622.96	9471.23257
623.161	9716.38117
623.362	9505.97578
623.563	9887.85346
623.764	9565.23296
623.965	9771.50885
624.166	9634.69001
624.366	9710.25519
624.567	9422.17543
624.768	9565.23296
624.969	9757.21755
625.17	9840.91322
625.371	9667.36944
625.572	9877.64973
625.773	9503.93219
625.973	9810.29578
626.174	9557.06035
626.375	9928.66472
626.576	9479.40786
626.777	9744.96728
626.977	9810.29578
627.178	9802.13056
627.379	9773.5504
627.58	9630.6048
627.78	9687.79207
627.981	9802.13056
628.182	10002.1103
628.382	9718.42314
628.583	9606.09224
628.784	9867.44563
628.984	9510.06291
629.185	10142.8292
629.386	9526.4108
629.586	10051.06365
629.787	9889.89417
629.987	9824.58434
630.188	9842.95427
630.388	9910.30038
630.589	9718.42314
630.79	10012.30959
630.99	9642.86024
631.191	9889.89417
631.391	9767.4257
631.591	10000.0704
631.792	10020.46877
631.992	10271.25378
632.193	10083.69467
632.393	10118.36117
632.594	9912.34092
632.794	9740.88373
632.994	9808.2545
633.195	10134.67341
633.395	9877.64973
633.595	10108.16556
633.796	9949.06816
633.996	10132.63443
634.196	10022.50853
634.397	10371.10247
634.597	10144.86811
634.797	10259.0252
634.997	10057.18224
635.198	10197.87497
635.398	10116.32207
635.598	10256.98706
635.798	10053.1032
635.998	10201.95204
636.199	10157.10129
636.399	10340.53994
636.599	10059.22175
636.799	10165.25647
636.999	9998.03048
637.199	10067.37961
637.399	10159.14011
637.599	10150.98477
637.799	10006.19006
637.999	10230.48996
638.199	10157.10129
638.399	10222.33654
638.599	10303.86096
638.799	10346.65268
638.999	10389.43857
639.199	10511.65232
639.399	10095.93037
639.599	10591.06665
639.799	10128.55643
639.999	10542.19856
640.199	10226.41327
640.399	10674.53311
640.599	9814.3783
640.799	10411.84791
640.998	10419.99637
641.198	10336.46471
641.398	10275.32987
641.598	10338.50233
641.798	10399.62483
641.997	10265.13956
642.197	10332.38943
642.397	10648.07037
642.597	10405.73643
642.796	10780.36365
642.996	10639.92758
643.196	10572.74196
643.395	10444.44051
643.595	10468.88278
643.795	10485.1766
643.994	10330.35177
644.194	10360.91529
644.394	10784.43342
644.593	10552.38001
644.793	10837.33603
644.992	10344.61512
645.192	10690.81685
645.392	10696.92306
645.591	10776.29385
645.791	10666.39095
645.99	10904.47034
646.19	10586.99459
646.389	10735.59315
646.589	10407.7736
646.788	10428.14462
646.987	10564.59733
647.187	10731.52282
647.386	10648.07037
647.586	10613.46213
647.785	10648.07037
647.984	10727.45244
648.184	10788.50313
648.383	10833.26688
648.582	10812.92042
648.782	10849.5432
648.981	10572.74196
649.18	10639.92758
649.38	10637.89185
649.579	10829.19768
649.778	10778.32876
649.977	10975.65982
650.177	10297.74738
650.376	10898.36774
650.575	10770.18905
650.774	10584.95853
650.973	10886.16223
651.173	10680.63961
651.372	10790.53797
651.571	10774.25892
651.77	10957.35527
651.969	10780.36365
652.168	10922.77753
652.367	10637.89185
652.566	10857.68109
652.765	10762.04914
652.964	10833.26688
653.163	10884.12794
653.362	10633.82035
653.561	10845.47419
653.76	10705.06449
653.959	10721.34678
654.158	10943.11778
654.357	11069.20234
654.556	10646.03469
654.755	11012.2662
654.954	10959.38916
655.153	10947.18569
655.352	11036.66845
655.551	10865.81879
655.749	10937.01582
655.948	10829.19768
656.147	10945.15174
656.346	11209.47313
656.545	10753.90905
656.743	11105.79963
656.942	10961.42303
657.141	11178.98378
657.34	10812.92042
657.538	11079.3686
657.737	11191.17981
657.936	11347.66243
658.135	11126.12994
658.333	11018.36691
658.532	11079.3686
658.731	11109.86578
658.929	11071.23561
659.128	11040.73534
659.326	10900.40195
659.525	11050.90237
659.724	10658.2486
659.922	11181.01648
660.121	10998.03081
660.319	11006.16538
660.518	10955.32138
660.716	11077.33537
660.915	10924.81161
661.113	11252.15429
661.312	11024.46752
661.51	11376.10736
661.709	11117.99795
661.907	11278.57368
662.105	11140.36053
662.304	11178.98378
662.502	10943.11778
662.701	11254.18661
662.899	10705.06449
663.097	11215.57072
663.296	10922.77753
663.494	11250.12196
663.692	10916.67524
663.891	11061.06913
664.089	10939.04982
664.287	11213.5382
664.485	10957.35527
664.684	11298.89511
664.882	11063.10245
665.08	11166.78738
665.278	10961.42303
665.476	11168.82014
665.675	10892.26504
665.873	11266.38033
666.071	11046.83559
666.269	11166.78738
666.467	11276.54148
666.665	11435.02287
666.863	11073.26888
667.061	11166.78738
667.259	11030.56804
667.457	11475.64949
667.655	11244.0249
667.853	11374.07565
668.051	11370.01218
668.249	11506.11693
668.447	11414.70811
668.645	11331.4073
668.843	11181.01648
669.041	11445.17989
669.239	10955.32138
669.437	11400.48719
669.635	11483.77435
669.833	11124.09696
670.031	11012.2662
670.229	11313.11951
670.426	11219.63573
670.624	11443.1485
670.822	11272.47705
671.02	11225.73316
671.218	11201.34287
671.415	11235.89534
671.613	11138.32762
671.811	11382.20245
672.009	11282.63805
672.206	11203.37545
672.404	11099.70032
672.602	11473.61825
672.799	11248.08962
672.997	11197.27768
673.195	11020.40046
673.392	11296.86302
673.59	11152.55776
673.788	11085.46823
673.985	10979.72737
674.183	11152.55776
674.38	11073.26888
674.578	11111.89883
674.775	11170.85289
674.973	11325.31146
675.17	11063.10245
675.368	11138.32762
675.565	11187.11451
675.763	11274.50927
675.96	11266.38033
676.158	11046.83559
676.355	11042.76877
676.553	11378.13907
676.75	11073.26888
676.947	11394.39237
677.145	11126.12994
677.342	11266.38033
677.539	11183.04916
677.737	11443.1485
677.934	11187.11451
678.131	11453.30532
678.329	11101.73343
678.526	11209.47313
678.723	11313.11951
678.92	11585.32236
679.118	10825.12844
679.315	11140.36053
679.512	11095.63406
679.709	11284.67022
679.906	11221.66822
680.104	11288.73452
680.301	10859.71553
680.498	10969.55841
680.695	10934.98181
680.892	10918.70935
681.089	10810.88571
681.286	11004.13176
681.483	10886.16223
681.68	10941.0838
681.877	11077.33537
682.075	11050.90237
682.272	10839.37059
682.469	11221.66822
682.665	11014.29978
682.862	11122.06397
683.059	10955.32138
683.256	11221.66822
683.453	10955.32138
683.65	10959.38916
683.847	10900.40195
684.044	10823.0938
684.241	10918.70935
684.438	11370.01218
684.635	10782.39854
684.831	10857.68109
685.028	10825.12844
685.225	10922.77753
685.422	10906.50452
685.619	11002.09812
685.815	10963.45689
686.012	10867.85318
686.209	10684.71054
686.405	10784.43342
686.602	10833.26688
686.799	10735.59315
686.996	10613.46213
687.192	10979.72737
687.389	10550.34374
687.586	10914.64112
687.782	10947.18569
687.979	11181.01648
688.175	10762.04914
688.372	10849.5432
688.568	10615.498
688.765	10957.35527
688.962	10562.56114
689.158	10934.98181
689.355	10605.31849
689.551	10735.59315
689.748	10790.53797
689.944	10837.33603
690.14	10930.91377
690.337	10857.68109
690.533	11006.16538
690.73	10849.5432
690.926	10743.73367
691.123	10491.28658
691.319	10947.18569
691.515	10869.88757
691.712	10242.71967
691.908	10762.04914
692.104	10623.64139
692.301	10715.24101
692.497	10819.02448
692.693	10782.39854
692.889	10837.33603
693.086	10780.36365
693.282	10782.39854
693.478	10804.78151
693.674	10694.88767
693.87	10939.04982
694.067	10629.7488
694.263	10696.92306
694.459	10507.57927
694.655	10743.73367
694.851	10540.16223
695.047	10666.39095
695.243	10678.60412
695.439	10735.59315
695.635	10507.57927
695.831	10835.30146
696.027	10617.53387
696.224	10519.79826
696.42	10517.7618
696.615	11093.60092
696.811	10660.2842
697.007	10605.31849
697.203	10658.2486
697.399	10878.02499
697.595	10656.21298
697.791	10770.18905
697.987	10422.03345
698.183	10546.27118
698.379	10352.76531
698.575	10762.04914
698.77	10589.03062
698.966	11071.23561
699.162	10743.73367
699.358	10696.92306
699.554	10804.78151
699.749	10705.06449
699.945	10550.34374
700.141	10450.55125
700.337	10344.61512
700.532	10379.25198
700.728	10299.78525
700.924	10454.62501
701.119	10383.32665
701.315	10428.14462
701.511	10629.7488
701.706	10552.38001
701.902	10413.88505
702.097	10538.12589
702.293	10397.5876
702.489	10568.66967
702.684	10599.21063
702.88	10652.1417
703.075	10619.56972
703.271	10487.21327
703.466	10534.05317
703.662	10548.30747
703.857	10560.52494
704.053	10678.60412
704.248	10344.61512
704.443	10564.59733
704.639	10212.14446
704.834	10472.95632
705.03	10346.65268
705.225	10413.88505
705.42	10320.16326
705.616	10399.62483
705.811	10401.66204
706.006	10450.55125
706.202	10171.37271
706.397	10422.03345
706.592	10206.02905
706.787	10360.91529
706.983	10228.45162
707.178	10599.21063
707.373	10275.32987
707.568	10356.84033
707.763	10100.00882
707.959	10454.62501
708.154	10356.84033
708.349	10401.66204
708.544	10181.56616
708.739	10444.44051
708.934	10242.71967
709.129	10364.9902
709.324	10299.78525
709.519	10312.01222
709.714	10034.74678
709.909	10495.35983
710.104	10354.80282
710.299	10230.48996
710.494	10171.37271
710.689	10419.99637
710.884	10230.48996
711.079	10312.01222
711.274	9887.85346
711.469	10442.40357
711.664	10287.5578
711.859	10448.51435
712.054	10230.48996
712.249	10629.7488
712.443	10214.1829
712.638	10167.29523
712.833	9936.82627
713.028	10142.8292
713.223	10067.37961
713.417	10224.37491
713.612	10036.78644
713.807	9973.55036
714.002	10030.66742
714.196	10163.2177
714.391	9855.20021
714.586	9961.30952
714.78	9959.26933
714.975	10208.06753
715.17	9867.44563
715.364	10358.87781
715.559	10042.90533
715.754	10112.24384
715.948	10144.86811
716.143	10534.05317
716.337	10104.08722
716.532	10216.22133
716.726	9979.67059
716.921	10195.83642
717.115	9942.94728
717.31	10212.14446
717.504	10369.06506
717.699	10346.65268
717.893	9981.71063
718.088	10206.02905
718.282	10252.91073
718.476	9985.79068
718.671	9871.52731
718.865	9783.75794
719.059	9900.09746
719.254	9918.46246
719.448	9883.77201
719.642	9820.50197
719.837	9822.54316
720.031	9924.58386
720.225	9755.17588
720.419	9753.13419
720.614	9873.56813
720.808	10116.32207
721.002	9657.15754
721.196	9936.82627
721.39	9840.91322
721.585	9840.91322
721.779	9791.9237
721.973	9834.79
722.167	9575.44837
722.361	9675.53867
722.555	9767.4257
722.749	9775.59194
722.943	9383.33189
723.137	9810.29578
723.331	9744.96728
723.525	9791.9237
723.719	9538.67104
723.913	9865.40476
724.107	9589.74928
724.301	9832.7489
724.495	9481.45164
724.689	9606.09224
724.883	9575.44837
725.077	9726.59084
725.271	9798.04786
725.465	9618.3488
725.659	9399.68778
725.853	9804.17189
726.046	9440.57295
726.24	9661.24234
726.434	9467.14483
726.628	9765.3841
726.822	9636.73259
727.015	9904.17867
727.209	9665.32709
727.403	9651.03022
727.596	9602.00659
727.79	9219.71485
727.984	9411.95401
728.177	9702.087
728.371	9305.62705
728.565	9651.03022
728.758	9622.43419
728.952	9612.22059
729.146	9608.13504
729.339	9591.7922
729.533	9775.59194
729.726	9483.49541
729.92	9234.03561
730.113	9505.97578
730.307	9548.88748
730.5	9595.87801
730.694	9548.88748
730.887	9700.04491
731.081	9477.36406
731.274	9548.88748
731.468	9348.57214
731.661	9477.36406
731.854	9534.58436
732.048	9614.26334
732.241	9458.96916
732.435	9532.54099
732.628	9626.51953
732.821	9418.08691
733.014	9383.33189
733.208	9526.4108
733.401	9522.32392
733.594	9685.74988
733.788	9651.03022
733.981	9571.36225
734.174	9597.92088
734.367	9783.75794
734.56	9446.70516
734.754	9695.96069
734.947	9646.94526
735.14	9651.03022
735.333	9765.3841
735.526	9855.20021
735.719	9581.57742
735.912	9785.7994
736.105	9489.62661
736.298	9695.96069
736.491	9510.06291
736.684	9405.82097
736.877	9591.7922
737.07	9432.39643
737.263	9485.53916
737.456	9442.61703
737.649	9299.49145
737.842	9458.96916
738.035	9491.67031
738.228	9448.7492
738.421	9591.7922
738.614	9393.55444
738.807	9495.75767
739	9559.10352
739.192	9454.88122
739.385	9422.17543
739.578	9254.4924
739.771	9644.90275
739.964	9141.95913
740.156	9671.45409
740.349	9561.14668
740.542	9503.93219
740.735	9375.15355
740.927	9438.52884
741.12	9544.80095
741.313	9403.77659
741.505	9508.01935
741.698	9252.44679
741.891	9182.88626
742.083	9293.35569
742.276	9295.40096
742.468	9479.40786
742.661	9258.58356
742.854	9324.03298
743.046	9055.98984
743.239	9217.66896
743.431	9180.84006
743.624	9371.06428
743.816	9279.03833
744.009	9315.85274
744.201	9201.30124
744.393	9360.84083
744.586	9184.93243
744.778	9438.52884
744.971	9393.55444
745.163	9254.4924
745.355	9293.35569
745.548	9301.53666
745.74	9264.72016
745.932	9168.56254
746.125	9319.94289
746.317	9413.99833
746.509	9291.3104
746.702	9593.83511
746.894	9213.57713
747.086	9311.76251
747.278	9029.3741
747.471	9092.83755
747.663	9166.51623
747.855	9354.70656
748.047	9291.3104
748.239	9103.07203
748.431	9227.89824
748.623	9217.66896
748.815	9037.56387
749.008	9195.16307
749.2	9352.66177
749.392	9162.42355
749.584	9193.11697
749.776	9162.42355
749.968	9221.76073
750.16	9424.21966
750.352	9041.65865
750.544	9121.49301
750.736	9101.02517
750.928	9270.85662
751.12	8929.02662
751.311	8957.70165
751.503	9023.23159
751.695	8990.46887
751.887	8853.2258
752.079	9090.7906
752.271	8787.64849
752.463	9090.7906
752.654	9070.32017
752.846	9213.57713
753.038	8881.91007
753.23	9098.97829
753.421	8804.04456
753.613	8808.14339
753.805	8937.21984
753.997	8959.74973
754.188	8933.12326
754.38	8929.02662
754.572	9074.41439
754.763	9031.42157
754.955	8896.25089
755.146	8717.95218
755.338	8828.63648
755.53	8879.86131
755.721	8754.85286
755.913	8916.73625
756.104	8754.85286
756.296	8816.34085
756.487	8709.75123
756.679	8693.34842
756.87	8640.03114
757.062	8584.64987
757.253	8599.00928
757.445	8512.83893
757.636	8588.75265
757.827	8730.25307
758.019	8654.38703
758.21	8664.64067
758.401	8849.12776
758.593	8465.63625
758.784	8826.58725
758.975	8785.5989
759.167	8633.87834
759.358	8861.42167
759.549	8492.31726
759.74	8609.26545
759.932	8262.34312
760.123	8309.58984
760.314	8342.45101
760.505	8490.26499
760.696	8360.93323
760.888	8358.87973
761.079	8387.627
761.27	8373.25384
761.461	8637.98022
761.652	8609.26545
761.843	8438.952
762.034	8578.49555
762.225	8492.31726
762.416	8438.952
762.607	8315.75169
762.798	8192.48106
762.989	8289.04906
763.18	8484.10806
763.371	8469.74123
763.562	8254.12524
763.753	8069.13891
763.944	8077.36397
764.135	8143.15285
764.326	8278.77794
764.517	8227.41495
764.708	8340.39734
764.899	8266.45194
765.089	8330.12866
765.28	8073.25148
765.471	8233.57916
765.662	7859.28984
765.853	7945.72408
766.043	7739.86812
766.234	7945.72408
766.425	7982.75623
766.615	8085.5887
766.806	7912.80103
766.997	8073.25148
767.187	7896.33754
767.378	7910.74317
767.569	7634.80102
767.759	7910.74317
767.95	8161.65227
768.141	7960.12626
768.331	7997.15583
768.522	7995.0988
768.712	7978.64187
768.903	7995.0988
769.093	7783.11513
769.284	7916.9167
769.474	7999.21283
769.665	7764.58183
769.855	7772.81906
770.046	7797.52875
770.236	7690.43162
770.426	7927.20551
770.617	7906.62738
770.807	7764.58183
770.998	7622.43656
771.188	7671.8898
771.378	7517.30766
771.569	7811.94134
771.759	7418.31172
771.949	7618.3149
772.139	7589.46093
772.33	7449.2533
772.52	7585.33859
772.71	7667.76916
772.9	7346.09567
773.09	7593.58318
773.281	7529.67866
773.471	7688.3715
773.661	7608.01039
773.851	7906.62738
774.041	7661.58805
774.231	7624.49736
774.421	7636.86169
774.611	7401.80755
774.802	7443.06538
774.992	7403.87064
775.182	7178.86407
775.372	7302.75319
775.562	7335.7769
775.752	7521.43141
775.942	7005.28493
776.131	7424.50043
776.321	7127.22008
776.511	7410.05981
776.701	7116.88961
776.891	7185.06042
777.081	7296.56062
777.271	7277.98171
777.461	7443.06538
777.651	7125.15403
777.84	7407.99677
778.03	7344.03196
778.22	7203.64826
778.41	7232.55911
778.599	7199.51778
778.789	7329.58539
778.979	7213.97406
779.169	7191.25656
779.358	7079.6953
779.548	7277.98171
779.738	7087.96133
779.927	7030.09162
780.117	7257.3364
780.307	7063.16218
780.496	6775.66875
780.686	7121.02186
780.875	6690.78459
781.065	7220.16928
781.254	6910.16257
781.444	7207.77864
781.633	6802.57521
781.823	6906.02573
782.012	6997.01532
782.202	6748.75843
782.391	6732.19631
782.581	6839.82395
782.77	7054.89508
782.96	6891.54607
783.149	6684.57204
783.338	6817.06171
783.528	6723.9147
783.717	6707.35038
783.906	6750.82859
784.096	6723.9147
784.285	6699.06767
784.474	6775.66875
784.663	6417.2359
784.853	6610.0053
785.042	6525.04564
785.231	6740.47755
785.42	6489.80706
785.61	6402.71824
785.799	6473.22187
785.988	6653.50619
786.177	6469.07534
786.366	6645.22109
786.555	6510.53645
786.744	6518.82756
786.933	6367.45634
787.122	6574.78284
787.312	6562.34979
787.501	6626.57827
787.69	6570.63858
787.879	6469.07534
788.068	6288.61122
788.257	6330.11285
788.445	6292.7618
788.634	6657.6486
788.823	6541.62619
789.012	6502.24497
789.201	6224.26518
789.39	6357.08391
789.579	6332.18769
789.768	6442.12064
789.957	6220.11305
790.145	6255.40317
790.334	6087.19532
790.523	6251.25174
790.712	6303.13785
790.9	6529.19092
791.089	6342.56152
791.278	6454.56176
791.467	6301.06269
791.655	6355.00935
791.844	6010.30832
792.033	6251.25174
792.221	6020.70034
792.41	6263.70574
792.599	6132.89664
792.787	6168.20351
792.976	6039.40449
793.164	6026.93527
793.353	5935.4684
793.541	6359.15844
793.73	6159.89662
793.918	6205.57986
794.107	5974.97105
794.295	6230.4932
794.484	6068.49604
794.672	6128.74245
794.861	6093.42799
795.049	6259.5545
795.238	6068.49604
795.426	6230.4932
795.614	6026.93527
795.803	5995.7585
795.991	5920.91264
796.179	5908.43536
796.368	5854.35732
796.556	5954.18124
796.744	5562.8937
796.932	5968.73436
797.121	5787.77785
797.309	6051.87286
797.497	5912.59455
797.685	5839.79513
797.874	5952.10213
798.062	5781.53478
798.25	5510.79798
798.438	5974.97105
798.626	6006.15135
798.814	5760.72303
799.002	5789.85882
799.19	5818.98999
799.378	5771.1292
799.566	5843.95587
799.755	5694.10956
799.943	5864.75819
800.131	5746.1534
800.318	5702.43757
800.506	5510.79798
800.694	5802.34417
800.882	5533.72191
801.07	5810.66727
801.258	5612.89173
801.446	5966.65541
801.634	5650.38134
801.822	5714.92887
802.01	5764.88557
802.197	5910.51496
802.385	5741.99043
802.573	5752.39767
802.761	6006.15135
802.949	6004.07283
803.136	5644.13361
803.324	5748.23485
803.512	5902.1964
803.699	5539.9734
803.887	5523.3023
804.075	5762.80431
804.262	5156.15787
804.45	5600.3935
804.638	5494.12424
804.825	5769.04801
805.013	5746.1534
805.201	5866.83829
805.388	5783.61583
805.576	5791.93977
805.763	5523.3023
805.951	5621.22342
806.138	5783.61583
806.326	5610.80875
806.513	5556.64299
806.701	5864.75819
806.888	5710.7652
807.075	5962.49745
807.263	5719.09245
807.45	5818.98999
807.638	5544.14094
807.825	5968.73436
808.012	5637.88566
808.2	5729.50098
808.387	5902.1964
808.574	5898.03698
808.761	5796.1016
808.949	5918.83315
809.136	5677.45242
809.323	5979.12873
809.51	5887.638
809.698	5789.85882
809.885	5475.36449
810.072	5812.74798
810.259	5712.84704
810.446	5881.39834
810.633	5658.71133
810.82	5843.95587
811.008	5802.34417
811.195	5879.3184
811.382	5698.27361
811.569	6097.58298
811.756	5769.04801
811.943	6296.91229
812.13	5852.27708
812.317	6074.72934
812.504	5769.04801
812.691	5904.27608
812.878	5879.3184
813.064	5731.58261
813.251	5660.79377
813.438	5922.9921
813.625	5818.98999
813.812	5887.638
813.999	5537.88959
814.186	5945.86466
814.372	5550.39207
814.559	5862.67806
814.746	5473.27995
814.933	5627.47193
815.12	5544.14094
815.306	5827.31233
815.493	5302.26813
815.68	5683.69903
815.866	5619.14053
816.053	5843.95587
816.24	5531.63803
816.426	5785.69685
816.613	5483.70239
816.799	5868.91836
816.986	5464.94157
817.173	5804.42498
817.359	5662.87618
817.546	5773.21036
817.732	5706.60143
817.919	5752.39767
818.105	5769.04801
818.292	5862.67806
818.478	5891.79766
818.665	5968.73436
818.851	5916.75364
819.037	5972.89218
819.224	5619.14053
819.41	5685.78118
819.597	5573.31108
819.783	5779.45371
819.969	5527.47021
820.156	5816.90934
820.342	5748.23485
820.528	5860.59791
820.714	5525.38627
820.901	5669.12328
821.087	5504.5455
821.273	5785.69685
821.459	5612.89173
821.646	5656.62887
821.832	5396.13562
822.018	5614.97469
822.204	5423.24405
822.39	5456.60282
822.576	5323.13167
822.762	5581.64455
822.948	5562.8937
823.134	5623.30628
823.32	5442.0091
823.507	5635.80296
823.693	5477.449
823.879	5471.19539
824.065	5314.78654
824.25	5635.80296
824.436	5419.07378
824.622	5675.37017
824.808	5531.63803
824.994	5527.47021
825.18	5187.47683
825.366	5621.22342
825.552	5252.18607
825.738	5352.3367
825.923	5252.18607
826.109	5467.0262
826.295	5189.56458
826.481	5335.64868
826.667	5179.12562
826.852	5494.12424
827.038	5298.09514
827.224	5446.17885
827.409	5170.77404
827.595	5439.92419
827.781	5235.48906
827.966	5519.13428
828.152	5200.00295
828.338	5231.31457
828.523	4995.30495
828.709	5189.56458
828.894	5137.36398
829.08	5260.53402
829.266	5093.50424
829.451	5072.61506
829.637	4666.91028
829.822	5181.21346
830.008	4997.39483
830.193	5110.21392
830.378	4834.31534
830.564	5243.83775
830.749	4936.77902
830.935	5018.29234
831.12	4844.77333
831.305	5076.79308
831.491	4947.2314
831.676	5093.50424
831.861	4911.69095
832.047	5118.5682
832.232	4784.10905
832.417	4798.7539
832.602	4938.86954
832.788	5076.79308
832.973	4662.72331
833.158	4892.87274
833.343	4865.6876
833.528	4922.14471
833.714	5007.84387
833.899	5101.85926
834.084	4886.59959
834.269	4909.60013
834.454	4608.28443
834.639	4834.31534
834.824	4520.31286
835.009	4725.51852
835.194	4652.25547
835.379	4922.14471
835.564	4746.44575
835.749	4913.78175
835.934	4616.66063
836.119	4771.55543
836.304	4702.49596
836.489	4750.63092
836.674	4553.83046
836.859	4754.81601
837.044	4537.07237
837.228	4564.30355
837.413	4467.93028
837.598	4595.71947
837.783	4564.30355
837.968	4825.94853
838.152	4576.87052
838.337	4553.83046
838.522	4344.25306
838.707	4892.87274
838.891	4499.36148
839.076	4742.26048
839.261	4585.24805
839.445	4539.16721
839.63	4342.15618
839.815	4549.64107
839.999	4147.05294
840.184	4625.03647
840.368	4289.72725
840.553	4612.47258
840.737	4249.87228
840.922	4493.07564
841.106	4239.38284
841.291	4578.96494
841.475	4369.41389
841.66	4233.08893
841.844	4352.64035
842.029	4511.93257
842.213	4281.33737
842.397	4478.4079
842.582	4222.59864
842.766	4411.34166
842.951	4258.26344
843.135	4342.15618
843.319	4115.56751
843.504	4268.75191
843.688	4199.51814
843.872	4363.12398
844.056	4247.77443
844.241	4664.81681
844.425	4249.87228
844.609	4373.60706
844.793	4340.05929
844.977	4268.75191
845.161	4067.28072
845.346	4381.99314
845.53	3997.98055
845.714	4222.59864
845.898	3892.93792
846.082	4105.07132
846.266	3848.805
846.45	4119.76584
846.634	3764.71814
846.818	4042.08325
847.002	3625.90693
847.186	3796.2544
847.37	3869.82177
847.554	3903.44445
847.738	3922.35495
847.922	3831.99015
848.106	3598.55556
848.29	3760.51298
848.473	3651.15152
848.657	3939.16291
848.841	3714.25102
849.025	3941.26382
849.209	3701.6325
849.392	3930.75909
849.576	3720.56002
849.76	3800.4589
849.944	3735.28034
850.127	3855.11024
850.311	3726.86885
850.495	3794.15212
850.678	3478.5933
850.862	4021.0831
851.046	3558.5748
851.229	3667.97974
851.413	3404.90301
851.596	3766.8207
851.78	3520.69212
851.964	3682.70342
852.147	3482.80351
852.331	3792.04982
852.514	3760.51298
852.698	3592.24325
852.881	3585.93078
853.065	3609.07569
853.248	3537.5296
853.431	3649.04791
853.615	3548.05243
853.798	3718.45704
853.982	3415.43154
854.165	3693.21977
854.348	3451.22518
854.532	3689.01329
854.715	3297.48709
854.898	3411.22018
855.081	3297.48709
855.265	3407.00875
855.448	3112.03852
855.631	3369.10274
855.814	3183.70422
855.997	3255.35098
856.181	3088.8486
856.364	3465.96224
856.547	3238.49465
856.73	3392.2682
856.913	3019.26744
857.096	3253.244
857.279	3318.55258
857.462	3407.00875
857.645	3147.87371
857.828	3185.81175
858.011	3198.45659
858.194	3112.03852
858.377	2837.85776
858.56	2934.90436
858.743	2955.99737
858.926	3200.564
859.109	3029.81112
859.292	3137.33443
859.475	3097.28152
859.658	3177.38153
859.841	3006.61452
860.023	3059.33139
860.206	2880.05567
860.389	3006.61452
860.572	2782.99213
860.755	2842.07781
860.937	2778.77132
861.12	2943.34174
861.303	2820.97703
861.486	3057.2229
861.668	2740.78153
861.851	2918.02888
862.034	2797.76456
862.216	2939.12308
862.399	2814.64652
862.581	2835.74772
862.764	2787.2129
862.947	2920.13837
863.129	2700.67654
863.312	2825.1973
863.494	2586.6688
863.677	2734.44948
863.859	2761.8875
864.042	2761.8875
864.224	2504.30791
864.406	2723.8958
864.589	2540.21099
864.771	2831.52759
864.954	2447.27867
865.136	2628.89813
865.318	2491.63544
865.501	2673.23359
865.683	2609.89553
865.865	2624.67541
866.048	2362.77652
866.23	2609.89553
866.412	2388.12891
866.594	2550.77008
866.777	2481.07475
866.959	2542.32283
867.141	2440.9416
867.323	2428.26715
867.505	2419.81731
867.687	2612.00698
867.869	2388.12891
868.052	2506.41995
868.234	2426.15471
868.416	2675.34466
868.598	2314.18041
868.78	2588.78038
868.962	2430.37959
869.144	2576.11071
869.326	2335.30979
869.508	2457.84025
869.69	2208.51948
869.872	2407.14224
870.054	2295.16314
870.236	2457.84025
870.417	2297.27621
870.599	2388.12891
870.781	2252.89984
870.963	2647.89971
871.145	2413.47982
871.327	2309.95442
871.508	2174.70332
871.69	2472.626
871.872	2242.33344
872.054	2417.70483
872.235	2109.17857
872.417	2411.3673
872.599	2288.82389
872.78	2567.66403
872.962	2307.84141
873.144	2350.09978
873.325	2358.55098
873.507	2497.97173
873.689	2276.14511
873.87	2371.22748
874.052	2252.89984
874.233	2398.69197
874.415	2140.88505
874.596	2284.59767
874.778	2309.95442
874.959	2445.16632
875.141	2140.88505
875.322	2590.89195
875.503	2145.11245
875.685	2449.39101
875.866	2134.54389
876.048	2360.66375
876.229	2235.9935
876.41	2331.08399
876.592	2033.07618
876.773	2381.79095
876.954	2009.82086
877.136	2312.06742
877.317	2189.49816
877.498	2432.49201
877.679	2246.56003
877.86	2362.77652
878.042	2221.19998
878.223	2318.40636
878.404	2147.22613
878.585	2293.05007
878.766	2250.78658
878.947	2383.90361
879.128	2208.51948
879.309	2288.82389
879.49	2242.33344
879.672	2405.02969
879.853	2352.21259
880.034	2386.01627
880.215	2047.87459
880.396	2396.57938
880.576	2121.86137
880.757	2242.33344
880.938	2077.47038
881.119	2337.42268
881.3	2189.49816
881.481	2453.61565
881.662	2174.70332
881.843	2166.24895
882.023	2219.08659
882.204	2546.54648
882.385	2301.50232
882.566	2360.66375
882.747	2176.8169
882.927	2390.24154
883.108	2138.77134
883.289	2284.59767
883.469	2083.81215
883.65	2407.14224
883.831	2176.8169
884.011	2189.49816
884.192	2187.38464
884.373	2419.81731
884.553	2130.31642
884.734	2318.40636
884.914	2297.27621
885.095	2481.07475
885.275	2301.50232
885.456	2434.60442
885.636	2305.72839
885.817	2580.33398
885.997	2267.69242
886.178	2216.97318
886.358	2276.14511
886.538	2407.14224
886.719	2225.42674
886.899	2462.0648
887.08	2094.38162
887.26	2440.9416
887.44	2223.31337
887.621	2489.52333
887.801	2354.3254
887.981	2635.2321
888.161	2197.95217
888.342	2462.0648
888.522	2231.76682
888.702	2552.88187
888.882	2421.92979
889.062	2430.37959
889.242	2136.65762
889.423	2187.38464
889.603	2028.848
889.783	2324.74522
889.963	2309.95442
890.143	2405.02969
890.323	2172.58974
890.503	2402.91712
890.683	2216.97318
890.863	2278.25827
891.043	2210.63292
891.223	2390.24154
891.403	2221.19998
891.583	2383.90361
891.763	2113.4062
891.943	2563.44061
892.122	2248.67331
892.302	2345.87412
892.482	2157.79445
892.662	2381.79095
892.842	2149.33981
893.022	2398.69197
893.201	2128.20267
893.381	2331.08399
893.561	2077.47038
893.741	2347.98695
893.92	2014.04916
894.1	2516.97996
894.28	2047.87459
894.459	2301.50232
894.639	1946.39331
894.819	2174.70332
894.998	2102.83707
895.178	2280.37141
895.357	2238.10682
895.537	2200.06565
895.716	2041.53246
895.896	2208.51948
896.075	2039.4184
896.255	2284.59767
896.434	2007.7067
896.614	2288.82389
896.793	2009.82086
896.973	2157.79445
897.152	1944.27897
897.331	2090.15386
897.511	1931.59277
897.69	1978.10779
897.87	1940.05026
898.049	2047.87459
898.228	1870.27331
898.407	2020.39156
898.587	2007.7067
898.766	2066.90062
898.945	1956.96496
899.124	2056.33067
899.304	1770.88474
899.483	2066.90062
899.662	1703.21081
899.841	1929.47838
900.02	1781.45845
900.199	1973.87927
900.378	1870.27331
900.557	1904.1053
900.737	1688.40669
900.916	1916.79194
901.095	1582.65925
901.274	1861.81511
901.453	1641.87854
901.632	1929.47838
901.811	1726.47413
901.989	1692.63645
902.168	1641.87854
902.347	1794.14676
902.526	1498.05817
902.705	1523.43867
902.884	1514.97852
903.063	1643.99348
903.242	1388.07562
903.42	1476.90769
903.599	1316.16495
903.778	1527.66875
903.957	1301.36004
904.135	1540.35894
904.314	1356.35014
904.493	1559.39415
904.672	1316.16495
904.85	1451.52707
905.029	1318.27995
905.207	1457.87222
905.386	1400.76588
905.565	1430.37655
905.743	1227.33715
905.922	1398.65083
906.1	1111.02352
906.279	1286.55522
906.457	1144.85897
906.636	1282.3253
906.814	1100.45018
906.993	1070.8455
907.171	1015.86821
907.35	1153.318
907.528	1096.22088
907.707	1271.75052
907.885	922.83945
908.063	1151.20324
908.242	1233.68184
908.42	1070.8455
908.598	1037.01286
908.777	1231.56694
908.955	952.43805
909.133	1113.1382
909.311	1007.41052
909.49	1011.63935
909.668	891.1283
909.846	1166.00668
910.024	891.1283
910.202	1026.44046
910.38	901.69849
910.559	1037.01286
910.737	931.29604
910.915	1136.4
911.093	982.03805
911.271	1089.87697
911.449	994.72417
911.627	1125.82639
911.805	939.75276
911.983	992.6098
912.161	1142.74422
912.339	1227.33715
912.517	1159.66232
912.695	1180.81031
912.872	1032.78388
913.05	1094.10624
913.228	1024.326
913.406	1075.07468
913.584	1072.96009
913.762	1142.74422
913.939	1024.326
914.117	1125.82639
914.295	1015.86821
914.473	988.38108
914.65	952.43805
914.828	1235.79675
915.006	1075.07468
915.184	1113.1382
915.361	996.83854
915.539	1212.53298
915.716	1015.86821
915.894	1098.33553
916.072	935.52439
916.249	1053.929
916.427	787.55177
916.604	986.26673
916.782	950.32382
916.959	1051.81447
917.137	855.19119
917.314	905.92662
917.492	812.91545
917.669	952.43805
917.847	880.55831
918.024	952.43805
918.201	859.41896
918.379	965.1236
918.556	755.84914
918.733	931.29604
918.911	804.46074
919.088	802.34708
919.265	762.18949
919.442	958.78079
919.62	686.11162
919.797	800.23344
919.974	834.05287
920.151	865.76068
920.328	840.39428
920.506	779.09752
920.683	857.30507
920.86	713.58257
921.037	719.92228
921.214	779.09752
921.391	686.11162
921.568	889.01429
921.745	889.01429
921.922	810.80176
922.099	690.3378
922.276	772.75693
922.453	629.0628
922.63	817.14286
922.807	652.30387
922.984	812.91545
923.161	664.98142
923.338	749.50889
923.514	559.34876
923.691	730.48869
923.868	578.36028
924.045	686.11162
924.222	612.16115
924.399	728.37539
924.575	584.69769
924.752	800.23344
924.929	618.49918
925.105	738.94201
925.282	527.66536
925.459	517.10492
925.635	569.91058
925.812	580.47273
925.989	495.98513
926.165	555.12413
926.342	498.09704
926.518	553.01184
926.695	614.27381
926.871	728.37539
927.048	457.97321
927.224	610.0485
927.401	453.74996
927.577	521.32906
927.754	489.64947
927.93	512.88085
928.107	525.55324
928.283	588.92269
928.459	502.32091
928.636	510.76883
928.812	462.19651
928.988	603.71062
929.165	468.53159
929.341	690.3378
929.517	441.0806
929.693	502.32091
929.87	426.3004
930.046	550.89955
930.222	534.00179
930.398	426.3004
930.574	343.96815
930.751	335.52528
930.927	400.96472
931.103	369.29844
931.279	375.63139
931.455	360.85473
931.631	324.97208
931.807	403.07593
931.983	333.4146
932.159	352.41131
932.335	327.08269
932.511	343.96815
932.687	322.8615
932.863	430.52323
933.039	257.44235
933.215	432.63468
933.391	223.68471
933.566	291.20486
933.742	221.57502
933.918	282.76378
934.094	272.21286
934.27	246.89255
934.445	154.07568
934.621	316.52984
934.797	217.35571
934.973	158.29377
935.148	225.79441
935.324	196.26033
935.5	246.89255
935.675	219.46535
935.851	215.24608
936.027	253.22237
936.202	206.80777
936.378	196.26033
936.553	189.93211
936.729	147.7487
936.904	97.13981
937.08	196.26033
937.255	230.01389
937.431	158.29377
937.606	73.9483
937.782	137.20416
937.957	29.68125
938.133	154.07568
938.308	147.7487
938.483	69.73195
938.659	54.97546
938.834	48.65159
939.009	82.38126
939.185	6.49786
939.36	76.05651
939.535	29.68125
939.71	162.51195
939.886	46.54368
940.061	111.89944
940.236	86.59788
940.411	-6.14641
940.586	71.84011
940.761	48.65159
940.937	19.14299
941.112	4.39042
941.287	27.57355
941.462	82.38126
941.637	61.29953
941.812	103.46523
941.987	19.14299
942.162	73.9483
942.337	69.73195
942.512	0.17561
942.687	54.97546
942.862	69.73195
943.037	97.13981
943.212	10.7128
943.386	86.59788
943.561	-29.32529
943.736	14.92785
943.911	-12.46822
944.086	57.08346
944.26	10.7128
944.435	65.5157
944.61	86.59788
944.785	48.65159
944.959	90.81458
945.134	10.7128
945.309	29.68125
945.483	0.17561
945.658	27.57355
945.833	86.59788
946.007	40.22009
946.182	38.11228
946.357	48.65159
946.531	19.14299
946.706	52.86748
946.88	6.49786
947.055	2.283
947.229	61.29953
947.404	69.73195
947.578	6.49786
947.752	-48.28761
947.927	65.5157
948.101	38.11228
948.276	-18.7898
948.45	65.5157
948.624	12.82031
948.799	29.68125
948.973	29.68125
949.147	48.65159
949.321	23.35822
949.496	61.29953
949.67	78.16474
949.844	137.20416
950.018	78.16474
950.193	-10.36097
950.367	54.97546
950.541	78.16474
950.715	-44.07393
950.889	6.49786
951.063	95.03138
951.237	-6.14641
951.411	38.11228
951.585	69.73195
951.759	42.32793
951.933	4.39042
952.107	-27.21824
952.281	73.9483
952.455	-16.68263
952.629	-14.57544
952.803	12.82031
952.977	44.4358
953.151	59.19149
953.325	120.334
953.499	71.84011
953.672	36.00449
953.846	44.4358
954.02	44.4358
954.194	61.29953
954.368	54.97546
954.541	31.78897
954.715	-8.2537
954.889	52.86748
955.062	54.97546
955.236	78.16474
955.41	-56.71465
955.583	44.4358
955.757	122.44269
955.93	107.68229
956.104	46.54368
956.278	36.00449
956.451	103.46523
956.625	19.14299
956.798	69.73195
956.972	86.59788
957.145	88.70622
957.319	10.7128
957.492	52.86748
957.665	-18.7898
957.839	27.57355
958.012	78.16474
958.185	27.57355
958.359	21.25059
958.532	19.14299
958.705	86.59788
958.879	2.283
959.052	69.73195
959.225	36.00449
959.398	19.14299
959.572	46.54368
959.745	29.68125
959.918	29.68125
960.091	122.44269
960.264	46.54368
960.438	80.27299
960.611	-10.36097
960.784	2.283
960.957	27.57355
961.13	69.73195
961.303	61.29953
961.476	27.57355
961.649	40.22009
961.822	19.14299
961.995	116.11668
962.168	111.89944
962.341	57.08346
962.514	44.4358
962.686	46.54368
962.859	69.73195
963.032	61.29953
963.205	52.86748
963.378	46.54368
963.551	71.84011
963.723	23.35822
963.896	52.86748
964.069	63.4076
964.242	57.08346
964.414	54.97546
964.587	-18.7898
964.76	10.7128
964.932	12.82031
965.105	36.00449
965.278	46.54368
965.45	103.46523
965.623	-14.57544
965.795	46.54368
965.968	-12.46822
966.14	19.14299
966.313	-18.7898
966.485	27.57355
966.658	10.7128
966.83	126.66015
967.003	69.73195
967.175	46.54368
967.348	78.16474
967.52	80.27299
967.692	120.334
967.865	57.08346
968.037	44.4358
968.209	31.78897
968.382	78.16474
968.554	61.29953
968.726	-48.28761
968.898	103.46523
969.071	27.57355
969.243	156.18471
969.415	84.48956
969.587	61.29953
969.759	21.25059
969.932	10.7128
970.104	31.78897
970.276	23.35822
970.448	-65.14129
970.62	65.5157
970.792	61.29953
970.964	44.4358
971.136	14.92785
971.308	48.65159
971.48	137.20416
971.652	107.68229
971.824	-14.57544
971.996	4.39042
972.168	6.49786
972.339	109.79086
972.511	38.11228
972.683	-4.03909
972.855	61.29953
973.027	69.73195
973.199	25.46587
973.37	86.59788
973.542	61.29953
973.714	0.17561
973.886	76.05651
974.057	-37.75323
974.229	61.29953
974.401	67.62381
974.572	19.14299
974.744	36.00449
974.915	52.86748
975.087	8.60532
975.259	48.65159
975.43	-6.14641
975.602	-23.00407
975.773	44.4358
975.945	65.5157
976.116	-39.86016
976.288	-29.32529
976.459	63.4076
976.63	-27.21824
976.802	-31.43231
976.973	-10.36097
977.145	31.78897
977.316	31.78897
977.487	23.35822
977.659	8.60532
977.83	17.0354
978.001	31.78897
978.172	63.4076
978.344	44.4358
978.515	44.4358
978.686	63.4076
978.857	63.4076
979.028	38.11228
979.2	61.29953
979.371	36.00449
979.542	-12.46822
979.713	27.57355
979.884	-39.86016
980.055	61.29953
980.226	-27.21824
980.397	19.14299
980.568	31.78897
980.739	27.57355
980.91	73.9483
981.081	36.00449
981.252	10.7128
981.423	29.68125
981.594	-1.93175
981.765	12.82031
981.936	-8.2537
982.106	-4.03909
982.277	-31.43231
982.448	44.4358
982.619	-56.71465
982.79	-37.75323
982.96	10.7128
983.131	14.92785
983.302	52.86748
983.472	2.283
983.643	21.25059
983.814	-14.57544
983.984	31.78897
984.155	10.7128
984.326	52.86748
984.496	-1.93175
984.667	6.49786
984.837	-31.43231
985.008	44.4358
985.178	10.7128
985.349	42.32793
985.519	-18.7898
985.69	-10.36097
985.86	42.32793
986.031	-6.14641
986.201	27.57355
986.371	21.25059
986.542	-41.96706
986.712	6.49786
986.882	10.7128
987.053	-39.86016
987.223	31.78897
987.393	-4.03909
987.563	-46.18078
987.734	4.39042
987.904	6.49786
988.074	-1.93175
988.244	73.9483
988.414	-23.00407
988.585	19.14299
988.755	36.00449
988.925	-44.07393
989.095	38.11228
989.265	6.49786
989.435	46.54368
989.605	-27.21824
989.775	38.11228
989.945	2.283
990.115	-33.53931
990.285	-81.99334
990.455	-29.32529
990.625	111.89944
990.795	-6.14641
990.965	-81.99334
991.134	10.7128
991.304	-6.14641
991.474	61.29953
991.644	42.32793
991.814	57.08346
991.984	31.78897
992.153	-27.21824
992.323	38.11228
992.493	48.65159
992.662	-12.46822
992.832	0.17561
993.002	31.78897
993.171	0.17561
993.341	-48.28761
993.511	-4.03909
993.68	27.57355
993.85	-60.92802
994.019	-44.07393
994.189	29.68125
994.358	-39.86016
994.528	-54.60793
994.697	-73.56752
994.867	2.283
995.036	46.54368
995.206	-37.75323
995.375	2.283
995.544	-12.46822
995.714	-23.00407
995.883	19.14299
996.052	-75.67402
996.222	-27.21824
996.391	-1.93175
996.56	-90.41875
996.73	-8.2537
996.899	-4.03909
997.068	27.57355
997.237	12.82031
997.406	-6.14641
997.576	-23.00407
997.745	78.16474
997.914	71.84011
998.083	12.82031
998.252	48.65159
998.421	-46.18078
998.59	-14.57544
998.759	38.11228
998.928	-23.00407
999.097	73.9483
999.266	10.7128
999.435	40.22009
999.604	-20.89695
999.773	10.7128
999.942	-10.36097
1000.111	-20.89695
1000.28	-14.57544
1000.448	61.29953
1000.617	-37.75323
1000.786	-60.92802
1000.955	21.25059
1001.124	-46.18078
1001.292	-1.93175
1001.461	44.4358
1001.63	-12.46822
1001.798	48.65159
1001.967	-54.60793
1002.136	-39.86016
1002.304	-6.14641
1002.473	29.68125
1002.642	23.35822
1002.81	2.283
1002.979	-35.64629
1003.147	63.4076
1003.316	-41.96706
1003.484	2.283
1003.653	10.7128
1003.821	6.49786
1003.99	48.65159
1004.158	4.39042
1004.327	25.46587
1004.495	17.0354
1004.663	-18.7898
1004.832	6.49786
1005	-12.46822
1005.168	-23.00407
1005.337	6.49786
1005.505	-84.09974
1005.673	-31.43231
1005.842	-37.75323
1006.01	-12.46822
1006.178	-77.78048
1006.346	-6.14641
1006.514	-29.32529
1006.683	23.35822
1006.851	-86.2061
1007.019	-54.60793
1007.187	27.57355
1007.355	-37.75323
1007.523	-37.75323
1007.691	-4.03909
1007.859	36.00449
1008.027	4.39042
1008.195	-98.84375
1008.363	40.22009
1008.531	27.57355
1008.699	-39.86016
1008.867	2.283
1009.035	-10.36097
1009.203	-90.41875
1009.37	-6.14641
1009.538	-23.00407
1009.706	-48.28761
1009.874	23.35822
1010.042	-41.96706
1010.209	2.283
1010.377	-31.43231
1010.545	44.4358
1010.713	-71.461
1010.88	23.35822
1011.048	2.283
1011.216	36.00449
1011.383	-31.43231
1011.551	-18.7898
1011.718	-14.57544
1011.886	12.82031
1012.054	-14.57544
1012.221	19.14299
1012.389	-4.03909
1012.556	-20.89695
1012.724	-63.03467
1012.891	-79.88693
1013.058	10.7128
1013.226	-39.86016
1013.393	-16.68263
1013.561	-44.07393
1013.728	-73.56752
1013.895	12.82031
1014.063	44.4358
1014.23	57.08346
1014.397	-48.28761
1014.565	6.49786
1014.732	-46.18078
1014.899	23.35822
1015.066	-35.64629
1015.233	-46.18078
1015.401	44.4358
1015.568	61.29953
1015.735	-39.86016
1015.902	-56.71465
1016.069	-20.89695
1016.236	-56.71465
1016.403	-60.92802
1016.57	14.92785
1016.737	-27.21824
1016.904	82.38126
1017.071	2.283
1017.238	-35.64629
1017.405	-75.67402
1017.572	-31.43231
1017.739	4.39042
1017.906	4.39042
1018.073	23.35822
1018.24	-10.36097
1018.407	14.92785
1018.573	-12.46822
1018.74	4.39042
1018.907	-31.43231
1019.074	-44.07393
1019.241	63.4076
1019.407	10.7128
1019.574	10.7128
1019.741	-12.46822
1019.907	-60.92802
1020.074	-39.86016
1020.241	-27.21824
1020.407	-6.14641
1020.574	-14.57544
1020.74	-48.28761
1020.907	-27.21824
1021.073	-41.96706
1021.24	29.68125
1021.406	-48.28761
1021.573	-25.11117
1021.739	-41.96706
1021.906	29.68125
1022.072	-27.21824
1022.239	2.283
1022.405	-37.75323
1022.571	-1.93175
1022.738	-20.89695
1022.904	-65.14129
1023.07	-6.14641
1023.237	6.49786
1023.403	-6.14641
1023.569	97.13981
1023.735	-27.21824
1023.902	-27.21824
1024.068	-10.36097
1024.234	61.29953
1024.4	-10.36097
1024.566	36.00449
1024.732	-23.00407
1024.898	-29.32529
1025.065	-27.21824
1025.231	29.68125
1025.397	95.03138
1025.563	-46.18078
1025.729	-4.03909
1025.895	0.17561
1026.061	-37.75323
1026.227	0.17561
1026.392	2.283
1026.558	-6.14641
1026.724	-10.36097
1026.89	19.14299
1027.056	-46.18078
1027.222	-52.50118
1027.388	-65.14129
1027.553	-14.57544
1027.719	-27.21824
1027.885	-14.57544
1028.051	10.7128
1028.216	-52.50118
1028.382	-44.07393
1028.548	-20.89695
1028.713	-20.89695
1028.879	2.283
1029.045	-79.88693
1029.21	0.17561
1029.376	57.08346
1029.541	-27.21824
1029.707	-31.43231
1029.873	-44.07393
1030.038	14.92785
1030.204	44.4358
1030.369	10.7128
1030.534	21.25059
1030.7	-103.05609
1030.865	-16.68263
1031.031	-6.14641
1031.196	-37.75323
1031.361	-65.14129
1031.527	-56.71465
1031.692	-31.43231
1031.857	23.35822
1032.023	-31.43231
1032.188	-27.21824
1032.353	2.283
1032.518	-23.00407
1032.684	-65.14129
1032.849	12.82031
1033.014	-14.57544
1033.179	-63.03467
1033.344	31.78897
1033.509	-39.86016
1033.674	-52.50118
1033.839	10.7128
1034.004	2.283
1034.17	-111.48045
1034.335	-12.46822
1034.5	14.92785
1034.664	23.35822
1034.829	-6.14641
1034.994	-41.96706
1035.159	23.35822
1035.324	-1.93175
1035.489	-10.36097
1035.654	8.60532
1035.819	-29.32529
1035.984	-29.32529
1036.148	-6.14641
1036.313	-14.57544
1036.478	-63.03467
1036.643	-10.36097
1036.807	-20.89695
1036.972	86.59788
1037.137	40.22009
1037.301	-4.03909
1037.466	-16.68263
1037.631	12.82031
1037.795	-27.21824
1037.96	23.35822
1038.124	-31.43231
1038.289	-48.28761
1038.454	-6.14641
1038.618	-29.32529
1038.783	-39.86016
1038.947	-94.6313
1039.111	-4.03909
1039.276	-39.86016
1039.44	-27.21824
1039.605	23.35822
1039.769	4.39042
1039.933	10.7128
1040.098	-18.7898
1040.262	95.03138
1040.426	-73.56752
1040.591	10.7128
1040.755	6.49786
1040.919	-14.57544
1041.083	19.14299
1041.248	-6.14641
1041.412	44.4358
1041.576	21.25059
1041.74	36.00449
1041.904	-54.60793
1042.068	23.35822
1042.232	23.35822
1042.397	-14.57544
1042.561	-48.28761
1042.725	-50.3944
1042.889	-29.32529
1043.053	-69.35446
1043.217	-10.36097
1043.381	-4.03909
1043.544	38.11228
1043.708	-6.14641
1043.872	-96.73754
1044.036	59.19149
1044.2	-29.32529
1044.364	36.00449
1044.528	-44.07393
1044.691	36.00449
1044.855	-31.43231
1045.019	-1.93175
1045.183	-48.28761
1045.346	-12.46822
1045.51	12.82031
1045.674	-31.43231
1045.837	-65.14129
1046.001	-77.78048
1046.165	-35.64629
1046.328	19.14299
1046.492	-31.43231
1046.655	12.82031
1046.819	25.46587
1046.983	-27.21824
1047.146	-25.11117
1047.31	-90.41875
1047.473	27.57355
1047.636	-4.03909
1047.8	-10.36097
1047.963	-81.99334
1048.127	-4.03909
1048.29	-1.93175
