Data from mixed_try6.1_USB4F045381__28__00312.txt Node

Date: Thu Apr 03 20:34:08 EDT 2025
User: mmckonesweet
Spectrometer: USB4F04538
Trigger mode: 4
Integration Time (sec): 2.700000E-3
Scans to average: 1
Electric dark correction enabled: true
Nonlinearity correction enabled: true
Boxcar width: 0
XAxis mode: Wavelengths
Number of Pixels in Spectrum: 3648
>>>>>Begin Spectral Data<<<<<
345.52	-37.2265
345.736	-37.2265
345.952	-37.2265
346.168	9.13219
346.384	-20.37016
346.6	-39.33343
346.816	13.34719
347.032	9.13219
347.248	2.80986
347.464	21.7775
347.68	-58.29468
347.896	-11.94141
348.112	70.25899
348.328	76.58356
348.544	-24.5844
348.76	-1.40491
348.975	-58.29468
349.191	36.53143
349.407	-3.51226
349.623	-24.5844
349.839	-30.90556
350.055	9.13219
350.27	0.70246
350.486	28.10047
350.702	-16.15583
350.918	-60.40135
351.133	17.5623
351.349	-33.01256
351.565	93.45007
351.781	-7.72688
351.996	-45.65407
352.212	9.13219
352.428	-24.5844
352.644	19.66988
352.859	-7.72688
353.075	-7.72688
353.291	19.66988
353.506	17.5623
353.722	61.82655
353.938	-83.57314
354.153	-39.33343
354.369	-26.69148
354.584	19.66988
354.8	-28.79853
355.016	2.80986
355.231	-11.94141
355.447	-16.15583
355.662	-58.29468
355.878	-16.15583
356.093	-14.04863
356.309	-7.72688
356.524	25.99279
356.74	-45.65407
356.955	76.58356
357.171	44.96277
357.386	9.13219
357.602	23.88513
357.817	-24.5844
358.033	25.99279
358.248	19.66988
358.464	47.07066
358.679	17.5623
358.895	-20.37016
359.11	-43.54722
359.325	-3.51226
359.541	-33.01256
359.756	9.13219
359.972	-68.82782
360.187	42.8549
360.402	19.66988
360.618	51.28651
360.833	4.91728
361.048	-39.33343
361.264	-43.54722
361.479	-1.40491
361.694	-33.01256
361.909	0.70246
362.125	-7.72688
362.34	34.42366
362.555	78.6918
362.77	-30.90556
362.986	28.10047
363.201	25.99279
363.416	-3.51226
363.631	-43.54722
363.847	-11.94141
364.062	-60.40135
364.277	13.34719
364.492	28.10047
364.707	30.20817
364.922	11.23968
365.138	-102.52955
365.353	-11.94141
365.568	-28.79853
365.783	-35.11954
365.998	28.10047
366.213	68.15085
366.428	17.5623
366.643	15.45473
366.858	4.91728
367.073	-28.79853
367.288	-7.72688
367.503	-14.04863
367.718	-22.47729
367.933	-33.01256
368.148	-51.97449
368.363	17.5623
368.578	-14.04863
368.793	28.10047
369.008	28.10047
369.223	-60.40135
369.438	74.47535
369.653	78.6918
369.868	7.02472
370.083	-16.15583
370.298	-64.61464
370.513	-28.79853
370.728	-20.37016
370.943	-14.04863
371.157	-24.5844
371.372	-73.04089
371.587	99.77538
371.802	-18.26301
372.017	2.80986
372.232	36.53143
372.446	-49.86771
372.661	55.50246
372.876	-73.04089
373.091	28.10047
373.306	-14.04863
373.52	-64.61464
373.735	-7.72688
373.95	-5.61958
374.165	44.96277
374.379	-5.61958
374.594	2.80986
374.809	-33.01256
375.023	-16.15583
375.238	28.10047
375.453	-7.72688
375.667	-11.94141
375.882	25.99279
376.097	-7.72688
376.311	-64.61464
376.526	7.02472
376.741	-11.94141
376.955	-24.5844
377.17	9.13219
377.384	28.10047
377.599	-33.01256
377.813	44.96277
378.028	11.23968
378.242	0.70246
378.457	25.99279
378.672	-3.51226
378.886	13.34719
379.101	-9.83416
379.315	30.20817
379.53	9.13219
379.744	-41.44034
379.958	9.13219
380.173	-16.15583
380.387	30.20817
380.602	2.80986
380.816	23.88513
381.031	-7.72688
381.245	-43.54722
381.459	42.8549
381.674	-58.29468
381.888	-22.47729
382.103	-22.47729
382.317	17.5623
382.531	11.23968
382.746	17.5623
382.96	-7.72688
383.174	42.8549
383.388	-3.51226
383.603	28.10047
383.817	25.99279
384.031	-39.33343
384.246	-16.15583
384.46	49.17857
384.674	30.20817
384.888	17.5623
385.103	-11.94141
385.317	-7.72688
385.531	36.53143
385.745	-28.79853
385.959	-33.01256
386.174	28.10047
386.388	-24.5844
386.602	51.28651
386.816	68.15085
387.03	30.20817
387.244	25.99279
387.458	-11.94141
387.672	-14.04863
387.887	-16.15583
388.101	42.8549
388.315	0.70246
388.529	51.28651
388.743	17.5623
388.957	-68.82782
389.171	-18.26301
389.385	13.34719
389.599	-62.50801
389.813	-20.37016
390.027	59.7185
390.241	17.5623
390.455	59.7185
390.669	78.6918
390.883	-41.44034
391.097	21.7775
391.311	11.23968
391.525	97.66692
391.738	-14.04863
391.952	61.82655
392.166	-70.93437
392.38	-56.18797
392.594	25.99279
392.808	-3.51226
393.022	-35.11954
393.236	97.66692
393.449	-100.42339
393.663	-37.2265
393.877	17.5623
394.091	-33.01256
394.305	0.70246
394.518	-16.15583
394.732	9.13219
394.946	-1.40491
395.16	15.45473
395.373	19.66988
395.587	0.70246
395.801	4.91728
396.015	17.5623
396.228	30.20817
396.442	-28.79853
396.656	17.5623
396.869	-16.15583
397.083	-24.5844
397.297	-62.50801
397.51	23.88513
397.724	-1.40491
397.938	63.93463
398.151	-35.11954
398.365	0.70246
398.578	-33.01256
398.792	23.88513
399.005	13.34719
399.219	-117.27196
399.433	-18.26301
399.646	61.82655
399.86	-3.51226
400.073	-47.7609
400.287	-70.93437
400.5	148.27594
400.714	-5.61958
400.927	-20.37016
401.141	-16.15583
401.354	-49.86771
401.567	-37.2265
401.781	13.34719
401.994	-58.29468
402.208	0.70246
402.421	0.70246
402.635	80.80005
402.848	-16.15583
403.061	4.91728
403.275	9.13219
403.488	21.7775
403.701	-3.51226
403.915	70.25899
404.128	-16.15583
404.341	-11.94141
404.555	0.70246
404.768	-39.33343
404.981	-7.72688
405.195	-20.37016
405.408	42.8549
405.621	53.39447
405.834	25.99279
406.048	-22.47729
406.261	-30.90556
406.474	-20.37016
406.687	9.13219
406.9	40.74705
407.114	-33.01256
407.327	-5.61958
407.54	11.23968
407.753	2.80986
407.966	53.39447
408.179	-30.90556
408.392	-7.72688
408.605	70.25899
408.819	-66.72124
409.032	-45.65407
409.245	25.99279
409.458	-5.61958
409.671	-41.44034
409.884	-51.97449
410.097	-14.04863
410.31	93.45007
410.523	-45.65407
410.736	-30.90556
410.949	-16.15583
411.162	36.53143
411.375	9.13219
411.588	38.63923
411.801	-20.37016
412.014	-39.33343
412.227	21.7775
412.44	0.70246
412.653	7.02472
412.865	78.6918
413.078	-24.5844
413.291	30.20817
413.504	-16.15583
413.717	-45.65407
413.93	21.7775
414.143	-30.90556
414.356	76.58356
414.568	-3.51226
414.781	38.63923
414.994	28.10047
415.207	-45.65407
415.42	-41.44034
415.632	85.01664
415.845	-22.47729
416.058	11.23968
416.271	23.88513
416.483	97.66692
416.696	51.28651
416.909	51.28651
417.121	-24.5844
417.334	-39.33343
417.547	25.99279
417.759	7.02472
417.972	-20.37016
418.185	13.34719
418.397	-30.90556
418.61	-3.51226
418.823	55.50246
419.035	38.63923
419.248	9.13219
419.46	63.93463
419.673	2.80986
419.885	-28.79853
420.098	0.70246
420.311	-39.33343
420.523	28.10047
420.736	-7.72688
420.948	9.13219
421.161	9.13219
421.373	-77.25387
421.586	19.66988
421.798	36.53143
422.01	-5.61958
422.223	51.28651
422.435	-58.29468
422.648	9.13219
422.86	0.70246
423.073	-24.5844
423.285	-14.04863
423.497	19.66988
423.71	61.82655
423.922	-16.15583
424.134	-33.01256
424.347	-47.7609
424.559	-54.08124
424.771	-3.51226
424.984	-5.61958
425.196	38.63923
425.408	9.13219
425.621	-87.78586
425.833	95.55848
426.045	59.7185
426.257	38.63923
426.47	78.6918
426.682	4.91728
426.894	-28.79853
427.106	-3.51226
427.318	-26.69148
427.531	-18.26301
427.743	36.53143
427.955	7.02472
428.167	-24.5844
428.379	34.42366
428.591	38.63923
428.804	34.42366
429.016	-14.04863
429.228	0.70246
429.44	13.34719
429.652	28.10047
429.864	-39.33343
430.076	-75.1474
430.288	-28.79853
430.5	21.7775
430.712	59.7185
430.924	11.23968
431.136	38.63923
431.348	55.50246
431.56	28.10047
431.772	38.63923
431.984	0.70246
432.196	19.66988
432.408	68.15085
432.62	9.13219
432.832	47.07066
433.044	4.91728
433.256	-20.37016
433.468	-7.72688
433.679	32.3159
433.891	-51.97449
434.103	-14.04863
434.315	-7.72688
434.527	97.66692
434.739	-91.99847
434.95	42.8549
435.162	11.23968
435.374	72.36716
435.586	28.10047
435.798	-9.83416
436.009	-47.7609
436.221	47.07066
436.433	110.318
436.645	42.8549
436.856	-37.2265
437.068	38.63923
437.28	-16.15583
437.491	4.91728
437.703	78.6918
437.915	19.66988
438.126	-33.01256
438.338	34.42366
438.55	11.23968
438.761	80.80005
438.973	28.10047
439.184	40.74705
439.396	-5.61958
439.608	-37.2265
439.819	4.91728
440.031	44.96277
440.242	51.28651
440.454	59.7185
440.665	17.5623
440.877	47.07066
441.088	34.42366
441.3	30.20817
441.511	-24.5844
441.723	-66.72124
441.934	-11.94141
442.146	-24.5844
442.357	-87.78586
442.569	44.96277
442.78	28.10047
442.991	47.07066
443.203	34.42366
443.414	-33.01256
443.626	11.23968
443.837	93.45007
444.048	-28.79853
444.26	11.23968
444.471	9.13219
444.682	17.5623
444.894	-89.89218
445.105	44.96277
445.316	36.53143
445.528	44.96277
445.739	-16.15583
445.95	9.13219
446.161	38.63923
446.373	34.42366
446.584	4.91728
446.795	59.7185
447.006	-20.37016
447.217	44.96277
447.429	-66.72124
447.64	13.34719
447.851	-64.61464
448.062	-35.11954
448.273	49.17857
448.484	55.50246
448.695	0.70246
448.907	9.13219
449.118	53.39447
449.329	28.10047
449.54	38.63923
449.751	53.39447
449.962	19.66988
450.173	-9.83416
450.384	47.07066
450.595	34.42366
450.806	53.39447
451.017	53.39447
451.228	70.25899
451.439	13.34719
451.65	72.36716
451.861	17.5623
452.072	4.91728
452.283	-5.61958
452.494	36.53143
452.705	-16.15583
452.915	-5.61958
453.126	127.18734
453.337	-30.90556
453.548	25.99279
453.759	53.39447
453.97	-41.44034
454.181	23.88513
454.391	-7.72688
454.602	17.5623
454.813	76.58356
455.024	51.28651
455.235	38.63923
455.445	-5.61958
455.656	44.96277
455.867	-41.44034
456.078	9.13219
456.288	13.34719
456.499	17.5623
456.71	42.8549
456.921	-7.72688
457.131	-7.72688
457.342	42.8549
457.553	74.47535
457.763	-16.15583
457.974	42.8549
458.184	2.80986
458.395	11.23968
458.606	44.96277
458.816	76.58356
459.027	28.10047
459.237	76.58356
459.448	93.45007
459.659	9.13219
459.869	-33.01256
460.08	55.50246
460.29	4.91728
460.501	44.96277
460.711	34.42366
460.922	34.42366
461.132	34.42366
461.343	42.8549
461.553	34.42366
461.764	28.10047
461.974	68.15085
462.184	51.28651
462.395	0.70246
462.605	42.8549
462.816	47.07066
463.026	15.45473
463.236	11.23968
463.447	0.70246
463.657	28.10047
463.867	36.53143
464.078	28.10047
464.288	53.39447
464.498	76.58356
464.709	9.13219
464.919	61.82655
465.129	47.07066
465.339	91.34168
465.55	17.5623
465.76	25.99279
465.97	36.53143
466.18	59.7185
466.391	101.88386
466.601	42.8549
466.811	131.40488
467.021	55.50246
467.231	-14.04863
467.441	23.88513
467.651	-24.5844
467.862	129.2961
468.072	36.53143
468.282	131.40488
468.492	-39.33343
468.702	118.75249
468.912	2.80986
469.122	42.8549
469.332	110.318
469.542	80.80005
469.752	103.99236
469.962	63.93463
470.172	59.7185
470.382	99.77538
470.592	9.13219
470.802	85.01664
471.012	135.62252
471.222	108.20943
471.432	85.01664
471.642	144.05805
471.852	28.10047
472.062	95.55848
472.272	55.50246
472.482	127.18734
472.691	-14.04863
472.901	146.16698
473.111	110.318
473.321	118.75249
473.531	40.74705
473.741	76.58356
473.95	120.86117
474.16	89.23331
474.37	82.90833
474.58	118.75249
474.79	137.73137
474.999	131.40488
475.209	141.94913
475.419	182.02209
475.628	139.84024
475.838	85.01664
476.048	158.82104
476.258	139.84024
476.467	101.88386
476.677	169.36666
476.886	165.14835
477.096	211.55428
477.306	224.21213
477.515	173.58505
477.725	169.36666
477.935	171.47585
478.144	160.93012
478.354	213.66387
478.563	171.47585
478.773	211.55428
478.982	219.99277
479.192	226.32184
479.401	222.10244
479.611	196.78769
479.82	321.27857
480.03	287.51185
480.239	344.49584
480.449	243.20024
480.658	359.27157
480.868	333.94227
481.077	340.27436
481.287	306.50506
481.496	287.51185
481.705	329.72097
481.915	428.93966
482.124	342.38509
482.333	397.27012
482.543	374.04814
482.752	314.94696
482.961	363.49336
483.171	466.9478
483.38	363.49336
483.589	435.274
483.799	441.60848
484.008	466.9478
484.217	475.39473
484.426	500.73695
484.636	498.62502
484.845	551.42762
485.054	498.62502
485.263	538.7542
485.472	515.52089
485.682	492.28931
485.891	566.21391
486.1	701.43172
486.309	619.02735
486.518	576.77594
486.727	629.59099
486.936	625.3655
487.146	633.81654
487.355	747.92384
487.564	718.33734
487.773	849.37807
487.982	635.92933
488.191	650.7192
488.4	695.0923
488.609	819.78501
488.818	824.01248
489.027	832.46754
489.236	781.73945
489.445	942.39551
489.654	881.08681
489.863	908.56921
490.072	912.79739
490.281	868.40308
490.49	929.71042
490.698	982.56663
490.907	1056.57218
491.116	1128.46978
491.325	1014.28238
491.534	1136.92868
491.743	980.4523
491.952	1141.15816
492.16	1001.59591
492.369	1153.84669
492.578	1136.92868
492.787	1124.24035
492.996	1204.60224
493.204	1263.81947
493.413	1246.90003
493.622	1456.28593
493.831	1257.47466
494.039	1460.51604
494.248	1287.08397
494.457	1454.17088
494.665	1378.0292
494.874	1454.17088
495.083	1363.22397
495.291	1441.48057
495.5	1384.37431
495.709	1320.9237
495.917	1507.04711
496.126	1435.13541
496.335	1574.72799
496.543	1716.42865
496.752	1540.8877
496.96	1562.03792
497.169	1597.99297
497.377	1640.29233
497.586	1644.52221
497.794	1748.15094
498.003	1633.94748
498.211	1860.22919
498.42	1669.90133
498.628	1826.39554
498.837	1773.52817
499.045	1963.83644
499.254	1712.19896
499.462	1938.46448
499.671	1868.6874
499.879	2046.28906
500.087	1820.0516
500.296	2014.5777
500.504	1944.80755
500.713	2063.20116
500.921	1921.54938
501.129	2086.45454
501.338	1798.90484
501.546	2194.25356
501.754	2075.88493
501.962	2008.23524
502.171	2084.34063
502.379	2175.23172
502.587	2130.84485
502.795	2422.45791
503.004	2020.92009
503.212	2211.16128
503.42	2236.52183
503.628	2375.98107
503.837	2088.56844
504.045	2359.07917
504.253	2278.78655
504.461	2498.49975
504.669	2291.46525
504.877	2528.06767
505.085	2308.36966
505.294	2608.31194
505.502	2375.98107
505.71	2460.4806
505.918	2435.13253
506.126	2604.08899
506.334	2650.53874
506.542	2623.09188
506.75	2437.24492
506.958	2616.75769
507.166	2656.87234
507.374	2663.20581
507.582	2669.53918
507.79	2667.42807
507.998	2561.85682
508.206	2770.85714
508.414	2595.64294
508.622	2857.375
508.83	2574.52697
509.037	2734.97716
509.245	2589.30827
509.453	2764.52566
509.661	2791.96119
509.869	2967.07061
510.077	2810.95367
510.285	3061.96698
510.492	2838.38527
510.7	3087.2674
510.908	2880.5831
511.116	3228.4857
511.324	2878.47335
511.531	3188.44614
511.739	2958.63389
511.947	3057.75002
512.155	2941.75975
512.362	3078.83417
512.57	3021.9034
512.778	3245.34267
512.985	3251.66375
513.193	3169.47796
513.401	3182.12356
513.608	3283.26691
513.816	3152.61625
514.024	3148.40066
514.231	3169.47796
514.439	3245.34267
514.646	3102.02493
514.854	3338.03664
515.061	3304.33356
515.269	3449.64616
515.477	3502.27478
515.684	3354.88652
515.892	3460.17279
516.099	3464.38331
516.307	3439.11909
516.514	3582.24843
516.722	3308.54669
516.929	3514.90397
517.136	3434.90813
517.344	3700.05513
517.551	3422.27484
517.759	3596.9775
517.966	3624.32905
518.173	3582.24843
518.381	3563.30971
518.588	3695.84878
518.796	3498.06491
519.003	3750.52539
519.21	3672.71245
519.418	3828.31174
519.625	3803.08668
519.832	3792.5754
520.039	3878.7533
520.247	3922.88022
520.454	3945.99078
520.661	4069.90528
520.868	3851.43221
521.076	4036.30842
521.283	3887.15911
521.49	3897.66592
521.697	3937.58722
521.904	3922.88022
522.112	3700.05513
522.319	4254.59235
522.526	3878.7533
522.733	4290.2516
522.94	4046.80801
523.147	4174.86114
523.354	4367.84143
523.561	4390.90296
523.768	4248.29889
523.975	4342.6804
524.183	4313.32194
524.39	4346.87413
524.597	4311.22474
524.804	4493.59947
525.011	4372.03463
525.218	4313.32194
525.425	4443.30571
525.632	4397.19201
525.838	4491.50415
526.045	4569.01626
526.252	4397.19201
526.459	4510.36123
526.666	4434.92219
526.873	4656.96606
527.08	4380.42077
527.287	4585.77164
527.494	4525.02662
527.701	4698.83303
527.907	4566.92173
528.114	4943.57313
528.321	4713.48434
528.528	4793.0007
528.735	4675.80731
528.941	4763.70901
529.148	4569.01626
529.355	5027.17308
529.562	4510.36123
529.768	4908.032
529.975	4560.63803
530.182	4935.21111
530.388	4901.75935
530.595	5052.24587
530.802	4870.393
531.008	5238.09807
531.215	4933.12055
531.422	5150.41549
531.628	4991.64761
531.835	5133.70939
532.042	5083.58217
532.248	5284.01061
532.455	4941.48266
532.661	5200.52485
532.868	5025.08353
533.074	5165.03211
533.281	5091.93763
533.487	5336.1702
533.694	5091.93763
533.9	5584.24869
534.107	5133.70939
534.313	5421.68021
534.52	5275.66371
534.726	5359.11578
534.933	5392.48611
535.139	5509.23488
535.345	5452.9545
535.552	5309.04904
535.758	5388.31515
535.965	5742.51081
536.171	5542.57812
536.377	5690.46594
536.584	5619.66126
536.79	5496.72961
536.996	5686.30172
537.203	5584.24869
537.409	5425.85042
537.615	5759.16205
537.821	5513.40312
538.028	5727.93973
538.234	5667.56153
538.44	6017.0632
538.646	5613.41247
538.853	5875.67845
539.059	5927.67081
539.265	5904.79599
539.471	5792.46001
539.677	5940.14679
539.883	5848.6366
540.09	5942.22603
540.296	5942.22603
540.502	6120.95307
540.708	5779.97398
540.914	5938.06752
541.12	5992.12087
541.326	6201.94638
541.532	6108.48939
541.738	6181.18227
541.944	5971.333
542.15	6226.86022
542.356	6365.90051
542.562	6465.44705
542.768	6231.01219
542.974	6108.48939
543.18	6199.87007
543.386	6403.23675
543.592	6228.93622
543.798	6295.35587
544.004	6423.97585
544.21	6600.1644
544.415	6320.25706
544.621	6556.65103
544.827	6336.85599
545.033	6736.85456
545.239	6274.6023
545.445	6450.93319
545.651	6612.59492
545.856	6575.30087
546.062	6598.09257
546.268	6573.22875
546.474	6583.58908
546.679	6459.22697
546.885	6504.8361
547.091	6664.37983
547.297	6318.18209
547.502	6625.02461
547.708	6498.61733
547.914	6697.51462
548.119	6548.36161
548.325	6772.04643
548.531	6548.36161
548.736	6780.32592
548.942	6747.20579
549.147	6749.27597
549.353	6774.11634
549.559	7012.00373
549.764	6734.78424
549.97	6869.3073
550.175	6689.23147
550.381	7020.27269
550.586	6707.86804
550.792	7193.83823
550.997	6949.97502
551.203	7069.87893
551.408	7133.93458
551.614	7193.83823
551.819	7140.13238
552.025	7369.31088
552.23	7195.90354
552.435	7394.07073
552.641	7400.26021
552.846	7245.46435
553.052	7435.33019
553.257	7369.31088
553.462	7136.00054
553.668	7264.04637
553.873	6970.65351
554.078	7406.44949
554.283	7171.11836
554.489	7610.58657
554.694	7455.95667
554.899	7536.37929
555.105	7377.56451
555.31	7511.63736
555.515	7532.25585
555.72	7688.88653
555.925	7627.07332
556.131	7655.92186
556.336	7596.15955
556.541	7750.68074
556.746	7513.6993
556.951	7651.8009
557.156	7606.46467
557.361	7565.24097
557.567	7752.74022
557.772	7730.08477
557.977	7540.50264
558.182	7715.66635
558.387	7701.24689
558.592	7606.46467
558.797	7647.67985
559.002	7789.80729
559.207	7697.12686
559.412	8001.78406
559.617	7725.96533
559.822	7898.91005
560.027	7503.38936
560.232	8149.83338
560.437	7806.27937
560.642	7820.69135
560.847	7795.98448
561.051	8110.77495
561.256	7717.72619
561.461	7905.08393
561.666	8049.08897
561.871	7952.41093
562.076	8040.8628
562.281	8090.21498
562.485	8071.70927
562.69	8141.61115
562.895	8059.37123
563.1	8098.43921
563.305	8042.91938
563.509	8336.80335
563.714	8162.16612
563.919	8151.88889
564.123	8044.97593
564.328	8075.82179
564.533	8250.52982
564.737	8433.30684
564.942	8330.6421
565.147	8338.85707
565.351	8217.65458
565.556	8414.83075
565.761	8310.10333
565.965	8402.51249
566.17	8248.47526
566.374	8291.61676
566.579	8293.67091
566.784	8416.88372
566.988	8217.65458
567.193	8589.26549
567.397	8168.33222
567.602	8494.88258
567.806	8149.83338
568.011	8425.09543
568.215	8564.64772
568.42	8416.88372
568.624	8605.67585
568.828	8509.24778
569.033	8297.77913
569.237	8470.25435
569.442	8605.67585
569.646	8535.92354
569.85	8601.57337
570.055	8749.21564
570.259	8863.98282
570.463	8603.62462
570.668	8384.0338
570.872	8609.77825
571.076	8880.3735
571.281	8921.34522
571.485	8915.19991
571.689	8876.27594
571.893	8736.91578
572.098	8970.50188
572.302	8931.58703
572.506	9183.3978
572.71	8695.91144
572.914	9068.78482
573.119	8782.01207
573.323	8925.44199
573.527	8825.05032
573.731	8741.0158
573.935	8982.78946
574.139	9056.50165
574.343	8909.05445
574.547	9029.88597
574.751	9105.63058
574.955	9089.25538
575.159	9130.19132
575.364	8999.17191
575.568	9203.85877
575.772	9119.95798
575.976	9119.95798
576.18	9287.73111
576.383	9355.21775
576.587	9289.77643
576.791	9297.95752
576.995	9255.0038
577.199	9138.37769
577.403	9428.81913
577.607	9535.0952
577.811	9265.23154
578.015	9559.61431
578.219	9171.12041
578.422	9502.39948
578.626	9436.99575
578.83	9324.54424
579.034	9461.52408
579.238	9375.6647
579.442	9526.92165
579.645	9535.0952
579.849	9688.30262
580.053	9653.58329
580.257	9498.31223
580.46	9747.51946
580.664	9641.32834
580.868	9357.26252
581.071	9692.38695
581.275	9806.72353
581.479	9735.26875
581.682	9365.44143
581.886	9759.76962
582.09	9655.62572
582.293	9763.85289
582.497	9657.66814
582.7	9635.20065
582.904	9723.0175
583.107	9880.2007
583.311	9684.21822
583.515	9880.2007
583.718	9627.03019
583.922	10020.97871
584.125	9831.21806
584.329	9965.8999
584.532	9802.6409
584.735	10016.89916
584.939	9916.93209
585.142	10025.05821
585.346	9763.85289
585.549	10010.77972
585.753	9982.22064
585.956	10106.63619
586.159	9898.56699
586.363	10114.79274
586.566	9963.85974
586.769	10275.83938
586.973	9900.60761
587.176	10330.86118
587.379	9747.51946
587.582	10501.97875
587.786	10190.23033
587.989	10408.28289
588.192	10074.00771
588.395	10440.87585
588.599	10363.46212
588.802	10805.2902
589.005	10518.27091
589.208	10504.01532
589.411	10355.3122
589.615	10524.38027
589.818	10571.21486
590.021	10666.89984
590.224	10616.00697
590.427	10444.94974
590.63	10339.01173
590.833	10821.56781
591.036	10485.68577
591.239	10750.3477
591.442	10359.38719
591.645	10646.54362
591.848	10524.38027
592.051	10620.07868
592.254	10622.11452
592.457	10727.96124
592.66	10660.7931
592.863	10791.04668
593.066	10856.15525
593.269	10913.11552
593.472	10725.92603
593.675	10738.13708
593.878	10611.93521
594.081	10953.79595
594.284	10750.3477
594.486	11090.04289
594.689	10890.73934
594.892	10815.46379
595.095	10831.74094
595.298	10896.84207
595.5	10780.87238
595.703	11169.32833
595.906	10821.56781
596.109	10925.32012
596.311	11073.77719
596.514	11140.86876
596.717	11256.727
596.92	11315.65953
597.122	10917.18377
597.325	10970.06686
597.528	10998.53923
597.73	11006.67379
597.933	10974.13448
598.136	11108.34097
598.338	11199.81843
598.541	11335.97912
598.743	11189.65532
598.946	11299.40314
599.148	11199.81843
599.351	11134.77001
599.554	11340.04292
599.756	11435.53073
599.959	11295.33894
600.161	11449.75046
600.363	11287.21041
600.566	11289.24256
600.768	11427.40495
600.971	11201.85102
601.173	11216.07885
601.376	11520.8421
601.578	11409.12138
601.78	11579.73782
601.983	11486.31334
602.185	11622.38159
602.388	11630.50375
602.59	11679.2337
602.792	11541.15186
602.995	11677.20339
603.197	11331.91528
603.399	11703.59674
603.601	11553.33726
603.804	11914.69079
604.006	11376.61529
604.208	11433.4993
604.41	11583.79931
604.613	11766.52871
604.815	11585.83004
605.017	11774.64835
605.219	11484.28215
605.421	11557.39899
605.623	11435.53073
605.826	11829.45235
606.028	11449.75046
606.23	11693.44563
606.432	11510.68686
606.634	11874.10289
606.836	11431.46786
607.038	12018.17519
607.24	11510.68686
607.442	11721.86818
607.644	11474.12606
607.846	11744.19897
608.048	11671.1124
608.25	11772.61845
608.452	11760.43888
608.654	11971.50834
608.856	11833.51166
609.058	12038.46382
609.26	11713.74763
609.462	11685.32458
609.664	11760.43888
609.866	11833.51166
610.067	11602.07554
610.269	11920.77869
610.471	11900.4854
610.673	12046.57905
610.875	11742.16894
611.077	12095.26784
611.278	11695.47587
611.48	12117.58205
611.682	11766.52871
611.884	12237.25192
612.085	12070.924
612.287	12202.77341
612.489	12008.03058
612.69	12176.40606
612.892	11987.74077
613.094	12202.77341
613.295	11679.2337
613.497	12030.34846
613.699	11896.42664
613.9	12326.48081
614.102	12012.08845
614.304	12221.027
614.505	12022.23298
614.707	12180.46265
614.908	11973.53742
615.11	12377.17301
615.311	12091.21061
615.513	12034.40616
615.714	12143.95221
615.916	12101.35362
616.117	11993.8278
616.319	12251.44835
616.52	12058.75167
616.722	12202.77341
616.923	12164.23609
617.124	12292.00764
617.326	11975.5665
617.527	12087.15335
617.729	12229.13952
617.93	12137.8669
618.131	11995.85679
618.333	12099.32503
618.534	12107.43934
618.735	12010.05952
618.937	12237.25192
619.138	12176.40606
619.339	12026.29074
619.54	12231.16763
619.742	12385.28336
619.943	12395.42115
620.144	12318.36966
620.345	12415.69622
620.546	12342.70278
620.748	12466.38099
620.949	11985.71174
621.15	12227.1114
621.351	12253.47638
621.552	12178.43436
621.753	11906.57347
621.954	12257.53242
622.155	12001.94372
622.356	12302.14702
622.558	12014.11737
622.759	12456.24437
622.96	12253.47638
623.161	12415.69622
623.362	12198.71697
623.563	12444.0802
623.764	12334.59185
623.965	12433.94322
624.166	12431.9158
624.366	12221.027
624.567	12352.84129
624.768	12294.03553
624.969	12170.32111
625.17	12515.03452
625.371	12131.78153
625.572	12612.3306
625.773	12320.39745
625.973	12549.4952
626.174	12399.47622
626.375	12517.06167
626.576	12496.78989
626.777	12515.03452
626.977	12508.95304
627.178	12766.35412
627.379	12227.1114
627.58	12346.7582
627.78	12229.13952
627.981	12531.25154
628.182	12539.3599
628.382	12632.59882
628.583	12618.41113
628.784	12573.81929
628.984	12172.34943
629.185	12602.19626
629.386	12188.57576
629.586	12784.59153
629.787	12644.75946
629.987	12689.34662
630.188	12456.24437
630.388	12798.77586
630.589	12334.59185
630.79	12496.78989
630.99	12460.29904
631.191	12478.54473
631.391	12379.2006
631.591	12466.38099
631.792	12581.92712
631.992	12764.32772
632.193	12760.27489
632.393	12685.29336
632.594	12634.6256
632.794	12737.98391
632.994	13003.40601
633.195	12776.48607
633.395	12521.11595
633.595	12770.40692
633.796	12778.51244
633.996	12926.42277
634.196	12727.85142
634.397	12665.02671
634.597	12746.0898
634.797	13035.81782
634.997	12788.64422
635.198	13011.50908
635.398	12859.56278
635.598	12841.32723
635.798	12804.85478
635.998	12598.14248
636.199	13001.38023
636.399	12918.31884
636.599	12766.35412
636.799	13173.5542
636.999	12760.27489
637.199	12950.73407
637.399	12920.34483
637.599	12977.07047
637.799	12768.38052
637.999	13390.24444
638.199	13039.86921
638.399	13072.2796
638.599	12855.51048
638.799	13268.74193
638.999	13025.68927
639.199	13274.81742
639.399	13094.56103
639.599	12942.63039
639.799	12910.21482
639.999	12889.95441
640.199	12513.00737
640.399	12944.65632
640.599	12411.64126
640.799	13165.45266
640.998	13230.26296
641.198	13155.32564
641.398	13066.20275
641.598	13270.7671
641.798	13131.0203
641.997	13074.30521
642.197	13226.21245
642.397	13382.14473
642.597	13070.25399
642.796	13404.41878
642.996	13049.99759
643.196	13094.56103
643.395	12904.13675
643.595	13151.27479
643.795	13084.43318
643.994	13230.26296
644.194	13254.56565
644.394	13262.66641
644.593	13455.03984
644.793	13367.97009
644.992	13149.24936
645.192	13349.74525
645.392	13187.73172
645.591	13643.32992
645.791	13536.02862
645.99	13507.68322
646.19	13128.99482
646.389	13185.70638
646.589	13242.41439
646.788	13274.81742
646.987	12950.73407
647.187	13349.74525
647.386	13274.81742
647.586	13497.55969
647.785	13311.26951
647.984	13272.79226
648.184	13410.49343
648.383	13400.36899
648.582	13608.91358
648.782	13639.28099
648.981	13414.54319
649.18	13489.4608
649.38	13355.82024
649.579	13428.71719
649.778	13355.82024
649.977	13637.25652
650.177	13276.84257
650.376	13534.00397
650.575	13258.61604
650.774	13525.90535
650.973	13424.6675
651.173	13315.31966
651.372	13303.16917
651.571	13627.13412
651.77	13485.41133
651.969	13635.23205
652.168	13659.52551
652.367	13594.74186
652.566	13612.96261
652.765	13924.70017
652.964	13493.51025
653.163	13430.74203
653.362	13424.6675
653.561	13497.55969
653.76	13625.10963
653.959	13574.49625
654.158	13614.98712
654.357	13497.55969
654.556	13627.13412
654.755	13560.32412
654.954	13675.72089
655.153	13872.07404
655.352	13521.85601
655.551	13663.57437
655.749	13776.93739
655.948	13633.20757
656.147	13562.34872
656.346	13894.33917
656.545	13663.57437
656.743	13809.32506
656.942	13673.69648
657.141	13817.42185
657.34	13724.30579
657.538	13979.34848
657.737	13896.36325
657.936	13853.85688
658.135	13671.67206
658.333	14017.8036
658.532	13930.7723
658.731	13983.39643
658.929	13795.15555
659.128	13623.08513
659.326	13655.47663
659.525	13995.54022
659.724	13714.18408
659.922	13738.47604
660.121	13546.15181
660.319	14025.8993
660.518	13578.5454
660.716	13697.9892
660.915	13457.06464
661.113	14268.75381
661.312	13685.84289
661.51	13752.64614
661.709	13756.69471
661.907	13679.7697
662.105	13651.42774
662.304	14157.44927
662.502	13866.00168
662.701	13855.88102
662.899	13477.31235
663.097	13619.03613
663.296	13673.69648
663.494	13805.27664
663.692	13608.91358
663.891	13691.91606
664.089	13580.56997
664.287	14007.68392
664.485	13827.54279
664.684	14058.28172
664.882	13679.7697
665.08	13946.96452
665.278	14183.75816
665.476	13866.00168
665.675	13902.43549
665.873	14029.94714
666.071	13746.57326
666.269	13906.48364
666.467	13663.57437
666.665	13991.4923
666.863	13695.96482
667.061	13835.63948
667.259	14011.7318
667.457	13979.34848
667.655	14072.44885
667.853	13938.86843
668.051	13799.20399
668.249	13912.55584
668.447	13521.85601
668.645	13983.39643
668.843	13841.71197
669.041	13825.51861
669.239	13651.42774
669.437	13884.2187
669.635	13785.03438
669.833	14084.592
670.031	13827.54279
670.229	13845.76028
670.426	13748.59755
670.624	13898.38733
670.822	13708.11102
671.02	13957.08458
671.218	13839.68781
671.415	13861.95342
671.613	13754.67043
671.811	13847.78444
672.009	13953.03656
672.206	14173.6394
672.404	13876.12227
672.602	13938.86843
672.799	13837.66365
672.997	13940.89246
673.195	13604.86453
673.392	13866.00168
673.59	13924.70017
673.788	14019.82753
673.985	13538.05327
674.183	13774.91314
674.38	13900.41141
674.578	14127.09242
674.775	13789.08285
674.973	14005.65997
675.17	13497.55969
675.368	13861.95342
675.565	13734.42741
675.763	13643.32992
675.96	13809.32506
676.158	13542.10254
676.355	13459.08942
676.553	13700.01357
676.75	13789.08285
676.947	14078.52043
677.145	13961.13259
677.342	13868.0258
677.539	13606.88906
677.737	13961.13259
677.934	13785.03438
678.131	13787.05862
678.329	13807.30085
678.526	14129.11622
678.723	13955.06057
678.92	14159.47304
679.118	13655.47663
679.315	13600.81547
679.512	13809.32506
679.709	13930.7723
679.906	13527.93001
680.104	13957.08458
680.301	13813.37346
680.498	13536.02862
680.695	13428.71719
680.892	13793.13132
681.089	13453.01505
681.286	13503.63382
681.483	13365.94512
681.68	13708.11102
681.877	13497.55969
682.075	13550.20106
682.272	13493.51025
682.469	13558.29951
682.665	13529.95467
682.862	13471.23808
683.059	13736.45173
683.256	13754.67043
683.453	13997.56417
683.65	14088.6397
683.847	13795.15555
684.044	13714.18408
684.241	13625.10963
684.438	13995.54022
684.635	13501.60912
684.831	13598.79094
685.028	13325.44496
685.225	13748.59755
685.422	13357.84522
685.619	13491.48553
685.815	13420.61778
686.012	13448.96544
686.209	13339.6202
686.405	13633.20757
686.602	13461.11421
686.799	13442.89101
686.996	13376.06991
687.192	13250.51525
687.389	13049.99759
687.586	13420.61778
687.782	13252.54045
687.979	13517.80666
688.175	13321.39485
688.372	13416.56806
688.568	13627.13412
688.765	13280.89286
688.962	13428.71719
689.158	13404.41878
689.355	13106.71429
689.551	13347.72025
689.748	13133.04577
689.944	13280.89286
690.14	13238.36393
690.337	13234.31346
690.533	13274.81742
690.73	13339.6202
690.926	13203.93433
691.123	13183.68103
691.319	13045.94625
691.515	13236.33869
691.712	13153.30022
691.908	13254.56565
692.104	13363.92015
692.301	13114.81637
692.497	13155.32564
692.693	13380.1198
692.889	12981.12215
693.086	13072.2796
693.282	13080.382
693.478	13205.95964
693.674	13270.7671
693.87	13473.26284
694.067	13282.918
694.263	13282.918
694.459	13197.85839
694.655	13442.89101
694.851	13155.32564
695.047	13432.76687
695.243	13062.15149
695.439	12849.43197
695.635	12932.50067
695.831	13363.92015
696.027	13074.30521
696.224	12910.21482
696.42	13076.33081
696.615	13169.50344
696.811	13286.96827
697.007	13173.5542
697.203	13047.97192
697.399	13167.47806
697.595	12812.95992
697.791	12896.03259
697.987	12869.69346
698.183	13009.48332
698.379	13054.04891
698.575	13096.58658
698.77	12985.17381
698.966	13220.13666
699.162	13191.7824
699.358	13062.15149
699.554	12924.3968
699.749	12997.32866
699.945	12946.68224
700.141	13080.382
700.337	12970.99292
700.532	13007.45756
700.728	12746.0898
700.924	12973.01877
701.119	12942.63039
701.315	13270.7671
701.511	12778.51244
701.706	12936.55257
701.902	12993.27706
702.097	13106.71429
702.293	12896.03259
702.489	12821.06498
702.684	12715.69224
702.88	12979.09631
703.075	12650.83969
703.271	12788.64422
703.466	12648.81295
703.662	12819.03872
703.857	12776.48607
704.053	12810.93364
704.248	12600.16937
704.443	12823.09123
704.639	12590.03485
704.834	12644.75946
705.03	12675.16011
705.225	12837.27482
705.42	12590.03485
705.616	13023.66354
705.811	12869.69346
706.006	12754.1956
706.202	12650.83969
706.397	12614.35745
706.592	12401.50374
706.787	12604.22314
706.983	12814.98619
707.178	12721.77185
707.373	12648.81295
707.568	12577.87322
707.763	12415.69622
707.959	12693.39986
708.154	12358.92431
708.349	12490.70822
708.544	12683.26672
708.739	12407.58627
708.934	12377.17301
709.129	12772.43331
709.324	12399.47622
709.519	12650.83969
709.714	12510.9802
709.909	13007.45756
710.104	12691.37324
710.299	12675.16011
710.494	12529.22444
710.689	12814.98619
710.884	12462.32636
711.079	12788.64422
711.274	12253.47638
711.469	12561.65736
711.664	12510.9802
711.859	12401.50374
712.054	12409.61377
712.249	12715.69224
712.443	12354.86897
712.638	12354.86897
712.833	12139.89535
713.028	12458.27171
713.223	12304.17487
713.417	12415.69622
713.612	12403.53126
713.807	12585.981
714.002	12466.38099
714.196	12427.86095
714.391	12405.55877
714.586	12444.0802
714.78	12383.25578
714.975	12204.80161
715.17	12166.26443
715.364	12484.6265
715.559	12454.21703
715.754	12525.17021
715.948	12261.58844
716.143	12318.36966
716.337	12229.13952
716.532	12504.89868
716.726	12369.06254
716.921	12557.60333
717.115	12318.36966
717.31	12338.64733
717.504	12294.03553
717.699	12456.24437
717.893	12058.75167
718.088	12346.7582
718.282	12456.24437
718.476	12318.36966
718.671	12152.06585
718.865	12143.95221
719.059	11910.63214
719.254	12176.40606
719.448	11918.7494
719.642	12190.60401
719.837	11805.09578
720.031	12105.41077
720.225	11703.59674
720.419	12247.39226
720.614	11953.24625
720.808	12237.25192
721.002	11987.74077
721.196	11961.36282
721.39	11880.19128
721.585	11975.5665
721.779	11748.259
721.973	12107.43934
722.167	11600.04488
722.361	11665.02133
722.555	11610.19807
722.749	11843.65978
722.943	11636.59528
723.137	11884.25017
723.331	11833.51166
723.525	11928.89577
723.719	11453.81316
723.913	11857.8668
724.107	11717.80792
724.301	11912.66147
724.495	11701.56653
724.689	11681.264
724.883	11595.98355
725.077	11703.59674
725.271	11784.79771
725.465	11502.56251
725.659	11658.93019
725.853	12174.37775
726.046	11591.92217
726.24	11939.04195
726.434	11575.6763
726.628	12018.17519
726.822	11825.39301
727.015	11752.319
727.209	11557.39899
727.403	11908.60281
727.596	11896.42664
727.79	11890.33844
727.984	11811.18504
728.177	11910.63214
728.371	11727.9585
728.565	11547.2446
728.758	11766.52871
728.952	11768.55863
729.146	11851.77813
729.339	11825.39301
729.533	11565.52233
729.726	11725.9284
729.92	11713.74763
730.113	11807.12554
730.307	11780.73799
730.5	11591.92217
730.694	11839.60055
730.887	11634.56478
731.081	11662.99096
731.274	11782.76785
731.468	11197.78583
731.661	11486.31334
731.854	11685.32458
732.048	11695.47587
732.241	11683.2943
732.435	11888.30903
732.628	11754.34898
732.821	11790.88722
733.014	11843.65978
733.208	11857.8668
733.401	11973.53742
733.594	11620.35103
733.788	11502.56251
733.981	11693.44563
734.174	11880.19128
734.367	11825.39301
734.56	11620.35103
734.754	11488.34452
734.947	11516.78003
735.14	11427.40495
735.333	11768.55863
735.526	11693.44563
735.719	11774.64835
735.912	11642.68673
736.105	11587.86076
736.298	11638.62577
736.491	11376.61529
736.684	11433.4993
736.877	11340.04292
737.07	11201.85102
737.263	11459.90713
737.456	11801.03624
737.649	11573.64553
737.842	11530.99709
738.035	11587.86076
738.228	11396.93189
738.421	11437.56215
738.614	11695.47587
738.807	11528.96611
739	11459.90713
739.192	11283.14609
739.385	11468.03229
739.578	11212.01381
739.771	11506.6247
739.964	11449.75046
740.156	11681.264
740.349	11437.56215
740.542	11640.65625
740.735	11474.12606
740.927	11583.79931
741.12	11551.30638
741.313	11335.97912
741.505	11522.87311
741.698	11275.01733
741.891	11218.11136
742.083	11352.23407
742.276	11268.92064
742.468	11151.03313
742.661	11258.7593
742.854	11340.04292
743.046	11524.90412
743.239	11384.74205
743.431	11368.48838
743.624	11037.17682
743.816	11067.67737
744.009	11256.727
744.201	11022.94238
744.393	11193.7206
744.586	11126.63819
744.778	11329.88335
744.971	11329.88335
745.163	11333.94721
745.355	11177.45925
745.548	11061.57746
745.74	11303.4673
745.932	11108.34097
746.125	11199.81843
746.317	11191.68796
746.509	11232.33861
746.702	11092.07605
746.894	11161.19723
747.086	11214.04633
747.278	11216.07885
747.471	11118.5062
747.663	10968.03304
747.855	10880.5679
748.047	10831.74094
748.239	11083.94333
748.431	10963.96535
748.623	11065.64408
748.815	10866.32739
749.008	11175.42654
749.2	11161.19723
749.392	11287.21041
749.584	10929.38824
749.776	11191.68796
749.968	11033.10989
750.16	11163.23002
750.352	10833.77553
750.544	10809.35967
750.736	10841.91377
750.928	11104.27481
751.12	10644.50793
751.311	10880.5679
751.503	11016.84174
751.695	10996.50556
751.887	11024.9759
752.079	10961.9315
752.271	10841.91377
752.463	10845.98282
752.654	10791.04668
752.846	10850.05183
753.038	10467.35519
753.23	10900.9105
753.421	10367.537
753.613	10514.19795
753.805	10750.3477
753.997	10782.90726
754.188	10915.14965
754.38	10618.04283
754.572	10931.42227
754.763	10801.22068
754.955	10359.38719
755.146	10579.35933
755.338	10558.99778
755.53	10571.21486
755.721	10341.04934
755.913	10620.07868
756.104	10451.06047
756.296	10697.4319
756.487	10491.79574
756.679	10638.40078
756.87	10383.83598
757.062	10530.4895
757.253	10190.23033
757.445	10375.68659
757.636	10343.08693
757.827	10473.4655
758.019	10216.73094
758.21	10467.35519
758.401	10292.14315
758.593	10618.04283
758.784	10453.09736
758.975	10389.94789
759.167	10444.94974
759.358	10603.79154
759.549	10261.57287
759.74	10512.16145
759.932	10245.26747
760.123	10402.17134
760.314	10271.7633
760.505	10493.83236
760.696	10139.26107
760.888	10324.74813
761.079	9994.46059
761.27	10339.01173
761.461	10114.79274
761.652	10143.33893
761.843	9833.25918
762.034	10237.11445
762.225	9933.25562
762.416	10053.61308
762.607	9912.85106
762.798	9949.57823
762.989	9831.21806
763.18	10016.89916
763.371	9486.05009
763.562	9859.79231
763.753	10082.16517
763.944	10049.53398
764.135	10157.611
764.326	10082.16517
764.517	10114.79274
764.708	9947.53795
764.899	9912.85106
765.089	10100.51862
765.28	9910.81052
765.471	9818.97107
765.662	9569.82994
765.853	9969.98017
766.043	9629.07283
766.234	9888.36364
766.425	9457.43619
766.615	9821.01227
766.806	9788.35121
766.997	9706.68163
767.187	9590.26001
767.378	9837.34136
767.569	9912.85106
767.759	9804.68222
767.95	9653.58329
768.141	9839.38243
768.331	9273.41344
768.522	9751.60291
768.712	9584.13116
768.903	9551.44153
769.093	9291.82172
769.284	9408.37642
769.474	9547.35504
769.665	9494.22492
769.855	9334.76916
770.046	9514.66085
770.236	9289.77643
770.426	9342.94879
770.617	9416.5537
770.807	9406.33206
770.998	9371.57545
771.188	9355.21775
771.378	9359.30728
771.569	9289.77643
771.759	9355.21775
771.949	9453.34823
772.139	9283.64043
772.33	9353.17297
772.52	9238.63853
772.71	9392.02109
772.9	9287.73111
773.09	9203.85877
773.281	9236.5928
773.471	9140.42424
773.661	9144.51728
773.851	9209.99673
774.041	9263.18603
774.231	9117.91126
774.421	9160.88878
774.611	9238.63853
774.802	8974.59781
774.992	9003.26734
775.182	8857.83601
775.372	8792.26
775.562	8923.39361
775.752	8798.40854
775.942	8915.19991
776.131	8986.88517
776.321	8831.19799
776.511	8935.68363
776.701	8884.471
776.891	9031.93344
777.081	8732.81567
777.271	8779.96243
777.461	9058.54889
777.651	8990.98082
777.84	8425.09543
778.03	8679.50764
778.22	8782.01207
778.41	8763.56466
778.599	8792.26
778.789	8876.27594
778.979	8431.25401
779.169	8708.21351
779.358	8316.26517
779.548	8798.40854
779.738	8601.57337
779.927	8695.91144
780.117	8537.97539
780.307	8459.99177
780.496	8511.29988
780.686	8765.61444
780.875	8400.45938
781.065	8640.54387
781.254	8459.99177
781.444	8429.20117
781.633	8384.0338
781.823	8693.86103
782.012	8297.77913
782.202	8521.56007
782.391	8248.47526
782.581	8314.21124
782.77	8077.87802
782.96	8591.31685
783.149	8375.82055
783.338	8447.67605
783.528	8186.82945
783.717	8312.1573
783.906	8398.40625
784.096	8172.44286
784.285	8318.31907
784.474	8291.61676
784.663	7989.44188
784.853	7991.49896
785.042	7896.85204
785.231	8096.38318
785.42	7907.14186
785.61	7999.72708
785.799	7795.98448
785.988	7968.86995
786.177	7808.33829
786.366	8024.40949
786.555	7878.32908
786.744	7977.09896
786.933	7812.45606
787.122	8116.94255
787.312	7960.6406
787.501	8199.16004
787.69	7903.02599
787.879	8088.15887
788.068	7812.45606
788.257	7964.75531
788.445	7699.18688
788.634	7921.54673
788.823	7845.39522
789.012	8026.46623
789.201	7589.97622
789.39	7828.92631
789.579	7746.56171
789.768	7847.45375
789.957	7369.31088
790.145	7641.49811
790.334	7769.21531
790.523	7602.34268
790.712	7942.12337
790.9	7804.22044
791.089	7606.46467
791.278	7777.45235
791.467	7476.58098
791.655	7750.68074
791.844	7785.68906
792.033	7676.52542
792.221	7589.97622
792.41	7738.32341
792.599	7443.58104
792.787	7598.22061
792.976	7721.8458
793.164	7495.14102
793.353	7416.76451
793.541	7660.04274
793.73	7526.07053
793.918	7573.48639
794.107	7187.64217
794.295	7499.26523
794.484	7358.99335
794.672	7303.26923
794.861	7358.99335
795.049	7455.95667
795.238	7226.88054
795.426	7559.05668
795.614	7102.94259
795.803	7383.75451
795.991	7171.11836
796.179	7482.76785
796.368	7330.10135
796.556	7389.94431
796.744	7140.13238
796.932	7435.33019
797.121	7088.47795
797.309	7400.26021
797.497	7181.4459
797.685	7546.68752
797.874	6947.90705
798.062	7251.65855
798.25	7074.0122
798.438	7288.81962
798.626	7146.32997
798.814	7266.11093
799.002	7007.86911
799.19	6939.63493
799.378	6962.38239
799.566	7069.87893
799.755	6995.46472
799.943	7476.58098
800.131	7102.94259
800.318	7367.24742
800.506	7144.26413
800.694	7292.94819
800.882	6964.4502
801.07	7105.00888
801.258	7045.07743
801.446	7226.88054
801.634	6956.17881
801.822	7105.00888
802.01	7022.33988
802.197	7094.67721
802.385	6879.65124
802.573	6877.5825
802.761	6763.76659
802.949	7125.67054
803.136	6999.59961
803.324	6964.4502
803.512	7123.60448
803.699	6991.32975
803.887	7109.14139
804.075	7237.2051
804.262	6935.49874
804.45	6896.20037
804.638	6583.58908
804.825	7107.07515
805.013	6877.5825
805.201	6980.99191
805.388	6960.31455
805.576	6933.4306
805.763	7032.67547
805.951	7113.27381
806.138	7047.14434
806.326	6976.85662
806.513	6782.39573
806.701	7160.79025
806.888	6813.44019
807.075	7220.68554
807.263	6856.89382
807.45	6993.39725
807.638	6809.30123
807.825	7131.86861
808.012	6875.51373
808.2	7115.33999
808.387	7183.51135
808.574	7189.70754
808.761	7098.80995
808.949	6889.99462
809.136	6883.78866
809.323	7063.67886
809.51	7024.40704
809.698	7094.67721
809.885	6852.75581
810.072	6995.46472
810.259	6925.15785
810.446	7286.75531
810.633	6918.95305
810.82	7173.18391
811.008	7206.22976
811.195	7414.70155
811.382	7136.00054
811.569	7171.11836
811.756	6929.29427
811.943	7187.64217
812.13	7231.01043
812.317	7363.12043
812.504	7185.57677
812.691	7371.37432
812.878	7084.34499
813.064	7251.65855
813.251	7264.04637
813.438	7235.14023
813.625	7140.13238
813.812	7202.09934
813.999	7121.53839
814.186	7179.38044
814.372	7022.33988
814.559	7338.35665
814.746	6912.74805
814.933	7129.80261
815.12	6894.13181
815.306	6892.06322
815.493	6732.7139
815.68	7012.00373
815.866	6995.46472
816.053	7200.0341
816.24	6900.33743
816.426	7065.74557
816.613	7020.27269
816.799	6983.05952
816.986	6929.29427
817.173	6966.518
817.359	6658.1664
817.546	6749.27597
817.732	6846.54863
817.919	7001.66702
818.105	6658.1664
818.292	6906.54284
818.478	6869.3073
818.665	6960.31455
818.851	6947.90705
819.037	7069.87893
819.224	6827.92585
819.41	6772.04643
819.597	6680.94796
819.783	6856.89382
819.969	6856.89382
820.156	6743.06537
820.342	6672.66408
820.528	6898.26891
820.714	6871.37613
820.901	6875.51373
821.087	6856.89382
821.273	7049.21124
821.459	6774.11634
821.646	7065.74557
821.832	6662.30871
822.018	6821.71785
822.204	6567.01228
822.39	6722.36186
822.576	6450.93319
822.762	6494.47137
822.948	6388.718
823.134	6581.51706
823.32	6500.69028
823.507	6832.0644
823.693	6635.38205
823.879	6815.50964
824.065	6676.80607
824.25	6573.22875
824.436	6444.71261
824.622	6589.805
824.808	6757.55646
824.994	6581.51706
825.18	6407.38476
825.366	6664.37983
825.552	6359.67707
825.738	6767.90656
825.923	6341.00548
826.109	6664.37983
826.295	6305.73177
826.481	6751.34613
826.667	6374.1981
826.852	6554.57871
827.038	6341.00548
827.224	6519.34574
827.409	6141.72399
827.595	6426.04963
827.781	6174.95258
827.966	6537.99932
828.152	6212.32755
828.338	6448.85969
828.523	6305.73177
828.709	6351.37882
828.894	6257.99776
829.08	6608.45151
829.266	6417.75436
829.451	6709.93865
829.637	6332.70639
829.822	6376.27245
830.008	6164.56929
830.193	6390.79218
830.378	5960.93819
830.564	6529.70907
830.749	6222.70814
830.935	6542.14431
831.12	6008.74947
831.305	6266.30022
831.491	5794.54093
831.676	6108.48939
831.861	5883.99822
832.047	6174.95258
832.232	5809.10672
832.417	6133.41591
832.602	5952.62191
832.788	5854.87738
832.973	5904.79599
833.158	6108.48939
833.343	5777.89289
833.528	5967.17515
833.714	5994.19953
833.899	6266.30022
834.084	5727.93973
834.269	6087.71471
834.454	5911.03486
834.639	6017.0632
834.824	5759.16205
835.009	6141.72399
835.194	5902.71632
835.379	6069.01549
835.564	5852.79714
835.749	6170.79934
835.934	5792.46001
836.119	5917.27352
836.304	5848.6366
836.489	5809.10672
836.674	5680.0552
836.859	5659.23194
837.044	5719.61289
837.228	5861.11795
837.413	5550.91299
837.598	6008.74947
837.783	5507.15073
837.968	5754.99938
838.152	5605.08043
838.337	5769.56831
838.522	5582.16538
838.707	5692.54802
838.891	5450.86971
839.076	5546.7456
839.261	5284.01061
839.445	5648.81943
839.63	5555.08028
839.815	5609.2465
839.999	5354.94407
840.184	5750.83662
840.368	5382.05853
840.553	5650.90198
840.737	5342.42837
840.922	5588.41522
841.106	5304.8762
841.291	5398.74238
841.475	5342.42837
841.66	5471.71653
841.844	5071.04827
842.029	5210.96262
842.213	5192.17423
842.397	5388.31515
842.582	4882.94016
842.766	5338.25628
842.951	5025.08353
843.135	5142.06262
843.319	4918.48596
843.504	5202.61245
843.688	5142.06262
843.872	5446.70007
844.056	5277.75047
844.241	5269.4033
844.425	4945.66358
844.609	5304.8762
844.793	5158.76798
844.977	5384.14409
845.161	4908.032
845.346	5284.01061
845.53	5002.09697
845.714	4991.64761
845.898	4849.47924
846.082	5139.97435
846.266	5020.90437
846.45	5167.1201
846.634	4719.76314
846.818	4757.43164
847.002	4862.02777
847.186	4887.12236
847.37	4558.54342
847.554	4765.80142
847.738	4598.33724
847.922	4893.39549
848.106	4585.77164
848.29	4920.57669
848.473	4707.20535
848.657	4715.5773
848.841	4537.59608
849.025	4891.30447
849.209	4623.46603
849.392	4671.62053
849.576	4543.88052
849.76	4692.55356
849.944	4413.96185
850.127	4707.20535
850.311	4365.7448
850.495	4650.68524
850.678	4359.45477
850.862	4713.48434
851.046	4646.49792
851.229	4723.94889
851.413	4374.1312
851.596	4539.69092
851.78	4560.63803
851.964	4619.27812
852.147	4340.58351
852.331	4441.20986
852.514	4298.64112
852.698	4491.50415
852.881	4256.69012
853.065	4552.25945
853.248	4313.32194
853.431	4501.98053
853.615	4233.61343
853.798	4338.4866
853.982	4248.29889
854.165	4560.63803
854.348	4185.35384
854.532	4539.69092
854.715	4363.64814
854.898	4466.35859
855.081	4099.29819
855.265	4265.08101
855.448	4023.70823
855.631	4462.16735
855.814	3878.7533
855.997	4372.03463
856.181	3990.10411
856.364	4302.83574
856.547	4118.19147
856.73	4170.66391
856.913	3870.34717
857.096	4095.09945
857.279	4061.50656
857.462	4113.99311
857.645	3954.39401
857.828	4153.87416
858.011	4019.508
858.194	4034.20844
858.377	3874.55027
858.56	3954.39401
858.743	3786.2684
858.926	3851.43221
859.109	3796.77997
859.292	3901.8685
859.475	3786.2684
859.658	4078.30367
859.841	3786.2684
860.023	4019.508
860.206	3674.81585
860.389	3910.27343
860.572	3819.9037
860.755	3945.99078
860.937	3704.26141
861.12	3819.9037
861.303	3679.02259
861.486	3864.04236
861.668	3521.21831
861.851	3767.34633
862.034	3607.4977
862.216	3763.14122
862.399	3274.83977
862.581	3481.22469
862.764	3552.78755
862.947	3645.36654
863.129	3525.42778
863.312	3601.18564
863.494	3439.11909
863.677	3596.9775
863.859	3455.96219
864.042	3556.99647
864.224	3365.41713
864.406	3578.03995
864.589	3255.87773
864.771	3403.3237
864.954	3076.72583
865.136	3291.69377
865.318	3188.44614
865.501	3350.67415
865.683	3190.55363
865.865	3144.185
866.048	3093.59215
866.23	3245.34267
866.412	3135.7535
866.594	3146.29284
866.777	3028.2296
866.959	3072.50909
867.141	3068.29229
867.323	3215.84227
867.505	3095.70037
867.687	3201.09086
867.869	3085.15911
868.052	3262.19856
868.234	3080.9425
868.416	3422.27484
868.598	3161.04723
868.78	3161.04723
868.962	3021.9034
869.144	3413.85229
869.326	3009.25059
869.508	3224.27129
869.69	3163.15494
869.872	3203.19825
870.054	2986.05235
870.236	3397.00633
870.417	3118.88972
870.599	3253.77075
870.781	3144.185
870.963	3201.09086
871.145	2832.05511
871.327	3161.04723
871.508	2950.19694
871.69	3051.42447
871.872	2825.72482
872.054	3201.09086
872.235	2912.22772
872.417	3089.37566
872.599	2884.80257
872.78	3047.20736
872.962	2764.52566
873.144	3144.185
873.325	2920.66574
873.507	3228.4857
873.689	2893.24134
873.87	3045.09878
874.052	2764.52566
874.233	3061.96698
874.415	2950.19694
874.596	3186.33863
874.778	2916.44676
874.959	3017.68586
875.141	2827.83493
875.322	3152.61625
875.503	2747.64112
875.685	3144.185
875.866	2893.24134
876.048	3045.09878
876.229	2842.60531
876.41	2973.39799
876.592	2882.69285
876.773	3030.3383
876.954	2882.69285
877.136	2908.00863
877.317	2756.0835
877.498	3013.46825
877.679	2789.85085
877.86	2916.44676
878.042	2781.40933
878.223	3059.85851
878.404	3002.92398
878.585	3076.72583
878.766	2880.5831
878.947	3118.88972
879.128	2842.60531
879.309	2960.7431
879.49	2760.3046
879.672	2897.46064
879.853	2705.42607
880.034	2950.19694
880.215	2791.96119
880.396	2945.97837
880.576	2730.75573
880.757	3030.3383
880.938	2635.75993
881.119	3127.32174
881.3	2933.32232
881.481	2924.88466
881.662	2870.03418
881.843	3080.9425
882.023	2914.33725
882.204	3070.4007
882.385	3076.72583
882.566	3102.02493
882.747	2734.97716
882.927	3002.92398
883.108	2684.31658
883.289	3093.59215
883.469	2734.97716
883.65	3007.14173
883.831	2848.93526
884.011	3089.37566
884.192	2899.57027
884.373	2929.10352
884.553	2709.64781
884.734	2817.28425
884.914	2813.06388
885.095	3019.79463
885.275	2728.645
885.456	3053.533
885.636	2882.69285
885.817	3030.3383
885.997	2804.62297
886.178	3095.70037
886.358	2874.25379
886.538	3042.99019
886.719	2983.94333
886.899	3042.99019
887.08	2986.05235
887.26	3125.21376
887.44	2990.27035
887.621	3161.04723
887.801	2867.92435
887.981	3249.55674
888.161	2800.40243
888.342	3131.53765
888.522	3051.42447
888.702	3205.30563
888.882	2983.94333
889.062	3070.4007
889.242	2967.07061
889.423	3165.26263
889.603	2908.00863
889.783	3089.37566
889.963	2893.24134
890.143	3104.13308
890.323	3000.81508
890.503	3076.72583
890.683	2891.13167
890.863	3131.53765
891.043	2876.36358
891.223	3142.07715
891.403	2834.16518
891.583	3120.99775
891.763	2739.19853
891.943	3068.29229
892.122	2910.11818
892.302	2958.63389
892.482	2861.59478
892.662	2899.57027
892.842	2675.87243
893.022	2823.6147
893.201	2631.53729
893.381	2853.15516
893.561	2612.53484
893.741	2694.87148
893.92	2612.53484
894.1	2924.88466
894.28	2576.63862
894.459	2791.96119
894.639	2639.98251
894.819	2718.09113
894.998	2656.87234
895.178	2741.3092
895.357	2462.59287
895.537	2722.31272
895.716	2481.60279
895.896	2791.96119
896.075	2599.86599
896.255	2711.75866
896.434	2498.49975
896.614	2589.30827
896.793	2597.75447
896.973	2840.4953
897.152	2612.53484
897.331	2787.74049
897.511	2654.76115
897.69	2772.9676
897.87	2629.42596
898.049	2667.42807
898.228	2574.52697
898.407	2538.6271
898.587	2443.58206
898.766	2654.76115
898.945	2405.55782
899.124	2409.78291
899.304	2321.04757
899.483	2354.8536
899.662	2340.06377
899.841	2515.39598
900.02	2240.74846
900.199	2620.9805
900.378	2253.42815
900.557	2333.72512
900.737	2388.65707
900.916	2418.23295
901.095	2219.61494
901.274	2426.68282
901.453	2173.11814
901.632	2202.70749
901.811	2219.61494
901.989	2266.10752
902.168	2160.43649
902.347	2316.82164
902.526	2037.83285
902.705	2135.07233
902.884	2012.46355
903.063	2018.80597
903.242	2029.37653
903.42	1982.86484
903.599	2006.12108
903.778	2012.46355
903.957	1809.47828
904.135	2177.34529
904.314	1834.85407
904.493	1902.51945
904.672	1877.14554
904.85	2054.74517
905.029	1691.05029
905.207	1982.86484
905.386	1817.93694
905.565	1875.03101
905.743	1515.50728
905.922	1938.46448
906.1	1572.61298
906.279	1693.16517
906.457	1576.843
906.636	1684.70563
906.814	1551.46282
906.993	1614.91281
907.171	1382.25927
907.35	1574.72799
907.528	1572.61298
907.707	1445.71067
907.885	1310.34873
908.063	1610.68286
908.242	1388.60438
908.42	1538.77267
908.598	1420.33006
908.777	1517.62232
908.955	1390.71942
909.133	1422.44511
909.311	1149.61717
909.49	1466.86119
909.668	1337.84374
909.846	1413.98491
910.024	1289.19893
910.202	1394.94951
910.38	1272.27926
910.559	1466.86119
910.737	1293.42888
910.915	1538.77267
911.093	1304.00377
911.271	1473.20635
911.449	1240.55529
911.627	1261.70453
911.805	1369.56906
911.983	1401.29464
912.161	1420.33006
912.339	1564.15294
912.517	1329.3837
912.695	1521.8524
912.872	1390.71942
913.05	1608.56788
913.228	1352.64885
913.406	1479.5515
913.584	1206.7171
913.762	1602.22294
913.939	1287.08397
914.117	1547.23278
914.295	1316.6937
914.473	1452.05583
914.65	1496.47189
914.828	1526.08247
915.006	1234.21057
915.184	1479.5515
915.361	1437.25046
915.539	1619.14275
915.716	1246.90003
915.894	1382.25927
916.072	1323.03869
916.249	1378.0292
916.427	1234.21057
916.604	1464.74614
916.782	1145.38765
916.959	1335.72873
917.137	1310.34873
917.314	1447.82572
917.492	1183.45384
917.669	1251.12988
917.847	1236.32547
918.024	1337.84374
918.201	1166.53538
918.379	1346.30379
918.556	1168.65017
918.733	1236.32547
918.911	1136.92868
919.088	1166.53538
919.265	1132.69922
919.442	1202.48739
919.62	978.33798
919.797	1251.12988
919.974	988.90967
920.151	1191.91316
920.328	1213.0617
920.506	1109.43751
920.683	1100.97885
920.86	1113.66687
921.037	1020.6257
921.214	1100.97885
921.391	1065.03042
921.568	1109.43751
921.745	1014.28238
921.922	1073.48874
922.099	978.33798
922.276	1126.35506
922.453	936.05293
922.63	1048.11404
922.807	946.62393
922.984	1092.52026
923.161	971.99504
923.338	967.76645
923.514	912.79739
923.691	1071.37415
923.868	883.20079
924.045	938.16712
924.222	946.62393
924.399	1007.93912
924.575	864.17524
924.752	876.85887
924.929	773.28531
925.105	878.97283
925.282	766.94481
925.459	959.30936
925.635	771.1718
925.812	982.56663
925.989	760.60439
926.165	802.8755
926.342	762.71785
926.518	828.23999
926.695	832.46754
926.871	980.4523
927.048	750.03724
927.224	881.08681
927.401	769.0583
927.577	756.3775
927.754	684.52681
927.93	804.98915
928.107	678.18766
928.283	847.26422
928.459	705.65806
928.636	764.83132
928.812	692.97918
928.988	667.62264
929.165	650.7192
929.341	735.24366
929.517	583.11332
929.693	688.75297
929.87	469.05951
930.046	652.83209
930.222	629.59099
930.398	739.47034
930.574	540.8664
930.751	642.26777
930.927	684.52681
931.103	646.49347
931.279	545.09085
931.455	583.11332
931.631	523.96917
931.807	526.08127
931.983	549.31535
932.159	583.11332
932.335	469.05951
932.511	509.18483
932.687	433.16254
932.863	534.52983
933.039	433.16254
933.215	466.9478
933.391	376.15915
933.566	405.71498
933.742	344.49584
933.918	306.50506
934.094	437.38548
934.27	344.49584
934.445	346.60661
934.621	416.27141
934.797	365.60428
934.973	433.16254
935.148	338.16365
935.324	312.83645
935.5	380.38121
935.675	264.29997
935.851	295.95309
936.027	338.16365
936.202	260.07987
936.378	312.83645
936.553	222.10244
936.729	201.00661
936.904	219.99277
937.08	346.60661
937.255	196.78769
937.431	177.80353
937.606	177.80353
937.782	156.71198
937.957	163.03922
938.133	158.82104
938.308	146.16698
938.483	173.58505
938.659	173.58505
938.834	135.62252
939.009	78.6918
939.185	139.84024
939.36	146.16698
939.535	154.60294
939.71	80.80005
939.886	47.07066
940.061	177.80353
940.236	51.28651
940.411	177.80353
940.586	160.93012
940.761	70.25899
940.937	120.86117
941.112	89.23331
941.287	127.18734
941.462	61.82655
941.637	85.01664
941.812	146.16698
941.987	76.58356
942.162	44.96277
942.337	61.82655
942.512	97.66692
942.687	152.49392
942.862	122.96987
943.037	101.88386
943.212	78.6918
943.386	49.17857
943.561	30.20817
943.736	68.15085
943.911	70.25899
944.086	85.01664
944.26	61.82655
944.435	93.45007
944.61	95.55848
944.785	89.23331
944.959	42.8549
945.134	59.7185
945.309	101.88386
945.483	85.01664
945.658	112.42659
945.833	30.20817
946.007	85.01664
946.182	47.07066
946.357	91.34168
946.531	36.53143
946.706	9.13219
946.88	55.50246
947.055	68.15085
947.229	122.96987
947.404	87.12496
947.578	95.55848
947.752	9.13219
947.927	78.6918
948.101	21.7775
948.276	34.42366
948.45	110.318
948.624	106.10089
948.799	42.8549
948.973	34.42366
949.147	85.01664
949.321	97.66692
949.496	-39.33343
949.67	19.66988
949.844	13.34719
950.018	125.07859
950.193	125.07859
950.367	68.15085
950.541	133.51369
950.715	19.66988
950.889	49.17857
951.063	42.8549
951.237	129.2961
951.411	34.42366
951.585	34.42366
951.759	127.18734
951.933	129.2961
952.107	76.58356
952.281	19.66988
952.455	47.07066
952.629	-7.72688
952.803	97.66692
952.977	25.99279
953.151	131.40488
953.325	74.47535
953.499	34.42366
953.672	135.62252
953.846	72.36716
954.02	144.05805
954.194	118.75249
954.368	9.13219
954.541	99.77538
954.715	135.62252
954.889	129.2961
955.062	44.96277
955.236	34.42366
955.41	122.96987
955.583	148.27594
955.757	0.70246
955.93	55.50246
956.104	112.42659
956.278	51.28651
956.451	17.5623
956.625	17.5623
956.798	118.75249
956.972	82.90833
957.145	97.66692
957.319	139.84024
957.492	85.01664
957.665	122.96987
957.839	169.36666
958.012	68.15085
958.185	70.25899
958.359	59.7185
958.532	68.15085
958.705	42.8549
958.879	61.82655
959.052	80.80005
959.225	80.80005
959.398	146.16698
959.572	55.50246
959.745	76.58356
959.918	72.36716
960.091	146.16698
960.264	106.10089
960.438	68.15085
960.611	95.55848
960.784	21.7775
960.957	44.96277
961.13	89.23331
961.303	85.01664
961.476	82.90833
961.649	110.318
961.822	97.66692
961.995	57.61047
962.168	95.55848
962.341	112.42659
962.514	25.99279
962.686	106.10089
962.859	89.23331
963.032	144.05805
963.205	97.66692
963.378	70.25899
963.551	106.10089
963.723	106.10089
963.896	131.40488
964.069	61.82655
964.242	89.23331
964.414	76.58356
964.587	15.45473
964.76	129.2961
964.932	11.23968
965.105	36.53143
965.278	-37.2265
965.45	97.66692
965.623	68.15085
965.795	85.01664
965.968	160.93012
966.14	40.74705
966.313	11.23968
966.485	129.2961
966.658	53.39447
966.83	68.15085
967.003	89.23331
967.175	108.20943
967.348	114.5352
967.52	36.53143
967.692	-28.79853
967.865	55.50246
968.037	125.07859
968.209	59.7185
968.382	68.15085
968.554	93.45007
968.726	47.07066
968.898	34.42366
969.071	32.3159
969.243	17.5623
969.415	0.70246
969.587	120.86117
969.759	70.25899
969.932	78.6918
970.104	93.45007
970.276	59.7185
970.448	59.7185
970.62	40.74705
970.792	38.63923
970.964	118.75249
971.136	95.55848
971.308	59.7185
971.48	47.07066
971.652	47.07066
971.824	93.45007
971.996	9.13219
972.168	103.99236
972.339	11.23968
972.511	0.70246
972.683	-22.47729
972.855	53.39447
973.027	76.58356
973.199	59.7185
973.37	53.39447
973.542	17.5623
973.714	59.7185
973.886	59.7185
974.057	118.75249
974.229	25.99279
974.401	21.7775
974.572	42.8549
974.744	0.70246
974.915	0.70246
975.087	13.34719
975.259	17.5623
975.43	13.34719
975.602	51.28651
975.773	34.42366
975.945	80.80005
976.116	9.13219
976.288	34.42366
976.459	51.28651
976.63	63.93463
976.802	91.34168
976.973	21.7775
977.145	38.63923
977.316	9.13219
977.487	17.5623
977.659	34.42366
977.83	68.15085
978.001	15.45473
978.172	42.8549
978.344	-3.51226
978.515	120.86117
978.686	68.15085
978.857	38.63923
979.028	55.50246
979.2	28.10047
979.371	38.63923
979.542	-62.50801
979.713	68.15085
979.884	89.23331
980.055	-11.94141
980.226	70.25899
980.397	-45.65407
980.568	42.8549
980.739	68.15085
980.91	28.10047
981.081	32.3159
981.252	-16.15583
981.423	47.07066
981.594	66.04272
981.765	11.23968
981.936	17.5623
982.106	99.77538
982.277	-24.5844
982.448	17.5623
982.619	13.34719
982.79	-5.61958
982.96	51.28651
983.131	68.15085
983.302	19.66988
983.472	44.96277
983.643	95.55848
983.814	93.45007
983.984	34.42366
984.155	23.88513
984.326	55.50246
984.496	-7.72688
984.667	40.74705
984.837	9.13219
985.008	53.39447
985.178	9.13219
985.349	59.7185
985.519	-62.50801
985.69	101.88386
985.86	-43.54722
986.031	7.02472
986.201	28.10047
986.371	93.45007
986.542	61.82655
986.712	68.15085
986.882	82.90833
987.053	-28.79853
987.223	99.77538
987.393	-24.5844
987.563	-24.5844
987.734	44.96277
987.904	42.8549
988.074	59.7185
988.244	-7.72688
988.414	17.5623
988.585	9.13219
988.755	34.42366
988.925	30.20817
989.095	36.53143
989.265	42.8549
989.435	-33.01256
989.605	-37.2265
989.775	34.42366
989.945	2.80986
990.115	34.42366
990.285	97.66692
990.455	36.53143
990.625	28.10047
990.795	42.8549
990.965	59.7185
991.134	28.10047
991.304	19.66988
991.474	-7.72688
991.644	87.12496
991.814	-18.26301
991.984	85.01664
992.153	-33.01256
992.323	59.7185
992.493	19.66988
992.662	-16.15583
992.832	61.82655
993.002	-7.72688
993.171	42.8549
993.341	-16.15583
993.511	72.36716
993.68	2.80986
993.85	34.42366
994.019	19.66988
994.189	-28.79853
994.358	68.15085
994.528	7.02472
994.697	91.34168
994.867	17.5623
995.036	-54.08124
995.206	63.93463
995.375	-11.94141
995.544	21.7775
995.714	-3.51226
995.883	-24.5844
996.052	76.58356
996.222	25.99279
996.391	-20.37016
996.56	4.91728
996.73	-49.86771
996.899	19.66988
997.068	30.20817
997.237	28.10047
997.406	55.50246
997.576	-11.94141
997.745	0.70246
997.914	-58.29468
998.083	-14.04863
998.252	0.70246
998.421	9.13219
998.59	55.50246
998.759	-11.94141
998.928	36.53143
999.097	-18.26301
999.266	9.13219
999.435	23.88513
999.604	59.7185
999.773	19.66988
999.942	-14.04863
1000.111	-1.40491
1000.28	-28.79853
1000.448	-51.97449
1000.617	-33.01256
1000.786	59.7185
1000.955	25.99279
1001.124	61.82655
1001.292	11.23968
1001.461	38.63923
1001.63	-28.79853
1001.798	19.66988
1001.967	49.17857
1002.136	68.15085
1002.304	25.99279
1002.473	-5.61958
1002.642	-58.29468
1002.81	-22.47729
1002.979	-58.29468
1003.147	-30.90556
1003.316	19.66988
1003.484	17.5623
1003.653	2.80986
1003.821	13.34719
1003.99	-70.93437
1004.158	-5.61958
1004.327	15.45473
1004.495	-35.11954
1004.663	80.80005
1004.832	19.66988
1005	-3.51226
1005.168	-33.01256
1005.337	21.7775
1005.505	-73.04089
1005.673	36.53143
1005.842	19.66988
1006.01	44.96277
1006.178	25.99279
1006.346	63.93463
1006.514	11.23968
1006.683	15.45473
1006.851	-41.44034
1007.019	51.28651
1007.187	-83.57314
1007.355	-22.47729
1007.523	13.34719
1007.691	25.99279
1007.859	-30.90556
1008.027	-7.72688
1008.195	-11.94141
1008.363	-85.67951
1008.531	36.53143
1008.699	-91.99847
1008.867	11.23968
1009.035	-37.2265
1009.203	-70.93437
1009.37	0.70246
1009.538	-62.50801
1009.706	-11.94141
1009.874	-45.65407
1010.042	42.8549
1010.209	34.42366
1010.377	-3.51226
1010.545	-11.94141
1010.713	-47.7609
1010.88	-54.08124
1011.048	-18.26301
1011.216	0.70246
1011.383	9.13219
1011.551	-16.15583
1011.718	21.7775
1011.886	51.28651
1012.054	-26.69148
1012.221	53.39447
1012.389	13.34719
1012.556	-58.29468
1012.724	-11.94141
1012.891	59.7185
1013.058	59.7185
1013.226	-56.18797
1013.393	-22.47729
1013.561	-77.25387
1013.728	53.39447
1013.895	9.13219
1014.063	-14.04863
1014.23	13.34719
1014.397	11.23968
1014.565	28.10047
1014.732	-45.65407
1014.899	44.96277
1015.066	32.3159
1015.233	-30.90556
1015.401	-20.37016
1015.568	85.01664
1015.735	34.42366
1015.902	44.96277
1016.069	66.04272
1016.236	-5.61958
1016.403	-91.99847
1016.57	51.28651
1016.737	-3.51226
1016.904	112.42659
1017.071	4.91728
1017.238	34.42366
1017.405	-41.44034
1017.572	-7.72688
1017.739	87.12496
1017.906	-56.18797
1018.073	-7.72688
1018.24	-24.5844
1018.407	42.8549
1018.573	36.53143
1018.74	-85.67951
1018.907	68.15085
1019.074	-24.5844
1019.241	-3.51226
1019.407	9.13219
1019.574	-58.29468
1019.741	28.10047
1019.907	63.93463
1020.074	-7.72688
1020.241	9.13219
1020.407	-26.69148
1020.574	25.99279
1020.74	-79.36032
1020.907	21.7775
1021.073	-66.72124
1021.24	38.63923
1021.406	-5.61958
1021.573	-22.47729
1021.739	47.07066
1021.906	25.99279
1022.072	32.3159
1022.239	51.28651
1022.405	-1.40491
1022.571	61.82655
1022.738	-66.72124
1022.904	23.88513
1023.07	-77.25387
1023.237	-16.15583
1023.403	44.96277
1023.569	36.53143
1023.735	34.42366
1023.902	-30.90556
1024.068	9.13219
1024.234	51.28651
1024.4	11.23968
1024.566	51.28651
1024.732	-14.04863
1024.898	47.07066
1025.065	-28.79853
1025.231	0.70246
1025.397	25.99279
1025.563	36.53143
1025.729	7.02472
1025.895	-9.83416
1026.061	0.70246
1026.227	13.34719
1026.392	30.20817
1026.558	-28.79853
1026.724	30.20817
1026.89	13.34719
1027.056	-24.5844
1027.222	51.28651
1027.388	2.80986
1027.553	15.45473
1027.719	59.7185
1027.885	-47.7609
1028.051	21.7775
1028.216	-89.89218
1028.382	-16.15583
1028.548	0.70246
1028.713	28.10047
1028.879	-28.79853
1029.045	-16.15583
1029.21	0.70246
1029.376	32.3159
1029.541	11.23968
1029.707	-33.01256
1029.873	38.63923
1030.038	-62.50801
1030.204	42.8549
1030.369	-68.82782
1030.534	17.5623
1030.7	-1.40491
1030.865	36.53143
1031.031	-54.08124
1031.196	28.10047
1031.361	-20.37016
1031.527	-16.15583
1031.692	44.96277
1031.857	55.50246
1032.023	-62.50801
1032.188	-11.94141
1032.353	-41.44034
1032.518	-24.5844
1032.684	-24.5844
1032.849	61.82655
1033.014	-7.72688
1033.179	-3.51226
1033.344	34.42366
1033.509	-70.93437
1033.674	-16.15583
1033.839	-85.67951
1034.004	44.96277
1034.17	-41.44034
1034.335	91.34168
1034.5	-64.61464
1034.664	-37.2265
1034.829	-22.47729
1034.994	25.99279
1035.159	17.5623
1035.324	-30.90556
1035.489	-24.5844
1035.654	-24.5844
1035.819	-5.61958
1035.984	34.42366
1036.148	-3.51226
1036.313	103.99236
1036.478	-70.93437
1036.643	-30.90556
1036.807	44.96277
1036.972	21.7775
1037.137	23.88513
1037.301	72.36716
1037.466	-1.40491
1037.631	-1.40491
1037.795	19.66988
1037.96	9.13219
1038.124	19.66988
1038.289	-47.7609
1038.454	-28.79853
1038.618	-3.51226
1038.783	17.5623
1038.947	42.8549
1039.111	53.39447
1039.276	11.23968
1039.44	63.93463
1039.605	-7.72688
1039.769	-35.11954
1039.933	57.61047
1040.098	-11.94141
1040.262	-11.94141
1040.426	2.80986
1040.591	25.99279
1040.755	-37.2265
1040.919	-26.69148
1041.083	-22.47729
1041.248	-54.08124
1041.412	0.70246
1041.576	13.34719
1041.74	-18.26301
1041.904	13.34719
1042.068	-22.47729
1042.232	-66.72124
1042.397	36.53143
1042.561	-62.50801
1042.725	2.80986
1042.889	36.53143
1043.053	23.88513
1043.217	-20.37016
1043.381	-33.01256
1043.544	51.28651
1043.708	76.58356
1043.872	0.70246
1044.036	7.02472
1044.2	30.20817
1044.364	-58.29468
1044.528	63.93463
1044.691	7.02472
1044.855	-94.10474
1045.019	4.91728
1045.183	42.8549
1045.346	-33.01256
1045.51	-9.83416
1045.674	-75.1474
1045.837	-7.72688
1046.001	25.99279
1046.165	-24.5844
1046.328	-37.2265
1046.492	76.58356
1046.655	-11.94141
1046.819	13.34719
1046.983	9.13219
1047.146	-7.72688
1047.31	-11.94141
1047.473	-39.33343
1047.636	13.34719
1047.8	-9.83416
1047.963	-39.33343
1048.127	-11.94141
1048.29	89.23331
