Data from mixed_try6.1_USB4F045381__0__00284.txt Node

Date: Thu Apr 03 20:31:22 EDT 2025
User: mmckonesweet
Spectrometer: USB4F04538
Trigger mode: 4
Integration Time (sec): 2.700000E-3
Scans to average: 1
Electric dark correction enabled: true
Nonlinearity correction enabled: true
Boxcar width: 0
XAxis mode: Wavelengths
Number of Pixels in Spectrum: 3648
>>>>>Begin Spectral Data<<<<<
345.52	8.60532
345.736	8.60532
345.952	8.60532
346.168	38.11228
346.384	19.14299
346.6	-39.86016
346.816	-20.89695
347.032	29.68125
347.248	-44.07393
347.464	-29.32529
347.68	-67.24789
347.896	21.25059
348.112	42.32793
348.328	2.283
348.544	-33.53931
348.76	59.19149
348.975	80.27299
349.191	48.65159
349.407	21.25059
349.623	36.00449
349.839	38.11228
350.055	8.60532
350.27	46.54368
350.486	-18.7898
350.702	-14.57544
350.918	-12.46822
351.133	36.00449
351.349	59.19149
351.565	12.82031
351.781	0.17561
351.996	61.29953
352.212	71.84011
352.428	-1.93175
352.644	-4.03909
352.859	-31.43231
353.075	33.89672
353.291	42.32793
353.506	29.68125
353.722	48.65159
353.938	-8.2537
354.153	10.7128
354.369	27.57355
354.584	36.00449
354.8	-8.2537
355.016	17.0354
355.231	-1.93175
355.447	-20.89695
355.662	21.25059
355.878	10.7128
356.093	69.73195
356.309	19.14299
356.524	50.75953
356.74	4.39042
356.955	-8.2537
357.171	-12.46822
357.386	59.19149
357.602	-75.67402
357.817	-4.03909
358.033	88.70622
358.248	-4.03909
358.464	42.32793
358.679	-67.24789
358.895	76.05651
359.11	-8.2537
359.325	50.75953
359.541	31.78897
359.756	-8.2537
359.972	52.86748
360.187	19.14299
360.402	-33.53931
360.618	101.35674
360.833	61.29953
361.048	4.39042
361.264	14.92785
361.479	2.283
361.694	59.19149
361.909	-12.46822
362.125	61.29953
362.34	46.54368
362.555	80.27299
362.77	80.27299
362.986	-25.11117
363.201	48.65159
363.416	88.70622
363.631	88.70622
363.847	86.59788
364.062	36.00449
364.277	76.05651
364.492	12.82031
364.707	-4.03909
364.922	76.05651
365.138	69.73195
365.353	50.75953
365.568	-4.03909
365.783	82.38126
365.998	27.57355
366.213	17.0354
366.428	-58.82135
366.643	12.82031
366.858	-23.00407
367.073	52.86748
367.288	76.05651
367.503	-14.57544
367.718	-23.00407
367.933	17.0354
368.148	-50.3944
368.363	23.35822
368.578	8.60532
368.793	46.54368
369.008	29.68125
369.223	31.78897
369.438	21.25059
369.653	2.283
369.868	12.82031
370.083	33.89672
370.298	145.63975
370.513	36.00449
370.728	-73.56752
370.943	78.16474
371.157	-6.14641
371.372	67.62381
371.587	78.16474
371.802	36.00449
372.017	12.82031
372.232	67.62381
372.446	63.4076
372.661	84.48956
372.876	-31.43231
373.091	42.32793
373.306	-16.68263
373.52	38.11228
373.735	-8.2537
373.95	-25.11117
374.165	-31.43231
374.379	-6.14641
374.594	8.60532
374.809	42.32793
375.023	19.14299
375.238	8.60532
375.453	-20.89695
375.667	31.78897
375.882	80.27299
376.097	29.68125
376.311	84.48956
376.526	63.4076
376.741	-25.11117
376.955	23.35822
377.17	-4.03909
377.384	71.84011
377.599	-29.32529
377.813	8.60532
378.028	27.57355
378.242	17.0354
378.457	8.60532
378.672	29.68125
378.886	-4.03909
379.101	-8.2537
379.315	29.68125
379.53	0.17561
379.744	76.05651
379.958	42.32793
380.173	57.08346
380.387	25.46587
380.602	31.78897
380.816	12.82031
381.031	-33.53931
381.245	33.89672
381.459	54.97546
381.674	29.68125
381.888	36.00449
382.103	50.75953
382.317	67.62381
382.531	69.73195
382.746	2.283
382.96	118.22533
383.174	90.81458
383.388	33.89672
383.603	0.17561
383.817	59.19149
384.031	21.25059
384.246	111.89944
384.46	14.92785
384.674	50.75953
384.888	-12.46822
385.103	21.25059
385.317	42.32793
385.531	92.92297
385.745	25.46587
385.959	12.82031
386.174	6.49786
386.388	23.35822
386.602	67.62381
386.816	-25.11117
387.03	25.46587
387.244	-39.86016
387.458	8.60532
387.672	76.05651
387.887	50.75953
388.101	-12.46822
388.315	46.54368
388.529	78.16474
388.743	8.60532
388.957	80.27299
389.171	42.32793
389.385	42.32793
389.599	2.283
389.813	-16.68263
390.027	19.14299
390.241	-6.14641
390.455	92.92297
390.669	29.68125
390.883	46.54368
391.097	61.29953
391.311	21.25059
391.525	44.4358
391.738	84.48956
391.952	63.4076
392.166	61.29953
392.38	12.82031
392.594	-18.7898
392.808	80.27299
393.022	50.75953
393.236	50.75953
393.449	59.19149
393.663	38.11228
393.877	-56.71465
394.091	33.89672
394.305	67.62381
394.518	80.27299
394.732	50.75953
394.946	6.49786
395.16	17.0354
395.373	38.11228
395.587	46.54368
395.801	84.48956
396.015	46.54368
396.228	10.7128
396.442	36.00449
396.656	10.7128
396.869	33.89672
397.083	65.5157
397.297	17.0354
397.51	8.60532
397.724	-18.7898
397.938	29.68125
398.151	46.54368
398.365	25.46587
398.578	101.35674
398.792	27.57355
399.005	36.00449
399.219	61.29953
399.433	88.70622
399.646	57.08346
399.86	84.48956
400.073	12.82031
400.287	31.78897
400.5	103.46523
400.714	-6.14641
400.927	-8.2537
401.141	101.35674
401.354	63.4076
401.567	54.97546
401.781	103.46523
401.994	-6.14641
402.208	48.65159
402.421	0.17561
402.635	33.89672
402.848	44.4358
403.061	8.60532
403.275	25.46587
403.488	52.86748
403.701	97.13981
403.915	52.86748
404.128	21.25059
404.341	40.22009
404.555	25.46587
404.768	69.73195
404.981	50.75953
405.195	4.39042
405.408	36.00449
405.621	97.13981
405.834	8.60532
406.048	50.75953
406.261	59.19149
406.474	2.283
406.687	76.05651
406.9	42.32793
407.114	59.19149
407.327	109.79086
407.54	42.32793
407.753	19.14299
407.966	-10.36097
408.179	67.62381
408.392	46.54368
408.605	33.89672
408.819	42.32793
409.032	76.05651
409.245	67.62381
409.458	109.79086
409.671	50.75953
409.884	61.29953
410.097	71.84011
410.31	23.35822
410.523	71.84011
410.736	50.75953
410.949	120.334
411.162	59.19149
411.375	50.75953
411.588	10.7128
411.801	122.44269
412.014	29.68125
412.227	80.27299
412.44	0.17561
412.653	65.5157
412.865	147.7487
413.078	65.5157
413.291	21.25059
413.504	57.08346
413.717	59.19149
413.93	82.38126
414.143	29.68125
414.356	76.05651
414.568	69.73195
414.781	8.60532
414.994	8.60532
415.207	59.19149
415.42	69.73195
415.632	103.46523
415.845	33.89672
416.058	0.17561
416.271	-14.57544
416.483	97.13981
416.696	17.0354
416.909	76.05651
417.121	151.96666
417.334	101.35674
417.547	78.16474
417.759	29.68125
417.972	76.05651
418.185	6.49786
418.397	101.35674
418.61	71.84011
418.823	82.38126
419.035	54.97546
419.248	88.70622
419.46	0.17561
419.673	46.54368
419.885	14.92785
420.098	25.46587
420.311	36.00449
420.523	84.48956
420.736	80.27299
420.948	122.44269
421.161	2.283
421.373	67.62381
421.586	151.96666
421.798	126.66015
422.01	38.11228
422.223	105.57375
422.435	101.35674
422.648	118.22533
422.86	42.32793
423.073	130.87769
423.285	61.29953
423.497	122.44269
423.71	95.03138
423.922	95.03138
424.134	78.16474
424.347	143.53082
424.559	143.53082
424.771	80.27299
424.984	103.46523
425.196	76.05651
425.408	80.27299
425.621	147.7487
425.833	84.48956
426.045	80.27299
426.257	101.35674
426.47	84.48956
426.682	124.55141
426.894	128.76891
427.106	101.35674
427.318	147.7487
427.531	92.92297
427.743	187.82274
427.955	154.07568
428.167	128.76891
428.379	78.16474
428.591	130.87769
428.804	109.79086
429.016	111.89944
429.228	105.57375
429.44	164.62107
429.652	135.09531
429.864	143.53082
430.076	135.09531
430.288	173.05775
430.5	194.1509
430.712	230.01389
430.924	225.79441
431.136	76.05651
431.348	162.51195
431.56	143.53082
431.772	86.59788
431.984	149.85767
432.196	181.49477
432.408	230.01389
432.62	194.1509
432.832	230.01389
433.044	194.1509
433.256	177.27622
433.468	232.12365
433.679	238.45306
433.891	206.80777
434.103	177.27622
434.315	192.04149
434.527	202.58873
434.739	194.1509
434.95	204.69824
435.162	265.88252
435.374	221.57502
435.586	126.66015
435.798	255.33235
436.009	202.58873
436.221	278.54336
436.433	297.53586
436.645	185.7134
436.856	238.45306
437.068	179.38548
437.28	270.10273
437.491	227.90414
437.703	320.75093
437.915	242.67277
438.126	341.85741
438.338	179.38548
438.55	265.88252
438.761	215.24608
438.973	409.40968
439.184	263.77245
439.396	293.31517
439.608	322.8615
439.819	204.69824
440.031	305.97745
440.242	320.75093
440.454	282.76378
440.665	303.86702
440.877	375.63139
441.088	371.40941
441.3	358.74385
441.511	322.8615
441.723	322.8615
441.934	388.29776
442.146	388.29776
442.357	419.96626
442.569	352.41131
442.78	381.9645
442.991	339.74668
443.203	354.52214
443.414	388.29776
443.626	354.52214
443.837	426.3004
444.048	405.18717
444.26	329.19331
444.471	476.97856
444.682	407.29842
444.894	409.40968
445.105	396.74233
445.316	438.9691
445.528	481.20214
445.739	464.30819
445.95	373.52039
446.161	498.09704
446.373	500.20897
446.584	460.08485
446.795	464.30819
447.006	574.1354
447.217	449.52678
447.429	498.09704
447.64	508.65683
447.851	550.89955
448.062	514.99288
448.273	455.86158
448.484	616.38649
448.695	641.73957
448.907	555.12413
449.118	481.20214
449.329	544.56279
449.54	574.1354
449.751	534.00179
449.962	557.23644
450.173	445.30366
450.384	574.1354
450.595	603.71062
450.806	618.49918
451.017	614.27381
451.228	643.8524
451.439	610.0485
451.65	607.93586
451.861	582.5852
452.072	660.75553
452.283	660.75553
452.494	823.48405
452.705	703.0166
452.915	829.82532
453.126	698.79028
453.337	734.71533
453.548	827.71155
453.759	857.30507
453.97	878.44434
454.181	776.98398
454.391	865.76068
454.602	755.84914
454.813	802.34708
455.024	954.55229
455.235	825.5978
455.445	776.98398
455.656	946.09537
455.867	963.00932
456.078	855.19119
456.288	929.18188
456.499	931.29604
456.71	1051.81447
456.921	884.78628
457.131	1066.61634
457.342	992.6098
457.553	1009.52493
457.763	939.75276
457.974	1106.79417
458.184	1115.25289
458.395	1314.04996
458.606	1187.15478
458.816	1379.61547
459.027	1360.58019
459.237	1256.94593
459.448	1360.58019
459.659	1275.98042
459.869	1335.19997
460.08	1284.44026
460.29	1457.87222
460.501	1614.38407
460.711	1525.55371
460.922	1432.4916
461.132	1614.38407
461.343	1487.48294
461.553	1557.27913
461.764	1806.83493
461.974	1563.62418
462.184	1724.3593
462.395	1701.09595
462.605	1855.4714
462.816	1648.22336
463.026	1690.52157
463.236	1787.80262
463.447	1897.7619
463.657	1821.63759
463.867	2043.64651
464.078	1980.22204
464.288	2168.36256
464.498	2176.8169
464.709	2149.33981
464.919	2045.76055
465.129	2284.59767
465.339	2257.12633
465.55	2244.44674
465.76	2140.88505
465.97	2290.93698
466.18	2265.57922
466.391	2595.11505
466.601	2419.81731
466.811	2677.45572
467.021	2474.7382
467.231	2662.67803
467.441	2559.21715
467.651	2871.61654
467.862	2721.78502
468.072	3118.36272
468.282	2869.50672
468.492	2979.19797
468.702	3152.0893
468.912	3392.2682
469.122	3002.39675
469.332	3310.12659
469.542	3219.53
469.752	3461.75174
469.962	3457.54117
470.172	3522.79687
470.382	3447.01444
470.592	3674.29
470.802	3484.90859
471.012	3571.20103
471.222	3653.25512
471.432	3859.31364
471.642	3836.19398
471.852	4037.88339
472.062	4126.06317
472.272	4224.69674
472.482	4319.08911
472.691	4488.88497
472.901	4304.40871
473.111	4350.54356
473.321	4604.0962
473.531	4698.30975
473.741	4560.11438
473.95	4926.32606
474.16	4765.27832
474.37	4943.05051
474.58	4871.96144
474.79	5160.33403
474.999	5112.30252
475.209	4936.77902
475.419	5389.87927
475.628	5479.53348
475.838	5110.21392
476.048	5642.05098
476.258	5533.72191
476.467	5850.19682
476.677	5794.0207
476.886	6029.01353
477.096	6091.35045
477.306	6143.28172
477.515	6114.20202
477.725	6269.93243
477.935	6292.7618
478.144	6371.60515
478.354	6406.86626
478.563	6850.16951
478.773	6498.09909
478.982	6732.19631
479.192	6970.13658
479.401	6930.84541
479.611	6943.25403
479.82	6986.67779
480.03	7234.62401
480.239	7300.68902
480.449	7313.0737
480.658	7680.13082
480.868	7783.11513
481.077	7746.04683
481.287	7859.28984
481.496	7851.05611
481.705	7943.66654
481.915	8229.4697
482.124	8015.66814
482.333	8313.69776
482.543	8202.75633
482.752	8533.35871
482.961	8617.47004
483.171	8566.18641
483.38	8873.71493
483.589	8892.1536
483.799	9010.9461
484.008	9060.08431
484.217	8799.94565
484.426	9238.1271
484.636	9191.07086
484.845	9616.30608
485.054	9348.57214
485.263	9606.09224
485.472	9520.28046
485.682	9675.53867
485.891	10034.74678
486.1	9977.63053
486.309	10138.75133
486.518	9918.46246
486.727	10006.19006
486.936	10167.29523
487.146	10114.28297
487.355	10729.48763
487.564	10489.24993
487.773	10591.06665
487.982	10609.39033
488.191	10786.46828
488.4	10597.17466
488.609	10776.29385
488.818	11028.53454
489.027	11172.88563
489.236	11117.99795
489.445	11311.08749
489.654	11311.08749
489.863	11493.93021
490.072	11615.78222
490.281	11910.12481
490.49	11670.60482
490.698	11583.29163
490.907	11800.52879
491.116	11875.62499
491.325	11893.8899
491.534	11873.59552
491.743	12046.07185
491.952	12338.1404
492.16	12340.16813
492.369	12492.22865
492.578	12409.1069
492.787	12595.60886
492.996	12581.42038
493.204	12605.74329
493.413	12836.76827
493.622	13118.361
493.831	12755.71542
494.039	13092.02907
494.248	13175.07324
494.457	13468.70712
494.665	13326.96375
494.874	13588.16207
495.083	13573.99011
495.291	13420.11157
495.5	13646.87272
495.709	13802.74637
495.917	13610.43197
496.126	13671.16596
496.335	13924.19416
496.543	14043.60851
496.752	13841.20593
496.96	14148.84821
497.169	14069.91901
497.377	14322.88622
497.586	14213.60821
497.794	14571.77959
498.003	14460.4885
498.211	14474.65305
498.42	14470.60604
498.628	14496.91148
498.837	14529.28709
499.045	14976.44951
499.254	14622.36523
499.462	14921.82062
499.671	15138.31166
499.879	15229.35885
500.087	15237.45194
500.296	15069.5204
500.504	15069.5204
500.713	15253.63813
500.921	15095.82295
501.129	15164.61417
501.338	15043.21781
501.546	15415.5009
501.754	15383.12818
501.962	15631.99722
502.171	15636.04396
502.379	15820.17443
502.587	15439.78053
502.795	15690.67525
503.004	15797.91645
503.212	16040.73881
503.42	16026.57365
503.628	16127.75502
503.837	16050.85683
504.045	16253.22549
504.253	16038.71521
504.461	16400.96562
504.669	16461.68373
504.877	16413.1091
505.085	16382.75054
505.294	16560.86064
505.502	16690.40574
505.71	17010.26245
505.918	16664.09114
506.126	16882.71707
506.334	16346.32085
506.542	17016.3363
506.75	17107.44704
506.958	17222.86213
507.166	17062.90332
507.374	16917.13305
507.582	17154.01693
507.79	17251.21113
507.998	17241.08642
508.206	17465.87265
508.414	17107.44704
508.622	17449.67057
508.83	17056.82928
509.037	17151.99212
509.245	17241.08642
509.453	17640.0578
509.661	17514.48007
509.869	17698.80008
510.077	17599.54749
510.285	17676.51819
510.492	17907.45937
510.7	17996.60657
510.908	17956.08427
511.116	18043.20897
511.324	17779.82852
511.531	18087.78695
511.739	18176.94816
511.947	18410.01692
512.155	18280.303
512.362	18132.36667
512.57	18049.28768
512.778	18683.68353
512.985	18464.74463
513.193	18361.3724
513.401	18359.34559
513.608	18624.88993
513.816	18671.51907
514.024	18659.35475
514.231	18462.71763
514.439	19060.85283
514.646	18862.11199
514.854	18995.9536
515.061	18892.529
515.269	18888.47335
515.477	19030.4308
515.684	19346.86484
515.892	19014.20609
516.099	18770.86633
516.307	18941.1981
516.514	19480.77095
516.722	19184.57852
516.929	19462.50996
517.136	19523.38123
517.344	19462.50996
517.551	19614.69517
517.759	19750.66717
517.966	19817.64536
518.173	19736.46026
518.381	19886.65798
518.588	19941.46558
518.796	19884.62813
519.003	19844.03197
519.21	19766.90388
519.418	19894.77743
519.625	19870.41928
519.832	20010.48692
520.039	20286.62088
520.247	20406.43847
520.454	20343.48165
520.661	20672.52625
520.868	20313.02012
521.076	20461.27512
521.283	20556.73879
521.49	20410.50034
521.697	20373.94412
521.904	20802.54934
522.112	20579.08268
522.319	20792.39067
522.526	20418.62413
522.733	21058.58176
522.94	20548.61386
523.147	21026.06609
523.354	20851.31237
523.561	21011.84081
523.768	20959.00583
523.975	21017.93734
524.183	21139.87551
524.39	21619.64002
524.597	21438.68572
524.804	21833.16542
525.011	21666.40857
525.218	21450.8839
525.425	21450.8839
525.632	21454.94999
525.838	22001.9823
526.045	21684.70988
526.252	21918.58754
526.459	22246.10095
526.666	21938.92713
526.873	21835.1992
527.08	22213.54869
527.287	22956.376
527.494	22006.0505
527.701	22341.72867
527.907	22260.34286
528.114	22520.79793
528.321	22331.55512
528.528	22465.85325
528.735	22630.69508
528.941	22716.17775
529.148	22266.4466
529.355	22388.52816
529.562	22327.48573
529.768	22789.4535
529.975	21875.87563
530.182	22758.9214
530.388	22370.21508
530.595	23072.42085
530.802	22879.01882
531.008	23394.14467
531.215	23512.26574
531.422	23355.45213
531.628	23408.40011
531.835	23642.61826
532.042	23540.77928
532.248	23540.77928
532.455	23349.34289
532.661	23775.02016
532.868	23485.78942
533.074	23595.77138
533.281	23697.61444
533.487	23607.99215
533.694	23402.29062
533.9	23954.29173
534.107	23667.06073
534.313	24119.32257
534.52	24119.32257
534.726	24304.74914
534.933	24333.27828
535.139	24579.87281
535.345	24404.60338
535.552	24557.45357
535.758	24149.88584
535.965	24223.24019
536.171	24003.18784
536.377	24522.80627
536.584	24920.27396
536.79	24630.82673
536.996	24696.05002
537.203	24714.39452
537.409	24449.43794
537.615	24643.05591
537.821	24791.85126
538.028	25295.40173
538.234	25299.47962
538.44	25217.92356
538.646	24912.11986
538.853	25205.69045
539.059	25046.66724
539.265	25252.58446
539.471	25179.18565
539.677	25285.20706
539.883	25499.30624
540.09	25737.90023
540.296	25421.82008
540.502	25713.42782
540.708	25472.79748
540.914	25848.02948
541.12	25978.56005
541.326	26017.31275
541.532	25976.52045
541.738	26023.43166
541.944	26198.84702
542.15	26280.4399
542.356	25929.61021
542.562	26178.44923
542.768	26062.1851
542.974	26341.63631
543.18	26021.39202
543.386	26568.07573
543.592	26241.68294
543.798	26798.61478
544.004	26729.24703
544.21	26704.76471
544.415	26690.48345
544.621	27102.62835
544.827	26637.43943
545.033	26610.9178
545.239	26841.46042
545.445	27312.80318
545.651	26794.53428
545.856	27243.42353
546.062	27225.05858
546.268	26912.87123
546.474	26545.63491
546.679	26702.72452
546.885	27006.72809
547.091	27008.76849
547.297	26721.08623
547.502	27151.59986
547.708	26925.11326
547.914	27388.30627
548.119	27457.68902
548.325	27516.86958
548.531	27280.15375
548.736	27696.45828
548.942	27820.95135
549.147	27571.96965
549.353	27531.1547
549.559	27914.83425
549.764	27345.45295
549.97	27671.96836
550.175	27818.91045
550.381	28023.00669
550.586	27755.64297
550.792	28390.40812
550.997	27961.77662
551.203	28600.65913
551.408	28753.76157
551.614	28702.72677
551.819	28706.80953
552.025	28815.00419
552.23	28674.14757
552.435	28455.72762
552.641	28874.20628
552.846	28849.70876
553.052	28606.78312
553.257	28541.46111
553.462	28851.75021
553.668	29039.56847
553.873	28959.94879
554.078	28898.70395
554.283	29237.60375
554.489	29515.27802
554.694	29211.06237
554.899	29147.7721
555.105	28921.16028
555.31	29119.18973
555.515	29004.86226
555.72	29274.35364
555.925	28884.41363
556.131	29482.60945
556.336	29460.14996
556.541	29294.7704
556.746	29176.35468
556.951	28847.6673
557.156	29243.72871
557.361	29460.14996
557.567	29482.60945
557.772	29852.18872
557.977	29558.15593
558.182	29545.90505
558.387	29925.70047
558.592	29817.47534
558.797	29792.97197
559.002	29807.26558
559.207	29860.35662
559.412	30199.34046
559.617	29948.16268
559.822	29631.66203
560.027	29723.5466
560.232	29962.45689
560.437	30180.961
560.642	30236.09966
560.847	29993.08751
561.051	29923.65846
561.256	29821.55925
561.461	30317.78815
561.666	29960.41485
561.871	29899.15439
562.076	30172.79238
562.281	30485.25564
562.485	29831.76904
562.69	30248.35281
562.895	29666.37372
563.1	30205.46696
563.305	29942.03661
563.509	30942.77197
563.714	30009.42395
563.919	30542.44158
564.123	30754.85536
564.328	30781.40809
564.533	30669.07117
564.737	30536.31447
564.942	30583.28929
565.147	31373.80095
565.351	31202.19841
565.556	31255.31231
565.761	31455.5204
565.965	31212.41254
566.17	31147.04276
566.374	31287.9983
566.579	31386.05871
566.784	30936.64406
566.988	31465.73551
567.193	31324.77053
567.397	30932.5588
567.602	31367.6721
567.806	30773.238
568.011	31247.14087
568.215	31410.57438
568.42	31089.84546
568.624	31030.60662
568.828	30981.5823
569.033	30607.79817
569.237	31719.08388
569.442	31774.25201
569.646	31580.14764
569.85	31743.60289
570.055	32023.54707
570.259	31913.19988
570.463	31994.938
570.668	31915.2433
570.872	31678.21944
571.076	31764.03559
571.281	32021.50355
571.485	32303.52812
571.689	32068.50496
571.893	32458.8632
572.098	32103.24581
572.302	32058.28717
572.506	32052.15653
572.71	32264.6963
572.914	32415.94039
573.119	32184.99128
573.323	32234.04015
573.527	32573.32891
573.731	32056.24362
573.935	32182.94761
574.139	32236.08388
574.343	31956.11201
574.547	32483.39096
574.751	32616.25543
574.955	32260.60879
575.159	32405.72082
575.364	32657.13879
575.568	32798.19381
575.772	32961.7508
575.976	33170.31046
576.18	32577.41711
576.383	33029.22291
576.587	33313.45637
576.791	32884.05919
576.995	33066.0271
577.199	32916.77099
577.403	32924.94904
577.607	32794.1051
577.811	33182.57956
578.015	32986.28578
578.219	33021.04432
578.422	32926.99356
578.626	33051.71426
578.83	33055.80363
579.034	32832.94831
579.238	32998.55341
579.442	33753.21086
579.645	33552.74675
579.849	33583.42804
580.053	33863.68415
580.257	33264.37619
580.46	33765.48519
580.664	34070.3371
580.868	33630.47407
581.071	33755.25657
581.275	33583.42804
581.479	33742.98234
581.682	33781.85114
581.886	33898.46483
582.09	33818.67533
582.293	33722.52556
582.497	33679.56738
582.7	33812.53789
582.904	34234.04868
583.107	33937.33853
583.311	33937.33853
583.515	34395.73759
583.718	33673.43062
583.922	34311.82008
584.125	33867.77594
584.329	34346.61435
584.532	34307.72671
584.735	34496.03794
584.939	34107.17015
585.142	34248.37458
585.346	34109.21647
585.549	33896.41888
585.753	34101.03123
585.956	34723.28528
586.159	34051.92101
586.363	34999.73865
586.566	34921.91393
586.769	34665.95676
586.973	34772.42668
587.176	34866.62137
587.379	35005.88299
587.582	35286.51944
587.786	35229.15578
587.989	35347.98476
588.192	35358.22942
588.395	35456.58451
588.599	35177.94145
588.802	35204.57253
589.005	35302.90976
589.208	35331.59357
589.411	35827.57313
589.615	35690.22545
589.818	36120.80227
590.021	35606.18883
590.224	35653.33022
590.427	35374.62113
590.63	35696.37483
590.833	35446.33864
591.036	35790.67134
591.239	35930.08755
591.442	35483.22435
591.645	35597.99061
591.848	35872.67775
592.051	35684.07613
592.254	35573.39647
592.457	35700.47444
592.66	35733.27209
592.863	36364.90968
593.066	35913.6843
593.269	36235.6657
593.472	36317.72255
593.675	36652.20741
593.878	35809.12201
594.081	36551.63897
594.284	36395.68565
594.486	36364.90968
594.689	37171.72558
594.892	36609.10474
595.095	36561.90034
595.298	35993.65359
595.5	36186.43622
595.703	36364.90968
595.906	36830.8066
596.109	36717.89321
596.311	36941.68692
596.514	36625.52446
596.717	36440.82629
596.92	37477.89966
597.122	37350.47842
597.325	37110.09939
597.528	36945.79399
597.73	37159.39983
597.933	36652.20741
598.136	36802.06309
598.338	36830.8066
598.541	37083.3967
598.743	37301.16175
598.946	37017.67208
599.148	36898.56443
599.351	36894.45768
599.554	37015.6183
599.756	36904.7246
599.959	37675.25478
600.161	37627.9653
600.363	38020.80123
600.566	37619.74146
600.768	37484.06594
600.971	37543.67683
601.173	36951.95463
601.376	37516.95391
601.578	37364.86325
601.78	37765.73319
601.983	37529.28741
602.185	37535.45426
602.388	37410.07509
602.59	37560.12234
602.792	37817.14821
602.995	37767.78969
603.197	37599.18241
603.399	38313.05163
603.601	37761.6202
603.804	37658.8058
604.006	37784.24202
604.208	37656.74971
604.41	38187.48655
604.613	38125.74484
604.815	38026.97378
605.017	37878.85284
605.219	37502.56519
605.421	37366.91825
605.623	37741.05574
605.826	38364.52197
606.028	38136.0346
606.23	38319.22778
606.432	38129.86072
606.634	38854.79736
606.836	37981.7101
607.038	37971.42346
607.24	37547.78816
607.442	38033.14641
607.644	37765.73319
607.846	37625.90933
608.048	37823.31834
608.25	37782.18545
608.452	37708.15425
608.654	38409.82036
608.856	37961.13702
609.058	37334.03906
609.26	37843.88599
609.462	38061.953
609.664	37930.27892
609.866	37876.7959
610.067	38185.42837
610.269	38380.99362
610.471	37942.62194
610.673	38634.3163
610.875	38621.95597
611.077	38615.77592
611.278	38541.62168
611.48	38941.37024
611.682	38640.49659
611.884	38710.54557
612.085	38488.07303
612.287	38992.90959
612.489	38881.59196
612.69	38475.7165
612.892	38154.55669
613.094	38671.39926
613.295	38222.47691
613.497	38500.42988
613.699	38389.22966
613.9	38607.53599
614.102	38574.57769
614.304	38597.23627
614.505	38805.33451
614.707	39048.57872
614.908	38313.05163
615.11	38541.62168
615.311	38566.33847
615.513	38259.5282
615.714	38403.64306
615.916	38574.57769
616.117	38745.574
616.319	38103.10811
616.52	38531.3234
616.722	38747.63458
616.923	38171.02135
617.124	38103.10811
617.326	37506.67621
617.527	38424.23437
617.729	38595.17636
617.93	38319.22778
618.131	38453.06369
618.333	38057.83768
618.534	38640.49659
618.735	39172.31286
618.937	38628.1361
619.138	38906.32685
619.339	38512.78705
619.54	38255.41125
619.742	38780.60509
619.943	38873.3473
620.144	38463.36029
620.345	39172.31286
620.546	38488.07303
620.748	38790.90885
620.949	38830.06527
621.15	38648.7371
621.351	38298.6409
621.552	38203.9523
621.753	38249.23589
621.954	38933.12449
622.155	38142.20855
622.356	38929.00168
622.558	38753.81637
622.759	38366.5809
622.96	38327.46278
623.161	38418.05689
623.362	38393.34773
623.563	39133.12664
623.764	38792.96963
623.965	39473.54592
624.166	39232.13016
624.366	39287.8295
624.567	38675.51977
624.768	38541.62168
624.969	37930.27892
625.17	38908.38815
625.371	38797.09122
625.572	38640.49659
625.773	38448.94511
625.973	38710.54557
626.174	38832.12622
626.375	38694.06251
626.576	38667.27879
626.777	39261.01041
626.977	38924.8789
627.178	39155.81298
627.379	38692.00217
627.58	38772.36224
627.78	38720.84777
627.981	38632.25623
628.182	39023.83603
628.382	39108.37924
628.583	39448.77907
628.784	39011.46519
628.984	39219.7535
629.185	39661.40852
629.386	38418.05689
629.586	39221.81625
629.787	38770.30155
629.987	39073.32279
630.188	39428.14113
630.388	39438.45998
630.589	39176.43793
630.79	39013.52698
630.99	38481.89472
631.191	38510.7275
631.391	38465.41963
631.591	38413.93861
631.792	39223.87901
631.992	39694.44804
632.193	39903.07118
632.393	39405.44055
632.594	39483.86587
632.794	39351.78942
632.994	39399.24969
633.195	39025.89787
633.395	38780.60509
633.595	38673.45951
633.796	38739.39232
633.996	38978.47797
634.196	39211.50258
634.397	39335.28272
634.597	38784.72656
634.797	39471.48196
634.997	38953.73915
635.198	38786.78732
635.398	38850.67525
635.598	38955.80066
635.798	38597.23627
635.998	38819.76062
636.199	39091.88174
636.399	39077.44693
636.599	39250.69581
636.799	39001.15643
636.999	38724.96872
637.199	38729.0897
637.399	38902.20427
637.599	38953.73915
637.799	38506.60842
637.999	38910.44946
638.199	39217.69075
638.399	39184.68819
638.599	39374.48716
638.799	39973.3248
638.999	39870.01487
639.199	39814.23844
639.399	39618.04814
639.599	39746.07756
639.799	38875.40845
639.999	39467.35407
640.199	39434.33241
640.399	39481.80186
640.599	38920.75615
640.799	40268.93856
640.998	39863.81711
641.198	39490.05795
641.398	39131.0643
641.598	39527.21239
641.798	39593.2728
641.997	40080.79526
642.197	40076.66125
642.397	40254.4628
642.597	40058.05872
642.796	39533.40511
642.996	39225.94179
643.196	39580.88568
643.395	39269.26226
643.595	40347.53059
643.795	39857.61945
643.994	39888.60871
644.194	39568.49893
644.394	39931.99766
644.593	39700.64324
644.793	39950.59435
644.992	40229.64847
645.192	39737.8164
645.392	40055.99182
645.591	40186.22716
645.791	40231.71627
645.99	39754.33888
646.19	39490.05795
646.389	39219.7535
646.589	39440.52377
646.788	39649.01938
646.987	39316.71345
647.187	40138.67597
647.386	39770.86202
647.586	40078.72825
647.785	40144.87797
647.984	40477.86301
648.184	40624.79866
648.383	40645.49839
648.582	39793.58243
648.782	40196.56513
648.981	39626.30691
649.18	39880.34468
649.38	40393.0385
649.579	40366.14682
649.778	40438.55177
649.977	40345.46217
650.177	39996.05653
650.376	39715.09907
650.575	39826.63254
650.774	40111.80173
650.973	39942.32905
651.173	39442.58758
651.372	39737.8164
651.571	40101.46597
651.77	40533.73328
651.969	40095.26465
652.168	40213.10645
652.367	39801.84471
652.566	40091.13048
652.765	40473.72479
652.964	40109.73456
653.163	39915.46799
653.362	40118.00332
653.561	40297.89167
653.76	40515.10895
653.959	40082.86228
654.158	40109.73456
654.357	39589.14372
654.556	39661.40852
654.755	40211.03875
654.954	39841.0928
655.153	40289.61914
655.352	40558.56713
655.551	40388.9012
655.749	41235.92473
655.948	40403.38195
656.147	40351.66745
656.346	40722.09724
656.545	40825.63402
656.743	40573.0543
656.942	40419.93206
657.141	40933.3428
657.34	40581.33292
657.538	40858.77185
657.737	41076.31261
657.936	41719.34034
658.135	41534.61023
658.333	41175.80284
658.532	41211.04549
658.731	40767.64989
658.929	40643.42837
659.128	40277.21066
659.326	40012.58951
659.525	40769.7206
659.724	40463.37945
659.922	40043.59068
660.121	39578.8212
660.319	39954.72706
660.518	39967.12546
660.716	39952.6607
660.915	40250.32697
661.113	40471.6557
661.312	40118.00332
661.51	40504.76249
661.709	40722.09724
661.907	40873.27059
662.105	40546.15001
662.304	40430.27623
662.502	40405.45068
662.701	40022.92297
662.899	39874.14676
663.097	40175.88945
663.296	40902.26975
663.494	40856.70065
663.692	40362.0098
663.891	40330.98358
664.089	40076.66125
664.287	40513.03964
664.485	40244.12331
664.684	40086.99636
664.882	39998.12312
665.08	40275.14262
665.278	39998.12312
665.476	40730.37913
665.675	40153.14746
665.873	40328.91525
666.071	40496.48553
666.269	40947.84445
666.467	40564.77585
666.665	40333.05192
666.863	40560.63669
667.061	40308.23259
667.259	40281.34677
667.457	40643.42837
667.655	40529.59446
667.853	40399.24454
668.051	40159.34969
668.249	39983.65725
668.447	39863.81711
668.645	40347.53059
668.843	40529.59446
669.041	40577.19359
669.239	40076.66125
669.437	40287.55103
669.635	39744.01225
669.833	40012.58951
670.031	39944.39536
670.229	39948.52801
670.426	39523.08396
670.624	39781.18932
670.822	39471.48196
671.02	39434.33241
671.218	39739.88167
671.415	39630.43636
671.613	39894.80685
671.811	39938.19646
672.009	39905.13729
672.206	39719.2294
672.404	39444.6514
672.602	39364.16985
672.799	39601.53109
672.997	39785.32032
673.195	39366.23329
673.392	39812.17279
673.59	39863.81711
673.788	40068.39335
673.985	39287.8295
674.183	39335.28272
674.38	39793.58243
674.578	39265.13631
674.775	39613.91882
674.973	39603.59568
675.17	40060.12562
675.368	40175.88945
675.565	40018.78955
675.763	40068.39335
675.96	40128.33951
676.158	39942.32905
676.355	39657.27877
676.553	39450.84292
676.75	39209.43988
676.947	40155.21486
677.145	39661.40852
677.342	40217.24189
677.539	39830.76399
677.737	39568.49893
677.934	39176.43793
678.131	39535.46937
678.329	39454.97065
678.526	39585.01468
678.723	40078.72825
678.92	40285.48293
679.118	39073.32279
679.315	39298.14497
679.512	39333.21943
679.709	39615.98347
679.906	38782.66582
680.104	39444.6514
680.301	39308.4607
680.498	39044.45484
680.695	38626.07605
680.892	38997.03299
681.089	38834.18719
681.286	38856.85842
681.483	38228.65193
681.68	38980.5396
681.877	39048.57872
682.075	38782.66582
682.272	38543.68136
682.469	38654.91758
682.665	38646.67696
682.862	38759.99824
683.059	38980.5396
683.256	38558.0994
683.453	38539.56201
683.65	39137.25134
683.847	38642.55671
684.044	38282.17202
684.241	38210.12709
684.438	38883.65315
684.635	38265.70368
684.831	38959.92373
685.028	38086.64566
685.225	38823.88245
685.422	37954.96525
685.619	38582.81705
685.815	38249.23589
686.012	37825.37507
686.209	37677.31094
686.405	38588.99666
686.602	38376.87566
686.799	38010.5138
686.996	37755.45078
687.192	37601.23828
687.389	37611.51775
687.586	37463.51195
687.782	38146.32457
687.979	38376.87566
688.175	38012.57127
688.372	38261.58668
688.568	38457.1823
688.765	37634.13326
688.962	37521.06505
689.158	37292.94272
689.355	37833.60207
689.551	37895.30863
689.748	37969.36615
689.944	37782.18545
690.14	37327.87442
690.337	37210.75885
690.533	37401.85449
690.73	37060.80305
690.926	37736.94295
691.123	37159.39983
691.319	37321.70985
691.515	37110.09939
691.712	37009.45701
691.908	37229.24921
692.104	37301.16175
692.301	37163.50839
692.497	37237.46733
692.693	37346.36853
692.889	36748.68577
693.086	36806.16922
693.282	37050.53349
693.478	37543.67683
693.674	37136.80328
693.87	37169.67127
694.067	37336.09395
694.263	37280.6144
694.459	36919.09857
694.655	37438.84815
694.851	36884.19093
695.047	36711.73488
695.243	37307.32611
695.439	36800.01003
695.635	36748.68577
695.831	36510.59507
696.027	36354.65133
696.224	36506.49082
696.42	36508.54294
696.615	36814.38157
696.811	36912.93826
697.007	36354.65133
697.203	36172.07828
697.399	36656.31257
697.595	36354.65133
697.791	36451.08594
697.987	36705.57661
698.183	37177.88856
698.379	36972.49057
698.575	37233.35826
698.77	36785.63881
698.966	37017.67208
699.162	37089.55875
699.358	36925.25895
699.554	36147.46533
699.749	36518.80365
699.945	36297.20743
700.141	35960.84463
700.337	35628.73436
700.532	35940.33977
700.728	36297.20743
700.924	36387.47859
701.119	36272.59008
701.315	35579.54493
701.511	35548.80307
701.706	36364.90968
701.902	36289.00155
702.097	36120.80227
702.293	36141.31223
702.489	36270.53867
702.684	36266.43588
702.88	36477.76179
703.075	35782.47118
703.271	35452.48614
703.466	35878.82859
703.662	36108.49658
703.857	36340.2899
704.053	36434.67057
704.248	36629.62946
704.443	36467.50172
704.639	35499.61854
704.834	35761.97118
705.03	35557.00079
705.225	35882.92918
705.42	35548.80307
705.616	35368.4742
705.811	35212.76687
706.006	35618.48631
706.202	35415.60181
706.397	35331.59357
706.592	35196.37826
706.787	35374.62113
706.983	35292.66577
707.178	36092.08932
707.373	35673.82736
707.568	35407.40551
707.763	34279.07356
707.959	35489.37213
708.154	35532.4079
708.349	34899.38694
708.544	35575.44595
708.739	35331.59357
708.934	35339.78913
709.129	35057.08741
709.324	35165.65045
709.519	35155.40809
709.714	34973.11366
709.909	35813.22222
710.104	34596.34801
710.299	34901.43482
710.494	35032.50893
710.689	34921.91393
710.884	34418.25316
711.079	34645.4831
711.274	35153.35963
711.469	35399.20929
711.664	35368.4742
711.859	34942.39348
712.054	34741.71301
712.249	34346.61435
712.443	33700.02348
712.638	34420.30005
712.833	33771.6224
713.028	34645.4831
713.223	34180.83981
713.417	34113.30911
713.612	34647.53044
713.807	35483.22435
714.002	35247.59368
714.196	34936.24957
714.391	34405.97188
714.586	34995.64245
714.78	34365.0353
714.975	34506.27321
715.17	34721.23777
715.364	34588.15906
715.559	34850.23902
715.754	34618.86796
715.948	34217.67645
716.143	34463.28575
716.337	34405.97188
716.532	35069.37691
716.726	34579.97018
716.921	33935.29251
717.115	33961.89098
717.31	33794.12575
717.504	33534.33832
717.699	33968.02918
717.893	33810.49208
718.088	34350.70787
718.282	34493.9909
718.476	33882.09733
718.671	34013.04357
718.865	34049.8748
719.059	33248.0165
719.254	33520.02082
719.448	33023.08896
719.642	33859.59237
719.837	33008.77651
720.031	33223.47731
720.225	33190.75902
720.419	33250.06145
720.614	33158.04146
720.808	33550.70136
721.002	33153.95181
721.196	33620.24653
721.39	33374.80895
721.585	32818.63754
721.779	32898.37052
721.973	33139.63814
722.167	32360.75536
722.361	32101.20221
722.555	32370.97469
722.749	31680.26265
722.943	32154.33635
723.137	32624.43202
723.331	32254.47753
723.525	32595.8141
723.719	32413.89647
723.913	32945.39436
724.107	32475.21501
724.301	32534.49152
724.495	33033.31222
724.689	32841.12594
724.883	31900.93943
725.077	32667.35978
725.271	32393.45741
725.465	32571.28482
725.659	32211.55927
725.853	33166.22078
726.046	33055.80363
726.24	32669.40398
726.434	32442.51154
726.628	32814.54878
726.822	32599.90235
727.015	33111.0112
727.209	31929.54726
727.403	32291.26536
727.596	32276.9589
727.79	32561.06438
727.984	32879.97026
728.177	33135.54854
728.371	32855.4369
728.565	32458.8632
728.758	32732.77554
728.952	32227.90898
729.146	32761.39572
729.339	32039.89528
729.533	32164.55461
729.726	32323.96622
729.92	32068.50496
730.113	32043.98236
730.307	32530.40343
730.5	32411.85256
730.694	32260.60879
730.887	31557.67341
731.081	31390.14464
731.274	31835.55149
731.468	31792.64168
731.661	31892.76583
731.854	32242.21508
732.048	32201.34077
732.241	32176.81659
732.435	32436.3797
732.628	32291.26536
732.821	32283.09022
733.014	32642.8295
733.208	32454.77527
733.401	32485.43496
733.594	32364.84308
733.788	32399.5891
733.981	32242.21508
734.174	31935.67756
734.367	31576.0614
734.56	32058.28717
734.754	31753.81922
734.947	32328.05387
735.14	32254.47753
735.333	32221.77782
735.526	32920.86001
735.719	32135.94361
735.912	32123.68187
736.105	31516.81171
736.298	31486.16587
736.491	31220.58387
736.684	31394.23057
736.877	31504.55333
737.07	31502.51027
737.263	31694.56513
737.456	31778.33859
737.649	31766.07887
737.842	31905.02624
738.035	32542.66775
738.228	32236.08388
738.421	32052.15653
738.614	31994.938
738.807	31890.72244
739	31600.57894
739.192	31939.76443
739.385	32503.83102
739.578	32050.11298
739.771	31518.85478
739.964	31339.07097
740.156	31610.79465
740.349	31888.67905
740.542	31878.46211
740.735	31408.5314
740.927	31571.97517
741.12	31441.21931
741.313	30775.28052
741.505	31371.758
741.698	30920.30306
741.891	30795.70581
742.083	31606.70836
742.276	31202.19841
742.468	31326.81344
742.661	31263.48377
742.854	31604.66522
743.046	31463.69249
743.239	31469.82157
743.431	31443.26232
743.624	31151.12832
743.816	31010.17972
744.009	31016.30778
744.201	31106.18743
744.393	30940.72933
744.586	31046.94825
744.778	30830.42912
744.971	30519.97556
745.163	30818.17379
745.355	30863.11024
745.548	30707.87801
745.74	30452.5784
745.932	30438.28221
746.125	30458.70536
746.317	30891.70651
746.509	30828.38656
746.702	31281.86965
746.894	30487.29798
747.086	30405.60543
747.278	30264.69041
747.471	30497.50969
747.663	30938.6867
747.855	30875.36575
748.047	30334.12608
748.239	30305.53475
748.431	30379.05578
748.623	30507.72143
748.815	30089.06514
749.008	30456.66304
749.2	30397.43629
749.392	30360.67538
749.584	29823.6012
749.776	29923.65846
749.968	29827.68512
750.16	29815.43338
750.352	29944.07863
750.544	29901.19639
750.736	29688.83439
750.928	29809.30753
751.12	29692.91817
751.311	29543.86324
751.503	29743.9657
751.695	29456.06643
751.887	29731.71423
752.079	30040.05497
752.271	29327.43742
752.463	29964.49892
752.654	29409.10615
752.846	29668.41559
753.038	29411.14789
753.23	29439.73236
753.421	29394.814
753.613	29615.32722
753.805	29654.1225
753.997	29568.36503
754.188	29664.33185
754.38	29164.10498
754.572	29292.72872
754.763	29294.7704
754.955	28735.38897
755.146	29039.56847
755.338	28672.1062
755.53	28976.2809
755.721	28929.32625
755.913	29051.81779
756.104	28796.63131
756.296	28743.55456
756.487	28768.05143
756.679	28355.70759
756.87	27859.72878
757.062	28382.24326
757.253	28467.97514
757.445	28551.6676
757.636	29049.77623
757.827	29113.06496
758.019	28778.25851
758.21	28708.85091
758.401	28404.69667
758.593	28039.33488
758.784	27896.46567
758.975	27890.34283
759.167	28327.13091
759.358	28306.71913
759.549	27688.29496
759.74	28008.71958
759.932	27702.58079
760.123	27569.92889
760.314	27910.75234
760.505	27759.7247
760.696	27608.70353
760.888	27876.05624
761.079	27488.29952
761.27	27588.29577
761.461	27818.91045
761.652	27737.2752
761.843	27780.13347
762.034	28321.00736
762.225	27871.97437
762.416	27710.74415
762.607	27447.48559
762.798	27296.47842
762.989	27541.35839
763.18	27512.78813
763.371	27127.11401
763.562	27369.94049
763.753	27182.20745
763.944	27353.61544
764.135	26949.59747
764.326	27496.46237
764.517	26900.62925
764.708	26704.76471
764.899	26011.19386
765.089	26435.47368
765.28	26168.25039
765.471	26374.275
765.662	26221.28479
765.853	26113.17744
766.043	25678.75905
766.234	26545.63491
766.425	25976.52045
766.615	26245.76259
766.806	26153.9721
766.997	26178.44923
767.187	25886.77996
767.378	26015.27312
767.569	26272.28049
767.759	26488.51369
767.95	26280.4399
768.141	26494.63377
768.331	26419.15389
768.522	26168.25039
768.712	25927.57065
768.903	25462.6019
769.093	25741.979
769.284	25275.01244
769.474	25919.41246
769.665	25917.37291
769.855	25913.29383
770.046	26039.74882
770.236	25676.71972
770.426	25662.44452
770.617	25517.65866
770.807	25366.76594
770.998	25584.95225
771.188	25795.0036
771.378	25529.89369
771.569	25635.93369
771.759	25448.32817
771.949	24714.39452
772.139	25381.03909
772.33	24800.0048
772.52	24999.77838
772.71	25256.66226
772.9	25195.49625
773.09	25393.2733
773.281	24716.43281
773.471	25077.24757
773.661	25385.11715
773.851	25277.05136
774.041	25507.46285
774.231	25485.03225
774.421	25287.24599
774.611	25201.61276
774.802	25499.30624
774.992	25142.4873
775.182	24989.58531
775.372	24588.02533
775.562	24573.75844
775.752	24461.66576
775.942	24031.71132
776.131	24094.8724
776.321	23815.76173
776.511	24247.69243
776.701	23642.61826
776.891	23999.1131
777.081	24251.76784
777.271	24351.61871
777.461	24602.29234
777.651	24624.71218
777.84	24374.03509
778.03	23848.35582
778.22	24125.43517
778.41	24518.73016
778.599	24202.86363
778.789	24339.39173
778.979	24105.05992
779.169	23544.8527
779.358	23595.77138
779.548	23552.99956
779.738	23571.33018
779.927	23331.01533
780.117	23324.9062
780.307	23390.07172
780.496	23355.45213
780.686	23575.40368
780.875	23671.13452
781.065	23995.03837
781.254	23864.65314
781.444	23864.65314
781.633	23422.6557
781.823	23571.33018
782.012	23463.38679
782.202	23485.78942
782.391	23052.06132
782.581	23015.41501
782.77	22950.26867
782.96	22978.76977
783.149	22301.03503
783.338	22443.46914
783.528	22476.028
783.717	22498.41275
783.906	22337.65924
784.096	22427.19005
784.285	22661.2239
784.474	22516.72786
784.663	22427.19005
784.853	22290.86185
785.042	22260.34286
785.231	22484.16786
785.42	22209.47973
785.61	22549.28879
785.799	22353.93704
785.988	22465.85325
786.177	22368.18032
786.366	22107.76042
786.555	22195.23847
786.744	21971.47128
786.933	21705.04503
787.122	21989.77779
787.312	21993.84594
787.501	21900.28223
787.69	21959.26711
787.879	21932.82521
788.068	21593.20654
788.257	21448.85086
788.445	21434.61969
788.634	22160.6533
788.823	22026.39173
789.012	21871.80792
789.201	22246.10095
789.39	22278.65416
789.579	22154.55015
789.768	21737.58208
789.957	21898.24832
790.145	21278.08981
790.334	21383.7957
790.523	21308.58078
790.712	21585.0733
790.9	22185.06625
791.089	21373.6312
791.278	21705.04503
791.467	21194.75248
791.655	21542.3748
791.844	21509.84378
792.033	20956.97378
792.221	21357.36821
792.41	21440.71874
792.599	21211.01289
792.787	21456.98304
792.976	21217.11061
793.164	21251.66504
793.353	21172.39484
793.541	21269.95904
793.73	21001.68003
793.918	21050.45274
794.107	20977.29455
794.295	21082.9692
794.484	20871.63101
794.672	20601.42708
794.861	20656.27456
795.049	20497.83458
795.238	19971.91557
795.426	20700.96735
795.614	20593.30179
795.803	20566.89504
795.991	20197.27491
796.179	20227.73285
796.368	20402.37662
796.556	20532.36421
796.744	20091.69471
796.932	20373.94412
797.121	19975.97564
797.309	20107.93708
797.497	20097.78557
797.685	19896.8073
797.874	20132.30114
798.062	19797.34846
798.25	19466.56793
798.438	20032.81839
798.626	19982.06578
798.814	19842.0022
799.002	20085.60389
799.19	19947.5555
799.378	19813.58595
799.566	19919.13619
799.755	19915.07635
799.943	20040.93905
800.131	19288.033
800.318	19738.4898
800.506	19375.26765
800.694	19677.60525
800.882	19600.49023
801.07	19937.40565
801.258	19521.35213
801.446	19923.19604
801.634	19588.31472
801.822	19324.5489
802.01	19117.64307
802.197	19501.06133
802.385	19651.22312
802.573	19714.13553
802.761	19819.67507
802.949	20026.72794
803.136	19598.46097
803.324	19876.50876
803.512	19555.84744
803.699	19541.64334
803.887	19829.82371
804.075	19988.15595
804.262	19460.48098
804.45	19750.66717
804.638	19365.1237
804.825	20010.48692
805.013	19689.78186
805.201	19515.26485
805.388	19186.60694
805.576	19486.85802
805.763	19324.5489
805.951	19251.51843
806.138	18941.1981
806.326	19127.78452
806.513	19194.72064
806.701	19470.62591
806.888	19561.93498
807.075	19768.93349
807.263	19582.22703
807.45	19655.28186
807.638	19511.20668
807.825	19594.40246
808.012	19393.52704
808.2	19695.87022
808.387	19971.91557
808.574	19706.01757
808.761	19961.76547
808.949	20221.64119
809.136	20059.21079
809.323	20152.60498
809.51	20071.39213
809.698	20032.81839
809.885	19598.46097
810.072	19697.89968
810.259	19649.19375
810.446	19565.99335
810.633	19421.93119
810.82	19949.58548
811.008	19943.49555
811.195	20130.27077
811.382	19706.01757
811.569	20142.453
811.756	19852.15106
811.943	20331.29692
812.13	19791.25947
812.317	20006.4267
812.504	19874.47893
812.691	19833.88319
812.878	19365.1237
813.064	19649.19375
813.251	19789.22981
813.438	20120.11903
813.625	19846.06173
813.812	19805.46717
813.999	19697.89968
814.186	19559.90579
814.372	19131.84112
814.559	19277.88993
814.746	18545.82785
814.933	18691.79325
815.12	18862.11199
815.306	19107.50172
815.493	19342.80736
815.68	19576.13937
815.866	19294.11889
816.053	19756.7559
816.24	19908.98663
816.426	19283.97576
816.613	19369.18127
816.799	19419.90229
816.986	19231.23314
817.173	19113.58651
817.359	19038.54325
817.546	19194.72064
817.732	18770.86633
817.919	19490.91609
818.105	19385.41171
818.292	19342.80736
818.478	19288.033
818.665	19957.70546
818.851	19448.3072
819.037	19411.78676
819.224	19371.21006
819.41	19269.77555
819.597	19070.99371
819.783	19107.50172
819.969	19150.09606
820.156	19365.1237
820.342	18819.52968
820.528	19200.80597
820.714	18679.6287
820.901	18643.13587
821.087	18667.46428
821.273	19089.24755
821.459	18965.53351
821.646	18945.25396
821.832	18675.57388
822.018	19048.68391
822.204	19200.80597
822.39	18914.83538
822.576	18987.84149
822.762	18770.86633
822.948	18641.10853
823.134	19107.50172
823.32	18851.97318
823.507	18813.44664
823.693	18624.88993
823.879	18405.96313
824.065	18468.79865
824.25	18444.47479
824.436	18480.96078
824.622	18578.26286
824.808	18703.95795
824.994	18430.28612
825.18	18122.23476
825.366	18448.52873
825.552	18509.33964
825.738	18872.25089
825.923	18407.99003
826.109	18440.42086
826.295	17933.79761
826.481	18197.21306
826.667	17960.13643
826.852	17982.4236
827.038	17706.90268
827.224	18033.07785
827.409	17791.98325
827.595	17749.44222
827.781	18010.78971
827.966	18081.70803
828.152	17633.98117
828.338	17542.83525
828.523	17360.56273
828.709	17670.44139
828.894	17848.70696
829.08	17674.49259
829.266	17638.03225
829.451	17621.828
829.637	17494.22676
829.822	17873.01795
830.008	17648.16001
830.193	17994.58042
830.378	17599.54749
830.564	17994.58042
830.749	17390.93973
830.935	17557.01307
831.12	17354.48741
831.305	17455.74633
831.491	17099.34808
831.676	17326.13628
831.861	16998.11482
832.047	17083.1503
832.232	16961.6725
832.417	17129.71941
832.602	16935.35358
832.788	16540.62004
832.973	16554.78844
833.158	16722.79349
833.343	16967.74616
833.528	17269.43579
833.714	17038.6073
833.899	17036.58265
834.084	16730.89052
834.269	17008.23784
834.454	16866.52157
834.639	16702.55108
834.824	16411.08518
835.009	16998.11482
835.194	16854.37505
835.379	17257.28599
835.564	16803.76553
835.749	16836.15544
835.934	16352.39242
836.119	16647.89773
836.304	16417.15694
836.489	16548.71625
836.674	16156.0865
836.859	16380.72665
837.044	15913.25478
837.228	16384.77443
837.413	16297.74887
837.598	16870.57043
837.783	16747.08469
837.968	16587.17375
838.152	16305.84413
838.337	16239.05914
838.522	16006.33782
838.707	16030.62083
838.891	15631.99722
839.076	15801.96335
839.261	15621.8804
839.445	16261.32059
839.63	15822.19789
839.815	15901.11372
839.999	15915.27829
840.184	15931.46645
840.368	16152.03913
840.553	16291.67745
840.737	16073.11661
840.922	16071.09298
841.106	15547.01647
841.291	15646.16082
841.475	15480.24673
841.66	15623.90376
841.844	15156.52109
842.029	15451.92037
842.213	15381.10488
842.397	15755.42432
842.582	15615.81031
842.766	15573.31989
842.951	15502.50323
843.135	15375.03501
843.319	15196.98651
843.504	15178.77707
843.688	15462.03691
843.872	15559.1565
844.056	15771.61174
844.241	16079.18749
844.425	15417.5242
844.609	15472.15347
844.793	15379.08159
844.977	15443.82714
845.161	14893.4944
845.346	14664.85664
845.53	14670.9268
845.714	15073.56695
845.898	14842.9116
846.082	14974.42622
846.266	14990.61251
846.45	14978.4728
846.634	14933.9604
846.818	14800.42176
847.002	14407.87672
847.186	14851.00488
847.37	14693.184
847.554	14654.73968
847.738	14654.73968
847.922	14577.84991
848.106	14701.2775
848.29	14513.09933
848.473	14598.08421
848.657	14355.2639
848.841	14209.56078
849.025	14187.29972
849.209	14114.44359
849.392	14308.72085
849.576	14148.84821
849.76	14223.72678
849.944	13999.08214
850.127	14280.38986
850.311	13711.65365
850.495	14025.39332
850.678	13727.84836
850.862	14248.01114
851.046	13976.81851
851.229	13837.15761
851.413	13843.23009
851.596	13958.60258
851.78	13808.819
851.964	14037.5368
852.147	13778.45558
852.331	13650.92163
852.514	13618.53001
852.698	13748.09148
852.881	13537.54711
853.065	13804.77059
853.248	13990.98631
853.431	13814.89161
853.615	13681.288
853.798	13644.84827
853.982	13272.28597
854.165	13452.50885
854.348	13322.91365
854.532	13185.20004
854.715	13290.51224
854.898	13191.27607
855.081	12832.71584
855.265	13057.5938
855.448	12857.03009
855.631	13015.05415
855.814	12802.3219
855.997	13049.49117
856.181	12698.97302
856.364	13059.61944
856.547	12952.2535
856.73	13237.85762
856.913	12903.63024
857.096	12814.47963
857.279	12658.43992
857.462	12453.71019
857.645	12415.18936
857.828	12459.79221
858.011	12433.43636
858.194	12534.79896
858.377	12248.9133
858.56	12350.30668
858.743	12780.03222
858.926	13059.61944
859.109	12755.71542
859.292	13164.94632
859.475	12901.60421
859.658	13100.13129
859.841	12934.02013
860.023	12626.01171
860.206	12380.7213
860.389	12583.44733
860.572	12173.87067
860.755	12362.47271
860.937	12342.19585
861.12	12561.15061
861.303	12090.70345
861.486	12283.38903
861.668	11958.8264
861.851	12137.35979
862.034	11879.68392
862.216	12192.1252
862.399	11688.87756
862.581	11776.17077
862.764	11968.97198
862.947	12003.46544
863.129	11721.36065
863.312	11556.89128
863.494	11530.48935
863.677	11445.17989
863.859	11426.89708
864.042	11437.05429
864.224	11386.2658
864.406	11258.25123
864.589	11087.50142
864.771	11459.3993
864.954	10937.01582
865.136	11453.30532
865.318	10991.92977
865.501	11323.27949
865.683	11083.43503
865.865	11042.76877
866.048	10782.39854
866.23	10947.18569
866.412	10859.71553
866.594	10926.84567
866.777	10819.02448
866.959	11221.66822
867.141	10682.67508
867.323	10869.88757
867.505	10739.66344
867.687	10898.36774
867.869	10768.15409
868.052	11034.63499
868.234	10841.40513
868.416	10922.77753
868.598	10641.9633
868.78	10922.77753
868.962	10566.63351
869.144	11093.60092
869.326	10776.29385
869.508	10896.33352
869.69	10611.42624
869.872	10961.42303
870.054	10768.15409
870.236	10745.76877
870.417	10595.13867
870.599	10707.09982
870.781	10548.30747
870.963	10570.70582
871.145	10206.02905
871.327	10301.82311
871.508	10448.51435
871.69	10358.87781
871.872	10248.83435
872.054	10375.17725
872.235	10391.47585
872.417	10652.1417
872.599	10411.84791
872.78	10723.38201
872.962	10678.60412
873.144	10607.35442
873.325	10328.31409
873.507	10589.03062
873.689	10472.95632
873.87	10648.07037
874.052	10409.81076
874.233	10603.28255
874.415	10424.07052
874.596	10399.62483
874.778	10053.1032
874.959	10554.41626
875.141	10279.4059
875.322	10464.8092
875.503	10203.99055
875.685	10342.57753
875.866	10128.55643
876.048	10462.77239
876.229	10061.26123
876.41	10091.85186
876.592	10136.71238
876.773	10360.91529
876.954	10008.22992
877.136	10627.71301
877.317	10401.66204
877.498	10721.34678
877.679	10360.91529
877.86	10672.49759
878.042	10623.64139
878.223	10489.24993
878.404	10338.50233
878.585	10597.17466
878.766	10456.66188
878.947	10747.80386
879.128	10297.74738
879.309	10456.66188
879.49	10283.48188
879.672	10548.30747
879.853	10354.80282
880.034	10020.46877
880.215	9989.87067
880.396	10081.65534
880.576	10124.47836
880.757	10197.87497
880.938	9975.59045
881.119	10393.51311
881.3	9924.58386
881.481	10246.79614
881.662	9959.26933
881.843	10417.95928
882.023	10195.83642
882.204	10436.29267
882.385	10122.43931
882.566	10326.2764
882.747	10138.75133
882.927	9934.78591
883.108	9614.26334
883.289	10010.26976
883.469	10014.34941
883.65	10069.41904
883.831	9787.84085
884.011	10114.28297
884.192	9930.70513
884.373	10342.57753
884.553	10387.40128
884.734	10314.05
884.914	10434.25568
885.095	10597.17466
885.275	10485.1766
885.456	10517.7618
885.636	10273.29183
885.817	10552.38001
885.997	10087.77329
886.178	10322.20099
886.358	10238.64316
886.538	10477.0298
886.719	10354.80282
886.899	10525.90759
887.08	10696.92306
887.26	10898.36774
887.44	10499.43303
887.621	10723.38201
887.801	10130.59544
887.981	10629.7488
888.161	10383.32665
888.342	10586.99459
888.522	10263.10145
888.702	10122.43931
888.882	10322.20099
889.062	10456.66188
889.242	10256.98706
889.423	10301.82311
889.603	10348.69024
889.783	10263.10145
889.963	10124.47836
890.143	10312.01222
890.323	10379.25198
890.503	10609.39033
890.683	10203.99055
890.863	10409.81076
891.043	10305.89879
891.223	10464.8092
891.403	10206.02905
891.583	10452.58814
891.763	10179.5275
891.943	10509.6158
892.122	10224.37491
892.302	10707.09982
892.482	10183.60481
892.662	10501.46961
892.842	10206.02905
893.022	10309.97442
893.201	10214.1829
893.381	10199.91351
893.561	9747.00903
893.741	10246.79614
893.92	10036.78644
894.1	10399.62483
894.28	10130.59544
894.459	10252.91073
894.639	10309.97442
894.819	10316.08777
894.998	10146.90701
895.178	10246.79614
895.357	10020.46877
895.537	10250.87255
895.716	10097.9696
895.896	10157.10129
896.075	9920.50294
896.255	10038.82609
896.434	10032.70711
896.614	10367.02764
896.793	10112.24384
896.973	10234.56658
897.152	10051.06365
897.331	10244.75791
897.511	9773.5504
897.69	9893.97553
897.87	9665.32709
898.049	9640.8177
898.228	9749.05076
898.407	9959.26933
898.587	9944.98759
898.766	10008.22992
898.945	9904.17867
899.124	9779.67497
899.304	9800.08922
899.483	9991.91065
899.662	9555.01715
899.841	9995.99055
900.02	9448.7492
900.199	9514.14997
900.378	9585.66338
900.557	9659.19995
900.737	9362.88555
900.916	9593.83511
901.095	9342.43757
901.274	9642.86024
901.453	9373.10893
901.632	9528.45421
901.811	9510.06291
901.989	9689.83425
902.168	9583.62041
902.347	9755.17588
902.526	9334.25792
902.705	9364.93026
902.884	9297.44621
903.063	9479.40786
903.242	9098.97829
903.42	9313.80763
903.599	8953.60543
903.778	9109.21251
903.957	8998.65997
904.135	9518.23698
904.314	9195.16307
904.493	9399.68778
904.672	9446.70516
904.85	9270.85662
905.029	9297.44621
905.207	9526.4108
905.386	9096.93139
905.565	9045.75336
905.743	8920.83311
905.922	8801.99511
906.1	8670.79264
906.279	9195.16307
906.457	8789.69806
906.636	9060.08431
906.814	8350.66553
906.993	8518.99507
907.171	8420.47638
907.35	8922.88152
907.528	8611.31663
907.707	8871.6661
907.885	8701.54997
908.063	8945.41278
908.242	8619.52115
908.42	8826.58725
908.598	8391.73345
908.777	8722.05255
908.955	8362.98672
909.133	8494.36952
909.311	8389.68023
909.49	8299.31969
909.668	7772.81906
909.846	8132.87469
910.024	8225.36017
910.202	8286.99488
910.38	8077.36397
910.559	8108.20507
910.737	8208.92125
910.915	8406.10539
911.093	8268.50632
911.271	8291.10323
911.449	7816.05904
911.627	7956.01145
911.805	7405.93372
911.983	7513.18382
912.161	7727.51013
912.339	7886.04718
912.517	7820.17665
912.695	7976.58466
912.872	8003.32678
913.05	7976.58466
913.228	7787.23341
913.406	8077.36397
913.584	7581.21617
913.762	7766.64117
913.939	7566.78701
914.117	7814.0002
914.295	7474.00306
914.473	7704.85185
914.65	7315.13774
914.828	7597.70535
915.006	7170.60196
915.184	7537.92556
915.361	7294.49638
915.539	7566.78701
915.716	7344.03196
915.894	7211.90894
916.072	6945.32205
916.249	6920.50427
916.427	6988.74534
916.604	6897.75178
916.782	6837.75477
916.959	6825.33921
917.137	6754.96885
917.314	6961.86543
917.492	6773.59887
917.669	6738.40728
917.847	6442.12064
918.024	6357.08391
918.201	6286.53589
918.379	6556.13295
918.556	6352.93477
918.733	6651.43495
918.911	6263.70574
919.088	6549.91591
919.265	6276.1589
919.442	6213.88468
919.62	6381.97676
919.797	6622.43516
919.974	6514.68205
920.151	6585.14308
920.328	6452.4883
920.506	6386.12524
920.683	6259.5545
920.86	6284.46054
921.037	6033.16998
921.214	5866.83829
921.391	6051.87286
921.568	6296.91229
921.745	5864.75819
921.922	6070.57383
922.099	5935.4684
922.276	6045.63878
922.453	5746.1534
922.63	5854.35732
922.807	5573.31108
922.984	5587.89441
923.161	5391.96474
923.338	5748.23485
923.514	5396.13562
923.691	5646.21621
923.868	5310.61383
924.045	5412.8182
924.222	5225.05267
924.399	5225.05267
924.575	5062.16959
924.752	5433.66932
924.929	5066.34785
925.105	5266.79473
925.282	5200.00295
925.459	5454.51808
925.635	5245.92487
925.812	5435.7543
925.989	5026.6507
926.165	5456.60282
926.342	5177.03776
926.518	5427.41423
926.695	4936.77902
926.871	5108.12529
927.048	4949.32181
927.224	5310.61383
927.401	4802.93794
927.577	5003.66432
927.754	4815.48952
927.93	4930.50731
928.107	4752.72347
928.283	4913.78175
928.459	4775.74006
928.636	4951.41219
928.812	4819.67319
928.988	4786.20124
929.165	4111.36909
929.341	4405.05305
929.517	4333.76846
929.693	4465.83469
929.87	4178.53364
930.046	4620.84859
930.222	4275.04474
930.398	4373.60706
930.574	4113.46831
930.751	4277.1423
930.927	3863.51695
931.103	4121.86497
931.279	3855.11024
931.455	4157.54703
931.631	3863.51695
931.807	4063.08135
931.983	3802.56113
932.159	4128.16224
932.335	3787.84516
932.511	4105.07132
932.687	3817.27612
932.863	3903.44445
933.039	3710.04492
933.215	3667.97974
933.391	3398.58569
933.566	3575.40962
933.742	3371.20878
933.918	3701.6325
934.094	3402.79726
934.27	3558.5748
934.445	3069.8736
934.621	3484.90859
934.797	2818.86687
934.973	3008.72338
935.148	2812.53633
935.324	2911.70034
935.5	2884.27514
935.675	3002.39675
935.851	2605.6726
936.027	2620.45265
936.202	2362.77652
936.378	2519.09193
936.553	2400.80455
936.729	2288.82389
936.904	2096.4955
937.08	2193.72518
937.255	1853.35683
937.431	2030.96209
937.606	1622.84394
937.782	2020.39156
937.957	1667.25769
938.133	1844.89847
938.308	1534.01385
938.483	1538.24391
938.659	1267.52062
938.834	1544.58899
939.009	1263.29074
939.185	1379.61547
939.36	1326.73995
939.535	1233.68184
939.71	1142.74422
939.886	1127.9411
940.061	1058.1581
940.236	1151.20324
940.411	979.92372
940.586	996.83854
940.761	920.72532
940.937	958.78079
941.112	838.28047
941.287	895.35635
941.462	895.35635
941.637	872.10247
941.812	819.25658
941.987	779.09752
942.162	692.4509
942.337	772.75693
942.512	683.99855
942.687	821.37031
942.862	607.93586
943.037	675.54638
943.212	595.2603
943.386	757.96258
943.561	557.23644
943.736	607.93586
943.911	578.36028
944.086	683.99855
944.26	582.5852
944.435	688.2247
944.61	700.90343
944.785	760.07603
944.959	692.4509
945.134	683.99855
945.309	595.2603
945.483	705.12977
945.658	534.00179
945.833	586.81018
946.007	591.03522
946.182	635.40113
946.357	550.89955
946.531	542.45056
946.706	514.99288
946.88	601.59802
947.055	489.64947
947.229	658.64259
947.404	567.79819
947.578	544.56279
947.752	597.37286
947.927	603.71062
948.101	595.2603
948.276	707.24295
948.45	626.95005
948.624	717.80903
948.799	709.35615
948.973	667.09439
949.147	597.37286
949.321	700.90343
949.496	614.27381
949.67	683.99855
949.844	536.11396
950.018	525.55324
950.193	603.71062
950.367	536.11396
950.541	574.1354
950.715	643.8524
950.889	620.61188
951.063	635.40113
951.237	658.64259
951.411	705.12977
951.585	582.5852
951.759	591.03522
951.933	612.16115
952.107	669.20737
952.281	694.56402
952.455	747.39549
952.629	675.54638
952.803	776.98398
952.977	624.83732
953.151	817.14286
953.325	770.64342
953.499	781.21107
953.672	645.96525
953.846	863.64677
954.02	713.58257
954.194	855.19119
954.368	660.75553
954.541	971.46647
954.715	772.75693
954.889	846.73576
955.062	690.3378
955.236	880.55831
955.41	804.46074
955.583	895.35635
955.757	692.4509
955.93	895.35635
956.104	726.26209
956.278	787.55177
956.451	690.3378
956.625	730.48869
956.798	658.64259
956.972	764.30296
957.145	591.03522
957.319	774.87045
957.492	660.75553
957.665	762.18949
957.839	593.14775
958.012	722.03554
958.185	555.12413
958.359	760.07603
958.532	595.2603
958.705	882.67229
958.879	671.32036
959.052	821.37031
959.225	726.26209
959.398	717.80903
959.572	620.61188
959.745	743.16873
959.918	643.8524
960.091	700.90343
960.264	641.73957
960.438	774.87045
960.611	599.48543
960.784	757.96258
960.957	633.28834
961.13	591.03522
961.303	696.67715
961.476	705.12977
961.649	650.19098
961.822	762.18949
961.995	667.09439
962.168	696.67715
962.341	622.72459
962.514	658.64259
962.686	582.5852
962.859	618.49918
963.032	624.83732
963.205	700.90343
963.378	548.78728
963.551	584.69769
963.723	601.59802
963.896	734.71533
964.069	569.91058
964.242	700.90343
964.414	622.72459
964.587	607.93586
964.76	548.78728
964.932	514.99288
965.105	536.11396
965.278	489.64947
965.45	457.97321
965.623	563.57345
965.795	495.98513
965.968	639.62674
966.14	438.9691
966.313	508.65683
966.485	422.07762
966.658	553.01184
966.83	531.88963
967.003	574.1354
967.175	468.53159
967.348	601.59802
967.52	485.42577
967.692	546.67503
967.865	462.19651
968.037	544.56279
968.209	426.3004
968.382	485.42577
968.554	441.0806
968.726	500.20897
968.898	508.65683
969.071	540.33835
969.243	434.74613
969.415	525.55324
969.587	493.87323
969.759	553.01184
969.932	447.41521
970.104	434.74613
970.276	413.63227
970.448	514.99288
970.62	394.63116
970.792	432.63468
970.964	400.96472
971.136	510.76883
971.308	430.52323
971.48	472.75504
971.652	362.96564
971.824	371.40941
971.996	305.97745
972.168	413.63227
972.339	327.08269
972.511	356.63299
972.683	422.07762
972.855	354.52214
973.027	337.63597
973.199	379.85345
973.37	373.52039
973.542	388.29776
973.714	341.85741
973.886	354.52214
974.057	422.07762
974.229	460.08485
974.401	320.75093
974.572	362.96564
974.744	259.55236
974.915	356.63299
975.087	384.07557
975.259	297.53586
975.43	362.96564
975.602	259.55236
975.773	278.54336
975.945	316.52984
976.116	249.00247
976.288	337.63597
976.459	227.90414
976.63	337.63597
976.802	227.90414
976.973	314.41933
977.145	274.323
977.316	322.8615
977.487	198.36978
977.659	286.98428
977.83	211.02688
978.001	297.53586
978.172	227.90414
978.344	295.42551
978.515	265.88252
978.686	282.76378
978.857	333.4146
979.028	365.07655
979.2	242.67277
979.371	322.8615
979.542	272.21286
979.713	303.86702
979.884	213.13647
980.055	204.69824
980.226	284.87402
980.397	227.90414
980.568	202.58873
980.739	312.30883
980.91	274.323
981.081	320.75093
981.252	270.10273
981.423	227.90414
981.594	217.35571
981.765	255.33235
981.936	227.90414
982.106	257.44235
982.277	170.94855
982.448	187.82274
982.619	217.35571
982.79	253.22237
982.96	257.44235
983.131	282.76378
983.302	234.23344
983.472	215.24608
983.643	211.02688
983.814	280.65356
983.984	170.94855
984.155	192.04149
984.326	177.27622
984.496	289.09456
984.667	185.7134
984.837	202.58873
985.008	227.90414
985.178	151.96666
985.349	139.31302
985.519	156.18471
985.69	120.334
985.86	101.35674
986.031	86.59788
986.201	183.60407
986.371	143.53082
986.542	213.13647
986.712	122.44269
986.882	187.82274
987.053	156.18471
987.223	211.02688
987.393	147.7487
987.563	151.96666
987.734	135.09531
987.904	162.51195
988.074	156.18471
988.244	147.7487
988.414	137.20416
988.585	204.69824
988.755	162.51195
988.925	116.11668
989.095	215.24608
989.265	147.7487
989.435	145.63975
989.605	179.38548
989.775	160.40285
989.945	166.73021
990.115	162.51195
990.285	78.16474
990.455	126.66015
990.625	130.87769
990.795	76.05651
990.965	78.16474
991.134	160.40285
991.304	164.62107
991.474	194.1509
991.644	65.5157
991.814	95.03138
991.984	124.55141
992.153	97.13981
992.323	67.62381
992.493	147.7487
992.662	185.7134
992.832	59.19149
993.002	143.53082
993.171	126.66015
993.341	109.79086
993.511	109.79086
993.68	156.18471
993.85	92.92297
994.019	99.24826
994.189	196.26033
994.358	126.66015
994.528	63.4076
994.697	101.35674
994.867	164.62107
995.036	128.76891
995.206	42.32793
995.375	103.46523
995.544	130.87769
995.714	97.13981
995.883	183.60407
996.052	143.53082
996.222	78.16474
996.391	38.11228
996.56	120.334
996.73	38.11228
996.899	103.46523
997.068	109.79086
997.237	126.66015
997.406	52.86748
997.576	103.46523
997.745	105.57375
997.914	78.16474
998.083	95.03138
998.252	103.46523
998.421	88.70622
998.59	103.46523
998.759	160.40285
998.928	145.63975
999.097	82.38126
999.266	71.84011
999.435	76.05651
999.604	137.20416
999.773	50.75953
999.942	46.54368
1000.111	-1.93175
1000.28	103.46523
1000.448	80.27299
1000.617	76.05651
1000.786	69.73195
1000.955	130.87769
1001.124	84.48956
1001.292	111.89944
1001.461	50.75953
1001.63	46.54368
1001.798	71.84011
1001.967	69.73195
1002.136	10.7128
1002.304	114.00805
1002.473	88.70622
1002.642	78.16474
1002.81	10.7128
1002.979	33.89672
1003.147	111.89944
1003.316	67.62381
1003.484	86.59788
1003.653	25.46587
1003.821	71.84011
1003.99	21.25059
1004.158	137.20416
1004.327	78.16474
1004.495	46.54368
1004.663	54.97546
1004.832	92.92297
1005	67.62381
1005.168	63.4076
1005.337	44.4358
1005.505	33.89672
1005.673	139.31302
1005.842	78.16474
1006.01	54.97546
1006.178	97.13981
1006.346	143.53082
1006.514	50.75953
1006.683	111.89944
1006.851	46.54368
1007.019	52.86748
1007.187	-10.36097
1007.355	105.57375
1007.523	48.65159
1007.691	40.22009
1007.859	52.86748
1008.027	78.16474
1008.195	25.46587
1008.363	10.7128
1008.531	52.86748
1008.699	80.27299
1008.867	97.13981
1009.035	29.68125
1009.203	46.54368
1009.37	50.75953
1009.538	97.13981
1009.706	42.32793
1009.874	50.75953
1010.042	36.00449
1010.209	67.62381
1010.377	33.89672
1010.545	50.75953
1010.713	12.82031
1010.88	-31.43231
1011.048	132.98649
1011.216	71.84011
1011.383	76.05651
1011.551	-8.2537
1011.718	63.4076
1011.886	-16.68263
1012.054	0.17561
1012.221	63.4076
1012.389	44.4358
1012.556	54.97546
1012.724	61.29953
1012.891	57.08346
1013.058	92.92297
1013.226	86.59788
1013.393	38.11228
1013.561	109.79086
1013.728	8.60532
1013.895	10.7128
1014.063	92.92297
1014.23	2.283
1014.397	78.16474
1014.565	84.48956
1014.732	-37.75323
1014.899	10.7128
1015.066	36.00449
1015.233	33.89672
1015.401	2.283
1015.568	76.05651
1015.735	107.68229
1015.902	109.79086
1016.069	17.0354
1016.236	76.05651
1016.403	84.48956
1016.57	2.283
1016.737	135.09531
1016.904	54.97546
1017.071	82.38126
1017.238	46.54368
1017.405	29.68125
1017.572	-6.14641
1017.739	69.73195
1017.906	0.17561
1018.073	52.86748
1018.24	27.57355
1018.407	40.22009
1018.573	-8.2537
1018.74	36.00449
1018.907	-14.57544
1019.074	52.86748
1019.241	23.35822
1019.407	46.54368
1019.574	48.65159
1019.741	48.65159
1019.907	36.00449
1020.074	36.00449
1020.241	-4.03909
1020.407	-10.36097
1020.574	31.78897
1020.74	8.60532
1020.907	38.11228
1021.073	59.19149
1021.24	73.9483
1021.406	33.89672
1021.573	71.84011
1021.739	78.16474
1021.906	19.14299
1022.072	29.68125
1022.239	118.22533
1022.405	50.75953
1022.571	0.17561
1022.738	2.283
1022.904	59.19149
1023.07	109.79086
1023.237	8.60532
1023.403	92.92297
1023.569	27.57355
1023.735	42.32793
1023.902	84.48956
1024.068	50.75953
1024.234	21.25059
1024.4	54.97546
1024.566	76.05651
1024.732	36.00449
1024.898	42.32793
1025.065	57.08346
1025.231	78.16474
1025.397	33.89672
1025.563	52.86748
1025.729	65.5157
1025.895	12.82031
1026.061	-23.00407
1026.227	-20.89695
1026.392	65.5157
1026.558	42.32793
1026.724	42.32793
1026.89	2.283
1027.056	33.89672
1027.222	-4.03909
1027.388	0.17561
1027.553	84.48956
1027.719	-6.14641
1027.885	8.60532
1028.051	88.70622
1028.216	10.7128
1028.382	8.60532
1028.548	14.92785
1028.713	69.73195
1028.879	6.49786
1029.045	10.7128
1029.21	25.46587
1029.376	27.57355
1029.541	33.89672
1029.707	33.89672
1029.873	67.62381
1030.038	10.7128
1030.204	21.25059
1030.369	27.57355
1030.534	46.54368
1030.7	25.46587
1030.865	88.70622
1031.031	-20.89695
1031.196	2.283
1031.361	19.14299
1031.527	67.62381
1031.692	59.19149
1031.857	10.7128
1032.023	-14.57544
1032.188	52.86748
1032.353	-4.03909
1032.518	67.62381
1032.684	78.16474
1032.849	71.84011
1033.014	8.60532
1033.179	52.86748
1033.344	59.19149
1033.509	19.14299
1033.674	109.79086
1033.839	36.00449
1034.004	21.25059
1034.17	19.14299
1034.335	44.4358
1034.5	-14.57544
1034.664	17.0354
1034.829	-10.36097
1034.994	44.4358
1035.159	76.05651
1035.324	14.92785
1035.489	-16.68263
1035.654	36.00449
1035.819	23.35822
1035.984	92.92297
1036.148	27.57355
1036.313	33.89672
1036.478	48.65159
1036.643	59.19149
1036.807	46.54368
1036.972	25.46587
1037.137	25.46587
1037.301	0.17561
1037.466	40.22009
1037.631	67.62381
1037.795	33.89672
1037.96	44.4358
1038.124	109.79086
1038.289	-16.68263
1038.454	6.49786
1038.618	-16.68263
1038.783	86.59788
1038.947	17.0354
1039.111	-20.89695
1039.276	86.59788
1039.44	-41.96706
1039.605	54.97546
1039.769	21.25059
1039.933	42.32793
1040.098	19.14299
1040.262	69.73195
1040.426	10.7128
1040.591	38.11228
1040.755	-79.88693
1040.919	78.16474
1041.083	-23.00407
1041.248	25.46587
1041.412	50.75953
1041.576	38.11228
1041.74	46.54368
1041.904	-33.53931
1042.068	101.35674
1042.232	25.46587
1042.397	61.29953
1042.561	50.75953
1042.725	-48.28761
1042.889	59.19149
1043.053	0.17561
1043.217	10.7128
1043.381	63.4076
1043.544	17.0354
1043.708	4.39042
1043.872	-8.2537
1044.036	27.57355
1044.2	97.13981
1044.364	8.60532
1044.528	-33.53931
1044.691	46.54368
1044.855	59.19149
1045.019	-4.03909
1045.183	33.89672
1045.346	-14.57544
1045.51	69.73195
1045.674	-41.96706
1045.837	42.32793
1046.001	21.25059
1046.165	40.22009
1046.328	-23.00407
1046.492	31.78897
1046.655	-8.2537
1046.819	31.78897
1046.983	-4.03909
1047.146	69.73195
1047.31	73.9483
1047.473	-8.2537
1047.636	10.7128
1047.8	27.57355
1047.963	50.75953
1048.127	-10.36097
1048.29	25.46587
