Data from mixed_try6.1_USB4F045381__5__00289.txt Node

Date: Thu Apr 03 20:31:31 EDT 2025
User: mmckonesweet
Spectrometer: USB4F04538
Trigger mode: 4
Integration Time (sec): 2.700000E-3
Scans to average: 1
Electric dark correction enabled: true
Nonlinearity correction enabled: true
Boxcar width: 0
XAxis mode: Wavelengths
Number of Pixels in Spectrum: 3648
>>>>>Begin Spectral Data<<<<<
345.52	49.5299
345.736	49.5299
345.952	49.5299
346.168	51.63784
346.384	-38.98228
346.6	1.05369
346.816	5.26851
347.032	22.12877
347.248	-7.37567
347.464	-17.91182
347.68	-17.91182
347.896	41.09836
348.112	34.77495
348.328	-34.76838
348.544	-1.05368
348.76	-62.1569
348.975	36.88273
349.191	-17.91182
349.407	24.2364
349.623	-20.01897
349.839	41.09836
350.055	-17.91182
350.27	49.5299
350.486	1.05369
350.702	-26.3403
350.918	24.2364
351.133	13.69845
351.349	87.47635
351.565	24.2364
351.781	13.69845
351.996	-9.48295
352.212	-1.05368
352.428	7.37596
352.644	87.47635
352.859	-34.76838
353.075	3.16109
353.291	-3.16104
353.506	-1.05368
353.722	83.25972
353.938	125.43005
354.153	76.93493
354.369	-32.6614
354.584	-45.30293
354.8	-15.80464
355.016	47.42198
355.231	66.39408
355.447	7.37596
355.662	100.12679
355.878	3.16109
356.093	7.37596
356.309	-34.76838
356.524	76.93493
356.74	-36.87534
356.955	24.2364
357.171	17.91356
357.386	-11.5902
357.602	49.5299
357.817	3.16109
358.033	112.77803
358.248	-81.11567
358.464	74.82672
358.679	-9.48295
358.895	7.37596
359.11	-22.12611
359.325	17.91356
359.541	-32.6614
359.756	-9.48295
359.972	-15.80464
360.187	-20.01897
360.402	7.37596
360.618	-7.37567
360.833	66.39408
361.048	24.2364
361.264	3.16109
361.479	32.66719
361.694	7.37596
361.909	1.05369
362.125	-17.91182
362.34	-15.80464
362.555	49.5299
362.77	55.85379
362.986	24.2364
363.201	106.45231
363.416	-9.48295
363.631	-1.05368
363.847	15.80599
364.062	85.36802
364.277	-24.23321
364.492	102.23527
364.707	51.63784
364.922	47.42198
365.138	26.34407
365.353	17.91356
365.568	1.05369
365.783	-9.48295
365.998	24.2364
366.213	34.77495
366.428	11.59093
366.643	70.61035
366.858	17.91356
367.073	41.09836
367.288	-9.48295
367.503	17.91356
367.718	-34.76838
367.933	49.5299
368.148	15.80599
368.363	-51.62336
368.578	55.85379
368.793	60.06984
369.008	-7.37567
369.223	-34.76838
369.438	1.05369
369.653	7.37596
369.868	83.25972
370.083	83.25972
370.298	68.5022
370.513	-9.48295
370.728	11.59093
370.943	93.80147
371.157	-32.6614
371.372	7.37596
371.587	28.45175
371.802	-17.91182
372.017	-9.48295
372.232	-20.01897
372.446	70.61035
372.661	-1.05368
372.876	-15.80464
373.091	-15.80464
373.306	22.12877
373.52	20.02115
373.735	15.80599
373.95	36.88273
374.165	72.71852
374.379	-1.05368
374.594	9.48343
374.809	45.31408
375.023	41.09836
375.238	30.55946
375.453	51.63784
375.667	28.45175
375.882	-7.37567
376.097	66.39408
376.311	28.45175
376.526	74.82672
376.741	62.17789
376.955	15.80599
377.17	-60.05024
377.384	55.85379
377.599	43.20621
377.813	-57.94356
378.028	-20.01897
378.242	-13.69743
378.457	-11.5902
378.672	104.34378
378.886	-9.48295
379.101	41.09836
379.315	-1.05368
379.53	36.88273
379.744	32.66719
379.958	-17.91182
380.173	17.91356
380.387	-17.91182
380.602	-38.98228
380.816	15.80599
381.031	91.69308
381.245	28.45175
381.459	20.02115
381.674	45.31408
381.888	28.45175
382.103	-66.37014
382.317	26.34407
382.531	57.9618
382.746	-41.08919
382.96	24.2364
383.174	24.2364
383.388	41.09836
383.603	7.37596
383.817	83.25972
384.031	15.80599
384.246	5.26851
384.46	-26.3403
384.674	53.7458
384.888	57.9618
385.103	102.23527
385.317	55.85379
385.531	26.34407
385.745	-9.48295
385.959	70.61035
386.174	55.85379
386.388	9.48343
386.602	47.42198
386.816	17.91356
387.03	-20.01897
387.244	74.82672
387.458	66.39408
387.672	-36.87534
387.887	41.09836
388.101	3.16109
388.315	-13.69743
388.529	26.34407
388.743	64.28597
388.957	51.63784
389.171	3.16109
389.385	17.91356
389.599	32.66719
389.813	76.93493
390.027	1.05369
390.241	91.69308
390.455	36.88273
390.669	-17.91182
390.883	28.45175
391.097	24.2364
391.311	-22.12611
391.525	66.39408
391.738	66.39408
391.952	55.85379
392.166	13.69845
392.38	64.28597
392.594	26.34407
392.808	74.82672
393.022	32.66719
393.236	32.66719
393.449	3.16109
393.663	1.05369
393.877	26.34407
394.091	24.2364
394.305	-5.26836
394.518	-1.05368
394.732	74.82672
394.946	93.80147
395.16	-7.37567
395.373	57.9618
395.587	85.36802
395.801	66.39408
396.015	43.20621
396.228	45.31408
396.442	-9.48295
396.656	45.31408
396.869	-5.26836
397.083	66.39408
397.297	-15.80464
397.51	32.66719
397.724	28.45175
397.938	108.56086
398.151	28.45175
398.365	-7.37567
398.578	57.9618
398.792	60.06984
399.005	7.37596
399.219	51.63784
399.433	74.82672
399.646	3.16109
399.86	41.09836
400.073	79.04317
400.287	72.71852
400.5	43.20621
400.714	60.06984
400.927	-1.05368
401.141	13.69845
401.354	49.5299
401.567	1.05369
401.781	68.5022
401.994	60.06984
402.208	51.63784
402.421	-9.48295
402.635	53.7458
402.848	-7.37567
403.061	49.5299
403.275	41.09836
403.488	72.71852
403.701	116.99528
403.915	43.20621
404.128	11.59093
404.341	-1.05368
404.555	-17.91182
404.768	28.45175
404.981	53.7458
405.195	49.5299
405.408	60.06984
405.621	66.39408
405.834	-1.05368
406.048	102.23527
406.261	-5.26836
406.474	85.36802
406.687	100.12679
406.9	76.93493
407.114	129.64756
407.327	-9.48295
407.54	28.45175
407.753	32.66719
407.966	76.93493
408.179	15.80599
408.392	17.91356
408.605	60.06984
408.819	100.12679
409.032	36.88273
409.245	15.80599
409.458	140.19172
409.671	34.77495
409.884	24.2364
410.097	76.93493
410.31	116.99528
410.523	49.5299
410.736	47.42198
410.949	57.9618
411.162	76.93493
411.375	89.5847
411.588	116.99528
411.801	51.63784
412.014	32.66719
412.227	91.69308
412.44	53.7458
412.653	7.37596
412.865	36.88273
413.078	68.5022
413.291	36.88273
413.504	64.28597
413.717	43.20621
413.93	85.36802
414.143	41.09836
414.356	36.88273
414.568	85.36802
414.781	83.25972
414.994	133.86516
415.207	32.66719
415.42	91.69308
415.632	66.39408
415.845	66.39408
416.058	89.5847
416.271	66.39408
416.483	83.25972
416.696	68.5022
416.909	43.20621
417.121	83.25972
417.334	34.77495
417.547	108.56086
417.759	49.5299
417.972	62.17789
418.185	53.7458
418.397	76.93493
418.61	34.77495
418.823	70.61035
419.035	125.43005
419.248	28.45175
419.46	159.17255
419.673	116.99528
419.885	68.5022
420.098	17.91356
420.311	34.77495
420.523	104.34378
420.736	142.30062
420.948	62.17789
421.161	28.45175
421.373	140.19172
421.586	140.19172
421.798	121.21262
422.01	108.56086
422.223	133.86516
422.435	150.73642
422.648	93.80147
422.86	98.01833
423.073	72.71852
423.285	-3.16104
423.497	28.45175
423.71	20.02115
423.922	133.86516
424.134	41.09836
424.347	112.77803
424.559	150.73642
424.771	123.32132
424.984	76.93493
425.196	100.12679
425.408	146.51847
425.621	119.10394
425.833	176.04582
426.045	125.43005
426.257	152.84542
426.47	-1.05368
426.682	142.30062
426.894	112.77803
427.106	161.28164
427.318	108.56086
427.531	125.43005
427.743	104.34378
427.955	169.71819
428.167	104.34378
428.379	127.53879
428.591	83.25972
428.804	176.04582
429.016	150.73642
429.228	176.04582
429.44	138.08285
429.652	176.04582
429.864	243.55189
430.076	222.45405
430.288	161.28164
430.5	142.30062
430.712	201.3582
430.924	201.3582
431.136	108.56086
431.348	152.84542
431.56	186.59229
431.772	106.45231
431.984	211.90588
432.196	135.97399
432.408	195.02983
432.62	146.51847
432.832	100.12679
433.044	230.89295
433.256	220.34438
433.468	163.39074
433.679	192.92041
433.891	230.89295
434.103	239.33216
434.315	287.86356
434.527	150.73642
434.739	180.26435
434.95	199.24872
435.162	176.04582
435.374	211.90588
435.586	209.7963
435.798	207.68674
436.009	226.67346
436.221	211.90588
436.433	251.99156
436.645	226.67346
436.856	222.45405
437.068	281.53282
437.28	249.88161
437.491	235.11252
437.703	230.89295
437.915	218.23472
438.126	292.08415
438.338	296.30482
438.55	313.1882
438.761	239.33216
438.973	300.52556
439.184	294.19448
439.396	243.55189
439.608	281.53282
439.819	372.28898
440.031	302.63595
440.242	296.30482
440.454	279.42261
440.665	306.8568
440.877	346.9584
441.088	311.07772
441.3	319.51977
441.511	378.62201
441.723	262.54158
441.934	353.29082
442.146	321.63033
442.357	387.06628
442.569	332.18339
442.78	353.29082
442.991	429.29157
443.203	363.84518
443.414	332.18339
443.626	454.6298
443.837	378.62201
444.048	363.84518
444.26	370.17801
444.471	311.07772
444.682	361.73427
444.894	431.403
445.105	357.51251
445.316	503.20089
445.528	355.40166
445.739	517.98495
445.95	378.62201
446.161	408.17811
446.373	422.95736
446.584	422.95736
446.795	425.06875
447.006	454.6298
447.217	355.40166
447.429	532.7697
447.64	395.51081
447.851	509.53683
448.062	471.52319
448.273	505.31286
448.484	425.06875
448.695	454.6298
448.907	505.31286
449.118	473.63494
449.329	479.97025
449.54	505.31286
449.751	488.41755
449.962	465.18806
450.173	513.76086
450.384	549.6674
450.595	640.50708
450.806	678.53983
451.017	560.2289
451.228	541.21844
451.439	674.31378
451.65	632.05589
451.861	676.4268
452.072	615.15409
452.283	492.64129
452.494	648.95847
452.705	623.60489
452.915	585.57789
453.126	708.12345
453.337	623.60489
453.548	665.86183
453.759	803.22777
453.97	712.34986
454.181	710.23665
454.391	722.91607
454.602	786.31885
454.813	822.25103
455.024	788.43243
455.235	684.87899
455.445	720.80281
455.656	853.9581
455.867	927.94863
456.078	847.61653
456.288	767.29705
456.499	879.32516
456.71	864.52756
456.921	828.59229
457.131	980.80469
457.342	946.9763
457.553	978.69036
457.763	1008.29152
457.974	1052.69552
458.184	946.9763
458.395	959.66174
458.606	1029.43596
458.816	1278.97661
459.027	1291.6664
459.237	1190.15079
459.448	1152.08439
459.659	1164.77305
459.869	1164.77305
460.08	1346.6563
460.29	1274.7467
460.501	1475.67391
460.711	1287.43646
460.922	1257.82715
461.132	1344.54128
461.343	1505.28458
461.553	1418.56752
461.764	1448.17823
461.974	1439.71802
462.184	1477.78896
462.395	1515.85979
462.605	1657.56431
462.816	1549.7003
463.026	1592.00049
463.236	1676.59853
463.447	1689.28789
463.657	1733.69977
463.867	2019.15832
464.078	1782.33958
464.288	1854.2379
464.498	1985.33145
464.709	1995.90253
464.919	1807.71604
465.129	1998.01672
465.339	2074.12331
465.55	2082.57904
465.76	1926.13059
465.97	2040.29926
466.18	2230.53403
466.391	2528.41966
466.601	2137.53834
466.811	2353.09293
467.021	2361.54407
467.231	2655.11302
467.441	2179.81111
467.651	2741.66097
467.862	2492.51549
468.072	2686.77942
468.282	2614.99818
468.492	2737.43963
468.702	2813.41558
468.912	2950.54848
469.122	2940.00197
469.332	2975.8586
469.542	3136.10482
469.752	3340.49398
469.962	3150.85976
470.172	3268.87039
470.382	3346.81276
470.592	3403.67466
470.802	3449.99706
471.012	3437.36453
471.222	3513.14995
471.432	3561.55605
471.642	3603.64035
471.852	3660.44225
472.062	3839.17165
472.272	4051.35767
472.482	3967.34835
472.691	4189.90051
472.901	4076.55404
473.111	4198.2941
473.321	4233.96309
473.531	4408.02269
473.741	4250.74637
473.95	4546.32441
474.16	4340.933
474.37	4799.62559
474.58	4715.92612
474.79	5056.77255
474.999	4726.39053
475.209	4772.42724
475.419	5117.34989
475.628	5182.08338
475.838	5269.75111
476.048	5102.72956
476.258	5211.31053
476.467	5528.33852
476.677	5699.14111
476.886	5780.32083
477.096	5761.59023
477.306	5957.12661
477.515	5851.0636
477.725	6002.86034
477.935	5898.90353
478.144	6042.34848
478.354	5919.69961
478.563	6422.24768
478.773	6546.63461
478.982	6413.95224
479.192	6540.41724
479.401	6530.05451
479.611	6706.14251
479.82	6869.65211
480.03	6780.67089
480.239	7016.4828
480.449	6871.72094
480.658	7282.97067
480.868	7301.54909
481.077	7448.05011
481.287	7200.3783
481.496	7691.29
481.705	7497.54682
481.915	7705.71017
482.124	7670.68796
482.333	7991.84181
482.543	8008.29769
482.752	8090.55766
482.961	8004.18384
483.171	8220.05191
483.38	8156.34242
483.589	8439.80731
483.799	8550.62805
484.008	8571.14434
484.217	8677.79884
484.426	8907.34735
484.636	8872.51978
484.845	8800.79959
485.054	9095.73736
485.263	9214.4296
485.472	8909.39587
485.682	9052.74834
485.891	9429.15982
486.1	9314.65976
486.309	9476.17184
486.518	9639.62622
486.727	9653.92369
486.936	9931.5553
487.146	9860.13246
487.355	9619.19993
487.564	9902.98832
487.773	10137.56195
487.982	10049.87391
488.191	10314.89907
488.4	10341.38894
488.609	10272.10297
488.818	10306.74789
489.027	10510.46435
489.236	10943.96526
489.445	10823.94157
489.654	10897.18111
489.863	11017.18067
490.072	10907.35209
490.281	11047.68284
490.49	11096.4812
490.698	11078.18255
490.907	11220.4826
491.116	11551.64486
491.325	11403.36527
491.534	11169.66712
491.743	11454.15172
491.952	11856.17551
492.16	11618.65888
492.369	11929.23398
492.578	11953.58444
492.787	12063.14726
492.996	11868.35267
493.204	12245.70222
493.413	12138.20498
493.622	12199.05501
493.831	12079.37685
494.039	12570.10317
494.248	12367.37285
494.457	12610.64155
494.665	12653.20422
494.874	12963.22709
495.083	12778.85017
495.291	12851.79584
495.5	12774.79742
495.709	13218.44893
495.917	12926.76043
496.126	13179.96787
496.335	13127.30692
496.543	13317.68224
496.752	13412.85579
496.96	13402.73137
497.169	13123.25595
497.377	13552.56311
497.586	13844.07349
497.794	13789.42023
498.003	13489.79826
498.211	13653.7896
498.42	13441.20366
498.628	13880.50784
498.837	13773.22626
499.045	13920.98941
499.254	14246.83065
499.462	14329.80024
499.671	14131.47733
499.879	14364.20141
500.087	14370.27215
500.296	14471.44917
500.504	14325.75301
500.713	14621.1849
500.921	14886.24422
501.129	14420.86113
501.338	14232.6648
501.546	14742.58784
501.754	14675.81665
501.962	15011.68838
502.171	14955.03637
502.379	15175.57356
502.587	15029.8979
502.795	15062.27033
503.004	14772.93808
503.212	15021.80478
503.42	15236.2717
503.628	15329.34245
503.837	15114.87543
504.045	15390.04109
504.253	15649.02727
504.461	15772.45484
504.669	15614.63002
504.877	15555.95287
505.085	15707.70551
505.294	15887.79233
505.502	15711.75231
505.71	16148.83496
505.918	15782.57202
506.126	15988.96884
506.334	15808.87681
506.542	16296.56832
506.75	15922.19198
506.958	16330.97334
507.166	16126.57455
507.374	16067.88892
507.582	16250.02119
507.79	16343.11641
507.998	16519.19897
508.206	16484.79083
508.414	16130.62188
508.622	16588.01712
508.83	16430.14382
509.037	16626.47543
509.245	16160.97709
509.453	16737.80676
509.661	16648.74114
509.869	16577.89665
510.077	16462.52705
510.285	16867.36508
510.492	16853.19414
510.7	17112.34018
510.908	16802.58466
511.116	16751.97671
511.324	16885.58504
511.531	17199.40714
511.739	17037.42626
511.947	17243.95508
512.155	17219.65603
512.362	17513.29862
512.57	17298.6295
512.778	17582.16222
512.985	17381.65779
513.193	17294.57947
513.401	17944.77205
513.608	17711.79803
513.816	17570.00955
514.024	17574.06043
514.231	17456.59018
514.439	17689.51591
514.646	17900.19957
514.854	18352.08289
515.061	17533.55223
515.269	17938.69388
515.477	17989.34622
515.684	18216.29618
515.892	17849.55109
516.099	18341.94898
516.307	18074.44714
516.514	18321.68142
516.722	18398.70012
516.929	18127.13184
517.136	18360.19009
517.344	18378.43151
517.551	18429.10374
517.759	18688.58315
517.966	18637.89858
518.173	18998.82666
518.381	19207.73652
518.588	19112.40336
518.796	18952.18276
519.003	19096.17733
519.21	18838.62391
519.418	18889.31827
519.625	18956.23867
519.832	19092.12087
520.039	19096.17733
520.247	19347.71015
520.454	19228.02134
520.661	19818.49107
520.868	19522.19759
521.076	19611.48213
521.283	19069.8106
521.49	19495.81961
521.697	19282.7924
521.904	19562.78047
522.112	19635.83386
522.319	20027.57383
522.526	19579.01409
522.733	20033.66429
522.94	19978.85153
523.147	19698.74529
523.354	19593.21873
523.561	20027.57383
523.768	20011.3328
523.975	20230.60948
524.183	19889.53361
524.39	20348.38943
524.597	20183.90756
524.804	20663.21536
525.011	20437.74915
525.218	20506.8054
525.425	20567.7414
525.632	20378.85206
525.838	20758.69851
526.045	21010.65538
526.252	20600.24214
526.459	20898.89249
526.666	20927.34005
526.873	21179.3392
527.08	21089.91295
527.287	21179.3392
527.494	20787.14207
527.701	21547.28843
527.907	21089.91295
528.114	21496.45892
528.321	21150.88454
528.528	21138.68993
528.735	21443.59886
528.941	21526.95633
529.148	21120.39829
529.355	21421.2358
529.562	21169.17673
529.768	21378.54403
529.975	21128.52787
530.182	21870.62151
530.388	21423.26878
530.595	21951.97857
530.802	21533.05591
531.008	21956.04659
531.215	22008.93215
531.422	22206.25847
531.628	22257.12146
531.835	22202.18954
532.042	22137.08853
532.248	22377.16723
532.455	22039.44422
532.661	22725.16736
532.868	22303.91745
533.074	22454.49156
533.281	22279.50191
533.487	22295.77888
533.694	22175.74179
533.9	22906.33077
534.107	22627.47264
534.313	22660.03665
534.52	22749.59229
534.726	23004.04808
534.933	22704.81363
535.139	23303.35477
535.345	23148.60236
535.552	23397.02969
535.758	23238.19359
535.965	22918.54501
536.171	23278.91894
536.377	23665.87255
536.584	23201.54187
536.79	23079.3771
536.996	23637.35639
537.203	23600.69363
537.409	23494.78452
537.615	23140.45801
537.821	23759.57263
538.028	23845.13033
538.234	23733.09153
538.44	23912.35784
538.646	23981.62581
538.853	23877.72509
539.059	23370.55566
539.265	23881.79949
539.471	24150.73483
539.677	24054.97194
539.883	24352.46781
540.09	24077.38398
540.296	24148.69725
540.502	24509.38913
540.708	23973.47647
540.914	24319.86272
541.12	24338.203
541.326	24576.64578
541.532	24594.98897
541.738	24529.76964
541.944	24890.54565
542.15	24882.39169
542.356	24641.86695
542.562	24694.86103
542.768	24489.00887
542.974	24597.02712
543.18	24303.56043
543.386	24786.58545
543.592	25061.78745
543.798	24998.58919
544.004	25035.28469
544.21	25516.46914
544.415	24996.55057
544.621	25812.16889
544.827	25420.63062
545.033	25687.76608
545.239	25112.75537
545.445	25948.8161
545.651	25510.35166
545.856	25852.95823
546.062	25820.3267
546.268	25436.94324
546.474	25540.93927
546.679	25259.5507
546.885	25408.39624
547.091	25487.92103
547.297	25412.47436
547.502	25381.88868
547.708	25487.92103
547.914	25991.64751
548.119	26116.06704
548.325	26177.25936
548.531	25769.34089
548.736	25910.06456
548.942	26169.1003
549.147	26209.8959
549.353	25928.42047
549.559	26277.21013
549.764	26287.40941
549.97	26103.82876
550.175	26417.96391
550.381	26407.7641
550.586	26193.57758
550.792	26842.31054
550.997	26693.3737
551.203	26546.48494
551.408	26787.22339
551.614	26813.7467
551.819	26809.66618
552.025	27138.16663
552.23	27123.88325
552.435	26499.56383
552.641	26964.73017
552.846	26989.21471
553.052	27032.06314
553.257	27176.93612
553.462	27532.005
553.668	27036.14398
553.873	27311.61283
554.078	27032.06314
554.283	27736.0847
554.489	27534.04574
554.694	27554.45318
554.899	27552.41243
555.105	27448.33587
555.31	27770.77944
555.515	27389.15654
555.72	27534.04574
555.925	27489.14982
556.131	28007.52899
556.336	27854.45638
556.541	28230.00581
556.746	27936.09431
556.951	27662.61462
557.156	27507.51626
557.361	28138.15599
557.567	28238.17035
557.772	27921.80754
557.977	28205.51231
558.182	28293.28143
558.387	28511.69232
558.592	28609.675
558.797	28281.03445
559.002	28134.07382
559.207	28403.50595
559.412	28189.18339
559.617	28234.08808
559.822	28029.98018
560.027	28464.74315
560.232	28381.05256
560.437	28464.74315
560.642	28246.3349
560.847	28589.26174
561.051	28276.95214
561.256	28272.86983
561.461	28764.8192
561.666	28436.16567
561.871	28523.94002
562.076	28726.03258
562.281	28795.44047
562.485	28354.51689
562.69	28476.99071
562.895	28542.31165
563.1	28883.22277
563.305	28225.92355
563.509	28817.89623
563.714	28634.17105
563.919	29089.41664
564.123	29289.49606
564.328	28779.1091
564.533	29279.28768
564.737	28883.22277
564.942	28903.63753
565.147	29379.3309
565.351	29277.24601
565.556	29465.08423
565.761	29387.4978
565.965	29297.66278
566.17	29303.78783
566.374	29581.46674
566.579	29683.55953
566.784	29391.58126
566.988	29650.88954
567.193	29575.34126
567.397	29442.62484
567.602	29834.66182
567.806	28901.59605
568.011	29791.78083
568.215	29305.82952
568.42	29736.64884
568.624	29693.76895
568.828	29579.42491
569.033	29354.83029
569.237	29975.55996
569.442	30130.75834
569.646	29744.81649
569.85	29608.01061
570.055	30453.42937
570.259	29846.91363
570.463	29832.61986
570.668	30000.06453
570.872	29814.24224
571.076	29855.08151
571.281	30216.52874
571.485	30653.5826
571.689	30406.45639
571.893	30516.74182
572.098	30102.16867
572.302	30308.42791
572.506	30230.82401
572.71	30120.54772
572.914	30790.42926
573.119	30712.81401
573.323	30543.29257
573.527	30292.0901
573.731	30641.32797
573.935	30641.32797
574.139	30394.20267
574.343	29979.64404
574.547	30269.62574
574.751	30377.86446
574.955	30475.89494
575.159	30855.791
575.364	30682.17693
575.568	30882.34461
575.772	30788.38673
575.976	30802.68448
576.18	30616.81884
576.383	31188.74986
576.587	31111.12408
576.791	30953.83626
576.995	31411.42563
577.199	31294.97817
577.403	31323.57882
577.607	31268.4207
577.811	31192.83549
578.015	31164.23622
578.219	31638.20703
578.422	31060.05566
578.626	31658.63881
578.83	31305.19266
579.034	31321.53591
579.238	31354.22272
579.442	31899.74745
579.645	31811.88288
579.849	31534.00759
580.053	31891.57385
580.257	31429.81254
580.46	31797.57967
580.664	31956.96345
580.868	31773.06009
581.071	31995.78945
581.275	31901.79085
581.479	31636.16386
581.682	31768.97352
581.886	32087.74859
582.09	31858.87978
582.293	31869.09663
582.497	32435.1874
582.7	32228.76053
582.904	32236.93543
583.107	32208.32341
583.311	31932.44212
583.515	32134.75149
583.718	31799.62298
583.922	32077.53071
584.125	32243.06664
584.329	32514.90281
584.532	32265.54787
584.735	32778.60214
584.939	32104.09731
585.142	32563.96017
585.346	32482.19864
585.549	32510.81475
585.753	32267.59163
585.956	32831.75574
586.159	32684.56525
586.363	32964.64727
586.566	32733.62732
586.769	32584.40113
586.973	32621.19545
587.176	32876.73319
587.379	33230.46412
587.582	32919.66738
587.786	32989.18229
587.989	33394.0674
588.192	32817.44499
588.395	33275.45317
588.599	33107.77367
588.802	33295.90319
589.005	32940.11263
589.208	33453.37826
589.411	33265.22826
589.615	33265.22826
589.818	33797.02394
590.021	33884.99572
590.224	33214.10481
590.427	33424.74512
590.63	33774.52053
590.833	33647.69061
591.036	33389.97709
591.239	33866.5825
591.442	33835.89442
591.645	34054.81982
591.848	33874.76612
592.051	33704.96708
592.254	34173.50674
592.457	34095.74496
592.66	33837.94027
592.863	33940.23705
593.066	34067.09721
593.269	34132.57882
593.472	34173.50674
593.675	34656.57295
593.878	34132.57882
594.081	34005.71156
594.284	34099.83755
594.486	34851.09226
594.689	34707.75847
594.892	34615.62642
595.095	34650.43086
595.298	34748.70881
595.5	34378.16895
595.703	34969.87093
595.906	34476.42062
596.109	34836.75792
596.311	34742.56615
596.514	34558.30409
596.717	35158.31008
596.92	35246.39862
597.122	34679.09425
597.325	34539.87974
597.528	34148.94981
597.73	34707.75847
597.933	34316.76626
598.136	34971.91897
598.338	34443.66904
598.541	35082.52002
598.743	35574.25042
598.946	35371.37691
599.148	35682.88043
599.351	35234.10666
599.554	35590.64645
599.756	35059.98908
599.959	35535.31119
600.161	35270.98307
600.363	35150.11625
600.566	35180.84351
600.768	35395.96498
600.971	35014.92889
601.173	35146.01936
601.376	35465.63513
601.578	35607.04282
601.78	35103.00318
601.983	35205.4261
602.185	35428.7502
602.388	35617.29072
602.59	35088.66492
602.792	35662.38306
602.995	35758.7254
603.197	35510.71895
603.399	35900.18606
603.601	35520.96563
603.804	35578.34939
604.006	35848.92915
604.208	35584.4979
604.41	35555.80528
604.613	36183.18857
604.815	36029.36918
605.017	36195.49555
605.219	35785.3754
605.421	35543.50876
605.623	36099.09654
605.826	35939.14367
606.028	35885.83377
606.23	36213.95644
606.432	36121.65684
606.634	36216.00768
606.836	35842.77855
607.038	36601.75021
607.24	35709.52782
607.442	35771.02528
607.644	35740.27594
607.846	36164.72849
608.048	35658.28365
608.25	35451.29079
608.452	35721.82692
608.654	36369.86794
608.856	36246.77699
609.058	35857.13002
609.26	36168.83069
609.462	35750.52558
609.664	36337.04153
609.866	36318.57736
610.067	36349.35124
610.269	36667.43086
610.471	36185.23972
610.673	36542.23285
610.875	37002.09777
611.077	36675.64141
611.278	35816.12655
611.48	36004.76112
611.682	36349.35124
611.884	36841.92796
612.085	36267.29062
612.287	36985.66816
612.489	36359.60951
612.69	36431.42174
612.892	36646.90494
613.094	36412.95501
613.295	36109.35114
613.497	36156.52416
613.699	36213.95644
613.9	36517.60656
614.102	36612.01237
614.304	36388.33349
614.505	36109.35114
614.707	36720.80134
614.908	36164.72849
615.11	36770.07037
615.311	36548.38957
615.513	36324.73203
615.714	36094.99474
615.916	36062.18122
616.117	36312.42275
616.319	36474.51275
616.52	35943.24459
616.722	36334.98993
616.923	36152.42204
617.124	36084.74036
617.326	36012.96371
617.527	36478.6168
617.729	36084.74036
617.93	36696.16825
618.131	36203.70033
618.333	35691.07953
618.534	35625.48913
618.735	36519.65871
618.937	36441.68125
619.138	35992.4574
619.339	35875.58231
619.54	36583.27872
619.742	36696.16825
619.943	36548.38957
620.144	36478.6168
620.345	36669.48349
620.546	36271.39342
620.748	36952.81028
620.949	36607.90748
621.15	36616.11728
621.351	36051.92729
621.552	36460.14877
621.753	35941.19413
621.954	36312.42275
622.155	36113.45301
622.356	36552.49408
622.558	36179.08629
622.759	36367.81624
622.96	36712.5902
623.161	36324.73203
623.362	36257.03373
623.563	36655.11523
623.764	36636.64222
623.965	36765.96447
624.166	36919.95418
624.366	36160.62631
624.567	36053.97807
624.768	36889.15317
624.969	36068.33364
625.17	36138.06478
625.371	36082.6895
625.572	36216.00768
625.773	36216.00768
625.973	36322.68047
626.174	36361.66119
626.375	36605.85505
626.576	36472.46074
626.777	37408.87624
626.977	36659.22041
627.178	37071.9286
627.379	36394.48878
627.58	36593.54059
627.78	36729.01258
627.981	36244.72566
628.182	37047.2815
628.382	36841.92796
628.583	36874.7799
628.784	36809.07775
628.984	36451.94092
629.185	36724.90694
629.386	36230.36652
629.586	37123.28001
629.787	37014.42027
629.987	36482.72088
630.188	36919.95418
630.388	36835.76841
630.589	36811.13084
630.79	36435.52552
630.99	36123.70781
631.191	36277.54767
631.391	36854.24723
631.591	36472.46074
631.792	36515.55441
631.992	37002.09777
632.193	37141.7676
632.393	36843.98115
632.594	37078.09053
632.794	37092.46863
632.994	37156.14724
633.195	36926.11456
633.395	36983.61449
633.595	36232.41781
633.796	36049.87653
633.996	36720.80134
634.196	36386.28174
634.397	37254.76002
634.597	36433.47363
634.797	37232.15978
634.997	36581.22637
635.198	36431.42174
635.398	35816.12655
635.598	36893.25988
635.798	36277.54767
635.998	36492.98118
636.199	36983.61449
636.399	37445.87037
636.599	36833.71524
636.799	36724.90694
636.999	36679.74673
637.199	36193.44438
637.399	36351.40289
637.599	36603.80263
637.799	36064.23202
637.999	36589.43583
638.199	36977.45353
638.399	37063.71279
638.599	36687.95744
638.799	37170.52724
638.999	37466.42372
639.199	37396.54541
639.399	37154.09299
639.599	37246.54165
639.799	36934.32851
639.999	37211.61488
640.199	37429.42824
640.399	37565.09035
640.599	36447.83704
640.799	38031.94617
640.998	37248.59623
641.198	36942.54256
641.398	37347.22476
641.598	37281.47052
641.798	37396.54541
641.997	37359.55452
642.197	37741.91258
642.397	38060.7527
642.597	37345.16982
642.796	37415.04176
642.996	37143.82181
643.196	37273.25177
643.395	37304.07269
643.595	37260.92387
643.795	37347.22476
643.994	37517.8104
644.194	37291.74413
644.394	37271.1971
644.593	37121.22586
644.793	37402.71079
644.992	37729.57426
645.192	37423.26256
645.392	37581.53651
645.591	37682.28002
645.791	37552.75606
645.99	37976.39531
646.19	37593.87145
646.389	37653.49425
646.589	37447.92567
646.788	37246.54165
646.987	36780.33523
647.187	37538.3664
647.386	37339.00506
647.586	37421.20735
647.785	37881.76685
647.984	37540.42204
648.184	37733.687
648.383	38025.77356
648.582	37624.71002
648.782	37922.90754
648.981	37464.36835
649.18	37250.65082
649.38	37341.05998
649.579	37746.02541
649.778	37974.33798
649.977	38472.4558
650.177	37783.04235
650.376	37634.98993
650.575	37709.01104
650.774	37674.05536
650.973	37384.21484
651.173	37632.93393
651.372	37345.16982
651.571	37513.69929
651.77	37396.54541
651.969	37706.95476
652.168	37756.30764
652.367	37550.70037
652.566	37556.86746
652.765	37704.89849
652.964	37554.81176
653.163	37382.15978
653.362	37840.62939
653.561	37857.08399
653.76	38200.69341
653.959	38194.51873
654.158	38071.04114
654.357	38194.51873
654.556	37774.81614
654.755	38202.75165
654.954	37158.20151
655.153	37593.87145
655.352	38124.54438
655.551	37910.56499
655.749	38666.07699
655.948	37904.39383
656.147	37869.42527
656.346	38038.11886
656.545	37643.21399
656.743	37906.45087
656.942	38068.98343
657.141	37844.74299
657.34	37881.76685
657.538	38157.47227
657.737	38604.27439
657.936	38400.38285
658.135	38357.14422
658.333	38161.58841
658.532	38505.40703
658.731	38721.7063
658.929	37807.72175
659.128	37404.76594
659.326	37630.87794
659.525	37955.82244
659.724	38124.54438
659.922	38414.79658
660.121	38003.14127
660.319	37894.10872
660.518	38200.69341
660.716	38161.58841
660.915	38225.39288
661.113	38350.96759
661.312	38036.06129
661.51	37671.99921
661.709	37709.01104
661.907	37807.72175
662.105	38295.38139
662.304	38538.36053
662.502	37892.05172
662.701	37577.42492
662.899	37285.57994
663.097	38184.22777
663.296	38128.66025
663.494	38196.57695
663.692	38163.64649
663.891	37815.94846
664.089	37929.07892
664.287	38085.4453
664.485	38056.63738
664.684	38243.91829
664.882	37805.66509
665.08	38023.71603
665.278	38007.25616
665.476	38136.89209
665.675	37692.56103
665.873	37595.9273
666.071	37554.81176
666.269	38188.34413
666.467	38175.99516
666.665	38400.38285
666.863	37452.03629
667.061	37655.55033
667.259	37824.17531
667.457	37667.88695
667.655	37758.36411
667.853	37929.07892
668.051	37752.19472
668.249	37556.86746
668.447	37550.70037
668.645	37312.29188
668.843	37497.25515
669.041	37733.687
669.239	37380.10472
669.437	37489.03327
669.635	37431.48348
669.833	37131.49664
670.031	37014.42027
670.229	37018.52782
670.426	37466.42372
670.624	37507.53268
670.822	37252.70541
671.02	37684.33621
671.218	37961.99421
671.415	37513.69929
671.613	37088.36057
671.811	37258.86924
672.009	37581.53651
672.206	37774.81614
672.404	37544.53335
672.602	37410.93141
672.799	37328.73061
672.997	37242.43251
673.195	37419.15215
673.392	37149.9845
673.59	37653.49425
673.788	36922.00763
673.985	36768.01741
674.183	37230.10526
674.38	37717.23623
674.578	37458.20229
674.775	36739.27677
674.973	36850.14078
675.17	37725.46156
675.368	37277.36113
675.565	37486.97782
675.763	37332.84037
675.96	37275.30645
676.158	37554.81176
676.355	37100.68484
676.553	36958.971
676.75	36823.4495
676.947	36751.59403
677.145	37306.12748
677.342	37534.25514
677.539	36940.48904
677.737	37170.52724
677.934	36899.42
678.131	36786.49423
678.329	37096.57672
678.526	36922.00763
678.723	37410.93141
678.92	37665.83082
679.118	37041.11988
679.315	37123.28001
679.512	37174.63587
679.709	37094.52267
679.906	36513.50226
680.104	36870.67331
680.301	36605.85505
680.498	36378.07479
680.695	36415.00684
680.892	36347.29961
681.089	36913.79385
681.286	36714.64298
681.483	35928.89147
681.68	36433.47363
681.877	36027.31847
682.075	36408.85136
682.272	35857.13002
682.469	36460.14877
682.665	36408.85136
682.862	36620.22222
683.059	36521.71088
683.256	36456.04483
683.453	37053.44318
683.65	37256.81463
683.847	36575.06934
684.044	36023.21708
684.241	36090.89297
684.438	36653.06265
684.635	36049.87653
684.831	36421.16238
685.028	36127.80977
685.225	36090.89297
685.422	36125.75879
685.619	36197.54674
685.815	36441.68125
686.012	36170.88179
686.209	35500.47241
686.405	35894.03505
686.602	35482.02896
686.799	35744.37578
686.996	35629.58837
687.192	35287.37309
687.389	35434.89757
687.586	35566.05253
687.782	35912.48824
687.979	35812.02632
688.175	35559.90417
688.372	36144.21785
688.568	35555.80528
688.765	35377.52386
688.962	34795.80384
689.158	35070.23035
689.355	35371.37691
689.551	35285.32432
689.748	35260.73946
689.944	34971.91897
690.14	35236.15531
690.337	35568.10199
690.533	34978.06312
690.73	34609.48459
690.926	35131.6804
691.123	34662.71507
691.319	35129.632
691.515	35062.03733
691.712	34457.99773
691.908	34851.09226
692.104	34697.52115
692.301	34933.00696
692.497	34451.85684
692.693	34621.76829
692.889	34030.26543
693.086	34406.82474
693.282	35049.74793
693.478	35248.4473
693.674	35549.657
693.87	35139.87406
694.067	34935.05492
694.263	34589.01208
694.459	34306.53282
694.655	34296.29947
694.851	34365.88813
695.047	34462.09168
695.243	34632.00483
695.439	34500.98498
695.635	34369.98172
695.831	34390.44991
696.027	33833.84857
696.224	33629.28085
696.42	34335.1867
696.615	33776.56628
696.811	34026.17309
697.007	33860.44482
697.203	33625.18983
697.399	33580.18943
697.595	33471.7856
697.791	34132.57882
697.987	34306.53282
698.183	34820.37608
698.379	34484.60867
698.575	34818.32837
698.77	34314.71956
698.966	34629.95751
699.162	34470.27962
699.358	34679.09425
699.554	34020.03459
699.749	34124.39342
699.945	34314.71956
700.141	33923.86899
700.337	33794.97816
700.532	33878.85795
700.728	33702.92145
700.924	33999.57317
701.119	33553.599
701.315	33023.9409
701.511	33154.80382
701.706	34032.31161
701.902	33545.41744
702.097	33420.65471
702.293	33754.06324
702.489	33684.51091
702.684	33590.41666
702.88	33878.85795
703.075	33919.77701
703.271	33541.32668
703.466	34042.54256
703.662	33727.46925
703.857	33617.00783
704.053	33672.23736
704.248	33745.88041
704.443	33938.19103
704.639	33398.15772
704.834	33214.10481
705.03	33404.29323
705.225	33739.74333
705.42	33111.86319
705.616	33676.32853
705.811	33214.10481
706.006	33289.76816
706.202	32888.99999
706.397	33028.03019
706.592	32563.96017
706.787	32615.06301
706.983	32582.35702
707.178	33308.17335
707.373	33230.46412
707.568	32950.33535
707.763	32647.7696
707.959	33504.51037
708.154	33199.79056
708.349	32856.28874
708.544	33334.75905
708.739	32872.64428
708.934	32692.74216
709.129	32874.68874
709.324	32398.39683
709.519	32917.62287
709.714	32608.93059
709.909	32737.71589
710.104	32314.59873
710.299	32766.33616
710.494	32839.93337
710.689	32829.71134
710.884	32253.28535
711.079	32504.68269
711.274	32424.96773
711.469	33158.89347
711.664	32760.20321
711.859	33034.16416
712.054	32880.82212
712.249	32576.22472
712.443	32529.21107
712.638	32412.70419
712.833	32424.96773
713.028	32799.04563
713.223	31950.83309
713.417	32083.66143
713.612	32149.05693
713.807	32539.43132
714.002	31905.87766
714.196	32010.09395
714.391	32118.40254
714.586	32216.49823
714.78	32104.09731
714.975	32183.79914
715.17	32398.39683
715.364	32839.93337
715.559	32476.06667
715.754	32308.46731
715.948	32001.91994
716.143	32380.00181
716.337	31585.08519
716.532	32118.40254
716.726	32394.30903
716.921	32314.59873
717.115	32104.09731
717.31	31938.57243
717.504	31885.44368
717.699	32478.11065
717.893	31656.59563
718.088	31973.31116
718.282	32149.05693
718.476	32275.7667
718.671	31746.49751
718.865	31619.81857
719.059	31589.17144
719.254	31333.79342
719.448	31205.09241
719.642	31401.21073
719.837	30624.98853
720.031	31013.07352
720.225	31213.26372
720.419	31358.3086
720.614	31356.26566
720.808	31466.58677
721.002	30737.32388
721.196	30868.04648
721.39	31125.4234
721.585	31098.86758
721.779	30535.12309
721.973	30962.00685
722.167	29936.76139
722.361	30208.36004
722.555	29987.81222
722.749	30192.0227
722.943	30047.03207
723.137	29969.43384
723.331	30645.41284
723.525	30449.34474
723.719	30314.55461
723.913	30659.70994
724.107	30222.65527
724.301	30306.38568
724.495	30051.11624
724.689	30298.21677
724.883	29855.08151
725.077	30091.95812
725.271	29742.77458
725.465	29916.34125
725.659	29850.99757
725.853	30051.11624
726.046	30214.48656
726.24	30347.23051
726.434	29918.38326
726.628	30627.03095
726.822	30236.95057
727.015	30637.2431
727.209	30459.55633
727.403	30639.28553
727.596	30251.24592
727.79	30049.07416
727.984	30220.61309
728.177	30526.95362
728.371	30181.8119
728.565	30112.37924
728.758	30124.63196
728.952	30275.75237
729.146	30253.28812
729.339	30457.51401
729.533	30347.23051
729.726	30192.0227
729.92	29985.77017
730.113	30004.14864
730.307	29853.03954
730.5	29936.76139
730.694	29857.12349
730.887	29757.068
731.081	29605.96877
731.274	30110.33712
731.468	29342.58004
731.661	29946.9715
731.854	30049.07416
732.048	30032.73754
732.241	30057.24249
732.435	30126.67409
732.628	30157.3061
732.821	30200.19136
733.014	30310.47014
733.208	30504.48771
733.401	30165.47468
733.594	29949.01352
733.788	30110.33712
733.981	29687.64329
734.174	29667.2245
734.367	29706.0203
734.56	29434.45783
734.754	29487.54375
734.947	29814.24224
735.14	29689.68518
735.333	30161.39039
735.526	29879.58529
735.719	29589.63407
735.912	30285.96344
736.105	30120.54772
736.298	29665.18263
736.491	29603.92692
736.684	29454.8754
736.877	29618.21984
737.07	29403.83166
737.263	29424.24908
737.456	29407.91513
737.649	29542.67219
737.842	29820.36811
738.035	29552.88124
738.228	29401.78992
738.421	29203.74651
738.614	28889.34719
738.807	29085.33349
739	29495.71087
739.192	29681.51764
739.385	29834.66182
739.578	29781.57114
739.771	29389.53953
739.964	29101.66611
740.156	29134.33155
740.349	29316.03796
740.542	29865.2914
740.735	29213.95469
740.927	29148.62277
741.12	29034.29447
741.313	29071.04249
741.505	29005.7129
741.698	28799.52333
741.891	29336.45493
742.083	29575.34126
742.276	29536.54677
742.468	29626.38724
742.661	29536.54677
742.854	29730.52311
743.046	29205.78815
743.239	29414.04036
743.431	29957.18164
743.624	29473.25131
743.816	29297.66278
744.009	29281.32936
744.201	29271.121
744.393	28862.80811
744.586	28519.85745
744.778	28462.7019
744.971	28907.72049
745.163	29073.08406
745.355	29040.41911
745.548	28519.85745
745.74	28483.1145
745.932	28674.99814
746.125	28350.43449
746.317	28162.64906
746.509	28468.82567
746.702	28832.18632
746.894	28842.39355
747.086	28691.32909
747.278	28705.61872
747.471	28342.26972
747.663	28497.40339
747.855	28752.57075
748.047	28391.25863
748.239	28574.97252
748.431	28081.00611
748.623	28289.1991
748.815	28252.45833
749.008	28693.37046
749.2	28215.71792
749.392	28091.21138
749.584	27601.39074
749.776	27799.35183
749.968	27560.57543
750.16	27813.63812
750.352	27595.26841
750.544	27668.73706
750.736	27474.86488
750.928	27719.75788
751.12	27536.08648
751.311	27409.56309
751.503	27521.80134
751.695	27758.5342
751.887	27613.63543
752.079	27958.54506
752.271	27232.03045
752.463	27311.61283
752.654	27364.66885
752.846	27391.19719
753.038	27619.75779
753.23	27276.92283
753.421	27546.29019
753.613	27483.0277
753.805	27719.75788
753.997	27438.13246
754.188	27293.24749
754.38	27350.38445
754.572	27068.79085
754.763	26538.32469
754.955	26183.37868
755.146	26595.44698
755.338	26391.44448
755.53	26709.69516
755.721	27189.17922
755.913	26785.18315
756.104	26874.95527
756.296	26903.51971
756.487	26701.53442
756.679	26556.68529
756.87	26138.50404
757.062	26022.24187
757.253	26534.24457
757.445	26683.17283
757.636	26599.52718
757.827	27003.49746
758.019	26683.17283
758.21	26475.08359
758.401	25793.81393
758.593	25881.51121
758.784	25761.18327
758.975	25934.53914
759.167	26273.13042
759.358	26111.98761
759.549	26169.1003
759.74	25832.56347
759.932	25736.7106
760.123	25720.39563
760.314	25653.09772
760.505	25867.23468
760.696	25930.46002
760.888	25924.34136
761.079	25587.84116
761.27	25775.45912
761.461	25714.27755
761.652	25157.60829
761.843	25363.5375
762.034	25746.90751
762.225	25852.95823
762.416	25365.57651
762.607	25281.97876
762.798	25624.54773
762.989	25606.19436
763.18	25330.91359
763.371	25177.99634
763.562	25147.41435
763.753	25139.25924
763.944	25836.6424
764.135	25681.64809
764.326	25808.09
764.517	25188.19044
764.708	24904.81518
764.899	24790.6622
765.089	24794.73896
765.28	24996.55057
765.471	24762.12512
765.662	24880.3532
765.853	25049.55536
766.043	24723.39699
766.234	24931.31603
766.425	24666.32555
766.615	24784.54707
766.806	25067.90353
766.997	24798.81574
767.187	24446.21117
767.378	24666.32555
767.569	24087.57138
767.759	24662.24909
767.95	24405.45251
768.141	24631.67598
768.331	24313.74934
768.522	24197.59973
768.712	23920.50684
768.903	23934.7677
769.093	23747.35052
769.284	23883.83669
769.474	24028.48542
769.665	24256.6923
769.855	23932.73043
770.046	24008.11149
770.236	23816.61052
770.426	23671.98323
770.617	24001.99937
770.807	23971.43914
770.998	24154.80998
771.188	24191.48683
771.378	23458.12562
771.569	23694.3893
771.759	23429.61384
771.949	23181.18026
772.139	23390.92025
772.33	22898.18802
772.52	23307.42745
772.71	23541.62791
772.9	23486.63801
773.09	23134.34979
773.281	23358.33706
773.471	23335.93659
773.661	23419.4312
773.851	23633.2827
774.041	23421.46772
774.231	23272.81006
774.421	22977.58221
774.611	23002.01223
774.802	22824.90565
774.992	22686.49557
775.182	22804.55022
775.372	22653.93083
775.562	22594.90953
775.752	22635.61356
775.942	22269.32892
776.131	22769.94679
776.321	22379.20202
776.511	22582.6986
776.701	22607.12059
776.891	22328.33352
777.081	22480.94582
777.271	22761.80495
777.461	22788.26613
777.651	22863.5819
777.84	22792.33713
778.03	22273.39811
778.22	22242.87959
778.41	22326.29883
778.599	22751.62773
778.789	22714.99045
778.979	22228.6379
779.169	21978.42093
779.358	21980.45499
779.548	21974.35284
779.738	21817.74271
779.927	21762.83288
780.117	21886.89243
780.307	21644.888
780.496	21435.46678
780.686	21781.13584
780.875	21972.31879
781.065	22240.84506
781.254	22039.44422
781.444	22074.02559
781.633	21941.8086
781.823	21577.78732
782.012	21528.98952
782.202	21356.18238
782.391	21512.72409
782.581	21470.02855
782.77	21689.62417
782.96	21518.8236
783.149	21386.67566
783.338	21620.48726
783.528	21144.78722
783.717	20894.82862
783.906	21067.55762
784.096	20730.25576
784.285	20894.82862
784.474	20655.08955
784.663	20547.42898
784.853	20413.37751
785.042	20370.7286
785.231	20525.0858
785.42	20510.86768
785.61	20411.34657
785.799	20413.37751
785.988	20289.49769
786.177	20297.62048
786.366	20324.02
786.555	20289.49769
786.744	20315.897
786.933	20342.29702
787.122	20407.2847
787.312	20681.49865
787.501	19903.74274
787.69	20021.48341
787.879	20586.02293
788.068	20366.66689
788.257	20198.12095
788.445	19798.19415
788.634	20456.02827
788.823	20525.0858
789.012	20679.46716
789.201	20131.11676
789.39	20321.98925
789.579	20003.21238
789.768	20527.11698
789.957	20285.43632
790.145	19907.80252
790.334	19654.09806
790.523	19991.03188
790.712	19786.0162
790.9	19932.1616
791.089	19441.03682
791.278	20066.14737
791.467	19493.79056
791.655	20086.44984
791.844	19731.21728
792.033	19550.60543
792.221	19672.36259
792.41	19467.41334
792.599	19219.90736
792.787	19455.23947
792.976	19416.68988
793.164	19769.77917
793.353	19463.35537
793.541	19495.81961
793.73	19244.24949
793.918	19875.32469
794.107	19126.60134
794.295	19609.45285
794.484	19518.13939
794.672	19128.62964
794.861	18862.95689
795.049	18844.7071
795.238	18994.77058
795.426	18749.40787
795.614	18437.21152
795.803	18759.54567
795.991	18824.42993
796.179	18694.66546
796.368	18710.88514
796.556	18781.84918
796.744	18822.40224
796.932	19161.08299
797.121	18447.34633
797.309	18747.38033
797.497	18175.76606
797.685	18433.15762
797.874	18348.02931
798.062	18382.48521
798.25	18382.48521
798.438	18410.86147
798.626	18471.67025
798.814	18727.10506
799.002	18739.27017
799.19	18749.40787
799.378	18570.99868
799.566	18534.50961
799.755	18382.48521
799.943	18358.16329
800.131	18268.98754
800.318	18350.0561
800.506	18119.02634
800.694	18364.24372
800.882	18084.57862
801.07	18716.96758
801.258	18540.59104
801.446	18418.96911
801.634	18074.44714
801.822	17969.08502
802.01	17693.56717
802.197	17973.13723
802.385	17756.36348
802.573	18133.211
802.761	18293.30748
802.949	18402.75389
803.136	17879.93992
803.324	17865.75837
803.512	17892.09567
803.699	17809.03385
803.887	17934.64179
804.075	18007.5816
804.262	17734.08055
804.45	17833.34403
804.638	17924.51162
804.825	18046.07947
805.013	18181.84548
805.201	18035.94832
805.388	17804.9822
805.576	17965.03282
805.763	17989.34622
805.951	17403.93455
806.138	17713.82369
806.326	17875.88803
806.513	17906.27754
806.701	18033.92211
806.888	17849.55109
807.075	18001.50311
807.263	18404.78078
807.45	18670.33642
807.638	17774.59527
807.825	18244.66814
808.012	17762.44071
808.2	18429.10374
808.387	18273.04083
808.574	18281.14745
808.761	18487.88651
808.949	18883.23482
809.136	18394.64637
809.323	18149.42226
809.51	18068.36829
809.698	18145.36943
809.885	18380.45836
810.072	18076.47343
810.259	17924.51162
810.446	17857.6547
810.633	17665.2086
810.82	18013.66012
811.008	17898.17359
811.195	18228.4555
811.382	17843.47341
811.569	18420.99603
811.756	18210.21657
811.943	18787.93204
812.13	18337.89543
812.317	18487.88651
812.504	18279.12079
812.691	18392.6195
812.878	17944.77205
813.064	18121.05271
813.251	18025.81727
813.438	18433.15762
813.625	18086.60493
813.812	18285.20078
813.999	18119.02634
814.186	18149.42226
814.372	17863.73244
814.559	18177.79253
814.746	17472.79234
814.933	17653.05513
815.12	18096.73652
815.306	17960.98064
815.493	17946.79811
815.68	18183.87196
815.866	17993.3985
816.053	18412.88837
816.24	18121.05271
816.426	18236.56179
816.613	18218.32272
816.799	18064.31575
816.986	18025.81727
817.173	17827.26643
817.359	17586.21314
817.546	17452.53968
817.732	17424.18647
817.919	17944.77205
818.105	18064.31575
818.292	18042.027
818.478	18007.5816
818.665	17922.4856
818.851	17952.87631
819.037	17875.88803
819.224	17807.00802
819.41	17752.31201
819.597	17655.0807
819.783	18116.99998
819.969	17857.6547
820.156	17669.25979
820.342	17588.2386
820.528	17505.19726
820.714	17588.2386
820.901	17472.79234
821.087	17488.9947
821.273	17746.23482
821.459	17624.69749
821.646	17537.603
821.832	17414.06047
822.018	17428.23689
822.204	17515.32397
822.39	17298.6295
822.576	17572.03499
822.762	17470.76706
822.948	17213.58133
823.134	17391.78355
823.32	17063.74694
823.507	17379.63265
823.693	17150.81098
823.879	16911.90313
824.065	16990.86003
824.25	16865.34065
824.436	16758.04959
824.622	16936.19713
824.808	16693.27338
824.994	16810.68207
825.18	16448.35933
825.366	16772.21971
825.552	16936.19713
825.738	17154.8606
825.923	16733.75822
826.109	16551.58367
826.295	16387.64161
826.481	16604.20999
826.667	16252.04496
826.852	16523.24703
827.038	16664.93455
827.224	16648.74114
827.409	16511.10288
827.595	16883.56059
827.781	16422.0481
827.966	16950.36881
828.152	16432.16776
828.338	16786.38995
828.523	16201.45127
828.709	16175.14298
828.894	16245.97366
829.08	16264.18761
829.266	16065.8653
829.451	16163.00078
829.637	15865.53392
829.822	16446.33537
830.008	15814.94717
830.193	16274.30653
830.378	16286.4493
830.564	16588.01712
830.749	16650.7653
830.935	16648.74114
831.12	15863.51044
831.305	16047.65279
831.491	16163.00078
831.676	16167.04817
831.861	15863.51044
832.047	15942.42724
832.232	15760.31426
832.417	15960.63908
832.602	15598.44315
832.788	15661.16753
832.973	15628.79356
833.158	15529.64952
833.343	15758.29083
833.528	16114.43259
833.714	15693.54172
833.899	15833.15832
834.084	15390.04109
834.269	15786.6189
834.454	15120.94525
834.639	15604.51322
834.824	15185.68991
835.009	15238.29497
835.194	15355.64516
835.379	15258.52771
835.564	15086.54962
835.749	15313.1562
835.934	15377.90134
836.119	15325.29589
836.304	15064.2936
836.489	15292.92341
836.674	15060.24705
836.859	15106.78235
837.044	14934.80344
837.228	15021.80478
837.413	14959.08295
837.598	15329.34245
837.783	15298.99324
837.968	15365.7616
838.152	14847.80129
838.337	14888.26753
838.522	14817.45145
838.707	14884.22091
838.891	14738.54113
839.076	14726.40098
839.261	14851.84792
839.445	14861.9645
839.63	14722.35425
839.815	14554.41169
839.999	14596.90388
840.184	14732.47106
840.368	14779.00811
840.553	14787.10146
840.737	14902.43066
840.922	14544.29443
841.106	14406.69631
841.291	14388.4843
841.475	14072.78616
841.66	14157.78657
841.844	14155.76279
842.029	14309.56403
842.213	14530.1302
842.397	14256.94906
842.582	14362.17782
842.766	14445.1435
842.951	14471.44917
843.135	14544.29443
843.319	14368.24857
843.504	14228.6174
843.688	13949.32588
843.872	14113.26303
844.056	14252.9017
844.241	14596.90388
844.425	14109.21538
844.609	14052.54738
844.793	14012.06912
844.977	13512.07006
845.161	13309.58195
845.346	13510.04537
845.53	13554.58773
845.714	13467.526
845.898	13390.58193
846.082	13667.96063
846.266	13813.71083
846.45	13637.59393
846.634	13431.07951
846.818	13129.3324
847.002	13234.651
847.186	13086.79635
847.37	12969.3047
847.554	13206.29719
847.738	13054.38652
847.922	13313.6321
848.106	13437.15401
848.29	13307.55686
848.473	13115.15395
848.657	12987.53726
848.841	13009.82095
849.025	13200.22126
849.209	12811.27136
849.392	13076.66841
849.576	13032.10403
849.76	12928.7864
849.944	13105.02634
850.127	12987.53726
850.311	12900.42235
850.495	12884.21386
850.678	12780.87654
850.862	12780.87654
851.046	12632.93661
851.229	12614.69525
851.413	12503.20936
851.596	12568.07618
851.78	12786.9556
851.964	12900.42235
852.147	12549.83304
852.331	12636.99018
852.514	12407.92419
852.698	12594.4265
852.881	12253.81439
853.065	12468.74618
853.248	12535.64358
853.431	12549.83304
853.615	12304.51284
853.798	12736.29517
853.982	12215.28056
854.165	12416.03414
854.348	11947.49694
854.532	12223.39316
854.715	12199.05501
854.898	12332.90206
855.081	11921.1169
855.265	11634.9032
855.448	11500.86991
855.631	11900.82363
855.814	11557.73746
855.997	11848.05723
856.181	11781.0763
856.364	11943.43856
856.547	11699.87469
856.73	11910.97037
856.913	11651.14693
857.096	11835.87957
857.279	11421.64909
857.462	11326.15811
857.645	11500.86991
857.828	11405.39685
858.011	11411.49151
858.194	11829.79062
858.377	11486.65187
858.56	11470.4021
858.743	11196.09199
858.926	11468.37083
859.109	11541.49034
859.292	11693.784
859.475	11352.5727
859.658	11716.11613
859.841	11409.45997
860.023	11279.42043
860.206	10941.93129
860.389	11212.35256
860.572	10919.55689
860.755	11147.30622
860.937	11364.76349
861.12	11470.4021
861.303	11472.43335
861.486	11356.63634
861.668	11169.66712
861.851	11011.07994
862.034	11157.47042
862.216	11043.61603
862.399	10589.87897
862.581	10746.61673
862.764	10819.87226
862.947	10984.64227
863.129	10870.73522
863.312	10758.82705
863.494	10251.72179
863.677	10359.72676
863.859	10516.57385
864.042	10451.39996
864.224	10445.28923
864.406	10526.75609
864.589	10408.62242
864.771	10243.56894
864.954	9933.59569
865.136	10229.30093
865.318	10219.10908
865.501	10400.47367
865.683	10270.06492
865.865	10373.98878
866.048	10104.93688
866.23	10096.78005
866.412	9937.67642
866.594	10194.64726
866.777	9947.878
866.959	10286.369
867.141	9835.64046
867.323	9921.35314
867.505	10037.63629
867.687	9782.56708
867.869	9745.81801
868.052	10035.59664
868.234	9443.46873
868.416	9570.17045
868.598	9512.95792
868.78	9827.47598
868.962	9737.65088
869.144	10343.42653
869.326	9949.91827
869.508	10141.63983
869.69	9772.3595
869.872	9994.80058
870.054	9592.64342
870.236	9753.98489
870.417	9784.60855
870.599	9594.68632
870.781	9733.56722
870.963	9582.42867
871.145	9482.30321
871.327	9753.98489
871.508	9410.76149
871.69	9300.34362
871.872	9198.06167
872.054	9508.87083
872.235	9065.03169
872.417	9590.6005
872.599	9386.22832
872.78	9690.68515
872.962	9527.26222
873.144	9672.30505
873.325	9384.18378
873.507	9512.95792
873.689	9230.79646
873.87	9459.8208
874.052	9220.5673
874.233	9551.78207
874.415	9265.57246
874.596	9682.51637
874.778	9294.20788
874.959	9496.60919
875.141	9320.795
875.322	9743.77625
875.503	9247.16224
875.685	9592.64342
875.866	9572.21353
876.048	9531.34902
876.229	9122.3458
876.41	9181.69264
876.592	9271.7089
876.773	9521.1319
876.954	9224.65902
877.136	9418.93869
877.317	9310.56952
877.498	9682.51637
877.679	9347.37932
877.86	9506.82727
878.042	9253.29913
878.223	9525.2188
878.404	9459.8208
878.585	9461.86474
878.766	9310.56952
878.947	9692.72731
879.128	9559.95484
879.309	9606.94341
879.49	9412.80581
879.672	9594.68632
879.853	9320.795
880.034	9457.77685
880.215	9032.27468
880.396	9187.83116
880.576	9134.62564
880.757	9369.87157
880.938	9193.96951
881.119	9676.38962
881.3	9506.82727
881.481	9541.56574
881.662	9314.65976
881.843	9531.34902
882.023	9290.11731
882.204	9463.90866
882.385	9431.204
882.566	9406.67279
882.747	8993.36992
882.927	9257.39031
883.108	8968.79522
883.289	9028.17974
883.469	9003.60863
883.65	9212.38367
883.831	9189.87729
884.011	9351.46897
884.192	9408.71715
884.373	9517.04494
884.553	9373.96085
884.734	9461.86474
884.914	9263.52695
885.095	9474.12802
885.275	9333.06503
885.456	9662.09334
885.636	9551.78207
885.817	9688.64298
885.997	9631.45589
886.178	9414.85012
886.358	9686.60079
886.538	9371.91622
886.719	9382.13923
886.899	9617.15721
887.08	9639.62622
887.26	10033.55697
887.44	9402.58403
887.621	9680.47414
887.801	9380.09466
887.981	9527.26222
888.161	9453.6889
888.342	9494.56553
888.522	9414.85012
888.702	9525.2188
888.882	9339.19983
889.062	9423.02719
889.242	9120.2991
889.423	9087.54956
889.603	8911.44437
889.783	9216.47552
889.963	8843.83436
890.143	9054.79561
890.323	8999.51319
890.503	9328.97509
890.683	9099.83116
890.863	9408.71715
891.043	8919.6382
891.223	9255.34473
891.403	9302.38883
891.583	9576.29963
891.763	9140.76532
891.943	9337.15491
892.122	9288.072
892.302	9414.85012
892.482	9275.79977
892.662	9420.98295
892.842	9146.90486
893.022	9073.22025
893.201	9013.8469
893.381	9212.38367
893.561	8968.79522
893.741	9328.97509
893.92	9357.60332
894.1	9410.76149
894.28	9118.25238
894.459	9596.72921
894.639	9075.26735
894.819	9335.10998
894.998	9077.31443
895.178	9202.15375
895.357	8884.81245
895.537	8944.21799
895.716	9298.29839
895.896	9283.98132
896.075	9108.01854
896.255	9259.43587
896.434	9165.32254
896.614	9343.28961
896.793	9042.51172
896.973	9431.204
897.152	9022.0372
897.331	9312.61465
897.511	9148.95133
897.69	9087.54956
897.87	8722.90679
898.049	8659.34301
898.228	8714.70601
898.407	8747.50737
898.587	8675.74827
898.766	8960.6031
898.945	8630.63096
899.124	8546.52456
899.304	8657.29227
899.483	9003.60863
899.662	8788.50248
899.841	8585.50462
900.02	8448.01816
900.199	8780.30404
900.378	8330.9844
900.557	8702.40428
900.737	8347.41399
900.916	8530.10987
901.095	8226.21633
901.274	8747.50737
901.453	8452.12347
901.632	8839.73615
901.811	8569.09279
901.989	8357.68185
902.168	8386.42927
902.347	8411.06691
902.526	8181.00642
902.705	8059.71397
902.884	8248.81769
903.063	8365.89579
903.242	8246.76312
903.42	8059.71397
903.599	8004.18384
903.778	7934.2359
903.957	7829.26942
904.135	7930.12058
904.314	7905.42692
904.493	8131.67554
904.672	7952.75384
904.85	8057.65756
905.029	7975.38461
905.207	7956.86871
905.386	7845.73831
905.565	7909.54274
905.743	7829.26942
905.922	7934.2359
906.1	7629.47753
906.279	7901.31102
906.457	7623.29523
906.636	7594.44197
906.814	7130.14694
906.993	7266.45502
907.171	7159.06885
907.35	7534.6612
907.528	7384.09839
907.707	7522.29051
907.885	7538.78459
908.063	7839.56264
908.242	7563.52313
908.42	7629.47753
908.598	7615.05187
908.777	7608.86912
908.955	7495.4847
909.133	7631.53825
909.311	7161.13453
909.49	7334.57301
909.668	6917.22946
909.846	7144.60844
910.024	7121.88274
910.202	7210.70428
910.38	6921.36605
910.559	7113.61818
910.737	6991.67433
910.915	7192.11712
911.093	7090.8888
911.271	7340.76437
911.449	6815.85454
911.627	6695.789
911.805	6685.43491
911.983	6759.97154
912.161	6463.71927
912.339	6886.20211
912.517	6869.65211
912.695	6844.82437
912.872	6538.34474
913.05	6737.19961
913.228	6654.3692
913.406	6668.86718
913.584	6600.5097
913.762	6716.49545
913.939	6706.14251
914.117	6608.7968
914.295	6368.32068
914.473	6355.87375
914.65	6225.1302
914.828	6254.19235
915.006	6065.20616
915.184	6478.23214
915.361	5923.85854
915.539	6629.51291
915.716	6123.37647
915.894	6092.21609
916.072	5967.52164
916.249	6129.60791
916.427	5942.57257
916.604	5801.13036
916.782	5603.34455
916.959	5911.38146
917.137	5853.14385
917.314	6040.27037
917.492	5632.50531
917.669	5686.64874
917.847	5674.15552
918.024	5834.42069
918.201	5740.77622
918.379	5769.91518
918.556	5440.79291
918.733	5482.48647
918.911	5148.67534
919.088	5461.64086
919.265	5261.40357
919.442	5476.23303
919.62	5296.878
919.797	5570.0123
919.974	5559.59474
920.151	5551.26027
920.328	5457.47146
920.506	5549.17659
920.683	5378.23493
920.86	5198.78517
921.037	5029.61086
921.214	5171.64401
921.391	4975.27578
921.568	5140.3224
921.745	4948.1024
921.922	5140.3224
922.099	4638.47196
922.276	4810.08547
922.453	4682.43621
922.63	4973.18566
922.807	4841.46169
922.984	4730.57614
923.161	4529.56568
923.338	4900.01691
923.514	4558.89252
923.691	4732.66891
923.868	4688.71601
924.045	4395.44507
924.222	4221.37474
924.399	4730.57614
924.575	4418.50344
924.752	4573.55431
924.929	4296.89333
925.105	4537.94522
925.282	4315.76864
925.459	4412.21506
925.635	4353.51401
925.812	4426.88765
925.989	4131.13589
926.165	4372.38406
926.342	4254.94198
926.518	4424.79163
926.695	4160.52026
926.871	4292.69858
927.048	3935.83644
927.224	4118.54133
927.401	3877.00205
927.577	4177.30948
927.754	3891.71212
927.93	4171.01368
928.107	3591.01584
928.283	3898.01614
928.459	3893.81348
928.636	4196.19574
928.812	3681.47648
928.988	3979.95184
929.165	3673.06302
929.341	3818.15199
929.517	3626.78352
929.693	4099.64808
929.87	3569.9735
930.046	3971.5496
930.222	3456.31308
930.398	3893.81348
930.574	3405.78041
930.751	3538.40652
930.927	3344.70652
931.103	3567.86917
931.279	3306.79123
931.455	3492.1008
931.631	3136.10482
931.807	3205.65686
931.983	3117.13302
932.159	3340.49398
932.335	3020.1461
932.511	3201.44209
932.687	2840.84697
932.863	3211.97888
933.039	2927.34567
933.215	3233.05123
933.391	2661.44653
933.566	2925.23623
933.742	2752.2141
933.918	2948.43921
934.094	2598.10639
934.27	2891.48328
934.445	2625.55515
934.621	2712.11047
934.797	2160.78876
934.973	2378.44588
935.148	2249.55384
935.324	2260.12008
935.5	2095.26241
935.675	2181.92466
935.851	1858.46705
936.027	2110.05933
936.202	1769.65113
936.378	2019.15832
936.553	1644.8747
936.729	1858.46705
936.904	1604.69042
937.08	2002.24509
937.255	1634.29997
937.431	1617.38028
937.606	1427.02772
937.782	1553.93035
937.957	1412.22237
938.133	1376.26667
938.308	1198.61016
938.483	1245.1376
938.659	999.83392
938.834	1063.26828
939.009	946.9763
939.185	1025.20702
939.36	938.51948
939.535	930.06278
939.71	828.59229
939.886	906.80748
940.061	820.1373
940.236	925.83448
940.411	703.89708
940.586	733.48255
940.761	691.21826
940.937	786.31885
941.112	596.14053
941.287	739.82257
941.462	572.90316
941.637	693.33136
941.812	496.86509
941.987	625.71762
942.162	623.60489
942.337	530.65755
942.512	532.7697
942.687	528.54541
942.862	429.29157
943.037	471.52319
943.212	498.97701
943.386	581.35293
943.561	446.18347
943.736	526.43329
943.911	408.17811
944.086	534.88186
944.26	446.18347
944.435	463.07638
944.61	505.31286
944.785	509.53683
944.959	511.64884
945.134	594.02798
945.309	427.18015
945.483	469.41147
945.658	475.74669
945.833	382.84411
946.007	450.40661
946.182	418.73464
946.357	410.28938
946.531	420.84599
946.706	433.51445
946.88	498.97701
947.055	397.62199
947.229	471.52319
947.404	530.65755
947.578	482.08206
947.752	429.29157
947.927	498.97701
948.101	391.28851
948.276	522.20909
948.45	391.28851
948.624	515.8729
948.799	460.96471
948.973	501.08894
949.147	370.17801
949.321	556.00426
949.496	463.07638
949.67	613.04142
949.844	507.42484
950.018	522.20909
950.193	484.19387
950.367	522.20909
950.541	463.07638
950.715	513.76086
950.889	456.74142
951.063	536.99404
951.237	454.6298
951.411	606.70349
951.585	513.76086
951.759	625.71762
951.933	539.10623
952.107	551.77967
952.281	509.53683
952.455	515.8729
952.629	551.77967
952.803	608.81612
952.977	437.73739
953.151	632.05589
953.325	530.65755
953.499	627.83037
953.672	446.18347
953.846	653.18424
954.02	511.64884
954.194	534.88186
954.368	638.39427
954.541	642.61991
954.715	513.76086
954.889	672.20078
955.062	621.49217
955.236	644.73275
955.41	498.97701
955.583	632.05589
955.757	460.96471
955.93	684.87899
956.104	526.43329
956.278	575.01558
956.451	530.65755
956.625	448.29503
956.798	505.31286
956.972	634.16867
957.145	539.10623
957.319	585.57789
957.492	539.10623
957.665	566.56597
957.839	490.52941
958.012	644.73275
958.185	572.90316
958.359	642.61991
958.532	517.98495
958.705	619.37947
958.879	572.90316
959.052	703.89708
959.225	680.65288
959.398	737.70922
959.572	564.4536
959.745	600.36568
959.918	503.20089
960.091	513.76086
960.264	511.64884
960.438	484.19387
960.611	448.29503
960.784	505.31286
960.957	467.29976
961.13	606.70349
961.303	560.2289
961.476	380.73305
961.649	543.33065
961.822	511.64884
961.995	422.95736
962.168	568.67835
962.341	467.29976
962.514	475.74669
962.686	372.28898
962.859	448.29503
963.032	416.6233
963.205	403.95561
963.378	456.74142
963.551	575.01558
963.723	420.84599
963.896	509.53683
964.069	467.29976
964.242	541.21844
964.414	467.29976
964.587	526.43329
964.76	361.73427
964.932	444.07193
965.105	370.17801
965.278	425.06875
965.45	408.17811
965.623	429.29157
965.795	403.95561
965.968	467.29976
966.14	273.09208
966.313	439.84889
966.485	294.19448
966.658	311.07772
966.83	389.17739
967.003	471.52319
967.175	406.06685
967.348	463.07638
967.52	332.18339
967.692	422.95736
967.865	412.40067
968.037	471.52319
968.209	340.62615
968.382	403.95561
968.554	361.73427
968.726	319.51977
968.898	289.97385
969.071	370.17801
969.243	327.96211
969.415	338.51543
969.587	391.28851
969.759	420.84599
969.932	399.73318
970.104	393.39965
970.276	355.40166
970.448	387.06628
970.62	344.84764
970.792	332.18339
970.964	235.11252
971.136	395.51081
971.308	327.96211
971.48	344.84764
971.652	340.62615
971.824	338.51543
971.996	361.73427
972.168	374.39997
972.339	279.42261
972.511	298.41518
972.683	277.31241
972.855	332.18339
973.027	226.67346
973.199	325.8515
973.37	233.00273
973.542	283.64305
973.714	230.89295
973.886	245.66178
974.057	279.42261
974.229	228.7832
974.401	313.1882
974.572	275.20224
974.744	268.87183
974.915	287.86356
975.087	184.48295
975.259	226.67346
975.43	275.20224
975.602	285.7533
975.773	289.97385
975.945	321.63033
976.116	277.31241
976.288	251.99156
976.459	243.55189
976.63	243.55189
976.802	173.93659
976.973	226.67346
977.145	178.15507
977.316	167.60902
977.487	228.7832
977.659	176.04582
977.83	209.7963
978.001	235.11252
978.172	152.84542
978.344	245.66178
978.515	150.73642
978.686	268.87183
978.857	184.48295
979.028	260.43154
979.2	87.47635
979.371	294.19448
979.542	256.21151
979.713	154.95444
979.884	150.73642
980.055	161.28164
980.226	180.26435
980.397	180.26435
980.568	171.82738
980.739	176.04582
980.91	192.92041
981.081	251.99156
981.252	315.29871
981.423	100.12679
981.594	211.90588
981.765	300.52556
981.936	211.90588
982.106	161.28164
982.277	230.89295
982.448	186.59229
982.619	169.71819
982.79	195.02983
982.96	167.60902
983.131	203.46769
983.302	66.39408
983.472	167.60902
983.643	91.69308
983.814	154.95444
983.984	133.86516
984.155	171.82738
984.326	116.99528
984.496	199.24872
984.667	169.71819
984.837	100.12679
985.008	152.84542
985.178	199.24872
985.349	100.12679
985.519	163.39074
985.69	108.56086
985.86	11.59093
986.031	133.86516
986.201	140.19172
986.371	100.12679
986.542	148.62743
986.712	161.28164
986.882	133.86516
987.053	121.21262
987.223	159.17255
987.393	106.45231
987.563	148.62743
987.734	127.53879
987.904	106.45231
988.074	159.17255
988.244	201.3582
988.414	74.82672
988.585	119.10394
988.755	110.66943
988.925	142.30062
989.095	95.90989
989.265	163.39074
989.435	186.59229
989.605	116.99528
989.775	192.92041
989.945	197.13926
990.115	47.42198
990.285	211.90588
990.455	171.82738
990.625	85.36802
990.795	87.47635
990.965	43.20621
991.134	83.25972
991.304	133.86516
991.474	66.39408
991.644	121.21262
991.814	41.09836
991.984	125.43005
992.153	85.36802
992.323	93.80147
992.493	-17.91182
992.662	100.12679
992.832	87.47635
993.002	24.2364
993.171	91.69308
993.341	15.80599
993.511	70.61035
993.68	119.10394
993.85	116.99528
994.019	85.36802
994.189	125.43005
994.358	76.93493
994.528	106.45231
994.697	91.69308
994.867	148.62743
995.036	15.80599
995.206	102.23527
995.375	60.06984
995.544	110.66943
995.714	15.80599
995.883	45.31408
996.052	17.91356
996.222	60.06984
996.391	64.28597
996.56	66.39408
996.73	-9.48295
996.899	72.71852
997.068	68.5022
997.237	49.5299
997.406	70.61035
997.576	93.80147
997.745	60.06984
997.914	76.93493
998.083	57.9618
998.252	5.26851
998.421	-1.05368
998.59	74.82672
998.759	83.25972
998.928	32.66719
999.097	70.61035
999.266	9.48343
999.435	85.36802
999.604	100.12679
999.773	9.48343
999.942	32.66719
1000.111	45.31408
1000.28	112.77803
1000.448	51.63784
1000.617	79.04317
1000.786	49.5299
1000.955	87.47635
1001.124	72.71852
1001.292	91.69308
1001.461	70.61035
1001.63	66.39408
1001.798	-1.05368
1001.967	3.16109
1002.136	70.61035
1002.304	98.01833
1002.473	60.06984
1002.642	57.9618
1002.81	91.69308
1002.979	74.82672
1003.147	68.5022
1003.316	116.99528
1003.484	106.45231
1003.653	43.20621
1003.821	83.25972
1003.99	76.93493
1004.158	66.39408
1004.327	91.69308
1004.495	93.80147
1004.663	87.47635
1004.832	34.77495
1005	-1.05368
1005.168	-13.69743
1005.337	81.15143
1005.505	20.02115
1005.673	-1.05368
1005.842	41.09836
1006.01	36.88273
1006.178	66.39408
1006.346	64.28597
1006.514	32.66719
1006.683	28.45175
1006.851	112.77803
1007.019	9.48343
1007.187	104.34378
1007.355	93.80147
1007.523	83.25972
1007.691	41.09836
1007.859	95.90989
1008.027	-9.48295
1008.195	49.5299
1008.363	7.37596
1008.531	-9.48295
1008.699	68.5022
1008.867	45.31408
1009.035	68.5022
1009.203	-5.26836
1009.37	57.9618
1009.538	3.16109
1009.706	60.06984
1009.874	26.34407
1010.042	110.66943
1010.209	62.17789
1010.377	-47.40976
1010.545	45.31408
1010.713	81.15143
1010.88	24.2364
1011.048	144.40954
1011.216	-24.23321
1011.383	83.25972
1011.551	66.39408
1011.718	49.5299
1011.886	125.43005
1012.054	68.5022
1012.221	22.12877
1012.389	15.80599
1012.556	108.56086
1012.724	32.66719
1012.891	83.25972
1013.058	-9.48295
1013.226	15.80599
1013.393	129.64756
1013.561	28.45175
1013.728	49.5299
1013.895	129.64756
1014.063	76.93493
1014.23	79.04317
1014.397	108.56086
1014.565	9.48343
1014.732	100.12679
1014.899	66.39408
1015.066	91.69308
1015.233	57.9618
1015.401	79.04317
1015.568	133.86516
1015.735	30.55946
1015.902	70.61035
1016.069	66.39408
1016.236	-17.91182
1016.403	74.82672
1016.57	9.48343
1016.737	47.42198
1016.904	-11.5902
1017.071	36.88273
1017.238	28.45175
1017.405	57.9618
1017.572	30.55946
1017.739	-3.16104
1017.906	-24.23321
1018.073	146.51847
1018.24	26.34407
1018.407	74.82672
1018.573	11.59093
1018.74	53.7458
1018.907	22.12877
1019.074	15.80599
1019.241	45.31408
1019.407	60.06984
1019.574	7.37596
1019.741	26.34407
1019.907	-1.05368
1020.074	1.05369
1020.241	41.09836
1020.407	60.06984
1020.574	-24.23321
1020.74	66.39408
1020.907	17.91356
1021.073	76.93493
1021.24	7.37596
1021.406	81.15143
1021.573	43.20621
1021.739	51.63784
1021.906	-1.05368
1022.072	55.85379
1022.239	49.5299
1022.405	57.9618
1022.571	11.59093
1022.738	79.04317
1022.904	-7.37567
1023.07	66.39408
1023.237	22.12877
1023.403	79.04317
1023.569	-20.01897
1023.735	66.39408
1023.902	11.59093
1024.068	43.20621
1024.234	-20.01897
1024.4	91.69308
1024.566	60.06984
1024.732	49.5299
1024.898	-22.12611
1025.065	43.20621
1025.231	-17.91182
1025.397	74.82672
1025.563	-24.23321
1025.729	11.59093
1025.895	-15.80464
1026.061	-5.26836
1026.227	11.59093
1026.392	66.39408
1026.558	9.48343
1026.724	-43.19607
1026.89	24.2364
1027.056	34.77495
1027.222	60.06984
1027.388	36.88273
1027.553	-22.12611
1027.719	91.69308
1027.885	15.80599
1028.051	24.2364
1028.216	3.16109
1028.382	85.36802
1028.548	-5.26836
1028.713	68.5022
1028.879	85.36802
1029.045	57.9618
1029.21	34.77495
1029.376	-34.76838
1029.541	-22.12611
1029.707	26.34407
1029.873	-24.23321
1030.038	91.69308
1030.204	57.9618
1030.369	43.20621
1030.534	-13.69743
1030.7	76.93493
1030.865	22.12877
1031.031	41.09836
1031.196	-26.3403
1031.361	32.66719
1031.527	81.15143
1031.692	15.80599
1031.857	41.09836
1032.023	32.66719
1032.188	55.85379
1032.353	83.25972
1032.518	34.77495
1032.684	45.31408
1032.849	32.66719
1033.014	-24.23321
1033.179	81.15143
1033.344	121.21262
1033.509	-51.62336
1033.674	34.77495
1033.839	-1.05368
1034.004	110.66943
1034.17	66.39408
1034.335	43.20621
1034.5	38.99053
1034.664	9.48343
1034.829	55.85379
1034.994	-1.05368
1035.159	-41.08919
1035.324	45.31408
1035.489	45.31408
1035.654	-11.5902
1035.819	15.80599
1035.984	15.80599
1036.148	36.88273
1036.313	7.37596
1036.478	66.39408
1036.643	20.02115
1036.807	51.63784
1036.972	11.59093
1037.137	7.37596
1037.301	-7.37567
1037.466	15.80599
1037.631	28.45175
1037.795	85.36802
1037.96	43.20621
1038.124	70.61035
1038.289	5.26851
1038.454	28.45175
1038.618	-1.05368
1038.783	47.42198
1038.947	28.45175
1039.111	-38.98228
1039.276	49.5299
1039.44	-17.91182
1039.605	34.77495
1039.769	32.66719
1039.933	43.20621
1040.098	66.39408
1040.262	24.2364
1040.426	-1.05368
1040.591	53.7458
1040.755	7.37596
1040.919	49.5299
1041.083	57.9618
1041.248	32.66719
1041.412	-38.98228
1041.576	60.06984
1041.74	-13.69743
1041.904	24.2364
1042.068	7.37596
1042.232	74.82672
1042.397	9.48343
1042.561	9.48343
1042.725	-30.55439
1042.889	9.48343
1043.053	76.93493
1043.217	47.42198
1043.381	-7.37567
1043.544	85.36802
1043.708	83.25972
1043.872	100.12679
1044.036	-1.05368
1044.2	83.25972
1044.364	17.91356
1044.528	53.7458
1044.691	53.7458
1044.855	-1.05368
1045.019	9.48343
1045.183	26.34407
1045.346	36.88273
1045.51	64.28597
1045.674	30.55946
1045.837	-5.26836
1046.001	-1.05368
1046.165	49.5299
1046.328	1.05369
1046.492	49.5299
1046.655	57.9618
1046.819	1.05369
1046.983	17.91356
1047.146	60.06984
1047.31	74.82672
1047.473	38.99053
1047.636	-9.48295
1047.8	22.12877
1047.963	87.47635
1048.127	15.80599
1048.29	49.5299
