Data from mixed_try6.1_USB4F045381__34__00318.txt Node

Date: Thu Apr 03 20:34:46 EDT 2025
User: mmckonesweet
Spectrometer: USB4F04538
Trigger mode: 4
Integration Time (sec): 2.700000E-3
Scans to average: 1
Electric dark correction enabled: true
Nonlinearity correction enabled: true
Boxcar width: 0
XAxis mode: Wavelengths
Number of Pixels in Spectrum: 3648
>>>>>Begin Spectral Data<<<<<
345.52	47.94895
345.736	47.94895
345.952	47.94895
346.168	-59.52357
346.384	-34.24164
346.6	22.65567
346.816	-51.09666
347.032	-11.06339
347.248	28.97868
347.464	28.97868
347.68	14.22533
347.896	37.40968
348.112	-48.98987
348.328	-13.17063
348.544	-61.63024
348.76	22.65567
348.975	31.08639
349.191	-23.70644
349.407	-11.06339
349.623	-8.95613
349.839	71.13739
350.055	10.01031
350.27	-63.73688
350.486	10.01031
350.702	47.94895
350.918	-30.02763
351.133	22.65567
351.349	28.97868
351.565	-8.95613
351.781	20.54805
351.996	-17.38502
352.212	-107.97035
352.428	24.76332
352.644	-30.02763
352.859	3.68794
353.075	-93.22713
353.291	-27.92059
353.506	20.54805
353.722	-27.92059
353.938	-2.6342
354.153	41.62532
354.369	-34.24164
354.584	-55.31017
354.8	-61.63024
355.016	-13.17063
355.231	31.08639
355.447	-13.17063
355.662	-42.66935
355.878	24.76332
356.093	-13.17063
356.309	-30.02763
356.524	39.51749
356.74	-46.88306
356.955	1.58054
357.171	-27.92059
357.386	14.22533
357.602	-15.27784
357.817	16.33288
358.033	-21.59933
358.248	18.44046
358.464	41.62532
358.679	-72.16318
358.895	-25.81353
359.11	-21.59933
359.325	-17.38502
359.541	-30.02763
359.756	28.97868
359.972	-36.3486
360.187	10.01031
360.402	-70.05664
360.618	33.19413
360.833	-2.6342
361.048	-30.02763
361.264	31.08639
361.479	-51.09666
361.694	33.19413
361.909	-4.74153
362.125	-34.24164
362.34	-36.3486
362.555	-6.84884
362.77	66.92111
362.986	-30.02763
363.201	12.11781
363.416	33.19413
363.631	20.54805
363.847	-2.6342
364.062	3.68794
364.277	-38.45555
364.492	-0.52684
364.707	-46.88306
364.922	24.76332
365.138	-63.73688
365.353	-46.88306
365.568	5.79537
365.783	45.84105
365.998	5.79537
366.213	33.19413
366.428	-17.38502
366.643	-4.74153
366.858	-11.06339
367.073	20.54805
367.288	-57.41689
367.503	-70.05664
367.718	-0.52684
367.933	-2.6342
368.148	-2.6342
368.363	24.76332
368.578	5.79537
368.793	5.79537
369.008	5.79537
369.223	20.54805
369.438	-38.45555
369.653	12.11781
369.868	-21.59933
370.083	12.11781
370.298	-40.56246
370.513	-84.80186
370.728	-70.05664
370.943	16.33288
371.157	-46.88306
371.372	-48.98987
371.587	-46.88306
371.802	-38.45555
372.017	45.84105
372.232	-4.74153
372.446	31.08639
372.661	-51.09666
372.876	24.76332
373.091	5.79537
373.306	12.11781
373.52	-80.58907
373.735	-51.09666
373.95	-13.17063
374.165	-38.45555
374.379	-53.20343
374.594	7.90283
374.809	-19.49219
375.023	-0.52684
375.238	22.65567
375.453	39.51749
375.667	-42.66935
375.882	-11.06339
376.097	24.76332
376.311	-13.17063
376.526	-63.73688
376.741	-6.84884
376.955	41.62532
377.17	3.68794
377.384	-21.59933
377.599	-25.81353
377.813	-42.66935
378.028	-27.92059
378.242	16.33288
378.457	-99.54581
378.672	-42.66935
378.886	-46.88306
379.101	16.33288
379.315	20.54805
379.53	-17.38502
379.744	-40.56246
379.958	-11.06339
380.173	-21.59933
380.387	-21.59933
380.602	-13.17063
380.816	56.38079
381.031	20.54805
381.245	-38.45555
381.459	-30.02763
381.674	-25.81353
381.888	-46.88306
382.103	-61.63024
382.317	1.58054
382.531	5.79537
382.746	3.68794
382.96	-21.59933
383.174	37.40968
383.388	-40.56246
383.603	7.90283
383.817	16.33288
384.031	-17.38502
384.246	16.33288
384.46	7.90283
384.674	12.11781
384.888	-19.49219
385.103	14.22533
385.317	3.68794
385.531	56.38079
385.745	-0.52684
385.959	-51.09666
386.174	1.58054
386.388	12.11781
386.602	-42.66935
386.816	-8.95613
387.03	-30.02763
387.244	-19.49219
387.458	-46.88306
387.672	7.90283
387.887	-38.45555
388.101	35.30189
388.315	3.68794
388.529	-21.59933
388.743	47.94895
388.957	-42.66935
389.171	-27.92059
389.385	-2.6342
389.599	-30.02763
389.813	5.79537
390.027	3.68794
390.241	3.68794
390.455	-34.24164
390.669	31.08639
390.883	20.54805
391.097	-44.77622
391.311	88.00344
391.525	-72.16318
391.738	58.48881
391.952	5.79537
392.166	-38.45555
392.38	-2.6342
392.594	88.00344
392.808	-34.24164
393.022	22.65567
393.236	-27.92059
393.449	-6.84884
393.663	-107.97035
393.877	37.40968
394.091	-19.49219
394.305	-25.81353
394.518	-0.52684
394.732	3.68794
394.946	-46.88306
395.16	-13.17063
395.373	37.40968
395.587	5.79537
395.801	1.58054
396.015	-55.31017
396.228	-4.74153
396.442	22.65567
396.656	-44.77622
396.869	113.30518
397.083	-53.20343
397.297	-30.02763
397.51	-36.3486
397.724	-17.38502
397.938	-38.45555
398.151	-103.75813
398.365	-32.13465
398.578	5.79537
398.792	16.33288
399.005	-44.77622
399.219	1.58054
399.433	-42.66935
399.646	-53.20343
399.86	16.33288
400.073	-46.88306
400.287	3.68794
400.5	3.68794
400.714	-36.3486
400.927	-17.38502
401.141	45.84105
401.354	-15.27784
401.567	-17.38502
401.781	-72.16318
401.994	-11.06339
402.208	20.54805
402.421	3.68794
402.635	12.11781
402.848	45.84105
403.061	12.11781
403.275	-38.45555
403.488	5.79537
403.701	12.11781
403.915	-25.81353
404.128	-46.88306
404.341	-25.81353
404.555	14.22533
404.768	-8.95613
404.981	-2.6342
405.195	-44.77622
405.408	39.51749
405.621	-4.74153
405.834	-70.05664
406.048	-44.77622
406.261	71.13739
406.474	-30.02763
406.687	28.97868
406.9	-19.49219
407.114	37.40968
407.327	-25.81353
407.54	-76.37618
407.753	10.01031
407.966	45.84105
408.179	-4.74153
408.392	-42.66935
408.605	28.97868
408.819	28.97868
409.032	47.94895
409.245	-13.17063
409.458	14.22533
409.671	5.79537
409.884	-21.59933
410.097	-32.13465
410.31	7.90283
410.523	-126.92402
410.736	16.33288
410.949	20.54805
411.162	73.24557
411.375	-2.6342
411.588	41.62532
411.801	39.51749
412.014	-0.52684
412.227	83.78679
412.44	-8.95613
412.653	16.33288
412.865	-13.17063
413.078	-21.59933
413.291	-34.24164
413.504	-25.81353
413.717	20.54805
413.93	37.40968
414.143	3.68794
414.356	24.76332
414.568	22.65567
414.781	-32.13465
414.994	16.33288
415.207	58.48881
415.42	24.76332
415.632	62.70491
415.845	18.44046
416.058	-4.74153
416.271	-36.3486
416.483	24.76332
416.696	-27.92059
416.909	-2.6342
417.121	43.73317
417.334	50.05688
417.547	20.54805
417.759	28.97868
417.972	-13.17063
418.185	-13.17063
418.397	45.84105
418.61	14.22533
418.823	28.97868
419.035	26.87099
419.248	-17.38502
419.46	-55.31017
419.673	-2.6342
419.885	-30.02763
420.098	-32.13465
420.311	-27.92059
420.523	-25.81353
420.736	-59.52357
420.948	37.40968
421.161	-95.33338
421.373	-63.73688
421.586	-42.66935
421.798	-8.95613
422.01	-2.6342
422.223	-25.81353
422.435	-11.06339
422.648	52.16483
422.86	64.813
423.073	28.97868
423.285	16.33288
423.497	33.19413
423.71	-17.38502
423.922	-21.59933
424.134	-30.02763
424.347	37.40968
424.559	-13.17063
424.771	-2.6342
424.984	-19.49219
425.196	12.11781
425.408	7.90283
425.621	33.19413
425.833	81.6785
426.045	56.38079
426.257	37.40968
426.47	-19.49219
426.682	3.68794
426.894	7.90283
427.106	-57.41689
427.318	-51.09666
427.531	16.33288
427.743	5.79537
427.955	12.11781
428.167	54.2728
428.379	-6.84884
428.591	-36.3486
428.804	-25.81353
429.016	28.97868
429.228	-25.81353
429.44	7.90283
429.652	54.2728
429.864	22.65567
430.076	-30.02763
430.288	-30.02763
430.5	-0.52684
430.712	-67.95008
430.924	-19.49219
431.136	41.62532
431.348	-13.17063
431.56	-11.06339
431.772	24.76332
431.984	-27.92059
432.196	-21.59933
432.408	3.68794
432.62	64.813
432.832	-70.05664
433.044	28.97868
433.256	3.68794
433.468	45.84105
433.679	5.79537
433.891	-30.02763
434.103	-11.06339
434.315	31.08639
434.527	-46.88306
434.739	22.65567
434.95	-19.49219
435.162	-6.84884
435.374	45.84105
435.586	45.84105
435.798	5.79537
436.009	-67.95008
436.221	96.437
436.433	-21.59933
436.645	-32.13465
436.856	20.54805
437.068	-6.84884
437.28	73.24557
437.491	16.33288
437.703	-2.6342
437.915	-55.31017
438.126	-93.22713
438.338	-74.26969
438.55	37.40968
438.761	-17.38502
438.973	-32.13465
439.184	-19.49219
439.396	-91.12085
439.608	3.68794
439.819	-63.73688
440.031	-13.17063
440.242	-51.09666
440.454	-61.63024
440.665	12.11781
440.877	37.40968
441.088	10.01031
441.3	56.38079
441.511	83.78679
441.723	-6.84884
441.934	-32.13465
442.146	47.94895
442.357	58.48881
442.569	50.05688
442.78	52.16483
442.991	3.68794
443.203	56.38079
443.414	7.90283
443.626	35.30189
443.837	3.68794
444.048	98.54544
444.26	106.97945
444.471	45.84105
444.682	-21.59933
444.894	60.59685
445.105	-13.17063
445.316	-21.59933
445.528	-61.63024
445.739	-4.74153
445.95	-8.95613
446.161	47.94895
446.373	31.08639
446.584	47.94895
446.795	58.48881
447.006	-25.81353
447.217	33.19413
447.429	20.54805
447.64	-53.20343
447.851	22.65567
448.062	5.79537
448.273	-21.59933
448.484	-0.52684
448.695	41.62532
448.907	35.30189
449.118	-40.56246
449.329	-8.95613
449.54	-13.17063
449.751	71.13739
449.962	-11.06339
450.173	12.11781
450.384	37.40968
450.595	43.73317
450.806	-36.3486
451.017	56.38079
451.228	24.76332
451.439	7.90283
451.65	3.68794
451.861	14.22533
452.072	-19.49219
452.283	-4.74153
452.494	1.58054
452.705	-34.24164
452.915	3.68794
453.126	41.62532
453.337	28.97868
453.548	-19.49219
453.759	-27.92059
453.97	10.01031
454.181	14.22533
454.391	28.97868
454.602	-4.74153
454.813	3.68794
455.024	41.62532
455.235	45.84105
455.445	7.90283
455.656	-44.77622
455.867	50.05688
456.078	-4.74153
456.288	28.97868
456.499	-2.6342
456.71	50.05688
456.921	-30.02763
457.131	-4.74153
457.342	50.05688
457.553	-38.45555
457.763	66.92111
457.974	3.68794
458.184	24.76332
458.395	-34.24164
458.606	7.90283
458.816	18.44046
459.027	52.16483
459.237	75.35377
459.448	-67.95008
459.659	73.24557
459.869	130.17476
460.08	54.2728
460.29	47.94895
460.501	-61.63024
460.711	92.22017
460.922	92.22017
461.132	22.65567
461.343	56.38079
461.553	64.813
461.764	39.51749
461.974	45.84105
462.184	45.84105
462.395	39.51749
462.605	-61.63024
462.816	-21.59933
463.026	-46.88306
463.236	-27.92059
463.447	16.33288
463.657	98.54544
463.867	33.19413
464.078	-55.31017
464.288	47.94895
464.498	47.94895
464.709	56.38079
464.919	54.2728
465.129	-0.52684
465.339	79.57023
465.55	100.65391
465.76	22.65567
465.97	123.8485
466.18	26.87099
466.391	71.13739
466.601	12.11781
466.811	81.6785
467.021	109.088
467.231	37.40968
467.441	-0.52684
467.651	77.46199
467.862	64.813
468.072	22.65567
468.282	41.62532
468.492	24.76332
468.702	90.11179
468.912	130.17476
469.122	33.19413
469.332	94.32857
469.542	62.70491
469.752	85.8951
469.962	73.24557
470.172	79.57023
470.382	96.437
470.592	96.437
470.802	113.30518
471.012	130.17476
471.222	85.8951
471.432	66.92111
471.642	117.52244
471.852	130.17476
472.062	28.97868
472.272	121.73979
472.482	79.57023
472.691	104.87091
472.901	176.57313
473.111	96.437
473.321	187.11962
473.531	104.87091
473.741	138.61006
473.95	231.42039
474.16	130.17476
474.37	187.11962
474.58	168.13631
474.79	172.35468
474.999	201.88557
475.209	147.04571
475.419	88.00344
475.628	197.66663
475.838	229.31064
476.048	225.09118
476.258	214.54287
476.467	252.51905
476.677	225.09118
476.886	307.38441
477.096	282.06037
477.306	294.72206
477.515	220.8718
477.725	305.27397
477.935	239.85962
478.144	265.17916
478.354	269.39935
478.563	349.59689
478.773	326.37915
478.982	239.85962
479.192	301.05315
479.401	362.262
479.611	341.15383
479.82	442.48828
480.03	334.82172
480.239	366.48384
480.449	425.5966
480.658	524.84921
480.868	353.81853
481.077	427.708
481.287	391.8163
481.496	425.5966
481.705	564.98169
481.915	586.10602
482.124	510.06483
482.333	552.30774
482.543	526.96132
482.752	550.19546
482.961	647.37382
483.171	505.84085
483.38	562.86933
483.589	552.30774
483.799	689.63343
484.008	622.02035
484.217	626.24581
484.426	700.19905
484.636	590.33104
484.845	858.71433
485.054	816.43829
485.263	750.91783
485.472	814.32458
485.682	839.68967
485.891	873.51177
486.1	649.48669
486.309	843.91731
486.518	827.00696
486.727	856.60045
486.936	972.876
487.146	898.87975
487.355	939.04803
487.564	1055.3387
487.773	1059.5678
487.982	1036.30803
488.191	1089.17209
488.4	1038.42252
488.609	1101.85995
488.818	955.96179
489.027	1177.99056
489.236	1156.84262
489.445	1106.08928
489.654	1163.18696
489.863	1408.52104
490.072	1112.43331
490.281	1381.0255
490.49	1338.72499
490.698	1376.79543
490.907	1307
491.116	1467.74247
491.325	1436.01668
491.534	1425.44143
491.743	1359.87518
491.952	1560.80416
492.16	1425.44143
492.369	1336.60998
492.578	1560.80416
492.787	1651.74825
492.996	1524.8487
493.204	1647.51838
493.413	1457.16721
493.622	1765.95031
493.831	1507.92838
494.039	1746.91731
494.248	1620.02399
494.457	1816.70339
494.665	1829.39128
494.874	1782.86827
495.083	1746.91731
495.291	1842.079
495.5	1806.13003
495.709	1924.54479
495.917	1744.80251
496.126	1835.73516
496.335	2144.40788
496.543	2047.16991
496.752	2007.00198
496.96	2125.38432
497.169	1901.28602
497.377	2102.13245
497.586	2004.88781
497.794	2239.5157
498.003	2074.6518
498.211	2374.74866
498.42	2167.65802
498.628	2431.78787
498.837	2309.25008
499.045	2332.4926
499.254	2353.62113
499.462	2330.37969
499.671	2355.73393
499.879	2463.47298
500.087	2429.67545
500.296	2687.30717
500.504	2514.16399
500.713	2623.97162
500.921	2383.19939
501.129	2539.50704
501.338	2300.79797
501.546	2581.74173
501.754	2393.76258
501.962	2687.30717
502.171	2497.2677
502.379	2759.07345
502.587	2539.50704
502.795	2780.17826
503.004	2702.08382
503.212	2765.40504
503.42	2695.75104
503.628	3058.62856
503.837	2792.8405
504.045	2984.82209
504.253	2695.75104
504.461	2820.27364
504.669	2851.92436
504.877	3048.08593
505.085	2919.43521
505.294	2995.36701
505.502	3142.95543
505.71	2974.27678
505.918	3075.49595
506.126	3149.27891
506.334	2938.41996
506.542	3075.49595
506.75	3037.54291
506.958	3204.07633
507.166	3197.75411
507.374	3296.78487
507.582	3176.679
507.79	3311.53094
507.998	3239.89939
508.206	3366.29466
508.414	3227.2565
508.622	3522.09529
508.83	3096.57878
509.037	3256.75563
509.245	3172.46378
509.453	3456.83941
509.661	3359.97637
509.869	3442.1018
510.077	3336.80796
510.285	3517.88576
510.492	3410.51828
510.7	3517.88576
510.908	3452.62875
511.116	3698.82829
511.324	3362.08248
511.531	3707.24081
511.739	3566.2909
511.947	3728.27078
512.155	3694.62191
512.362	3665.17512
512.57	3612.5823
512.778	3715.65303
512.985	3757.70949
513.193	3751.40152
513.401	3625.20565
513.608	3944.76528
513.816	3774.5299
514.024	3711.44696
514.231	3850.20618
514.439	3772.42741
514.646	3965.77287
514.854	3818.6775
515.061	3776.63236
515.269	3911.14893
515.477	3755.60685
515.684	3959.4708
515.892	3892.23746
516.099	3930.05876
516.307	4039.28335
516.514	4203.01535
516.722	3990.97929
516.929	4064.48115
517.136	3984.67796
517.344	4074.97935
517.551	4049.7828
517.759	4091.77539
517.966	4108.5701
518.173	4131.66065
518.381	4182.03121
518.588	4223.99737
518.796	4230.29157
519.003	4270.15033
519.21	4276.44312
519.418	4582.45558
519.625	4362.42509
519.832	4244.97727
520.039	4293.22293
520.247	4601.304
520.454	4377.1013
520.661	4515.4244
520.868	4498.66306
521.076	4701.79827
521.283	4435.79549
521.49	4641.08916
521.697	4664.11898
521.904	4582.45558
522.112	4343.5541
522.319	4641.08916
522.526	4349.84463
522.733	4743.65558
522.94	4429.50765
523.147	4754.1185
523.354	4689.23931
523.561	4919.3571
523.768	4659.93194
523.975	4860.80781
524.183	4693.42572
524.39	4795.96449
524.597	4735.28484
524.804	5067.74058
525.011	4940.26321
525.218	4651.55759
525.425	4798.05656
525.632	4856.62503
525.838	4902.63056
526.045	4994.60832
526.252	4885.90256
526.459	4910.99402
526.666	4818.97592
526.873	5220.18215
527.08	5044.75921
527.287	5362.07069
527.494	5103.25173
527.701	5345.38354
527.907	5048.93785
528.114	5170.07805
528.321	5241.0549
528.528	5266.09911
528.735	5264.01222
528.941	5353.7273
529.148	5364.15648
529.355	5286.96671
529.562	5270.27281
529.768	5530.9434
529.975	5182.60534
530.182	5587.19999
530.388	5241.0549
530.595	5328.69489
530.802	5149.19739
531.008	5583.03343
531.215	5320.35
531.422	5528.8595
531.628	5326.6087
531.835	5566.36622
532.042	5339.12547
532.248	5537.19498
532.455	5495.51378
532.661	5874.46512
532.868	5805.81217
533.074	5947.25078
533.281	5737.13352
533.487	5697.57961
533.694	5680.92278
533.9	6049.10218
534.107	5647.6046
534.313	5922.29895
534.52	5961.80444
534.726	5911.90136
534.933	5822.45767
535.139	5828.69935
535.345	5720.48028
535.552	6078.1922
535.758	6024.16421
535.965	6005.45851
536.171	6036.63362
536.377	6426.9137
536.584	6053.25818
536.79	6128.05007
536.996	6032.47725
537.203	6198.65889
537.409	6103.12283
537.615	6057.41409
537.821	6161.28113
538.028	6173.74123
538.234	6020.00755
538.44	6269.24058
538.646	6157.12758
538.853	6281.69337
539.059	6227.72522
539.265	6389.58224
539.471	6194.50618
539.677	6202.8115
539.883	6252.63556
540.09	6233.95312
540.296	6260.93826
540.502	6559.58678
540.708	6501.554
540.914	6598.95583
541.12	6428.98744
541.326	6671.45598
541.532	6410.32287
541.738	6768.76904
541.944	6509.84551
542.15	6876.37572
542.356	6526.42741
542.562	6719.08359
542.768	6619.67304
542.974	6665.24279
543.18	6586.5244
543.386	7041.80477
543.592	6739.78746
543.798	6876.37572
544.004	6832.92659
544.21	7010.79781
544.415	7016.99961
544.621	7016.99961
544.827	6975.65048
545.033	7405.24603
545.239	6911.54149
545.445	7341.28031
545.651	6894.99371
545.856	7184.37194
546.062	7171.97901
546.268	7196.76408
546.474	7025.26835
546.679	7058.33975
546.885	6990.1237
547.091	7118.26704
547.297	6963.24398
547.502	7264.9066
547.708	7085.20603
547.914	7167.84785
548.119	7200.89462
548.325	7289.67975
548.531	6932.22418
548.736	7295.87254
548.942	7151.32234
549.147	7202.95985
549.353	7229.80588
549.559	7415.56112
549.764	7209.15542
549.97	7312.38569
550.175	7287.61544
550.381	7617.62795
550.586	7283.48676
550.792	7673.26333
550.997	7384.61422
551.203	7481.56487
551.408	7526.92961
551.614	7619.6888
551.819	7580.52909
552.025	7654.71992
552.23	7658.84083
552.435	7652.65944
552.641	7741.24118
552.846	7683.56448
553.052	7755.65778
553.257	7718.58445
553.462	7498.06234
553.668	7807.13726
553.873	7873.01199
554.078	7815.37276
554.283	7850.36995
554.489	7918.28857
554.694	8095.18382
554.899	8144.52323
555.105	7852.42842
555.31	8144.52323
555.515	7912.11508
555.72	8045.83282
555.925	7959.44046
556.131	8249.33133
556.336	7798.90142
556.541	8335.60535
556.746	7774.1919
556.951	8234.94896
557.156	7897.70955
557.361	8169.18861
557.567	8031.43659
557.772	8452.63663
557.977	8230.83953
558.182	8428.00367
558.387	8298.635
558.592	8310.95915
558.797	8313.01311
559.002	8290.41851
559.207	8239.0583
559.412	8146.57879
559.617	8074.62232
559.822	8177.40977
560.027	8041.71971
560.232	8325.33644
560.437	8062.28445
560.642	8471.10954
560.847	8185.6306
561.051	8489.5809
561.256	8185.6306
561.461	8508.05071
561.666	8489.5809
561.871	8432.10936
562.076	8349.981
562.281	8442.37323
562.485	8399.26172
562.69	8491.63318
562.895	8436.21497
563.1	8842.29754
563.305	8325.33644
563.509	8495.73767
563.714	8302.74313
563.919	8641.39841
564.123	8286.31014
564.328	8696.76577
564.533	8391.04904
564.737	8489.5809
564.942	8497.7899
565.147	8760.31912
565.351	8483.42395
565.556	8801.31196
565.761	8485.47628
565.965	8754.16957
566.17	8633.19468
566.374	8596.27423
566.579	8567.55412
566.784	8637.29658
566.988	8719.31898
567.193	8748.01985
567.397	8508.05071
567.602	8811.55903
567.806	8727.5196
568.011	8989.78627
568.215	8891.47072
568.42	9102.38974
568.624	8961.11511
568.828	8729.56971
569.033	8446.47865
569.237	8946.77824
569.442	8764.41874
569.646	8805.41084
569.85	8748.01985
570.055	8893.51937
570.259	9002.07285
570.463	9137.18386
570.668	9018.45397
570.872	8932.44049
571.076	9219.03289
571.281	8985.6906
571.485	9090.10828
571.689	9335.62122
571.893	9186.29654
572.098	9362.20398
572.302	9174.01929
572.506	9192.43494
572.71	8924.24711
572.914	9247.67365
573.119	8932.44049
573.323	8856.64078
573.527	8965.2112
573.731	9239.49092
573.935	9174.01929
574.139	9394.91742
574.343	9059.4019
574.547	9484.85791
574.751	9362.20398
574.955	9300.85493
575.159	9137.18386
575.364	9317.21613
575.568	9266.08384
575.772	9476.68279
575.976	9415.36119
576.18	9399.0063
576.383	9484.85791
576.587	9511.42527
576.791	9411.27257
576.995	9685.06914
577.199	9619.7106
577.403	9548.2064
577.607	9505.29458
577.811	9478.7266
578.015	9546.16314
578.219	9754.49532
578.422	9433.7592
578.626	9832.06853
578.83	9542.07657
579.034	9895.33597
579.238	9466.46354
579.442	9568.63814
579.645	9593.15415
579.849	9801.45012
580.053	9705.49044
580.257	9834.10964
580.46	9901.45787
580.664	9925.94415
580.868	9664.6463
581.071	10280.76457
581.275	9793.28464
581.479	9913.70128
581.682	9913.70128
581.886	9693.23784
582.09	9981.03062
582.293	10068.73924
582.497	9488.94537
582.7	9978.99057
582.904	10078.9362
583.107	10062.62089
583.311	9917.78229
583.515	10111.56413
583.718	10182.92526
583.922	10193.11833
584.125	9911.66075
584.329	9974.91042
584.532	10076.89684
584.735	10085.05422
584.939	10170.69313
585.142	10252.23134
585.346	10160.49931
585.549	10244.0785
585.753	10048.34424
585.956	10133.99375
586.159	9995.31057
586.363	10622.96278
586.566	10541.51978
586.769	10584.27985
586.973	10052.42335
587.176	10498.75416
587.379	10256.30768
587.582	10671.81908
587.786	10282.80255
587.989	10618.89111
588.192	10435.61367
588.395	10716.59786
588.599	10333.74786
588.802	10698.27998
589.005	10460.05662
589.208	10808.17275
589.411	10470.24063
589.615	10464.13026
589.818	10423.3915
590.021	10730.84443
590.224	10608.7117
590.427	10437.65066
590.63	10763.40581
590.833	10954.64341
591.036	10517.08297
591.239	10922.0995
591.442	10818.34626
591.645	10850.89953
591.848	10714.56259
592.051	11086.82369
592.254	10476.35089
592.457	11007.52113
592.66	10529.30161
592.863	10802.0685
593.066	10529.30161
593.269	10952.6095
593.472	10948.54165
593.675	11296.18565
593.878	10913.96307
594.081	11092.9232
594.284	10594.46
594.486	11080.72408
594.689	10779.68536
594.892	10818.34626
595.095	11009.55474
595.298	11288.05714
595.5	10891.58695
595.703	11054.29132
595.906	10977.01568
596.109	10995.31925
596.311	11220.99072
596.514	11119.35329
596.717	11176.2735
596.92	11218.95823
597.122	11194.56752
597.325	11304.31399
597.528	11432.31429
597.73	11468.87865
597.933	10926.16765
598.136	11330.72999
598.338	11267.73517
598.541	11495.28431
598.743	11302.28192
598.946	11464.8161
599.148	11426.21993
599.351	11176.2735
599.554	11176.2735
599.756	11342.92141
599.959	11448.5655
600.161	11462.78481
600.363	11239.28268
600.566	11405.90474
600.768	11393.71516
600.971	11493.25316
601.173	11517.6263
601.376	11653.68497
601.578	11550.1217
601.78	11574.49168
601.983	11586.67617
602.185	11665.86732
602.388	11653.68497
602.59	11671.95838
602.792	11574.49168
602.995	11757.22478
603.197	11515.59526
603.399	11702.41245
603.601	11899.3016
603.804	11956.12088
604.006	11673.98871
604.208	11556.21432
604.41	11805.94152
604.613	11722.71406
604.815	11767.37451
605.017	11893.21344
605.219	11460.75351
605.421	11673.98871
605.623	11651.65454
605.826	11834.35734
606.028	11680.07966
606.23	11454.65955
606.432	11474.97241
606.634	12027.1361
606.836	11568.39931
607.038	11834.35734
607.24	11637.44132
607.442	11700.38224
607.644	11550.1217
607.846	11657.74579
608.048	11411.9994
608.25	11576.52245
608.452	11440.43997
608.654	11858.71244
608.856	11501.37769
609.058	11690.23106
609.26	11633.38032
609.462	11966.26651
609.664	11885.09577
609.866	11801.88198
610.067	11785.64348
610.269	11801.88198
610.471	11740.98475
610.673	12037.28034
610.875	11858.71244
611.077	12043.36679
611.278	11862.77151
611.48	11805.94152
611.682	11895.24283
611.884	12098.14169
612.085	11842.47584
612.287	12311.10332
612.489	12051.48194
612.69	12142.76896
612.892	12122.48429
613.094	12025.10723
613.295	11767.37451
613.497	11956.12088
613.699	12106.25601
613.9	12232.01267
614.102	12002.78912
614.304	12124.51279
614.505	11745.04481
614.707	11988.58619
614.908	11763.31464
615.11	12023.07835
615.311	12047.42438
615.513	11745.04481
615.714	11921.62422
615.916	12475.33488
616.117	11966.26651
616.319	12146.82581
616.52	11822.17934
616.722	12065.68317
616.923	11958.15002
617.124	12232.01267
617.326	11883.06633
617.527	11978.441
617.729	11866.83054
617.93	12118.42727
618.131	11761.2847
618.333	12006.84703
618.534	11836.38698
618.735	12090.02724
618.937	11600.89099
619.138	12191.44912
619.339	11931.77054
619.54	11925.68278
619.742	12025.10723
619.943	12075.82667
620.144	12177.25118
620.345	12248.23728
620.546	11860.74198
620.748	12505.74334
620.949	12205.6467
621.15	12513.85202
621.351	12081.91267
621.552	12325.29794
621.753	12002.78912
621.954	11923.6535
622.155	11939.88745
622.356	12124.51279
622.558	11925.68278
622.759	12365.85212
622.96	11933.79978
623.161	12156.96778
623.362	11722.71406
623.563	12029.16496
623.764	11907.41903
623.965	12333.409
624.166	12213.75944
624.366	12485.47119
624.567	12049.45317
624.768	12327.32571
624.969	12104.22744
625.17	12351.65847
625.371	12313.13114
625.572	12248.23728
625.773	12041.33798
625.973	12404.37606
626.174	12390.18331
626.375	12544.25865
626.576	12410.45856
626.777	12305.01981
626.977	12079.88401
627.178	12430.73314
627.379	12313.13114
627.58	12345.57537
627.78	12511.82486
627.981	12057.56823
628.182	12542.23158
628.382	12465.1984
628.583	12199.56206
628.784	12400.32102
628.984	12390.18331
629.185	12678.03121
629.386	12085.96997
629.586	12420.59593
629.787	12021.04946
629.987	12158.99616
630.188	12061.62571
630.388	12183.33606
630.589	12016.99166
630.79	12148.85422
630.99	12152.91102
631.191	12483.44394
631.391	12266.48942
631.591	12536.15035
631.792	12426.67828
631.992	12834.06665
632.193	12718.56317
632.393	12714.51008
632.594	12596.96012
632.794	12643.57718
632.994	12473.30759
633.195	12530.06907
633.395	12410.45856
633.595	12532.09617
633.796	12710.45697
633.996	12726.66928
634.196	12258.37743
634.397	12787.46219
634.597	12260.40544
634.797	12787.46219
634.997	12420.59593
635.198	12933.34481
635.398	12611.14827
635.598	12949.55229
635.798	12481.41668
635.998	12625.33611
636.199	12394.23842
636.399	12781.38313
636.599	12396.26596
636.799	12651.68417
636.999	12335.43674
637.199	12720.58971
637.399	12414.51353
637.599	12872.56379
637.799	12209.70308
637.999	12586.82555
638.199	12872.56379
638.399	12669.92454
638.599	12590.8794
638.799	12840.14528
638.999	12757.06638
639.199	12785.43584
639.399	12669.92454
639.599	13036.66186
639.799	12809.75165
639.999	12949.55229
640.199	12617.22881
640.399	12939.42266
640.599	12398.29349
640.799	13184.52492
640.998	12809.75165
641.198	12827.98797
641.398	12830.0142
641.598	12927.26693
641.798	12789.48853
641.997	12983.99207
642.197	12657.76434
642.397	12787.46219
642.597	12765.17205
642.796	12850.27621
642.996	12487.49844
643.196	12716.53663
643.395	12617.22881
643.595	12787.46219
643.795	12742.88123
643.994	12894.85072
644.194	12584.79862
644.394	12678.03121
644.593	12850.27621
644.793	13060.96987
644.992	13069.07238
645.192	13156.16956
645.392	12951.5782
645.591	12973.86288
645.791	13040.71325
645.99	12787.46219
646.19	12757.06638
646.389	12986.0179
646.589	12864.45929
646.788	12856.35471
646.987	12582.77168
647.187	13137.94064
647.386	12880.66821
647.586	12953.6041
647.785	12761.11923
647.984	12682.08451
648.184	12787.46219
648.383	13060.96987
648.582	12882.6943
648.782	13000.19852
648.981	12939.42266
649.18	13056.91858
649.38	12981.96625
649.579	13168.32197
649.778	12904.98093
649.977	13083.25159
650.177	13034.63616
650.376	13259.45987
650.575	13081.226
650.774	13387.03831
650.973	12767.19846
651.173	13241.23301
651.372	12998.17274
651.571	13214.90469
651.77	13253.38429
651.969	13549.02003
652.168	12913.085
652.367	13158.19497
652.566	12931.31886
652.765	13241.23301
652.964	13087.30275
653.163	13295.91255
653.362	13176.42348
653.561	13192.62629
653.76	13004.25009
653.959	13131.86424
654.158	13301.98786
654.357	13168.32197
654.556	12819.88299
654.755	13457.9083
654.954	13261.48505
655.153	13360.71394
655.352	13237.18254
655.551	13324.26368
655.749	13295.91255
655.948	13397.16289
656.147	13216.92997
656.346	13393.11307
656.545	13399.1878
656.743	13144.01699
656.942	13468.0322
657.141	13506.50215
657.34	13058.94423
657.538	13488.27971
657.737	13257.43468
657.936	13603.68356
658.135	13117.68583
658.333	13293.88743
658.532	13042.73893
658.731	13277.68638
658.929	13113.63482
659.128	13577.3644
659.326	13291.86232
659.525	13820.28946
659.724	13253.38429
659.922	13429.56088
660.121	13020.45613
660.319	13399.1878
660.518	13376.91364
660.716	13281.73667
660.915	13206.80352
661.113	13528.77362
661.312	12959.68179
661.51	13609.75713
661.709	13423.48633
661.907	13382.98846
662.105	12953.6041
662.304	13664.41789
662.502	13625.95316
662.701	13555.09388
662.899	13285.78694
663.097	13480.18075
663.296	13277.68638
663.494	13297.93766
663.692	13387.03831
663.891	13115.66033
664.089	13026.53332
664.287	13429.56088
664.485	13277.68638
664.684	13648.22236
664.882	13210.85411
665.08	13271.61092
665.278	13415.38688
665.476	13453.85871
665.675	13312.1133
665.873	13231.10682
666.071	13480.18075
666.269	13490.30444
666.467	13188.57562
666.665	13227.05631
666.863	13308.06313
667.061	13399.1878
667.259	13184.52492
667.457	13654.29571
667.655	13611.78165
667.853	13812.19268
668.051	13026.53332
668.249	13160.22038
668.447	13168.32197
668.645	13111.6093
668.843	13593.56088
669.041	13413.36201
669.239	13077.17481
669.437	13287.81207
669.635	13176.42348
669.833	13346.539
670.031	13421.46147
670.229	13544.97077
670.426	13496.37861
670.624	13512.57623
670.822	13259.45987
671.02	13470.05696
671.218	13119.71134
671.415	13227.05631
671.613	13139.96609
671.811	13267.56058
672.009	13354.63899
672.206	13520.67495
672.404	13210.85411
672.602	13174.39811
672.799	13054.89293
672.997	13269.58575
673.195	13127.81329
673.392	13360.71394
673.59	13326.28873
673.788	13214.90469
673.985	13156.16956
674.183	13370.83878
674.38	13382.98846
674.578	13593.56088
674.775	13336.41392
674.973	13350.589
675.17	13206.80352
675.368	13093.37945
675.565	12961.70768
675.763	13378.93858
675.96	13139.96609
676.158	13314.13837
676.355	12874.5899
676.553	13245.28345
676.75	12850.27621
676.947	13342.48898
677.145	13156.16956
677.342	13338.43894
677.539	13257.43468
677.737	13289.8372
677.934	13164.27118
678.131	13330.33882
678.329	12923.21497
678.526	13299.96276
678.723	13269.58575
678.92	13352.614
679.118	12947.52637
679.315	13277.68638
679.512	13196.67695
679.709	13368.81382
679.906	12957.6559
680.104	13472.08173
680.301	13046.79028
680.498	13208.82882
680.695	13048.81595
680.892	13480.18075
681.089	13099.45611
681.286	13214.90469
681.483	12876.61601
681.68	12882.6943
681.877	12923.21497
682.075	12941.44859
682.272	12992.09534
682.469	13285.78694
682.665	13083.25159
682.862	13099.45611
683.059	13075.14921
683.256	12915.11101
683.453	12767.19846
683.65	12799.62016
683.847	12730.7223
684.044	12623.30929
684.241	12775.30402
684.438	13079.20041
684.635	12767.19846
684.831	12965.75943
685.028	12629.38972
685.225	12848.25004
685.422	12528.04196
685.619	12931.31886
685.815	12870.53768
686.012	12838.11907
686.209	12700.32408
686.405	12909.03298
686.602	12572.63689
686.799	12637.49688
686.996	12617.22881
687.192	12771.25125
687.389	12678.03121
687.586	12868.51155
687.782	12702.35067
687.979	12852.30238
688.175	12590.8794
688.372	12872.56379
688.568	12570.60991
688.765	12564.52895
688.962	12305.01981
689.158	12505.74334
689.355	12451.00705
689.551	12947.52637
689.748	12428.70571
689.944	12680.05787
690.14	12077.85534
690.337	12568.58293
690.533	12361.79683
690.73	12574.66386
690.926	12949.55229
691.123	12556.4209
691.319	12351.65847
691.515	12548.31276
691.712	12225.92833
691.908	12732.74881
692.104	12388.15575
692.301	12509.79769
692.497	12315.15896
692.693	12700.32408
692.889	12611.14827
693.086	12607.09454
693.282	12542.23158
693.478	12631.41652
693.674	12534.12326
693.87	12554.39388
694.067	12570.60991
694.263	12365.85212
694.459	12345.57537
694.655	12369.90739
694.851	12444.92495
695.047	12355.71383
695.243	12392.21087
695.439	12420.59593
695.635	12422.62339
695.831	12448.97969
696.027	12128.56977
696.224	12396.26596
696.42	12307.04765
696.615	12495.60735
696.811	12355.71383
697.007	12410.45856
697.203	12288.7968
697.399	12201.59028
697.595	12134.65518
697.791	12201.59028
697.987	11753.16482
698.183	12390.18331
698.379	12148.85422
698.575	12355.71383
698.77	12053.51071
698.966	12483.44394
699.162	12254.32139
699.358	12333.409
699.554	12128.56977
699.749	12227.95645
699.945	12012.93383
700.141	12171.16624
700.337	12266.48942
700.532	12248.23728
700.728	11897.27222
700.924	11966.26651
701.119	12041.33798
701.315	12274.60129
701.511	11915.53633
701.706	12337.46448
701.902	11771.43434
702.097	12069.74059
702.293	11846.53504
702.489	12256.34941
702.684	12418.56847
702.88	12329.35348
703.075	11883.06633
703.271	11972.35379
703.466	11854.65334
703.662	11826.2387
703.857	12071.76929
704.053	11929.7413
704.248	12175.22288
704.443	12215.7876
704.639	11738.95471
704.834	12041.33798
705.03	11777.52402
705.225	11680.07966
705.42	11745.04481
705.616	11826.2387
705.811	11637.44132
706.006	12000.76016
706.202	11657.74579
706.397	11909.44837
706.592	11801.88198
706.787	11915.53633
706.983	11694.29156
707.178	12262.43344
707.373	11830.29804
707.568	11775.49414
707.763	11582.61471
707.959	11980.47006
708.154	11554.18346
708.349	11641.50229
708.544	11805.94152
708.739	11838.41661
708.934	11558.24518
709.129	11834.35734
709.324	11761.2847
709.519	12025.10723
709.714	11487.15966
709.909	11805.94152
710.104	11568.39931
710.299	11537.93621
710.494	11389.65189
710.689	11779.5539
710.884	11422.15697
711.079	11558.24518
711.274	11495.28431
711.469	11755.1948
711.664	11671.95838
711.859	11887.1252
712.054	11663.83695
712.249	11881.03689
712.443	11556.21432
712.638	11801.88198
712.833	11460.75351
713.028	11909.44837
713.223	11373.39841
713.417	11870.88954
713.612	11623.22765
713.807	11876.97797
714.002	11745.04481
714.196	11706.47284
714.391	11349.01699
714.586	11606.98292
714.78	11464.8161
714.975	11442.47137
715.17	11558.24518
715.364	11785.64348
715.559	11781.58377
715.754	11424.18845
715.948	11586.67617
716.143	11684.14025
716.337	11420.12547
716.532	11753.16482
716.726	11509.50207
716.921	11479.03486
717.115	11631.3498
717.31	11456.69088
717.504	11176.2735
717.699	11436.37715
717.893	11507.47099
718.088	11631.3498
718.282	11541.99808
718.476	11214.89322
718.671	11225.05567
718.865	11432.31429
719.059	11288.05714
719.254	11265.70291
719.448	11151.88015
719.642	11391.68353
719.837	11066.49129
720.031	11479.03486
720.225	11056.32468
720.419	11387.62024
720.614	10936.33782
720.808	11296.18565
721.002	11013.62192
721.196	10948.54165
721.39	10854.96848
721.585	11160.01143
721.779	10863.10624
721.973	11038.02409
722.167	10859.03738
722.361	10915.9972
722.555	10867.17505
722.749	10793.92934
722.943	10830.55409
723.137	11172.20805
723.331	11111.22115
723.525	11184.40428
723.719	10991.25187
723.913	11025.8232
724.107	10781.72025
724.301	11001.42024
724.495	10808.17275
724.689	10948.54165
724.883	10785.78999
725.077	10830.55409
725.271	11017.68906
725.465	11147.81444
725.659	10934.30381
725.853	11249.44451
726.046	10873.27818
726.24	10985.15071
726.434	10329.67254
726.628	10897.68967
726.822	10690.13838
727.015	11194.56752
727.209	11005.48751
727.403	11194.56752
727.596	10797.99895
727.79	11038.02409
727.984	10793.92934
728.177	11023.78968
728.371	10635.17752
728.565	10871.24382
728.758	10388.75947
728.952	10889.55269
729.146	10582.24378
729.339	10795.96415
729.533	10592.424
729.726	10716.59786
729.92	10641.28472
730.113	10779.68536
730.307	10767.47577
730.5	10502.82732
730.694	10653.4988
730.887	10690.13838
731.081	10567.99095
731.274	10797.99895
731.468	10741.02019
731.661	10974.98189
731.854	10777.65045
732.048	10887.51842
732.241	11070.55785
732.435	11005.48751
732.628	10940.40581
732.821	10679.96111
733.014	10633.14176
733.208	10901.75809
733.401	10620.92695
733.594	10857.00294
733.788	10728.80924
733.981	10928.20171
734.174	10570.02711
734.367	10523.19235
734.56	10329.67254
734.754	10907.86063
734.947	10392.83402
735.14	10730.84443
735.333	10991.25187
735.526	10747.1255
735.719	10720.66837
735.912	10570.02711
736.105	10736.94992
736.298	10570.02711
736.491	10525.22878
736.684	10586.3159
736.877	10622.96278
737.07	10590.38798
737.263	10435.61367
737.456	10563.9186
737.649	10590.38798
737.842	10508.93696
738.035	10576.1355
738.228	10411.16886
738.421	10474.31415
738.614	10398.94575
738.807	10537.44711
739	10447.83538
739.192	10704.38604
739.385	10504.86388
739.578	10460.05662
739.771	10246.11673
739.964	10266.49828
740.156	10488.57105
740.349	10060.58141
740.542	10563.9186
740.735	10496.71757
740.927	10629.07021
741.12	10252.23134
741.313	10229.81051
741.505	10297.06808
741.698	10329.67254
741.891	10235.92545
742.083	10462.09345
742.276	10272.61249
742.468	10184.9639
742.661	10156.42169
742.854	10060.58141
743.046	10009.58982
743.239	10158.46051
743.431	10358.19865
743.624	10060.58141
743.816	10356.16116
744.009	10170.69313
744.201	10048.34424
744.393	10117.68147
744.586	10217.58028
744.778	10545.59241
744.971	10264.46019
745.163	10443.76153
745.355	10299.10596
745.548	10054.46289
745.74	10113.60326
745.932	9905.53906
746.125	10146.22738
746.317	10109.52499
746.509	10313.37074
746.702	10425.42856
746.894	10125.83772
747.086	9987.15068
747.278	10160.49931
747.471	9974.91042
747.663	10146.22738
747.855	10339.86074
748.047	10280.76457
748.239	10168.6544
748.431	10138.07168
748.623	10460.05662
748.815	10321.52175
749.008	10160.49931
749.2	10184.9639
749.392	10606.67578
749.584	10419.31734
749.776	10486.53439
749.968	10250.19315
750.16	10453.94606
750.352	10225.73382
750.544	10272.61249
750.736	9907.57964
750.928	10176.80926
751.12	9911.66075
751.311	9934.10578
751.503	10142.14956
751.695	10060.58141
751.887	10252.23134
752.079	10011.62965
752.271	9872.88786
752.463	10354.12365
752.654	9983.07065
752.846	10017.74907
753.038	9625.83864
753.23	10034.06689
753.421	9793.28464
753.613	9736.11952
753.805	9736.11952
753.997	9611.53967
754.188	9848.39698
754.38	9827.98627
754.572	9995.31057
754.763	9607.45411
754.955	9885.1325
755.146	9778.99447
755.338	9584.98239
755.53	9552.29287
755.721	9889.21393
755.913	9582.93942
756.104	9852.47894
756.296	9856.56084
756.487	9652.39186
756.679	9776.95296
756.87	9358.1145
757.062	9597.23993
757.253	9546.16314
757.445	9325.39633
757.636	9219.03289
757.827	9693.23784
758.019	9752.45362
758.21	9429.67087
758.401	9584.98239
758.593	9204.71127
758.784	9423.53825
758.975	9362.20398
759.167	9366.29339
759.358	9703.44838
759.549	9517.55582
759.74	9392.87295
759.932	9335.62122
760.123	9304.94533
760.314	9433.7592
760.505	9464.41964
760.696	9116.71733
760.888	9484.85791
761.079	9126.95081
761.27	9390.82847
761.461	9196.52712
761.652	9386.73945
761.843	9128.99746
762.034	9329.48634
762.225	9104.43659
762.416	9317.21613
762.607	8981.59486
762.798	9239.49092
762.989	9178.11178
763.18	9362.20398
763.371	9186.29654
763.562	9169.92674
763.753	8846.3957
763.944	9507.33816
764.135	9022.54908
764.326	9133.09069
764.517	8832.05182
764.708	9022.54908
764.899	8889.42204
765.089	8737.76995
765.28	8799.26249
765.471	9065.54349
765.662	8795.1635
765.853	8758.26929
766.043	8571.65722
766.234	8760.31912
766.425	8604.4793
766.615	8776.71713
766.806	8711.11807
766.997	8801.31196
767.187	8622.93961
767.378	8745.96991
767.569	8561.39933
767.759	8797.213
767.95	8532.67474
768.141	8678.31148
768.331	8776.71713
768.522	8737.76995
768.712	8499.8421
768.903	8727.5196
769.093	8319.17486
769.284	8401.31485
769.474	8659.8557
769.665	8557.29605
769.855	8352.03458
770.046	8510.10282
770.236	7980.01333
770.426	8432.10936
770.617	8267.82153
770.807	8440.3205
770.998	8347.92739
771.188	8417.73912
771.378	8317.12096
771.569	8140.41205
771.759	8304.79716
771.949	8023.20972
772.139	8251.38588
772.33	8105.46382
772.52	8158.91172
772.71	8333.5516
772.9	8276.03889
773.09	8239.0583
773.281	8243.16757
773.471	8113.68745
773.661	8341.76646
773.851	8483.42395
774.041	8132.18946
774.231	8095.18382
774.421	7914.17293
774.611	7875.07023
774.802	8041.71971
774.992	7938.86554
775.182	7990.299
775.372	8222.62044
775.562	7683.56448
775.752	8095.18382
775.942	7996.47016
776.131	8021.15295
776.321	8021.15295
776.511	8195.9062
776.701	7980.01333
776.891	8021.15295
777.081	7811.25505
777.271	7949.15326
777.461	8134.24514
777.651	7751.53886
777.84	7990.299
778.03	7934.75031
778.22	7831.84278
778.41	7842.13586
778.599	7920.34636
778.789	7910.05721
778.979	7652.65944
779.169	7786.54703
779.358	7609.38436
779.548	7850.36995
779.738	7712.4049
779.927	7759.77662
780.117	7601.14042
780.307	7873.01199
780.496	7413.49815
780.686	7675.3236
780.875	7361.91671
781.065	7566.09989
781.254	7566.09989
781.444	7613.5062
781.633	7427.93851
781.823	7271.10019
782.012	7297.93676
782.202	7549.60808
782.391	7347.47146
782.581	7500.12443
782.77	7473.31561
782.96	7724.76381
783.149	7345.40777
783.338	7246.32466
783.528	7236.00059
783.717	7355.72602
783.906	7483.62713
784.096	7320.64173
784.285	7407.30909
784.474	7475.37796
784.663	7242.1951
784.853	7074.87329
785.042	6979.78579
785.231	7339.21655
785.42	7382.55092
785.61	7411.43515
785.799	7314.44973
785.988	7306.19342
786.177	6977.71815
786.366	6977.71815
786.555	7143.05905
786.744	7370.17065
786.933	7048.00555
787.122	7330.9613
787.312	6969.44733
787.501	6990.1237
787.69	6868.10047
787.879	7122.39926
788.068	6725.295
788.257	7027.33548
788.445	6948.76871
788.634	7196.76408
788.823	7056.27295
789.012	7107.93609
789.201	6874.30694
789.39	6834.99582
789.579	6855.68691
789.768	7074.87329
789.957	6936.36045
790.145	6977.71815
790.334	6721.15408
790.523	6849.47982
790.712	6754.27881
790.9	6973.58278
791.089	6580.30837
791.278	6855.68691
791.467	6663.17168
791.655	6981.85342
791.844	6928.08783
792.033	6729.43582
792.221	6669.38494
792.41	6735.64687
792.599	6532.64524
792.787	6478.75043
792.976	6694.23592
793.164	6704.58952
793.353	6617.60143
793.541	6528.50005
793.73	6741.85773
793.918	6948.76871
794.107	6572.02001
794.295	6710.8014
794.484	6601.02766
794.672	6630.03078
794.861	6671.45598
795.049	6528.50005
795.238	6561.65904
795.426	6630.03078
795.614	6505.6998
795.803	6586.5244
795.991	6441.42945
796.179	6603.09946
796.368	6449.72365
796.556	6482.89674
796.744	6391.65641
796.932	6592.74022
797.121	6252.63556
797.309	6252.63556
797.497	6236.02904
797.685	6435.20855
797.874	6273.39161
798.062	6516.06389
798.25	6105.20023
798.438	6346.01934
798.626	6314.89667
798.814	6424.83992
799.002	6049.10218
799.19	6289.99475
799.378	6165.43459
799.566	6418.61847
799.755	6128.05007
799.943	6144.66635
800.131	6431.06117
800.318	6337.72047
800.506	5961.80444
800.694	6165.43459
800.882	6020.00755
801.07	6379.21105
801.258	6352.24324
801.446	6567.87569
801.634	6372.98806
801.822	6123.89576
802.01	6177.8944
802.197	6472.53079
802.385	6177.8944
802.573	6418.61847
802.761	6285.84411
802.949	6167.51128
803.136	6177.8944
803.324	6358.46693
803.512	6298.29577
803.699	6555.44218
803.887	6088.58037
804.075	6136.3584
804.262	5947.25078
804.45	6084.42517
804.638	6020.00755
804.825	6128.05007
805.013	5820.37707
805.201	6219.42102
805.388	5928.53723
805.576	6375.06242
805.763	6236.02904
805.951	6256.78696
806.138	6445.57659
806.326	6300.37096
806.513	6125.97293
806.701	6335.6457
806.888	6040.7899
807.075	6356.39239
807.263	6086.50279
807.45	6213.19263
807.638	5999.22285
807.825	6470.45753
808.012	6069.88124
808.2	6354.31783
808.387	6227.72522
808.574	6370.91368
808.761	6107.2776
808.949	6370.91368
809.136	5861.98468
809.323	6269.24058
809.51	5953.48821
809.698	6190.35337
809.885	6171.6646
810.072	6273.39161
810.259	6128.05007
810.446	6310.74659
810.633	6217.34491
810.82	6219.42102
811.008	6289.99475
811.195	6503.62691
811.382	6136.3584
811.569	6543.00783
811.756	6146.74328
811.943	6484.96986
812.13	6071.95901
812.317	6343.94465
812.504	6240.18081
812.691	6271.31611
812.878	6179.97096
813.064	6236.02904
813.251	5995.06563
813.438	6327.34637
813.625	5847.42309
813.812	6105.20023
813.999	5949.32995
814.186	6348.09399
814.372	6254.71127
814.559	6327.34637
814.746	5938.93388
814.933	6152.97393
815.12	6217.34491
815.306	6182.04749
815.493	6007.53701
815.68	6219.42102
815.866	5899.42346
816.053	6316.97168
816.24	5970.12031
816.426	6109.35496
816.613	6005.45851
816.799	6032.47725
816.986	5999.22285
817.173	6069.88124
817.359	5859.90452
817.546	6157.12758
817.732	5918.13998
817.919	6200.7352
818.105	5918.13998
818.292	5978.43579
818.478	5857.82434
818.665	6096.89049
818.851	5924.3784
819.037	6011.69396
819.224	5716.31674
819.41	5880.70503
819.597	6022.0859
819.783	6003.37998
819.969	6005.45851
820.156	6130.12719
820.342	6007.53701
820.528	5897.34373
820.714	5780.84109
820.901	6032.47725
821.087	5857.82434
821.273	5949.32995
821.459	6053.25818
821.646	5978.43579
821.832	5778.76002
822.018	5816.21579
822.204	5695.49759
822.39	6007.53701
822.576	5716.31674
822.762	6051.1802
822.948	5747.54103
823.134	5970.12031
823.32	5612.19741
823.507	5947.25078
823.693	5826.61881
823.879	6015.8508
824.065	5528.8595
824.25	5703.82553
824.436	5497.59806
824.622	5903.58285
824.808	5880.70503
824.994	5753.78525
825.18	5770.43547
825.366	5739.21507
825.552	5353.7273
825.738	5618.44623
825.923	5339.12547
826.109	5612.19741
826.295	5418.37873
826.481	5457.99264
826.667	5501.76656
826.852	5720.48028
827.038	5357.89904
827.224	5485.092
827.409	5382.92752
827.595	5537.19498
827.781	5478.83866
827.966	5712.1531
828.152	5445.4839
828.338	5382.92752
828.523	5170.07805
828.709	5341.21152
828.894	5270.27281
829.08	5589.28324
829.266	5380.84194
829.451	5535.11115
829.637	5272.35963
829.822	5320.35
830.008	5086.54144
830.193	5280.70667
830.378	5103.25173
830.564	5347.46952
830.749	5109.51771
830.935	5238.96773
831.12	5130.4028
831.305	5424.63412
831.491	5278.61995
831.676	5420.46388
831.861	5211.8324
832.047	5339.12547
832.232	5157.54993
832.417	5418.37873
832.602	5094.89677
832.788	5009.23704
832.973	5061.47321
833.158	5138.75618
833.343	4810.60845
833.528	5086.54144
833.714	5101.16303
833.899	5301.57264
834.084	4718.54228
834.269	5159.63801
834.454	5040.58047
834.639	5063.56236
834.824	5017.59579
835.009	5059.38404
835.194	4902.63056
835.379	5046.84854
835.564	4779.22718
835.749	5046.84854
835.934	4858.71643
836.119	4852.44216
836.304	4837.8014
836.489	4963.25727
836.674	4739.47026
836.859	4806.42457
837.044	4636.90163
837.228	4682.95953
837.413	4779.22718
837.598	5038.49107
837.783	4668.30592
837.968	4927.71982
838.152	4883.81146
838.337	4898.4487
838.522	4672.49278
838.707	4764.58085
838.891	4465.13615
839.076	4781.31943
839.261	4735.28484
839.445	4718.54228
839.63	4450.46636
839.815	4739.47026
839.999	4282.73571
840.184	4609.68049
840.368	4351.94142
840.553	4448.37059
840.737	4393.87281
840.922	4643.18289
841.106	4343.5541
841.291	4613.8686
841.475	4546.8481
841.66	4779.22718
841.844	4404.3543
842.029	4638.9954
842.213	4620.15061
842.397	4672.49278
842.582	4431.60362
842.766	4416.93137
842.951	4102.27224
843.135	4375.00476
843.319	4316.29293
843.504	4156.84744
843.688	4175.73555
843.872	4793.87241
844.056	4502.85353
844.241	4779.22718
844.425	4393.87281
844.609	4458.84923
844.793	4377.1013
844.977	4475.61392
845.161	4037.1834
845.346	4289.02811
845.53	3972.07475
845.714	4074.97935
845.898	4007.78193
846.082	4140.05658
846.266	4102.27224
846.45	4167.34105
846.634	3879.62892
846.818	3967.87351
847.002	4049.7828
847.186	4119.06612
847.37	4081.27802
847.554	4295.32031
847.738	3963.6722
847.922	4182.03121
848.106	3986.77842
848.29	3957.37007
848.473	3833.39144
848.657	3921.65459
848.841	3803.9626
849.025	4068.68049
849.209	3923.75566
849.392	3980.47697
849.576	3799.75816
849.76	3652.55392
849.944	3688.3122
850.127	3873.32437
850.311	3703.03459
850.495	3820.77955
850.678	3696.72511
850.862	4018.28292
851.046	3677.79563
851.229	3896.44015
851.413	3803.9626
851.596	3888.03469
851.78	3698.82829
851.964	3839.69712
852.147	3564.18654
852.331	3791.34905
852.514	3465.2605
852.698	3890.13609
852.881	3602.06232
853.065	3904.84529
853.248	3581.02096
853.431	3820.77955
853.615	3155.60225
853.798	3549.45544
853.982	3408.41257
854.165	3562.08215
854.348	3332.59529
854.532	3618.89406
854.715	3353.65792
854.898	3526.30474
855.081	3391.56625
855.265	3673.58887
855.448	3393.6721
855.631	3610.47834
855.814	3402.09533
855.997	3559.97774
856.181	3223.04207
856.364	3431.57441
856.547	3446.31264
856.73	3433.67992
856.913	3195.64668
857.096	3503.15183
857.279	3183.00171
857.462	3719.85903
857.645	3416.83531
857.828	3206.1837
858.011	3092.36234
858.194	3193.53922
858.377	2955.2943
858.56	3404.2011
858.743	3157.71
858.926	3332.59529
859.109	3071.2792
859.292	3448.41803
859.475	3142.95543
859.658	3282.03797
859.841	3117.66003
860.023	3225.1493
860.206	2927.87302
860.389	3296.78487
860.572	3094.47057
860.755	3227.2565
860.937	3195.64668
861.12	3142.95543
861.303	3088.14584
861.486	3206.1837
861.668	2936.3106
861.851	2902.55888
862.034	2887.79133
862.216	3018.56452
862.399	2809.72271
862.581	3014.34692
862.764	2735.85661
862.947	3134.52389
863.129	2868.80345
863.312	2953.18506
863.494	2740.07798
863.677	2841.37447
863.859	2752.74175
864.042	2809.72271
864.224	2558.51323
864.406	2780.17826
864.589	2596.52274
864.771	2830.82423
864.954	2583.85334
865.136	2636.63964
865.318	2531.05954
865.501	2691.52913
865.683	2609.19171
865.865	2742.18864
866.048	2364.18502
866.23	2518.38794
866.412	2575.40683
866.594	2843.48448
866.777	2448.6869
866.959	2868.80345
867.141	2541.61889
867.323	2699.97291
867.505	2621.86024
867.687	2634.52833
867.869	2431.78787
868.052	2558.51323
868.234	2319.81501
868.416	2607.08025
868.598	2311.36309
868.78	2649.3072
868.962	2389.53733
869.144	2634.52833
869.326	2355.73393
869.508	2655.64081
869.69	2313.47608
869.872	2421.22563
870.054	2336.71838
870.236	2666.19658
870.417	2412.77565
870.599	2497.2677
870.781	2324.04091
870.963	2395.87518
871.145	2269.10121
871.327	2429.67545
871.508	2133.83932
871.69	2243.74231
871.872	2311.36309
872.054	2176.11237
872.235	2252.19542
872.417	2497.2677
872.599	2258.53516
872.78	2543.73072
872.962	2353.62113
873.144	2438.12509
873.325	2193.02068
873.507	2404.3255
873.689	2169.77162
873.87	2359.9595
874.052	2383.19939
874.233	2539.50704
874.415	2220.49552
874.596	2370.52324
874.778	2150.74893
874.959	2400.10036
875.141	2089.44923
875.322	2376.86136
875.503	2013.34445
875.685	2349.3955
875.866	2119.043
876.048	2222.60891
876.229	2216.26871
876.41	2252.19542
876.592	2193.02068
876.773	2427.56301
876.954	2161.31717
877.136	2201.47463
877.317	2226.83566
877.498	2214.1553
877.679	2165.54441
877.86	2450.79923
878.042	2193.02068
878.223	2169.77162
878.404	2144.40788
878.585	2163.4308
878.766	2197.24767
878.947	2279.66703
879.128	2212.04188
879.309	2222.60891
879.49	2023.91509
879.672	2305.02405
879.853	2133.83932
880.034	2370.52324
880.215	2294.45879
880.396	2258.53516
880.576	2233.17572
880.757	2528.94764
880.938	2112.7016
881.119	2516.27597
881.3	2184.56659
881.481	2252.19542
881.662	2154.97625
881.843	2370.52324
882.023	2237.40238
882.204	2349.3955
882.385	2290.23262
882.566	2258.53516
882.747	2273.32756
882.927	2328.26677
883.108	2328.26677
883.289	2302.91101
883.469	2173.9988
883.65	2298.68492
883.831	2281.78017
884.011	2176.11237
884.192	2201.47463
884.373	2469.8097
884.553	2184.56659
884.734	2112.7016
884.914	2188.79365
885.095	2370.52324
885.275	2119.043
885.456	2444.46221
885.636	2277.55388
885.817	2389.53733
885.997	2237.40238
886.178	2357.84672
886.358	2205.70155
886.538	2547.95435
886.719	2391.64996
886.899	2729.52447
887.08	2235.28905
887.26	2421.22563
887.44	2324.04091
887.621	2385.31205
887.801	2288.11952
887.981	2347.28267
888.161	2178.22594
888.342	2469.8097
888.522	2245.8556
888.702	2338.83126
888.882	2163.4308
889.062	2309.25008
889.242	2123.27055
889.423	2444.46221
889.603	2273.32756
889.783	2600.74578
889.963	2176.11237
890.143	2436.01269
890.323	2032.37149
890.503	2417.00066
890.683	2243.74231
890.863	2438.12509
891.043	2142.29418
891.223	2448.6869
891.403	2328.26677
891.583	2619.74885
891.763	2264.87482
891.943	2431.78787
892.122	2330.37969
892.302	2457.13615
892.482	2298.68492
892.662	2061.968
892.842	2142.29418
893.022	2222.60891
893.201	2045.05587
893.381	2467.69747
893.561	2023.91509
893.741	2385.31205
893.92	2199.36115
894.1	2199.36115
894.28	2307.13707
894.459	2408.5506
894.639	2277.55388
894.819	2364.18502
894.998	2021.80098
895.178	2281.78017
895.357	1928.77358
895.537	2254.30867
895.716	2057.74001
895.896	2057.74001
896.075	2051.39797
896.255	2076.76574
896.434	1964.7174
896.614	2023.91509
896.793	2083.10751
896.973	2252.19542
897.152	1943.57418
897.331	2072.53785
897.511	1954.14587
897.69	2051.39797
897.87	1799.78597
898.049	2057.74001
898.228	1829.39128
898.407	2059.85401
898.587	1869.56846
898.766	2007.00198
898.945	1837.84978
899.124	2040.82777
899.304	1873.79754
899.483	2100.0186
899.662	1901.28602
899.841	1863.22481
900.02	1634.82871
900.199	1960.4888
900.378	1609.44912
900.557	1956.26019
900.737	1668.66763
900.916	1778.6388
901.095	1708.85044
901.274	1890.71363
901.453	1613.67908
901.632	1854.76655
901.811	1761.72078
901.989	1751.14689
902.168	1560.80416
902.347	1736.34329
902.526	1493.12306
902.705	1598.87421
902.884	1474.08762
903.063	1668.66763
903.242	1499.4682
903.42	1696.16125
903.599	1351.41509
903.778	1425.44143
903.957	1541.76896
904.135	1474.08762
904.314	1228.74708
904.493	1577.72425
904.672	1213.9429
904.85	1387.37061
905.029	1207.59829
905.207	1465.62741
905.386	1235.09178
905.565	1285.85024
905.743	1125.12148
905.922	1397.94582
906.1	1211.82803
906.279	1239.32159
906.457	1029.96458
906.636	1118.77737
906.814	1017.27783
906.993	1123.00677
907.171	1027.8501
907.35	1106.08928
907.528	983.44761
907.707	1131.46563
907.885	936.93384
908.063	1095.516
908.242	907.336
908.42	1135.69509
908.598	1023.62118
908.777	1175.87575
908.955	977.10462
909.133	1053.22416
909.311	898.87975
909.49	1112.43331
909.668	875.62572
909.846	1080.71362
910.024	1019.39227
910.202	1057.45324
910.38	1044.76605
910.559	1156.84262
910.737	958.07604
910.915	1087.05747
911.093	907.336
911.271	1097.63065
911.449	970.7617
911.627	1076.48441
911.805	974.99031
911.983	1063.79692
912.161	924.24887
912.339	1165.30175
912.517	960.1903
912.695	1152.61308
912.872	979.21894
913.05	1144.15405
913.228	873.51177
913.406	1042.65153
913.584	1053.22416
913.762	1118.77737
913.939	983.44761
914.117	1112.43331
914.295	917.90649
914.473	1042.65153
914.65	968.64741
914.828	1144.15405
915.006	949.61908
915.184	987.67629
915.361	991.90501
915.539	1027.8501
915.716	932.70549
915.894	1120.89207
916.072	917.90649
916.249	1095.516
916.427	987.67629
916.604	970.7617
916.782	850.25884
916.959	1000.36252
917.137	943.27643
917.314	1097.63065
917.492	991.90501
917.669	947.50485
917.847	816.43829
918.024	991.90501
918.201	936.93384
918.379	985.56195
918.556	729.78425
918.733	827.00696
918.911	786.84724
919.088	1042.65153
919.265	856.60045
919.442	998.24813
919.62	797.41526
919.797	805.86985
919.974	822.77947
920.151	780.50655
920.328	778.393
920.506	797.41526
920.683	712.87816
920.86	797.41526
921.037	702.31221
921.214	727.67095
921.391	619.90764
921.568	695.97277
921.745	717.10462
921.922	740.35091
922.099	681.18114
922.276	776.27947
922.453	695.97277
922.63	860.82823
922.807	755.14466
922.984	784.73367
923.161	613.56959
923.338	674.84204
923.514	609.34428
923.691	685.40726
923.868	662.16415
924.045	723.44439
924.222	698.0859
924.399	647.37382
924.575	605.11903
924.752	674.84204
924.929	581.88105
925.105	560.75699
925.282	617.79494
925.459	653.71246
925.635	655.82537
925.812	753.03124
925.989	455.15771
926.165	727.67095
926.342	493.16926
926.518	729.78425
926.695	476.27464
926.871	603.00642
927.048	619.90764
927.224	586.10602
927.401	442.48828
927.577	615.68226
927.754	484.72183
927.93	630.47131
928.107	362.262
928.283	548.0832
928.459	535.4099
928.636	446.71136
928.812	389.70517
928.988	512.17684
929.165	512.17684
929.341	459.38097
929.517	391.8163
929.693	514.28887
929.87	341.15383
930.046	495.28116
930.222	377.03874
930.398	406.59467
930.574	480.4982
930.751	417.15113
930.927	448.82293
931.103	374.92772
931.279	444.59982
931.455	476.27464
931.631	391.8163
931.807	402.37219
931.983	366.48384
932.159	377.03874
932.335	292.61173
932.511	391.8163
932.687	391.8163
932.863	387.59405
933.039	301.05315
933.215	393.92744
933.391	237.74979
933.566	288.39113
933.742	284.17061
933.918	244.07936
934.094	241.96948
934.27	294.72206
934.445	288.39113
934.621	317.93686
934.797	159.69982
934.973	258.84902
935.148	250.4091
935.324	269.39935
935.5	265.17916
935.675	222.98148
935.851	199.77609
936.027	166.02716
936.202	104.87091
936.378	193.44776
936.553	128.06598
936.729	159.69982
936.904	159.69982
937.08	212.43327
937.255	113.30518
937.431	104.87091
937.606	180.79167
937.782	161.80891
937.957	104.87091
938.133	147.04571
938.308	62.70491
938.483	88.00344
938.659	92.22017
938.834	130.17476
939.009	45.84105
939.185	119.63111
939.36	142.82785
939.535	79.57023
939.71	64.813
939.886	37.40968
940.061	83.78679
940.236	79.57023
940.411	12.11781
940.586	39.51749
940.761	45.84105
940.937	-4.74153
941.112	73.24557
941.287	138.61006
941.462	83.78679
941.637	-44.77622
941.812	96.437
941.987	81.6785
942.162	52.16483
942.337	115.4138
942.512	88.00344
942.687	123.8485
942.862	31.08639
943.037	16.33288
943.212	-0.52684
943.386	77.46199
943.561	100.65391
943.736	14.22533
943.911	41.62532
944.086	16.33288
944.26	85.8951
944.435	66.92111
944.61	123.8485
944.785	79.57023
944.959	-25.81353
945.134	20.54805
945.309	62.70491
945.483	1.58054
945.658	73.24557
945.833	3.68794
946.007	14.22533
946.182	62.70491
946.357	-11.06339
946.531	64.813
946.706	20.54805
946.88	39.51749
947.055	58.48881
947.229	123.8485
947.404	96.437
947.578	22.65567
947.752	28.97868
947.927	41.62532
948.101	47.94895
948.276	-2.6342
948.45	115.4138
948.624	71.13739
948.799	56.38079
948.973	-2.6342
949.147	58.48881
949.321	41.62532
949.496	-2.6342
949.67	50.05688
949.844	73.24557
950.018	-13.17063
950.193	79.57023
950.367	140.71894
950.541	39.51749
950.715	62.70491
950.889	45.84105
951.063	5.79537
951.237	106.97945
951.411	106.97945
951.585	73.24557
951.759	5.79537
951.933	45.84105
952.107	92.22017
952.281	47.94895
952.455	100.65391
952.629	20.54805
952.803	96.437
952.977	3.68794
953.151	20.54805
953.325	54.2728
953.499	66.92111
953.672	50.05688
953.846	52.16483
954.02	71.13739
954.194	96.437
954.368	157.59075
954.541	104.87091
954.715	113.30518
954.889	54.2728
955.062	24.76332
955.236	109.088
955.41	79.57023
955.583	31.08639
955.757	18.44046
955.93	3.68794
956.104	43.73317
956.278	28.97868
956.451	66.92111
956.625	60.59685
956.798	22.65567
956.972	96.437
957.145	147.04571
957.319	73.24557
957.492	-8.95613
957.665	20.54805
957.839	60.59685
958.012	104.87091
958.185	62.70491
958.359	113.30518
958.532	113.30518
958.705	28.97868
958.879	20.54805
959.052	31.08639
959.225	96.437
959.398	28.97868
959.572	37.40968
959.745	54.2728
959.918	16.33288
960.091	41.62532
960.264	50.05688
960.438	88.00344
960.611	24.76332
960.784	113.30518
960.957	-32.13465
961.13	50.05688
961.303	28.97868
961.476	28.97868
961.649	7.90283
961.822	96.437
961.995	3.68794
962.168	98.54544
962.341	79.57023
962.514	24.76332
962.686	10.01031
962.859	52.16483
963.032	31.08639
963.205	83.78679
963.378	71.13739
963.551	47.94895
963.723	16.33288
963.896	73.24557
964.069	66.92111
964.242	71.13739
964.414	71.13739
964.587	79.57023
964.76	20.54805
964.932	24.76332
965.105	75.35377
965.278	20.54805
965.45	22.65567
965.623	56.38079
965.795	79.57023
965.968	33.19413
966.14	20.54805
966.313	35.30189
966.485	22.65567
966.658	104.87091
966.83	56.38079
967.003	20.54805
967.175	22.65567
967.348	24.76332
967.52	14.22533
967.692	138.61006
967.865	90.11179
968.037	-4.74153
968.209	119.63111
968.382	79.57023
968.554	3.68794
968.726	50.05688
968.898	28.97868
969.071	71.13739
969.243	100.65391
969.415	-11.06339
969.587	98.54544
969.759	20.54805
969.932	31.08639
970.104	-11.06339
970.276	-19.49219
970.448	22.65567
970.62	71.13739
970.792	79.57023
970.964	14.22533
971.136	3.68794
971.308	-72.16318
971.48	22.65567
971.652	20.54805
971.824	33.19413
971.996	54.2728
972.168	64.813
972.339	31.08639
972.511	75.35377
972.683	-42.66935
972.855	-13.17063
973.027	52.16483
973.199	83.78679
973.37	26.87099
973.542	66.92111
973.714	98.54544
973.886	16.33288
974.057	54.2728
974.229	90.11179
974.401	-51.09666
974.572	88.00344
974.744	75.35377
974.915	39.51749
975.087	58.48881
975.259	10.01031
975.43	73.24557
975.602	79.57023
975.773	-21.59933
975.945	33.19413
976.116	-21.59933
976.288	96.437
976.459	28.97868
976.63	12.11781
976.802	121.73979
976.973	-4.74153
977.145	54.2728
977.316	10.01031
977.487	10.01031
977.659	14.22533
977.83	75.35377
978.001	16.33288
978.172	20.54805
978.344	22.65567
978.515	-4.74153
978.686	-36.3486
978.857	16.33288
979.028	81.6785
979.2	-8.95613
979.371	14.22533
979.542	-13.17063
979.713	-25.81353
979.884	125.95723
980.055	-34.24164
980.226	79.57023
980.397	-11.06339
980.568	37.40968
980.739	-4.74153
980.91	24.76332
981.081	88.00344
981.252	-25.81353
981.423	-67.95008
981.594	14.22533
981.765	56.38079
981.936	62.70491
982.106	45.84105
982.277	43.73317
982.448	100.65391
982.619	43.73317
982.79	39.51749
982.96	35.30189
983.131	14.22533
983.302	33.19413
983.472	5.79537
983.643	56.38079
983.814	79.57023
983.984	16.33288
984.155	1.58054
984.326	-48.98987
984.496	-2.6342
984.667	45.84105
984.837	-4.74153
985.008	3.68794
985.178	52.16483
985.349	96.437
985.519	16.33288
985.69	5.79537
985.86	16.33288
986.031	58.48881
986.201	14.22533
986.371	64.813
986.542	66.92111
986.712	-4.74153
986.882	20.54805
987.053	20.54805
987.223	-27.92059
987.393	54.2728
987.563	-27.92059
987.734	75.35377
987.904	-0.52684
988.074	39.51749
988.244	-38.45555
988.414	5.79537
988.585	37.40968
988.755	71.13739
988.925	-70.05664
989.095	-51.09666
989.265	-55.31017
989.435	12.11781
989.605	54.2728
989.775	41.62532
989.945	35.30189
990.115	-11.06339
990.285	10.01031
990.455	14.22533
990.625	37.40968
990.795	14.22533
990.965	28.97868
991.134	10.01031
991.304	-59.52357
991.474	20.54805
991.644	58.48881
991.814	45.84105
991.984	-30.02763
992.153	-34.24164
992.323	54.2728
992.493	24.76332
992.662	-17.38502
992.832	7.90283
993.002	66.92111
993.171	45.84105
993.341	60.59685
993.511	47.94895
993.68	-61.63024
993.85	66.92111
994.019	-25.81353
994.189	66.92111
994.358	35.30189
994.528	94.32857
994.697	-25.81353
994.867	-13.17063
995.036	33.19413
995.206	71.13739
995.375	-6.84884
995.544	14.22533
995.714	56.38079
995.883	-4.74153
996.052	-17.38502
996.222	64.813
996.391	-32.13465
996.56	-2.6342
996.73	1.58054
996.899	45.84105
997.068	-11.06339
997.237	-27.92059
997.406	16.33288
997.576	58.48881
997.745	5.79537
997.914	-42.66935
998.083	-30.02763
998.252	-67.95008
998.421	-44.77622
998.59	-2.6342
998.759	-2.6342
998.928	33.19413
999.097	-27.92059
999.266	-0.52684
999.435	-0.52684
999.604	-19.49219
999.773	-23.70644
999.942	-23.70644
1000.111	-48.98987
1000.28	43.73317
1000.448	5.79537
1000.617	3.68794
1000.786	-46.88306
1000.955	33.19413
1001.124	20.54805
1001.292	-19.49219
1001.461	50.05688
1001.63	71.13739
1001.798	3.68794
1001.967	20.54805
1002.136	-21.59933
1002.304	-2.6342
1002.473	33.19413
1002.642	26.87099
1002.81	12.11781
1002.979	18.44046
1003.147	-53.20343
1003.316	33.19413
1003.484	79.57023
1003.653	-25.81353
1003.821	-4.74153
1003.99	3.68794
1004.158	43.73317
1004.327	7.90283
1004.495	47.94895
1004.663	-25.81353
1004.832	54.2728
1005	-34.24164
1005.168	24.76332
1005.337	-13.17063
1005.505	54.2728
1005.673	-21.59933
1005.842	24.76332
1006.01	12.11781
1006.178	-13.17063
1006.346	-53.20343
1006.514	7.90283
1006.683	14.22533
1006.851	-8.95613
1007.019	92.22017
1007.187	-23.70644
1007.355	-4.74153
1007.523	26.87099
1007.691	50.05688
1007.859	-0.52684
1008.027	37.40968
1008.195	31.08639
1008.363	-34.24164
1008.531	22.65567
1008.699	20.54805
1008.867	-42.66935
1009.035	-135.34718
1009.203	3.68794
1009.37	3.68794
1009.538	33.19413
1009.706	28.97868
1009.874	56.38079
1010.042	-46.88306
1010.209	35.30189
1010.377	-19.49219
1010.545	-6.84884
1010.713	3.68794
1010.88	45.84105
1011.048	3.68794
1011.216	-63.73688
1011.383	3.68794
1011.551	45.84105
1011.718	-44.77622
1011.886	41.62532
1012.054	-32.13465
1012.221	26.87099
1012.389	-2.6342
1012.556	-36.3486
1012.724	-34.24164
1012.891	-67.95008
1013.058	62.70491
1013.226	-11.06339
1013.393	-2.6342
1013.561	20.54805
1013.728	-19.49219
1013.895	16.33288
1014.063	106.97945
1014.23	28.97868
1014.397	33.19413
1014.565	-0.52684
1014.732	-6.84884
1014.899	28.97868
1015.066	-21.59933
1015.233	-55.31017
1015.401	119.63111
1015.568	66.92111
1015.735	-19.49219
1015.902	-57.41689
1016.069	58.48881
1016.236	3.68794
1016.403	62.70491
1016.57	-34.24164
1016.737	73.24557
1016.904	37.40968
1017.071	18.44046
1017.238	-19.49219
1017.405	-44.77622
1017.572	18.44046
1017.739	56.38079
1017.906	-0.52684
1018.073	-46.88306
1018.24	-17.38502
1018.407	-4.74153
1018.573	22.65567
1018.74	-30.02763
1018.907	12.11781
1019.074	-27.92059
1019.241	81.6785
1019.407	-0.52684
1019.574	31.08639
1019.741	-51.09666
1019.907	-74.26969
1020.074	-4.74153
1020.241	-38.45555
1020.407	-23.70644
1020.574	-59.52357
1020.74	7.90283
1020.907	-53.20343
1021.073	-53.20343
1021.24	-13.17063
1021.406	20.54805
1021.573	5.79537
1021.739	-15.27784
1021.906	-53.20343
1022.072	-67.95008
1022.239	-21.59933
1022.405	24.76332
1022.571	-34.24164
1022.738	-46.88306
1022.904	71.13739
1023.07	14.22533
1023.237	-44.77622
1023.403	50.05688
1023.569	50.05688
1023.735	121.73979
1023.902	-30.02763
1024.068	-6.84884
1024.234	-34.24164
1024.4	-70.05664
1024.566	-21.59933
1024.732	66.92111
1024.898	-55.31017
1025.065	12.11781
1025.231	-38.45555
1025.397	-13.17063
1025.563	14.22533
1025.729	62.70491
1025.895	12.11781
1026.061	-32.13465
1026.227	-44.77622
1026.392	16.33288
1026.558	31.08639
1026.724	-0.52684
1026.89	-2.6342
1027.056	-40.56246
1027.222	58.48881
1027.388	-4.74153
1027.553	47.94895
1027.719	10.01031
1027.885	31.08639
1028.051	-38.45555
1028.216	54.2728
1028.382	7.90283
1028.548	-19.49219
1028.713	37.40968
1028.879	71.13739
1029.045	-0.52684
1029.21	-11.06339
1029.376	-65.84349
1029.541	-27.92059
1029.707	37.40968
1029.873	1.58054
1030.038	-6.84884
1030.204	39.51749
1030.369	77.46199
1030.534	54.2728
1030.7	7.90283
1030.865	-27.92059
1031.031	-11.06339
1031.196	-0.52684
1031.361	64.813
1031.527	3.68794
1031.692	-42.66935
1031.857	-30.02763
1032.023	24.76332
1032.188	-95.33338
1032.353	-59.52357
1032.518	56.38079
1032.684	20.54805
1032.849	-15.27784
1033.014	-30.02763
1033.179	22.65567
1033.344	-30.02763
1033.509	-38.45555
1033.674	28.97868
1033.839	-13.17063
1034.004	-8.95613
1034.17	-55.31017
1034.335	-30.02763
1034.5	-0.52684
1034.664	26.87099
1034.829	12.11781
1034.994	33.19413
1035.159	37.40968
1035.324	-120.60637
1035.489	56.38079
1035.654	-21.59933
1035.819	16.33288
1035.984	-21.59933
1036.148	47.94895
1036.313	3.68794
1036.478	33.19413
1036.643	33.19413
1036.807	-84.80186
1036.972	-17.38502
1037.137	20.54805
1037.301	20.54805
1037.466	-21.59933
1037.631	45.84105
1037.795	39.51749
1037.96	-42.66935
1038.124	-8.95613
1038.289	10.01031
1038.454	-46.88306
1038.618	14.22533
1038.783	-93.22713
1038.947	-25.81353
1039.111	20.54805
1039.276	-44.77622
1039.44	5.79537
1039.605	5.79537
1039.769	37.40968
1039.933	41.62532
1040.098	16.33288
1040.262	-38.45555
1040.426	5.79537
1040.591	-34.24164
1040.755	3.68794
1040.919	-36.3486
1041.083	12.11781
1041.248	12.11781
1041.412	-27.92059
1041.576	3.68794
1041.74	37.40968
1041.904	-11.06339
1042.068	-27.92059
1042.232	1.58054
1042.397	-15.27784
1042.561	-4.74153
1042.725	-0.52684
1042.889	20.54805
1043.053	-30.02763
1043.217	-46.88306
1043.381	-13.17063
1043.544	-6.84884
1043.708	45.84105
1043.872	-23.70644
1044.036	-13.17063
1044.2	45.84105
1044.364	12.11781
1044.528	69.02924
1044.691	3.68794
1044.855	56.38079
1045.019	18.44046
1045.183	52.16483
1045.346	-46.88306
1045.51	5.79537
1045.674	14.22533
1045.837	-4.74153
1046.001	-13.17063
1046.165	-21.59933
1046.328	-30.02763
1046.492	-21.59933
1046.655	-4.74153
1046.819	-15.27784
1046.983	-55.31017
1047.146	-30.02763
1047.31	-38.45555
1047.473	16.33288
1047.636	-0.52684
1047.8	-55.31017
1047.963	-97.43961
1048.127	22.65567
1048.29	-8.95613
