Data from absorb_only_2.23.25_USB4F045381__26__0131.txt Node

Date: Sun Feb 23 19:16:36 EST 2025
User: ssocol
Spectrometer: USB4F04538
Trigger mode: 4
Integration Time (sec): 2.600000E-3
Scans to average: 1
Electric dark correction enabled: true
Nonlinearity correction enabled: true
Boxcar width: 0
XAxis mode: Wavelengths
Number of Pixels in Spectrum: 3648
>>>>>Begin Spectral Data<<<<<
345.52	27.22227
345.736	27.22227
345.952	27.22227
346.168	-29.67646
346.384	29.32996
346.6	-0.17561
346.816	-21.24814
347.032	48.30027
347.248	52.51615
347.464	-82.34441
347.68	23.00695
347.896	-12.81942
348.112	27.22227
348.328	27.22227
348.544	27.22227
348.76	-44.42508
348.975	-44.42508
349.191	-48.63874
349.407	-6.49763
349.623	50.4082
349.839	-8.60492
350.055	12.46906
350.27	29.32996
350.486	-44.42508
350.702	-54.95905
350.918	-21.24814
351.133	35.65319
351.349	16.68414
351.565	1.93177
351.781	-29.67646
351.996	37.76098
352.212	-12.81942
352.428	-10.71218
352.644	6.14661
352.859	4.03918
353.075	-21.24814
353.291	4.03918
353.506	-14.92664
353.722	-23.35526
353.938	73.59693
354.153	46.19237
354.369	44.08449
354.584	-2.28298
354.8	-19.141
355.016	-38.10439
355.231	-4.39031
355.447	-23.35526
355.662	1.93177
355.878	4.03918
356.093	-6.49763
356.309	-12.81942
356.524	56.73213
356.74	-17.03383
356.955	-63.38577
357.171	69.38059
357.386	6.14661
357.602	6.14661
357.817	6.14661
358.033	18.79172
358.248	-33.89048
358.464	60.94819
358.679	-8.60492
358.895	31.43768
359.11	14.57659
359.325	-46.53192
359.541	18.79172
359.756	29.32996
359.972	1.93177
360.187	37.76098
360.402	-23.35526
360.618	39.86879
360.833	-50.74553
361.048	69.38059
361.264	-6.49763
361.479	94.67998
361.694	58.84015
361.909	-4.39031
362.125	-2.28298
362.34	-21.24814
362.555	-31.78348
362.77	-48.63874
362.986	-21.24814
363.201	-12.81942
363.416	-21.24814
363.631	-44.42508
363.847	48.30027
364.062	-27.56942
364.277	18.79172
364.492	6.14661
364.707	-17.03383
364.922	18.79172
365.138	41.97663
365.353	-73.91861
365.568	-2.28298
365.783	-8.60492
365.998	-2.28298
366.213	50.4082
366.428	1.93177
366.643	4.03918
366.858	39.86879
367.073	77.81336
367.288	39.86879
367.503	52.51615
367.718	35.65319
367.933	-14.92664
368.148	33.54542
368.363	27.22227
368.578	60.94819
368.793	54.62413
369.008	-27.56942
369.223	23.00695
369.438	37.76098
369.653	-31.78348
369.868	27.22227
370.083	58.84015
370.298	-12.81942
370.513	27.22227
370.728	-12.81942
370.943	60.94819
371.157	18.79172
371.372	88.35483
371.587	-48.63874
371.802	18.79172
372.017	4.03918
372.232	48.30027
372.446	-23.35526
372.661	71.48875
372.876	60.94819
373.091	-6.49763
373.306	46.19237
373.52	-6.49763
373.735	-31.78348
373.95	10.36155
374.165	6.14661
374.379	35.65319
374.594	-31.78348
374.809	-21.24814
375.023	16.68414
375.238	10.36155
375.453	20.89932
375.667	-61.27913
375.882	27.22227
376.097	-21.24814
376.311	-14.92664
376.526	-65.49239
376.741	10.36155
376.955	-2.28298
377.17	10.36155
377.384	41.97663
377.599	10.36155
377.813	31.43768
378.028	-33.89048
378.242	31.43768
378.457	20.89932
378.672	-0.17561
378.886	-29.67646
379.101	-12.81942
379.315	35.65319
379.53	10.36155
379.744	-2.28298
379.958	-6.49763
380.173	52.51615
380.387	-14.92664
380.602	18.79172
380.816	73.59693
381.031	-2.28298
381.245	39.86879
381.459	-29.67646
381.674	27.22227
381.888	-0.17561
382.103	60.94819
382.317	63.05626
382.531	-17.03383
382.746	44.08449
382.96	44.08449
383.174	-25.46235
383.388	-6.49763
383.603	-8.60492
383.817	39.86879
384.031	-10.71218
384.246	-2.28298
384.46	-67.59898
384.674	-19.141
384.888	-23.35526
385.103	-4.39031
385.317	6.14661
385.531	10.36155
385.745	44.08449
385.959	65.16435
386.174	-25.46235
386.388	77.81336
386.602	-17.03383
386.816	4.03918
387.03	6.14661
387.244	60.94819
387.458	-99.19478
387.672	20.89932
387.887	31.43768
388.101	29.32996
388.315	1.93177
388.529	35.65319
388.743	44.08449
388.957	79.92161
389.171	84.13817
389.385	119.98255
389.599	52.51615
389.813	39.86879
390.027	75.70514
390.241	71.48875
390.455	-25.46235
390.669	88.35483
390.883	10.36155
391.097	14.57659
391.311	69.38059
391.525	35.65319
391.738	35.65319
391.952	29.32996
392.166	23.00695
392.38	-14.92664
392.594	56.73213
392.808	90.46319
393.022	33.54542
393.236	39.86879
393.449	18.79172
393.663	48.30027
393.877	71.48875
394.091	52.51615
394.305	41.97663
394.518	-8.60492
394.732	14.57659
394.946	-27.56942
395.16	27.22227
395.373	41.97663
395.587	60.94819
395.801	6.14661
396.015	35.65319
396.228	73.59693
396.442	16.68414
396.656	-14.92664
396.869	-35.99745
397.083	63.05626
397.297	60.94819
397.51	12.46906
397.724	-35.99745
397.938	10.36155
398.151	16.68414
398.365	77.81336
398.578	-14.92664
398.792	69.38059
399.005	48.30027
399.219	-31.78348
399.433	10.36155
399.646	-46.53192
399.86	67.27246
400.073	54.62413
400.287	73.59693
400.5	-4.39031
400.714	69.38059
400.927	65.16435
401.141	-17.03383
401.354	56.73213
401.567	37.76098
401.781	46.19237
401.994	35.65319
402.208	-10.71218
402.421	48.30027
402.635	29.32996
402.848	79.92161
403.061	58.84015
403.275	-23.35526
403.488	27.22227
403.701	-6.49763
403.915	103.11382
404.128	8.25407
404.341	79.92161
404.555	37.76098
404.768	-65.49239
404.981	77.81336
405.195	73.59693
405.408	14.57659
405.621	29.32996
405.834	18.79172
406.048	71.48875
406.261	60.94819
406.474	35.65319
406.687	-6.49763
406.9	-6.49763
407.114	20.89932
407.327	14.57659
407.54	10.36155
407.753	44.08449
407.966	1.93177
408.179	46.19237
408.392	27.22227
408.605	14.57659
408.819	-8.60492
409.032	35.65319
409.245	14.57659
409.458	94.67998
409.671	18.79172
409.884	52.51615
410.097	37.76098
410.31	82.02988
410.523	-10.71218
410.736	111.54801
410.949	-21.24814
411.162	-52.8523
411.375	37.76098
411.588	71.48875
411.801	12.46906
412.014	73.59693
412.227	-6.49763
412.44	-4.39031
412.653	98.89685
412.865	-21.24814
413.078	-2.28298
413.291	-14.92664
413.504	46.19237
413.717	54.62413
413.93	33.54542
414.143	90.46319
414.356	50.4082
414.568	132.63502
414.781	10.36155
414.994	75.70514
415.207	8.25407
415.42	-35.99745
415.632	23.00695
415.845	65.16435
416.058	14.57659
416.271	31.43768
416.483	-10.71218
416.696	69.38059
416.909	18.79172
417.121	37.76098
417.334	18.79172
417.547	63.05626
417.759	29.32996
417.972	54.62413
418.185	16.68414
418.397	79.92161
418.61	46.19237
418.823	39.86879
419.035	35.65319
419.248	33.54542
419.46	25.11459
419.673	82.02988
419.885	48.30027
420.098	35.65319
420.311	18.79172
420.523	35.65319
420.736	31.43768
420.948	54.62413
421.161	86.24649
421.373	6.14661
421.586	50.4082
421.798	79.92161
422.01	35.65319
422.223	35.65319
422.435	65.16435
422.648	73.59693
422.86	86.24649
423.073	48.30027
423.285	48.30027
423.497	10.36155
423.71	23.00695
423.922	27.22227
424.134	48.30027
424.347	88.35483
424.559	16.68414
424.771	31.43768
424.984	-29.67646
425.196	14.57659
425.408	52.51615
425.621	60.94819
425.833	18.79172
426.045	52.51615
426.257	46.19237
426.47	-10.71218
426.682	98.89685
426.894	130.52622
427.106	52.51615
427.318	107.33087
427.531	103.11382
427.743	122.09124
427.955	75.70514
428.167	6.14661
428.379	23.00695
428.591	147.39721
428.804	92.57157
429.016	113.65661
429.228	46.19237
429.44	60.94819
429.652	65.16435
429.864	79.92161
430.076	56.73213
430.288	60.94819
430.5	10.36155
430.712	94.67998
430.924	77.81336
431.136	60.94819
431.348	8.25407
431.56	147.39721
431.772	82.02988
431.984	94.67998
432.196	92.57157
432.408	103.11382
432.62	69.38059
432.832	44.08449
433.044	86.24649
433.256	96.7884
433.468	128.41744
433.679	39.86879
433.891	111.54801
434.103	136.85268
434.315	86.24649
434.527	86.24649
434.739	119.98255
434.95	69.38059
435.162	132.63502
435.374	94.67998
435.586	88.35483
435.798	103.11382
436.009	73.59693
436.221	143.17933
436.433	82.02988
436.645	145.28826
436.856	141.07043
437.068	113.65661
437.28	35.65319
437.491	50.4082
437.703	77.81336
437.915	119.98255
438.126	157.94226
438.338	130.52622
438.55	174.81543
438.761	134.74384
438.973	164.26954
439.184	124.19996
439.396	113.65661
439.608	65.16435
439.819	170.59702
440.031	155.83321
440.242	119.98255
440.454	69.38059
440.665	145.28826
440.877	160.05133
441.088	128.41744
441.3	153.72418
441.511	181.14322
441.723	160.05133
441.934	86.24649
442.146	265.53084
442.357	128.41744
442.569	170.59702
442.78	187.47118
442.991	181.14322
443.203	181.14322
443.414	187.47118
443.626	143.17933
443.837	179.03394
444.048	174.81543
444.26	124.19996
444.471	138.96154
444.682	204.34665
444.894	136.85268
445.105	103.11382
445.316	212.78487
445.528	221.22341
445.739	155.83321
445.95	172.70621
446.161	174.81543
446.373	170.59702
446.584	242.32113
446.795	69.38059
447.006	212.78487
447.217	147.39721
447.429	229.66226
447.64	212.78487
447.851	145.28826
448.062	229.66226
448.273	212.78487
448.484	208.56572
448.695	162.16043
448.907	172.70621
449.118	157.94226
449.329	246.5409
449.54	134.74384
449.751	155.83321
449.962	195.90876
450.173	179.03394
450.384	223.33309
450.595	227.55252
450.806	267.64093
451.017	179.03394
451.228	316.17809
451.439	292.96345
451.65	193.79933
451.861	229.66226
452.072	297.18413
452.283	235.99161
452.494	295.07378
452.705	290.85314
452.915	273.97131
453.126	284.52232
453.337	259.20069
453.548	288.74285
453.759	280.30186
453.97	248.65082
454.181	305.62571
454.391	364.72473
454.602	381.61266
454.813	341.50562
455.024	356.28118
455.235	335.1735
455.445	335.1735
455.656	373.16856
455.867	322.50973
456.078	362.61382
456.288	333.06283
456.499	421.72573
456.71	415.39169
456.921	335.1735
457.131	324.62032
457.342	316.17809
457.553	347.8379
457.763	402.72406
457.974	425.9485
458.184	324.62032
458.395	409.05781
458.606	381.61266
458.816	438.61718
459.027	529.42547
459.237	482.96198
459.448	516.75291
459.659	461.84457
459.869	506.19285
460.08	508.30483
460.29	480.85017
460.501	584.34561
460.711	567.44613
460.922	485.0738
461.132	609.69639
461.343	658.29044
461.553	618.14706
461.764	643.50026
461.974	662.51631
462.184	643.50026
462.395	573.78333
462.605	702.6644
462.816	673.0812
463.026	725.90988
463.236	728.02317
463.447	859.06665
463.657	837.92817
463.867	859.06665
464.078	744.92987
464.288	753.38348
464.498	994.37177
464.709	1000.71491
464.919	852.72501
465.129	977.45701
465.339	964.77122
465.55	998.60053
465.76	935.17202
465.97	966.8855
466.18	1053.57658
466.391	1068.37849
466.601	1066.26392
466.811	1203.72105
467.021	1184.68748
467.231	1269.28308
467.441	1093.7538
467.651	1277.74289
467.862	1358.11266
468.072	1396.18328
468.282	1353.88261
468.492	1345.42254
468.702	1449.0595
468.912	1457.51971
469.122	1349.65257
469.332	1662.67537
469.542	1609.80162
469.752	1726.12166
469.962	1508.28089
470.172	1789.56489
470.382	1766.30277
470.592	1719.77715
470.802	1704.9732
471.012	1825.51444
471.222	1827.62908
471.432	1981.98391
471.642	1893.18053
471.852	2182.80531
472.062	2157.44217
472.272	2201.82687
472.482	2079.23199
472.691	2449.03895
472.901	2368.76263
473.111	2296.92403
473.321	2510.29198
473.531	2556.75344
473.741	2436.36476
473.95	2723.544
474.16	2487.05918
474.37	2765.75679
474.58	2782.6404
474.79	2843.83614
474.999	2826.95572
475.209	3012.58958
475.419	2928.22459
475.628	3210.74961
475.838	3008.3719
476.048	3153.84578
476.258	3094.82194
476.467	3448.76892
476.677	3341.3716
476.886	3591.89257
477.096	3564.53727
477.306	3644.49002
477.515	3507.71243
477.725	3671.83603
477.935	3768.57281
478.144	3861.06503
478.354	3669.7326
478.563	4257.91381
478.773	3835.84367
478.982	4117.31682
479.192	4171.88811
479.401	4226.44514
479.611	4176.08531
479.82	4465.48542
480.03	4314.54529
480.239	4616.31163
480.449	4421.47289
480.658	4706.33325
480.868	4882.06885
481.077	4813.049
481.287	4838.15
481.496	4827.69165
481.705	4925.97762
481.915	5061.8214
482.124	5122.39712
482.333	5214.26779
482.543	5097.33367
482.752	5270.62062
482.961	5297.74739
483.171	5547.9611
483.38	5331.12875
483.589	5654.1993
483.799	5589.63045
484.008	5851.93037
484.217	5774.94465
484.426	6091.0042
484.636	5945.51812
484.845	5995.41207
485.054	6020.35395
485.263	6180.31705
485.472	6028.66715
485.682	6402.37257
485.891	6244.67846
486.1	6196.9286
486.309	6454.21619
486.518	6383.70531
486.727	6609.66001
486.936	6591.01363
487.146	6798.09107
487.355	6783.60311
487.564	6667.65905
487.773	6882.92671
487.982	6897.40702
488.191	7083.48394
488.4	7186.78159
488.609	7395.27426
488.818	7248.73354
489.027	7269.37977
489.236	7541.70527
489.445	7434.47071
489.654	7453.03472
489.863	7624.15389
490.072	7463.3473
490.281	7552.01322
490.49	7591.17855
490.698	7863.06352
490.907	7710.68832
491.116	8138.69904
491.325	7891.87845
491.534	7863.06352
491.743	8329.78636
491.952	7928.92026
492.16	8169.53117
492.369	8241.45539
492.578	8257.89181
492.787	8434.50431
492.996	8625.3325
493.204	8561.74127
493.413	8602.76993
493.622	8742.21163
493.831	8557.63799
494.039	8602.76993
494.248	8766.81014
494.457	8815.99929
494.665	8926.63688
494.874	9151.85048
495.083	9065.88468
495.291	8928.68523
495.5	8992.17537
495.709	9250.06024
495.917	9125.24526
496.126	9340.05187
496.335	9356.41054
496.543	9272.56117
496.752	9362.54477
496.96	9544.46041
497.169	9530.15704
497.377	9620.05105
497.586	9560.80616
497.794	9777.29321
498.003	9662.94433
498.211	9838.53199
498.42	9814.0381
498.628	9838.53199
498.837	9887.51335
499.045	9948.72811
499.254	9950.76838
499.462	9983.41066
499.671	10175.11035
499.879	10226.07355
500.087	10097.62973
500.296	10517.42238
500.504	10368.72549
500.713	10348.35065
500.921	10419.65686
501.129	10495.02039
501.338	10405.3969
501.546	10961.08405
501.754	10580.54705
501.962	10773.91977
502.171	10712.86652
502.379	10946.8467
502.587	10753.56988
502.795	10910.23382
503.004	10721.00757
503.212	10930.57476
503.42	10830.89319
503.628	11111.55999
503.837	10881.75458
504.045	11164.41581
504.253	11150.18611
504.461	11034.29608
504.669	11306.68473
504.877	11467.18592
505.085	11430.62142
505.294	11489.52937
505.502	11359.51472
505.71	11434.6843
505.918	11294.49222
506.126	11517.9648
506.334	11146.12038
506.542	11804.25005
506.75	11316.84487
506.958	11448.90406
507.166	11580.92243
507.374	11633.71874
507.582	11641.8407
507.79	11871.22779
507.998	11475.31095
508.206	11759.59307
508.414	11832.66597
508.622	12027.47424
508.83	12066.02129
509.037	12201.92832
509.245	11828.60665
509.453	12222.21008
509.661	11950.3716
509.869	12309.41346
510.077	12303.32993
510.285	12053.84884
510.492	12297.24634
510.7	12572.97472
510.908	12400.65894
511.116	12366.19006
511.324	12455.39964
511.531	12451.34494
511.739	12222.21008
511.947	12495.94521
512.155	12485.80907
512.362	12700.66185
512.57	12643.91497
512.778	12469.59089
512.985	12538.51528
513.193	12729.03355
513.401	12739.16602
513.608	12998.51037
513.816	13239.54531
514.024	13018.76802
514.231	12755.37769
514.439	12960.01944
514.646	12905.3186
514.854	13010.66502
515.061	12540.54236
515.269	13201.06514
515.477	13132.20182
515.684	13194.98918
515.892	13146.38
516.099	13158.53254
516.307	13389.40072
516.514	13298.27517
516.722	13237.52008
516.929	13144.35456
517.136	13492.66662
517.344	13595.92284
517.551	13672.85297
517.759	13678.9262
517.966	13737.63258
518.173	13634.38851
518.381	13697.14571
518.588	13887.42352
518.796	13818.60263
519.003	13680.9506
519.21	13788.23942
519.418	13755.85126
519.625	14095.89181
519.832	14075.6533
520.039	13863.13417
520.247	14012.91243
520.454	13861.11003
520.661	14344.80865
520.868	14219.34207
521.076	14417.65719
521.283	14124.22536
521.49	14381.23318
521.697	14261.83961
521.904	14354.92663
522.112	14393.37457
522.319	14599.7704
522.526	14425.75135
522.733	14810.20119
522.94	14700.94027
523.147	14707.01039
523.354	14646.30886
523.561	14868.87748
523.768	14775.80448
523.975	15103.57883
524.183	14923.5067
524.39	15044.90387
524.597	15245.20782
524.804	15044.90387
525.011	15069.18318
525.218	14943.73966
525.425	15168.3235
525.632	14972.06572
525.838	15061.09008
526.045	15034.78749
526.252	15079.29956
526.459	15362.55806
526.666	15119.76501
526.873	15346.37176
527.08	15463.723
527.287	15481.93282
527.494	15350.41833
527.701	15672.12752
527.907	15301.85955
528.114	15451.58315
528.321	15566.91264
528.528	15817.81373
528.735	15939.22331
528.941	15639.75347
529.148	15659.98723
529.355	15724.73583
529.562	15827.93103
529.768	15906.84699
529.975	15755.08708
530.182	15971.59997
530.388	15842.0953
530.595	16127.41774
530.802	15939.22331
531.008	16522.06635
531.215	16283.24495
531.422	16305.50682
531.628	16095.03929
531.835	16301.45919
532.042	16117.29943
532.248	16657.68123
532.455	16396.5805
532.661	16433.01107
532.868	16447.17869
533.074	16530.16248
533.281	16598.98103
533.487	16714.35912
533.694	16677.92313
533.9	17001.82659
534.107	16760.91734
534.313	16720.43186
534.52	16920.84463
534.726	17068.63993
534.933	16856.06206
535.139	17020.04811
535.345	16943.11424
535.552	16987.65444
535.758	17273.14825
535.965	17238.724
536.171	16999.80198
536.377	17230.6243
536.584	16866.18416
536.79	17133.4315
536.996	17734.92459
537.203	17376.42619
537.409	17267.07332
537.615	17528.32002
537.821	17392.62736
538.028	17712.64205
538.234	17449.33303
538.44	17613.38837
538.646	17348.0746
538.853	17514.14251
539.059	17580.9807
539.265	17698.46247
539.471	17647.82242
539.677	17631.61804
539.883	17627.56698
540.09	17712.64205
540.296	17927.38183
540.502	18042.87126
540.708	17848.36931
540.914	18079.34401
541.12	17992.21658
541.326	18703.62004
541.532	18308.33882
541.738	18302.25871
541.944	18140.13453
542.15	18454.27183
542.356	18324.55264
542.562	18567.78895
542.768	18385.35658
542.974	18561.70737
543.18	18634.68864
543.386	18800.94271
543.592	18912.46953
543.798	18620.49744
544.004	18411.70601
544.21	19019.95231
544.415	18699.56513
544.621	19216.6956
544.827	18851.63522
545.033	19097.02243
545.239	18957.08365
545.445	19587.97652
545.651	18867.85735
545.856	19480.43278
546.062	19346.52671
546.268	19226.83805
546.474	19121.36159
546.679	19269.43745
546.885	19011.84001
547.091	18936.80426
547.297	18782.69402
547.502	19103.10717
547.708	19094.9942
547.914	19241.03765
548.119	19255.23745
548.325	19129.47477
548.531	18995.6156
548.736	19324.21079
548.942	19068.6275
549.147	19151.78635
549.353	19366.81435
549.559	19462.1718
549.764	19427.67975
549.97	19401.30428
550.175	19715.82678
550.381	19955.33712
550.586	19782.8026
550.792	20190.84502
550.997	19933.00742
551.203	19880.23013
551.408	20215.21114
551.614	19957.36712
551.819	19947.21717
552.025	19975.6373
552.23	20156.3274
552.435	20444.68841
552.641	20495.46495
552.846	20383.76001
553.052	20491.40273
553.257	20408.13092
553.462	20213.18061
553.668	20588.90061
553.873	20503.58944
554.078	20808.30596
554.283	20442.6574
554.489	20532.02568
554.694	20594.99455
554.899	20229.42499
555.105	20578.74413
555.31	21137.50435
555.515	20702.6603
555.72	21015.56646
555.925	20694.53417
556.131	21411.918
556.336	21458.67726
556.541	21501.37233
556.746	21052.14628
556.951	21228.96739
557.156	21379.39107
557.361	21048.08179
557.567	21074.50127
557.772	20800.17897
557.977	20848.94189
558.182	20940.37878
558.387	21125.3099
558.592	21330.6026
558.797	21076.53357
559.002	21247.26098
559.207	21052.14628
559.412	21147.6665
559.617	21487.14044
559.822	21387.52271
560.027	21422.08288
560.232	21507.47177
560.437	21645.73526
560.642	21497.30605
560.847	21698.60552
561.051	21678.27049
561.256	21393.62148
561.461	21720.9745
561.666	21540.00271
561.871	21688.43796
562.076	21761.64658
562.281	21387.52271
562.485	21344.83233
562.69	21603.0343
562.895	21243.19571
563.1	21757.57931
563.305	21700.63904
563.509	21830.79268
563.714	21901.97715
563.919	22093.18142
564.123	21688.43796
564.328	21845.0292
564.533	21798.25279
564.737	21611.16768
564.942	21757.57931
565.147	22133.86749
565.351	22280.34966
565.556	22068.77051
565.761	22093.18142
565.965	22194.89939
566.17	21910.11282
566.374	22168.45182
566.579	22349.52845
566.784	22286.4535
566.988	22251.86551
567.193	22095.21569
567.397	22205.0717
567.602	22172.52064
567.806	22357.66741
568.011	22396.32826
568.215	22585.58173
568.42	22382.08463
568.624	22664.95525
568.828	22532.66904
569.033	22327.14661
569.237	22996.75295
569.442	22758.58215
569.646	22467.54904
569.85	22677.16704
570.055	22614.07417
570.259	22298.66128
570.463	22487.89864
570.668	22496.03859
570.872	22491.96861
571.076	22860.35884
571.281	22907.17898
571.485	22911.25038
571.689	22951.96515
571.893	23184.0648
572.098	23391.76878
572.302	22846.10958
572.506	23373.44063
572.71	23033.39871
572.914	23175.92023
573.119	23059.86577
573.323	22949.92938
573.527	22958.07248
573.731	22886.82218
573.935	23381.58644
574.139	23000.82464
574.343	22754.51127
574.547	23118.90969
574.751	23210.53502
574.955	23367.3313
575.159	23729.8663
575.364	23428.42586
575.568	23186.10095
575.772	23719.68143
575.976	23634.13138
576.18	23220.71602
576.383	23399.91471
576.587	23636.16823
576.791	23544.51325
576.995	23528.21967
577.199	23662.64748
577.403	23477.30353
577.607	23432.49893
577.811	23729.8663
578.015	23226.82465
578.219	23501.74304
578.422	23520.07296
578.626	24149.54624
578.83	23507.85298
579.034	23892.83437
579.238	23727.82932
579.442	24108.79536
579.645	23854.12777
579.849	24004.88565
580.053	23911.16945
580.257	23898.94604
580.46	24004.88565
580.664	24031.37175
580.868	23978.40002
581.071	23799.12545
581.275	24082.30788
581.479	24049.70856
581.682	24367.58185
581.886	24127.13312
582.09	24320.71181
582.293	24634.56341
582.497	24555.07579
582.7	24518.39049
582.904	24579.53312
583.107	24877.12561
583.311	24455.21218
583.515	24744.62941
583.718	24500.04815
583.922	24695.71031
584.125	24461.3261
584.329	24436.87055
584.532	24620.29613
584.735	24960.70526
584.939	24760.93609
585.142	25054.48216
585.346	24962.74383
585.549	25015.74764
585.753	24873.04865
585.956	24628.44885
586.159	24791.51153
586.363	25032.05681
586.566	25301.17874
586.769	24769.08949
586.973	25054.48216
587.176	25099.33368
587.379	24958.66668
587.582	25392.93346
587.786	24860.81784
587.989	25462.26205
588.192	24934.20397
588.395	25474.49675
588.599	25331.76317
588.802	25641.71166
589.005	24917.89568
589.208	25274.67262
589.411	25360.30907
589.615	24716.0931
589.818	25233.89468
590.021	25727.36347
590.224	25682.49781
590.427	25698.81248
590.63	25878.28199
590.833	25649.86883
591.036	25641.71166
591.239	25841.57113
591.442	25762.03302
591.645	26041.44853
591.848	26010.85392
592.051	25870.12397
592.254	25686.57647
592.457	25941.50764
592.66	25450.02742
592.863	25998.61619
593.066	25914.99344
593.269	26163.83091
593.472	26514.6941
593.675	26451.45357
593.878	26108.75806
594.081	26247.46245
594.284	26031.25028
594.486	26341.29633
594.689	26347.41605
594.892	26239.30315
595.095	26212.78561
595.298	26259.70145
595.5	26437.17366
595.703	26706.46486
595.906	26339.25642
596.109	25939.46808
596.311	26453.49356
596.514	26263.78113
596.717	26363.73538
596.92	26606.49756
597.122	26704.42468
597.325	26498.37382
597.528	26926.81354
597.73	27061.47928
597.933	26841.12037
598.136	26922.73286
598.338	26798.27474
598.541	26728.907
598.743	26937.01528
598.946	26582.01633
599.148	26896.20855
599.351	26718.706
599.554	27308.38188
599.756	26985.9841
599.959	27208.39418
600.161	26710.54524
600.363	26786.03325
600.566	26881.92633
600.768	27490.00012
600.971	27363.47848
601.173	26943.13634
601.376	26794.19424
601.578	26847.24123
601.78	26824.79815
601.983	26953.33813
602.185	27114.53108
602.388	27261.44849
602.59	26967.6207
602.792	27010.46882
602.995	27079.84326
603.197	26818.67734
603.399	27255.32679
603.601	27353.27534
603.804	27120.6525
604.006	27108.40967
604.208	26961.49959
604.41	27008.42842
604.613	27251.24567
604.815	27026.79207
605.017	27655.30171
605.219	27255.32679
605.421	26959.45922
605.623	27594.07796
605.826	27875.71608
606.028	27583.87411
606.23	27794.07953
606.432	27628.77128
606.634	27722.64908
606.836	27577.75181
607.038	27636.93447
607.24	27345.11285
607.442	27671.62822
607.644	27394.08811
607.846	27977.76437
608.048	27830.81575
608.25	27506.32584
608.452	27506.32584
608.654	27875.71608
608.856	27461.43029
609.058	27304.30069
609.26	27304.30069
609.462	27218.59687
609.664	27324.7067
609.866	27216.55633
610.067	27594.07796
610.269	27643.05687
610.471	27645.09767
610.673	27732.85334
610.875	27847.14308
611.077	27581.83334
611.278	27453.26753
611.48	27673.66904
611.682	27779.79332
611.884	27994.09236
612.085	28081.85655
612.287	28173.70501
612.489	27683.87316
612.69	27722.64908
612.892	27796.12042
613.094	28110.43139
613.295	28038.99471
613.497	27700.19981
613.699	27624.6897
613.9	27543.05901
614.102	27685.91399
614.304	27451.22684
614.505	27490.00012
614.707	28355.36739
614.908	27743.05763
615.11	27836.93849
615.311	27947.14959
615.513	28145.12969
615.714	28067.56922
615.916	27959.39547
616.117	27565.50725
616.319	27773.67068
616.52	28100.22606
616.722	28443.13992
616.923	28259.43225
617.124	28200.23942
617.326	27183.90788
617.527	27975.72338
617.729	27838.9794
617.93	27683.87316
618.131	28302.29659
618.333	27818.5703
618.534	28159.41732
618.735	28000.21538
618.937	27504.28512
619.138	27881.8389
619.339	28036.95368
619.54	28149.21187
619.742	27794.07953
619.943	27712.44485
620.144	27824.69302
620.345	28226.77402
620.546	27796.12042
620.748	28592.15362
620.949	27885.92078
621.15	28477.84123
621.351	28371.69701
621.552	28104.30819
621.753	28373.73822
621.954	28171.66391
622.155	27702.24065
622.356	28375.77943
622.558	28292.09075
622.759	28381.90306
622.96	27798.16131
623.161	28094.10288
623.362	27769.58893
623.563	27743.05763
623.764	27320.62549
623.965	27990.01036
624.166	27938.98569
624.366	28090.02077
624.567	28479.8825
624.768	28228.81515
624.969	27583.87411
625.17	28263.51454
625.371	28396.19158
625.572	28110.43139
625.773	27630.81208
625.973	28228.81515
626.174	28281.88494
626.375	28269.638
626.576	28449.26366
626.777	28543.16219
626.977	28102.26713
627.178	28251.26766
627.379	27881.8389
627.58	27483.87799
627.78	27951.23154
627.981	27912.45314
628.182	28141.04752
628.382	28083.8976
628.583	28128.80104
628.784	28110.43139
628.984	27773.67068
629.185	28022.66652
629.386	27641.01607
629.586	28022.66652
629.787	27806.32489
629.987	28236.97969
630.188	28194.11608
630.388	28204.32166
630.589	27559.38499
630.79	28130.84212
630.99	27965.51843
631.191	28457.42866
631.391	28488.04756
631.591	28063.48713
631.792	27879.79796
631.992	28279.84378
632.193	28477.84123
632.393	28145.12969
632.594	28020.6255
632.794	28028.78958
632.994	28612.56689
633.195	28312.50245
633.395	28071.65131
633.595	28263.51454
633.796	28512.54286
633.996	28539.0796
634.196	28157.37623
634.397	28557.45129
634.597	28175.74611
634.797	28818.74683
634.997	28361.49099
635.198	28647.2697
635.398	28653.39375
635.598	28586.02965
635.798	28477.84123
635.998	28632.98027
636.199	28090.02077
636.399	28626.85624
636.599	28328.8319
636.799	28628.89758
636.999	28218.60951
637.199	28330.87308
637.399	28116.55459
637.599	28710.55206
637.799	28038.99471
637.999	28567.65783
638.199	28124.71888
638.399	28406.39769
638.599	28036.95368
638.799	28769.75261
638.999	28551.32738
639.199	28428.85123
639.399	28375.77943
639.599	28471.71745
639.799	28820.78826
639.999	28945.31799
640.199	28716.67622
640.399	28800.37392
640.599	28232.89742
640.799	28963.69156
640.998	29094.35045
641.198	29380.18162
641.398	29176.01441
641.598	29521.06311
641.798	29443.47558
641.997	29427.14155
642.197	29149.47344
642.397	29243.38843
642.597	29210.7221
642.796	29365.88957
642.996	28688.09691
643.196	29122.93265
643.395	28920.82004
643.595	29231.13853
643.795	29141.30702
643.994	29188.26415
644.194	29061.68533
644.394	29357.72271
644.593	29020.8543
644.793	29198.47229
644.992	29063.72689
645.192	29133.14062
645.392	29033.10356
645.591	28975.94065
645.791	29037.18666
645.99	28749.33853
646.19	28810.58108
646.389	28222.69176
646.589	28600.31891
646.788	29222.97194
646.987	28882.03191
647.187	28745.25572
647.386	28692.17966
647.586	29161.7231
647.785	29047.39442
647.984	29663.99153
648.184	29639.48914
648.383	29445.51733
648.582	29082.101
648.782	29314.84697
648.981	29600.69401
649.18	29543.52294
649.38	29953.94842
649.579	29421.01631
649.778	29398.55718
649.977	29674.20091
650.177	29465.93497
650.376	29490.43627
650.575	29045.35287
650.774	29353.63929
650.973	29339.34734
651.173	29178.05603
651.372	29263.80503
651.571	29414.89108
651.77	29439.39206
651.969	29978.45285
652.168	29443.47558
652.367	29727.29009
652.566	29482.26915
652.765	29590.48483
652.964	29521.06311
653.163	29927.40215
653.362	29843.68051
653.561	29565.98291
653.76	29484.31093
653.959	29443.47558
654.158	29731.37391
654.357	29188.26415
654.556	28898.36371
654.755	29647.65659
654.954	29029.02047
655.153	28743.21432
655.352	29165.80632
655.551	29565.98291
655.749	29482.26915
655.948	29192.3474
656.147	29131.09903
656.346	29310.76359
656.545	29257.68004
656.743	29331.18053
656.942	29406.72412
657.141	29851.84839
657.34	29898.81406
657.538	29906.98206
657.737	29835.51264
657.936	30215.33747
658.135	29598.65217
658.333	29739.54155
658.532	29253.59672
658.731	29629.27986
658.929	29349.55587
659.128	29333.22223
659.326	29425.09981
659.525	29478.1856
659.724	29439.39206
659.922	29519.02131
660.121	29406.72412
660.319	30133.65136
660.518	29784.46389
660.716	29635.40543
660.915	29261.76336
661.113	29216.84702
661.312	29486.35271
661.51	29523.10491
661.709	29739.54155
661.907	29606.81953
662.105	29308.72191
662.304	29784.46389
662.502	29862.05827
662.701	29929.44416
662.899	30243.92805
663.097	30252.09683
663.296	29502.68697
663.494	29282.18005
663.692	28967.77458
663.891	29690.53597
664.089	29802.84136
664.287	29886.56209
664.485	29386.30679
664.684	29604.77769
664.882	29523.10491
665.08	29572.10837
665.278	29619.07061
665.476	29529.2303
665.675	29545.56475
665.873	29872.26817
666.071	29351.59758
666.269	29167.84794
666.467	29418.97457
666.665	29953.94842
666.863	29431.22505
667.061	29835.51264
667.259	29700.74541
667.457	29806.92525
667.655	29825.30284
667.853	29994.78922
668.051	29684.41031
668.249	29592.52666
668.447	29222.97194
668.645	29333.22223
668.843	29625.19616
669.041	29304.63853
669.239	29020.8543
669.437	29231.13853
669.635	29127.01583
669.833	29292.38844
670.031	29274.01337
670.229	29176.01441
670.426	29282.18005
670.624	30117.31436
670.822	29457.7679
671.02	29563.94108
671.218	29551.69019
671.415	29206.63883
671.613	28949.401
671.811	29039.22821
672.009	29043.31131
672.206	29384.26507
672.404	29210.7221
672.602	29445.51733
672.799	29310.76359
672.997	29786.50582
673.195	29127.01583
673.392	29349.55587
673.59	28996.35588
673.788	29218.88866
673.985	28949.401
674.183	29100.47519
674.38	28955.52552
674.578	28841.20271
674.775	29163.76471
674.973	29402.64065
675.17	29747.70921
675.368	29359.76442
675.565	29049.43597
675.763	29441.43382
675.96	29106.59994
676.158	29537.39752
676.355	28788.12537
676.553	29265.84669
676.75	28775.87685
676.947	29155.59826
677.145	28692.17966
677.342	29245.43009
677.539	29280.13838
677.737	29192.3474
677.934	28553.36869
678.131	29051.47753
678.329	28796.29107
678.526	28488.04756
678.723	28867.74164
678.92	28677.89007
679.118	28632.98027
679.315	28530.91443
679.512	28104.30819
679.709	28659.51782
679.906	28877.94897
680.104	29051.47753
680.301	28451.30491
680.498	28249.22652
680.695	28204.32166
680.892	28643.187
681.089	28285.96726
681.286	28551.32738
681.483	28667.68325
681.68	28300.25542
681.877	28508.4603
682.075	28326.79071
682.272	28443.13992
682.469	28677.89007
682.665	28749.33853
682.862	28518.6667
683.059	28743.21432
683.256	28288.00842
683.453	28296.17308
683.65	28094.10288
683.847	28236.97969
684.044	28112.47245
684.241	27694.07731
684.438	28220.65064
684.635	27585.91488
684.831	28375.77943
685.028	28216.56839
685.225	28486.00629
685.422	28437.01619
685.619	28455.38741
685.815	28316.58481
686.012	28322.70835
686.209	27681.83234
686.405	28192.07497
686.602	28243.1031
686.799	28157.37623
686.996	28512.54286
687.192	28118.59566
687.389	28071.65131
687.586	27812.44759
687.782	27890.00267
687.979	27714.48569
688.175	27892.04362
688.372	28069.61026
688.568	27928.78084
688.765	27561.42574
688.962	27461.43029
689.158	27783.87509
689.355	27851.22492
689.551	27547.1405
689.748	27336.95037
689.944	27594.07796
690.14	27204.31312
690.337	27765.50718
690.533	27628.77128
690.73	27479.79658
690.926	27426.73869
691.123	27122.69297
691.319	27302.2601
691.515	27477.75588
691.712	26906.41018
691.908	27596.11873
692.104	27479.79658
692.301	27783.87509
692.497	27236.96178
692.693	27277.77307
692.889	27236.96178
693.086	27230.84013
693.282	27589.99642
693.478	27236.96178
693.674	27587.95565
693.87	27465.51168
694.067	27718.56739
694.263	27267.5702
694.459	27051.27712
694.655	27220.63741
694.851	26869.68448
695.047	27157.38127
695.243	26792.15399
695.439	26420.85386
695.635	26461.65355
695.831	27377.76294
696.027	27381.84422
696.224	27632.85287
696.42	26951.29777
696.615	26994.14565
696.811	27079.84326
697.007	27010.46882
697.203	26692.18359
697.399	26488.17369
697.595	26424.9338
697.791	26426.97377
697.987	26188.30814
698.183	26881.92633
698.379	26404.53416
698.575	27016.59003
698.77	26131.195
698.966	26149.55265
699.162	25872.16347
699.358	26233.18369
699.554	25978.22012
699.749	26337.21652
699.945	25931.30984
700.141	26443.29361
700.337	26461.65355
700.532	26700.34431
700.728	26473.89358
700.924	26347.41605
701.119	26182.18881
701.315	25790.58483
701.511	26359.65554
701.706	26794.19424
701.902	26192.3877
702.097	26335.17662
702.293	26051.64682
702.489	26645.25996
702.684	26269.90067
702.88	26045.52784
703.075	25921.11208
703.271	26114.8772
703.466	26251.54211
703.662	26251.54211
703.857	25780.38771
704.053	26141.39367
704.248	25894.59812
704.443	25888.47955
704.639	25501.00553
704.834	26404.53416
705.03	26141.39367
705.225	26208.70602
705.42	26051.64682
705.616	26104.67864
705.811	26137.3142
706.006	25813.01866
706.202	26008.8143
706.397	26106.71835
706.592	26035.32957
706.787	25912.9539
706.983	25517.3188
707.178	26125.07581
707.373	25658.02603
707.568	25904.79576
707.763	26159.7514
707.959	25757.95422
708.154	25660.06533
708.349	25492.84895
708.544	25925.19118
708.739	25562.18094
708.934	25554.02411
709.129	25596.84781
709.324	25042.25012
709.519	25274.67262
709.714	25203.3118
709.909	25711.04857
710.104	25136.03118
710.299	25354.19205
710.494	25827.29485
710.689	25762.03302
710.884	25299.13979
711.079	26025.13135
711.274	25672.3012
711.469	25739.59972
711.664	25490.80981
711.859	25715.12728
712.054	25711.04857
712.249	25384.77731
712.443	25260.40024
712.638	25076.90779
712.833	25168.65179
713.028	25792.62426
713.223	25107.48862
713.417	25464.30116
713.612	25168.65179
713.807	25366.4261
714.002	25001.47723
714.196	25366.4261
714.391	24632.52522
714.586	24750.7444
714.78	24760.93609
714.975	25201.27296
715.17	24612.14344
715.364	25115.64359
715.559	25142.1475
715.754	24608.06712
715.948	24542.84727
716.143	24512.27635
716.337	24414.45329
716.532	25109.52736
716.726	24675.32776
716.921	24801.70346
717.115	25054.48216
717.31	24850.62556
717.504	24565.2663
717.699	24526.54271
717.893	24275.8809
718.088	24326.82521
718.282	24669.21305
718.476	24237.16433
718.671	24526.54271
718.865	25001.47723
719.059	24493.93408
719.254	24871.01018
719.448	24567.30441
719.642	24514.3144
719.837	24025.25953
720.031	24424.64292
720.225	24691.63378
720.419	24451.13624
720.614	24544.88535
720.808	24161.77172
721.002	23825.60778
721.196	24296.25842
721.39	24475.59201
721.585	24369.61971
721.779	24233.08896
721.973	23738.01426
722.167	23546.54996
722.361	24074.15799
722.555	24167.8845
722.749	24206.59931
722.943	23949.87758
723.137	23935.61657
723.331	23807.2738
723.525	23856.16493
723.719	23668.75815
723.913	23507.85298
724.107	23279.7674
724.301	23463.04736
724.495	23444.71822
724.689	23607.65269
724.883	23613.76311
725.077	23937.65385
725.271	23972.28803
725.465	23823.57066
725.659	23870.42516
725.853	23960.0641
726.046	24141.39598
726.24	24037.48399
726.434	23623.94721
726.628	23493.59649
726.822	23110.76553
727.015	23487.4866
727.209	23116.87364
727.403	23640.24193
727.596	23277.7311
727.79	23577.10098
727.984	23326.60317
728.177	23511.9263
728.371	23505.81633
728.565	23283.84001
728.758	23471.19372
728.952	23428.42586
729.146	23210.53502
729.339	23351.0399
729.533	23287.91263
729.726	24027.29693
729.92	23878.57392
730.113	23809.3109
730.307	23461.01077
730.5	23540.43983
730.694	23579.13774
730.887	23456.93762
731.081	23554.69683
731.274	23636.16823
731.468	23312.34863
731.661	23458.97419
731.854	23481.37675
732.048	23145.37855
732.241	23237.00578
732.435	23748.19927
732.628	23888.75994
732.821	24114.90793
733.014	23619.87356
733.208	23184.0648
733.401	23188.1371
733.594	23092.44138
733.788	23418.24324
733.981	23338.82148
734.174	23442.68166
734.367	23265.51337
734.56	23289.94895
734.754	22935.67908
734.947	23171.84796
735.14	22905.14329
735.333	23338.82148
735.526	22960.10826
735.719	22850.18078
735.912	22770.7949
736.105	23165.73959
736.298	23041.54236
736.491	23344.93067
736.684	23031.36281
736.877	22980.46629
737.07	23342.89427
737.263	23082.26141
737.456	22978.43047
737.649	23057.82982
737.842	23265.51337
738.035	23228.86087
738.228	23300.13057
738.421	22941.78633
738.614	23008.96808
738.807	22951.96515
739	22941.78633
739.192	22658.8494
739.385	22620.17978
739.578	22262.03834
739.771	22491.96861
739.964	22567.26552
740.156	22768.75943
740.349	22685.3083
740.542	22980.46629
740.735	22874.60825
740.927	22915.3218
741.12	22652.74359
741.313	22284.41889
741.505	22903.10759
741.698	22825.7538
741.891	22548.94961
742.083	21916.21461
742.276	21985.37064
742.468	22294.59201
742.661	22284.41889
742.854	22494.00359
743.046	22428.88578
743.239	22180.65831
743.431	22367.84119
743.624	22217.27859
743.816	21643.70184
744.009	21621.3345
744.201	21666.06966
744.393	21804.35394
744.586	21857.23208
744.778	21987.4047
744.971	22231.52014
745.163	22034.1893
745.355	22119.6272
745.548	22402.43272
745.74	22119.6272
745.932	21788.08427
746.125	21985.37064
746.317	21582.70111
746.509	21338.73385
746.702	21670.13659
746.894	21552.20208
747.086	21814.52261
747.278	21765.71388
747.471	22034.1893
747.663	21922.31643
747.855	22406.50238
748.047	22066.73629
748.239	22253.90007
748.431	21993.50693
748.623	21786.05058
748.815	21759.61294
749.008	21985.37064
749.2	22026.0527
749.392	22044.36013
749.584	21560.33507
749.776	22125.73016
749.968	21904.01106
750.16	21969.09823
750.352	21706.73964
750.544	21391.58855
750.736	21981.30251
750.928	21777.91585
751.12	21794.18537
751.311	21694.53848
751.503	21692.50497
751.695	21678.27049
751.887	21365.16086
752.079	21790.11797
752.271	21562.36832
752.463	21350.93085
752.654	21716.90738
752.846	21479.00802
753.038	21100.92144
753.23	21519.67075
753.421	21294.01276
753.613	21720.9745
753.805	21662.00275
753.997	21283.84915
754.188	21706.73964
754.38	21542.03593
754.572	21523.73711
754.763	21942.6561
754.955	21426.14885
755.146	21525.7703
755.338	21210.67412
755.53	21363.12799
755.721	21397.68734
755.913	21420.04989
756.104	21007.43779
756.296	21188.31614
756.487	21092.79209
756.679	21239.13046
756.87	20915.99479
757.062	20625.4648
757.253	20765.64002
757.445	20958.66716
757.636	20816.43302
757.827	21060.27531
758.019	20940.37878
758.21	20414.22374
758.401	20747.35517
758.593	20454.8435
758.784	20485.30943
758.975	20529.99449
759.167	20359.38971
759.358	20536.08806
759.549	20464.99871
759.74	20481.24725
759.932	20349.2356
760.123	20471.09188
760.314	20617.33931
760.505	20140.08423
760.696	19947.21717
760.888	20186.78406
761.079	20054.812
761.27	20188.81454
761.461	20194.906
761.652	19874.14062
761.843	19646.82616
762.034	19705.67933
762.225	19748.29933
762.416	19782.8026
762.607	19752.35848
762.798	19697.56144
762.989	19989.84767
763.18	19868.05116
763.371	19831.51515
763.562	19890.37939
763.753	19770.62484
763.944	19894.43912
764.135	19490.57791
764.326	19845.72344
764.517	19981.72743
764.708	20308.62019
764.899	19498.6941
765.089	19945.18719
765.28	19870.08098
765.471	19750.3289
765.662	19346.52671
765.853	19691.47307
766.043	19131.50307
766.234	19425.65084
766.425	19030.09278
766.615	19015.89615
766.806	19541.30515
766.997	19462.1718
767.187	19362.75679
767.378	19799.03985
767.569	19439.85327
767.759	19236.9806
767.95	19391.16006
768.141	19111.2202
768.331	19015.89615
768.522	18754.3078
768.712	18772.55599
768.903	18892.19103
769.093	18918.55316
769.284	18648.88003
769.474	18681.31821
769.665	18393.46403
769.855	18561.70737
770.046	18744.17005
770.236	18434.00218
770.426	18752.28024
770.617	18756.33536
770.807	18423.8675
770.998	18411.70601
771.188	18223.22022
771.378	18482.64998
771.569	18588.06113
771.759	18829.33021
771.949	18523.1915
772.139	18577.92499
772.33	17781.51667
772.52	17988.1643
772.71	17982.08591
772.9	18328.60613
773.09	18429.9483
773.281	18498.8664
773.471	17996.26888
773.661	17815.95544
773.851	18288.07189
774.041	17992.21658
774.231	18065.16003
774.421	17789.61982
774.611	17526.29465
774.802	17732.89889
774.992	17471.61093
775.182	17603.26088
775.372	17676.18059
775.562	17741.00172
775.752	18014.50437
775.942	17945.61624
776.131	18352.92739
776.321	17785.56824
776.511	17319.72361
776.701	17111.15908
776.891	17329.84889
777.081	17127.35717
777.271	17402.7532
777.461	17105.08484
777.651	17123.30763
777.84	17344.02442
778.03	17366.30055
778.22	17258.97346
778.41	17522.24393
778.599	16957.28598
778.789	16987.65444
778.979	17096.98589
779.169	17311.62343
779.358	17439.20684
779.548	17384.52675
779.738	17147.60504
779.927	17234.67415
780.117	17423.0051
780.307	17477.68678
780.496	17263.02339
780.686	17370.3508
780.875	16930.96714
781.065	17212.40015
781.254	17293.39821
781.444	17030.17128
781.633	17182.02707
781.823	17295.42323
782.012	16991.70361
782.202	17291.3732
782.391	16947.1633
782.581	16785.20909
782.77	16157.77291
782.96	16131.46508
783.149	15981.71775
783.338	16345.98354
783.528	16428.96319
783.717	16364.1983
783.906	16499.80215
784.096	16368.24605
784.285	16396.5805
784.474	16433.01107
784.663	16329.79276
784.853	16356.10283
785.042	16327.76892
785.231	16244.79313
785.42	15914.94104
785.61	16157.77291
785.799	15850.1892
785.988	15910.89401
786.177	15682.24445
786.366	15801.62611
786.555	15884.58846
786.744	15860.30659
786.933	15844.11877
787.122	15999.92983
787.312	15929.10568
787.501	15631.66
787.69	15664.03399
787.879	15728.78265
788.068	15536.56257
788.257	15635.70673
788.445	15206.76565
788.634	15955.4116
788.823	15834.00143
789.012	15921.01159
789.201	15965.52932
789.39	15959.45868
789.579	15664.03399
789.768	15914.94104
789.957	15674.1509
790.145	15577.02936
790.334	15326.13892
790.523	15269.48712
790.712	15176.41659
790.9	15556.79593
791.089	15560.84261
791.278	15461.69969
791.467	15388.86084
791.655	15279.6035
791.844	15287.69661
792.033	15251.27764
792.221	15583.0994
792.41	15702.47839
792.599	15299.83627
792.787	15534.53924
792.976	15502.16601
793.164	15281.62677
793.353	15097.50901
793.541	15283.65005
793.73	15281.62677
793.918	15419.21029
794.107	15000.39172
794.295	15352.44162
794.484	14968.01915
794.672	15180.46313
794.861	14978.13558
795.049	14680.7065
795.238	14887.08727
795.426	15032.76421
795.614	14727.24404
795.803	14662.49602
795.991	14338.73785
796.179	14399.44525
796.368	14450.03368
796.556	14664.51941
796.744	14273.98161
796.932	14484.43329
797.121	14383.25675
797.309	14338.73785
797.497	14330.64341
797.685	14828.41113
797.874	14713.08049
798.062	14628.09822
798.25	14638.21525
798.438	14789.96786
798.626	14571.44235
798.814	14431.82195
799.002	14257.79226
799.19	14225.4132
799.378	14219.34207
799.566	14286.12354
799.755	14018.98422
799.943	14174.81992
800.131	14263.86328
800.318	14462.17476
800.506	14138.39197
800.694	14332.66702
800.882	13838.84441
801.07	14106.01099
801.258	14255.76858
801.446	14393.37457
801.634	14199.10485
801.822	14156.60603
802.01	14087.79643
802.197	14101.96332
802.385	13885.39942
802.573	13887.42352
802.761	13875.27889
802.949	14225.4132
803.136	13788.23942
803.324	14103.98716
803.512	14018.98422
803.699	14112.08246
803.887	14255.76858
804.075	14371.11531
804.262	14018.98422
804.45	14245.65017
804.638	13994.6969
804.825	14112.08246
805.013	13968.38524
805.201	14134.34438
805.388	13950.16921
805.576	14417.65719
805.763	14221.36579
805.951	14039.22339
806.138	14077.67716
806.326	13976.48118
806.513	14304.33632
806.701	13950.16921
806.888	14130.29678
807.075	14138.39197
807.263	14023.03208
807.45	14184.93868
807.638	13559.48053
807.825	14004.81666
808.012	13699.17008
808.2	14464.19827
808.387	14257.79226
808.574	14247.67386
808.761	14124.22536
808.949	14526.92638
809.136	13907.66435
809.323	14421.70427
809.51	14348.85585
809.698	14381.23318
809.885	13994.6969
810.072	14140.41576
810.259	14367.06815
810.446	14348.85585
810.633	14213.27093
810.82	14448.01016
811.008	14348.85585
811.195	14367.06815
811.382	14328.6198
811.569	14377.18604
811.756	14245.65017
811.943	14332.66702
812.13	14316.47809
812.317	14067.55783
812.504	13668.80414
812.691	14029.10384
812.878	13608.07003
813.064	14140.41576
813.251	14290.17084
813.438	14417.65719
813.625	13804.43322
813.812	13921.83277
813.999	13976.48118
814.186	14373.13889
814.372	14073.62943
814.559	14395.39813
814.746	14344.80865
814.933	14352.90304
815.12	14016.96029
815.306	14077.67716
815.493	14016.96029
815.68	13909.68841
815.866	13753.82697
816.053	13875.27889
816.24	13917.78466
816.426	13887.42352
816.613	13909.68841
816.799	14144.46334
816.986	14079.70102
817.173	13992.67294
817.359	13950.16921
817.546	14008.86455
817.732	13593.8983
817.919	13899.56805
818.105	13830.74773
818.292	14164.70112
818.478	13648.55977
818.665	14029.10384
818.851	13958.26525
819.037	13962.31325
819.224	13749.77839
819.41	13595.92284
819.597	13308.40065
819.783	13407.62485
819.969	13363.07642
820.156	13446.09696
820.342	13369.15132
820.528	13429.89835
820.714	13365.10139
820.901	13650.58422
821.087	13456.22097
821.273	13733.58394
821.459	13529.11106
821.646	13933.97702
821.832	13427.87351
822.018	13304.35047
822.204	13069.40998
822.39	13575.67725
822.576	13140.30367
822.762	13209.16636
822.948	13269.92328
823.134	13419.77409
823.32	12789.82626
823.507	13332.70136
823.693	13162.58335
823.879	13211.19166
824.065	13067.38436
824.25	13284.09933
824.436	13166.63414
824.622	13158.53254
824.808	13235.49485
824.994	13510.88899
825.18	13049.15356
825.366	13375.22618
825.552	13049.15356
825.738	13018.76802
825.923	12852.64008
826.109	12864.79698
826.295	12670.26232
826.481	12656.07541
826.667	13047.12789
826.852	13049.15356
827.038	12735.11305
827.224	12761.45696
827.409	12727.00704
827.595	12745.24544
827.781	12587.16337
827.966	13016.74228
828.152	12716.87439
828.338	12911.39666
828.523	12712.82129
828.709	13002.56194
828.894	12530.40692
829.08	12656.07541
829.266	12414.85144
829.451	12278.99517
829.637	12281.02311
829.822	12712.82129
830.008	12575.00169
830.193	12311.44129
830.378	12445.26284
830.564	12781.72086
830.749	12799.95788
830.935	12532.43402
831.12	12396.60388
831.305	12692.55543
831.491	12201.92832
831.676	12568.92076
831.861	12319.55254
832.047	12281.02311
832.232	11972.69197
832.417	11850.93247
832.602	11873.25727
832.788	12108.62267
832.973	12197.87188
833.158	12311.44129
833.343	12084.27944
833.528	12268.85539
833.714	11992.98238
833.899	12201.92832
834.084	11808.30957
834.269	12021.38761
834.454	11759.59307
834.639	12019.35872
834.824	11905.72791
835.009	12226.26635
835.194	12177.58923
835.379	12234.37879
835.564	11956.45907
835.749	11932.10875
835.934	11712.90173
836.119	11597.16811
836.304	11184.74306
836.489	11440.77854
836.674	11272.13835
836.859	11412.33799
837.044	11320.90885
837.228	11505.77842
837.413	11377.80045
837.598	11509.84058
837.783	11483.43581
837.968	11737.263
838.152	11440.77854
838.337	11783.95194
838.522	11794.1011
838.707	11771.77266
838.891	11304.65267
839.076	11572.79937
839.261	11156.28461
839.445	11501.71621
839.63	11296.52433
839.815	11542.33656
839.999	11643.87117
840.184	11800.19049
840.368	11591.07605
840.553	11702.75082
840.737	11312.78084
840.922	11499.68509
841.106	11231.49176
841.291	11261.97709
841.475	11536.24375
841.66	11324.9728
841.844	10991.59082
842.029	11394.05377
842.213	11308.71678
842.397	11048.53009
842.582	10867.51412
842.766	10900.06292
842.951	11068.86346
843.135	10767.81493
843.319	10672.15834
843.504	10755.60492
843.688	10397.24806
843.872	10533.71378
844.056	10710.83122
844.241	10562.22178
844.425	10735.25396
844.609	10497.057
844.793	10417.61976
844.977	10558.14936
845.161	10221.99681
845.346	10362.61318
845.53	10067.03971
845.714	10368.72549
845.898	10144.5283
846.082	10301.48347
846.266	10321.86137
846.45	10128.21659
846.634	10099.66895
846.818	10340.20034
847.002	10545.93179
847.186	10543.89549
847.37	9883.43189
847.554	10079.2761
847.738	9818.12056
847.922	9944.64754
848.106	9969.13012
848.29	10028.28777
848.473	10005.85008
848.657	9903.83857
848.841	10144.5283
849.025	10087.43341
849.209	9995.65056
849.392	10056.84233
849.576	9912.00083
849.76	9981.37063
849.944	9472.93578
850.127	10050.72373
850.311	9781.37622
850.495	9669.07138
850.678	9358.4553
850.862	9773.21014
851.046	9605.75177
851.229	9540.37381
851.413	9477.02343
851.596	9789.54205
851.78	9601.66612
851.964	9656.81714
852.147	9536.28715
852.331	9626.17908
852.514	9444.32043
852.698	9554.67662
852.881	9411.61329
853.065	9534.2438
853.248	9564.89244
853.431	9781.37622
853.615	9153.89692
853.798	9519.93988
853.982	9280.74282
854.165	9558.76299
854.348	9250.06024
854.532	9268.47024
854.715	8910.24942
854.898	9252.10586
855.081	8893.86082
855.265	9000.36642
855.448	8900.00667
855.631	9061.79031
855.814	8893.86082
855.997	8979.88828
856.181	8779.10841
856.364	8934.83018
856.547	8975.79244
856.73	8889.76349
856.913	8325.67875
857.096	8891.81216
857.279	8565.84448
857.462	8643.7911
857.645	8807.80183
857.828	8518.65306
858.011	8922.54012
858.194	8740.16164
858.377	8965.55254
858.56	9014.70006
858.743	8738.11162
858.926	8742.21163
859.109	8594.5648
859.292	8596.61611
859.475	8430.39867
859.658	8303.08547
859.841	8325.67875
860.023	8391.39124
860.206	8169.53117
860.389	8654.04523
860.572	8151.03243
860.755	8389.33803
860.937	8327.73256
861.12	8438.60987
861.303	8290.76087
861.486	8413.97534
861.668	8239.40075
861.851	8202.41382
862.034	8278.43556
862.216	8212.68861
862.399	7788.94933
862.581	8060.5708
862.764	7756.00102
862.947	7908.3423
863.129	7607.6669
863.312	7797.18558
863.494	7780.71276
863.677	7861.00516
863.859	7939.20847
864.042	7867.18019
864.224	7756.00102
864.406	7941.26605
864.589	7640.63952
864.771	7970.07003
864.954	7475.72168
865.136	7467.47218
865.318	7593.23966
865.501	7644.76072
865.683	7389.08463
865.865	7813.65706
866.048	7560.2592
866.23	7760.11985
866.412	7490.15747
866.594	7613.84968
866.777	7285.89517
866.959	7469.53458
867.141	7471.59697
867.323	7578.81138
867.505	7409.71597
867.687	7554.07475
867.869	7312.72969
868.052	7446.84691
868.234	7252.86296
868.416	7525.21144
868.598	7343.688
868.78	7620.03227
868.962	7475.72168
869.144	7694.20845
869.326	7252.86296
869.508	7236.34474
869.69	7104.14793
869.872	7089.68337
870.054	7219.8251
870.236	7205.36926
870.417	7050.41691
870.599	7120.67751
870.781	7042.14926
870.963	7217.76005
871.145	6839.47909
871.327	6872.58294
871.508	6982.19802
871.69	7228.0851
871.872	7157.86386
872.054	7304.47331
872.235	7052.48377
872.417	7302.40916
872.599	7205.36926
872.78	7444.78426
872.962	7192.97768
873.144	7285.89517
873.325	7153.7324
873.507	6996.67074
873.689	7071.08448
873.87	7116.54525
874.052	7242.53924
874.233	7273.50875
874.415	7091.74981
874.596	7263.18613
874.778	6932.56888
874.959	7228.0851
875.141	7029.74711
875.322	7523.14961
875.503	7087.61692
875.685	7397.33743
875.866	7013.20964
876.048	7019.41136
876.229	6899.47555
876.41	6932.56888
876.592	6893.2699
876.773	6980.1304
876.954	6651.08974
877.136	7219.8251
877.317	6940.8413
877.498	7153.7324
877.679	6955.31718
877.86	6924.29609
878.042	6909.81783
878.223	7042.14926
878.404	6837.4099
878.585	6891.20131
878.766	6673.87217
878.947	6986.3332
879.128	6816.71681
879.309	6557.85987
879.49	6615.87506
879.672	7015.27691
879.853	6690.43946
880.034	7064.88444
880.215	6580.65371
880.396	6731.85125
880.576	6468.7298
880.757	6709.0759
880.938	6700.79327
881.119	7089.68337
881.3	6669.73012
881.481	7128.94177
881.662	6566.14887
881.843	6849.82467
882.023	6541.28078
882.204	6673.87217
882.385	6748.4134
882.566	6880.858
882.747	6626.23301
882.927	6988.40075
883.108	6764.97409
883.289	7137.20567
883.469	7116.54525
883.65	7244.60402
883.831	7141.33748
884.011	7281.76645
884.192	6893.2699
884.373	7087.61692
884.553	6874.65174
884.734	6866.37641
884.914	7058.68421
885.095	7186.78159
885.275	6667.65905
885.456	6725.64007
885.636	6574.43749
885.817	6876.72052
885.997	7042.14926
886.178	6963.58862
886.358	6975.99509
886.538	7135.13972
886.719	7110.34669
886.899	7281.76645
887.08	7384.9581
887.26	7354.00635
887.44	7283.83082
887.621	7380.83148
887.801	7205.36926
887.981	7372.57799
888.161	7180.5853
888.342	7141.33748
888.522	6845.6865
888.702	7023.54573
888.882	7081.41742
889.062	6839.47909
889.242	6798.09107
889.423	7114.47909
889.603	6864.30752
889.783	7056.61742
889.963	6717.35817
890.143	6719.42868
890.323	6735.99193
890.503	6824.99432
890.683	6682.156
890.863	6570.29322
891.043	6584.79775
891.223	6678.01413
891.403	6466.65649
891.583	6644.87587
891.763	6491.53459
891.943	6735.99193
892.122	6684.2269
892.302	6814.64737
892.482	6897.40702
892.662	6822.92497
892.842	6748.4134
893.022	6969.79195
893.201	6783.60311
893.381	6775.32377
893.561	6711.1465
893.741	6818.78622
893.92	6497.7536
894.1	6591.01363
894.28	6367.1106
894.459	6595.15743
894.639	6539.20829
894.819	6740.13251
894.998	6441.77505
895.178	6620.01831
895.357	6510.19098
895.537	6591.01363
895.716	6599.30114
895.896	6506.04528
896.075	6396.15036
896.255	6543.35324
896.434	6321.46745
896.614	6524.7002
896.793	6192.77585
896.973	6431.40679
897.152	6192.77585
897.331	6288.26533
897.511	6016.1972
897.69	6126.31912
897.87	5962.15095
898.049	5912.24795
898.228	6009.96191
898.407	6115.93308
898.587	5770.78234
898.766	6118.01034
898.945	5660.4467
899.124	5864.4115
899.304	5801.99737
899.483	5924.72497
899.662	5795.75479
899.841	6001.64785
900.02	5666.69388
900.199	5739.562
900.378	5720.82724
900.557	5768.70115
900.737	5731.23567
900.916	6005.80493
901.095	5729.15403
901.274	5862.33137
901.453	5629.20759
901.632	5710.41822
901.811	5420.81141
901.989	5785.35001
902.168	5435.4068
902.347	5537.54229
902.526	5274.79422
902.705	5541.70988
902.884	5377.01832
903.063	5704.17252
903.242	5289.40111
903.42	5381.18954
903.599	5088.97845
903.778	5239.31559
903.957	5105.68853
904.135	5427.06672
904.314	5065.99966
904.493	5422.89653
904.672	4909.25166
904.85	5055.55384
905.029	4798.40523
905.207	5128.66246
905.386	4775.39135
905.565	4951.06379
905.743	4848.60778
905.922	4624.68748
906.1	4461.29417
906.279	4760.74472
906.457	4593.27619
906.636	4716.79818
906.814	4314.54529
906.993	4553.48135
907.171	4280.98779
907.35	4241.13112
907.528	4146.70313
907.707	4366.96784
907.885	4138.30746
908.063	4255.81605
908.242	3911.49912
908.42	4117.31682
908.598	4056.43218
908.777	4037.53339
908.955	3854.75995
909.133	4060.63168
909.311	3726.51836
909.49	4006.03172
909.668	3808.51731
909.846	4171.88811
910.024	3955.61945
910.202	4020.73308
910.38	3819.02784
910.559	4201.26675
910.737	3932.50991
910.915	4419.37682
911.093	4167.69082
911.271	4234.83725
911.449	4006.03172
911.627	4188.67641
911.805	3970.32424
911.983	4108.91998
912.161	3943.01455
912.339	4318.73959
912.517	4129.91145
912.695	4593.27619
912.872	4419.37682
913.05	4366.96784
913.228	4117.31682
913.406	4467.58101
913.584	4272.59755
913.762	4257.91381
913.939	4295.66987
914.117	4364.87119
914.295	4045.93306
914.473	4165.59215
914.65	3886.28352
914.828	4157.19724
915.006	3978.72653
915.184	4239.03318
915.361	4060.63168
915.539	4270.49994
915.716	4071.13007
915.894	4322.93381
916.072	4056.43218
916.249	4054.33239
916.427	3631.8677
916.604	3856.86167
916.782	3610.829
916.959	4129.91145
917.137	3900.99297
917.314	4236.93523
917.492	3726.51836
917.669	3825.33393
917.847	3724.41543
918.024	3972.42485
918.201	3766.47027
918.379	3970.32424
918.556	3549.80619
918.733	3831.63983
918.911	3612.93296
919.088	3802.21076
919.265	3547.70168
919.442	3810.61946
919.62	3593.99669
919.797	3846.35291
919.974	3535.07421
920.151	3554.01516
920.328	3316.09503
920.506	3375.0698
920.683	3244.46472
920.86	3254.99982
921.037	3271.8551
921.214	3549.80619
921.391	3391.91723
921.568	3377.17579
921.745	3229.71489
921.922	3591.89257
922.099	3320.30796
922.276	3570.85031
922.453	3349.79657
922.63	3665.5257
922.807	3332.94635
922.984	3254.99982
923.161	3084.28066
923.338	3469.8218
923.514	3012.58958
923.691	3195.99792
923.868	2902.91048
924.045	3046.32879
924.222	2748.87231
924.399	3029.45967
924.575	2816.40501
924.752	3147.5224
924.929	2837.50609
925.105	3031.56837
925.282	2613.76651
925.459	2951.42734
925.635	2715.10081
925.812	2995.7185
925.989	2624.32352
926.165	2921.89626
926.342	2598.98619
926.518	2829.06582
926.695	2311.71525
926.871	2693.99192
927.048	2548.30632
927.224	2905.02007
927.401	2444.81427
927.577	2658.10385
927.754	2241.98122
927.93	2516.62797
928.107	2292.69789
928.283	2537.74716
928.459	2639.10281
928.636	2489.17131
928.812	2284.24548
928.988	2527.18771
929.165	2389.88944
929.341	2506.06794
929.517	2132.07787
929.693	2493.39553
929.87	1979.86966
930.046	2396.22728
930.222	2064.43431
930.398	2326.506
930.574	2098.25705
930.751	2419.46523
930.927	2110.94009
931.103	2351.86046
931.279	2201.82687
931.455	2411.01522
931.631	2127.85038
931.807	2284.24548
931.983	1914.32511
932.159	2119.39529
932.335	1861.46268
932.511	2015.81095
932.687	1728.23648
932.863	2028.49565
933.039	1637.29615
933.215	1929.12598
933.391	1853.0044
933.566	1821.28515
933.742	1692.28397
933.918	1880.49353
934.094	1637.29615
934.27	1666.9052
934.445	1510.39593
934.621	1812.82651
934.797	1372.91786
934.973	1406.7585
935.148	1152.96554
935.324	1396.18328
935.5	1218.52513
935.675	1339.07749
935.851	1218.52513
936.027	1315.81245
936.202	1068.37849
936.378	1193.14681
936.553	895.00401
936.729	850.61115
936.904	740.70313
937.08	926.71537
937.255	753.38348
937.431	861.18054
937.606	668.85521
937.782	732.24978
937.957	599.13334
938.133	654.06461
938.308	546.32299
938.483	571.67092
938.659	561.10904
938.834	518.86497
939.009	487.18564
939.185	542.09852
939.36	491.40936
939.535	508.30483
939.71	468.17963
939.886	385.8348
940.061	442.8402
940.236	402.72406
940.411	495.63314
940.586	466.06793
940.761	318.28862
940.937	341.50562
941.112	373.16856
941.287	341.50562
941.462	352.0595
941.637	318.28862
941.812	282.41208
941.987	337.28419
942.162	263.42077
942.337	406.94654
942.512	233.8818
942.687	278.19166
942.862	248.65082
943.037	250.76076
943.212	257.09068
943.386	198.0182
943.561	318.28862
943.736	335.1735
943.911	254.98069
944.086	227.55252
944.26	271.86117
944.435	297.18413
944.61	229.66226
944.785	311.95708
944.959	200.12766
945.134	231.77202
945.309	221.22341
945.483	200.12766
945.658	240.21127
945.833	235.99161
946.007	145.28826
946.182	271.86117
946.357	254.98069
946.531	221.22341
946.706	219.11374
946.88	320.39917
947.055	172.70621
947.229	242.32113
947.404	155.83321
947.578	235.99161
947.752	314.06758
947.927	200.12766
948.101	290.85314
948.276	246.5409
948.45	288.74285
948.624	309.84661
948.799	149.50617
948.973	233.8818
949.147	301.40489
949.321	240.21127
949.496	254.98069
949.67	235.99161
949.844	208.56572
950.018	210.67529
950.193	267.64093
950.367	223.33309
950.541	240.21127
950.715	305.62571
950.889	189.58055
951.063	292.96345
951.237	324.62032
951.411	271.86117
951.585	221.22341
951.759	238.10143
951.933	265.53084
952.107	276.08147
952.281	212.78487
952.455	204.34665
952.629	195.90876
952.803	318.28862
952.977	259.20069
953.151	301.40489
953.325	320.39917
953.499	233.8818
953.672	316.17809
953.846	278.19166
954.02	314.06758
954.194	276.08147
954.368	217.0041
954.541	341.50562
954.715	347.8379
954.889	305.62571
955.062	263.42077
955.236	314.06758
955.41	231.77202
955.583	326.73092
955.757	280.30186
955.93	269.75104
956.104	339.39489
956.278	322.50973
956.451	246.5409
956.625	288.74285
956.798	238.10143
956.972	259.20069
957.145	257.09068
957.319	314.06758
957.492	273.97131
957.665	240.21127
957.839	299.2945
958.012	200.12766
958.185	254.98069
958.359	265.53084
958.532	229.66226
958.705	297.18413
958.879	225.4428
959.052	318.28862
959.225	292.96345
959.398	189.58055
959.572	202.23715
959.745	288.74285
959.918	250.76076
960.091	318.28862
960.264	195.90876
960.438	254.98069
960.611	221.22341
960.784	318.28862
960.957	179.03394
961.13	212.78487
961.303	198.0182
961.476	250.76076
961.649	189.58055
961.822	280.30186
961.995	299.2945
962.168	271.86117
962.341	217.0041
962.514	318.28862
962.686	271.86117
962.859	320.39917
963.032	240.21127
963.205	297.18413
963.378	271.86117
963.551	259.20069
963.723	231.77202
963.896	208.56572
964.069	170.59702
964.242	227.55252
964.414	225.4428
964.587	282.41208
964.76	195.90876
964.932	297.18413
965.105	305.62571
965.278	217.0041
965.45	231.77202
965.623	248.65082
965.795	231.77202
965.968	297.18413
966.14	147.39721
966.313	149.50617
966.485	246.5409
966.658	191.68993
966.83	212.78487
967.003	168.48784
967.175	198.0182
967.348	174.81543
967.52	204.34665
967.692	189.58055
967.865	126.30869
968.037	267.64093
968.209	172.70621
968.382	172.70621
968.554	242.32113
968.726	217.0041
968.898	136.85268
969.071	248.65082
969.243	221.22341
969.415	195.90876
969.587	185.36184
969.759	225.4428
969.932	147.39721
970.104	244.431
970.276	113.65661
970.448	170.59702
970.62	202.23715
970.792	189.58055
970.964	214.89448
971.136	231.77202
971.308	174.81543
971.48	179.03394
971.652	157.94226
971.824	153.72418
971.996	162.16043
972.168	153.72418
972.339	145.28826
972.511	82.02988
972.683	145.28826
972.855	210.67529
973.027	98.89685
973.199	229.66226
973.37	107.33087
973.542	111.54801
973.714	280.30186
973.886	195.90876
974.057	71.48875
974.229	143.17933
974.401	189.58055
974.572	103.11382
974.744	107.33087
974.915	181.14322
975.087	130.52622
975.259	168.48784
975.43	128.41744
975.602	122.09124
975.773	111.54801
975.945	98.89685
976.116	179.03394
976.288	195.90876
976.459	94.67998
976.63	166.37868
976.802	132.63502
976.973	71.48875
977.145	103.11382
977.316	119.98255
977.487	90.46319
977.659	107.33087
977.83	124.19996
978.001	88.35483
978.172	214.89448
978.344	115.76524
978.515	132.63502
978.686	119.98255
978.857	107.33087
979.028	145.28826
979.2	138.96154
979.371	141.07043
979.542	88.35483
979.713	77.81336
979.884	113.65661
980.055	113.65661
980.226	155.83321
980.397	153.72418
980.568	96.7884
980.739	86.24649
980.91	58.84015
981.081	88.35483
981.252	52.51615
981.423	58.84015
981.594	50.4082
981.765	90.46319
981.936	52.51615
982.106	60.94819
982.277	98.89685
982.448	117.87389
982.619	37.76098
982.79	149.50617
982.96	90.46319
983.131	124.19996
983.302	107.33087
983.472	96.7884
983.643	65.16435
983.814	69.38059
983.984	77.81336
984.155	65.16435
984.326	107.33087
984.496	107.33087
984.667	130.52622
984.837	90.46319
985.008	119.98255
985.178	86.24649
985.349	113.65661
985.519	39.86879
985.69	128.41744
985.86	111.54801
986.031	111.54801
986.201	82.02988
986.371	105.22233
986.542	1.93177
986.712	31.43768
986.882	105.22233
987.053	20.89932
987.223	77.81336
987.393	65.16435
987.563	149.50617
987.734	113.65661
987.904	46.19237
988.074	52.51615
988.244	50.4082
988.414	124.19996
988.585	98.89685
988.755	119.98255
988.925	56.73213
989.095	33.54542
989.265	82.02988
989.435	138.96154
989.605	27.22227
989.775	41.97663
989.945	111.54801
990.115	20.89932
990.285	56.73213
990.455	90.46319
990.625	63.05626
990.795	37.76098
990.965	90.46319
991.134	20.89932
991.304	58.84015
991.474	-40.21131
991.644	60.94819
991.814	41.97663
991.984	73.59693
992.153	130.52622
992.323	166.37868
992.493	18.79172
992.662	84.13817
992.832	69.38059
993.002	86.24649
993.171	103.11382
993.341	1.93177
993.511	115.76524
993.68	4.03918
993.85	50.4082
994.019	50.4082
994.189	31.43768
994.358	50.4082
994.528	69.38059
994.697	60.94819
994.867	35.65319
995.036	-4.39031
995.206	88.35483
995.375	60.94819
995.544	77.81336
995.714	75.70514
995.883	29.32996
996.052	-4.39031
996.222	130.52622
996.391	35.65319
996.56	-29.67646
996.73	77.81336
996.899	18.79172
997.068	67.27246
997.237	65.16435
997.406	52.51615
997.576	1.93177
997.745	69.38059
997.914	39.86879
998.083	84.13817
998.252	35.65319
998.421	69.38059
998.59	14.57659
998.759	27.22227
998.928	-21.24814
999.097	54.62413
999.266	73.59693
999.435	58.84015
999.604	-23.35526
999.773	31.43768
999.942	48.30027
1000.111	60.94819
1000.28	48.30027
1000.448	84.13817
1000.617	56.73213
1000.786	82.02988
1000.955	-2.28298
1001.124	23.00695
1001.292	65.16435
1001.461	82.02988
1001.63	46.19237
1001.798	69.38059
1001.967	90.46319
1002.136	73.59693
1002.304	79.92161
1002.473	14.57659
1002.642	27.22227
1002.81	44.08449
1002.979	35.65319
1003.147	44.08449
1003.316	94.67998
1003.484	46.19237
1003.653	65.16435
1003.821	25.11459
1003.99	-23.35526
1004.158	33.54542
1004.327	77.81336
1004.495	113.65661
1004.663	-8.60492
1004.832	101.00532
1005	117.87389
1005.168	37.76098
1005.337	-6.49763
1005.505	29.32996
1005.673	-42.31821
1005.842	94.67998
1006.01	14.57659
1006.178	52.51615
1006.346	73.59693
1006.514	-6.49763
1006.683	96.7884
1006.851	-48.63874
1007.019	88.35483
1007.187	6.14661
1007.355	86.24649
1007.523	35.65319
1007.691	60.94819
1007.859	90.46319
1008.027	88.35483
1008.195	-21.24814
1008.363	37.76098
1008.531	-19.141
1008.699	-31.78348
1008.867	-14.92664
1009.035	31.43768
1009.203	12.46906
1009.37	12.46906
1009.538	60.94819
1009.706	52.51615
1009.874	29.32996
1010.042	58.84015
1010.209	10.36155
1010.377	71.48875
1010.545	-10.71218
1010.713	-69.70555
1010.88	71.48875
1011.048	52.51615
1011.216	29.32996
1011.383	18.79172
1011.551	-6.49763
1011.718	39.86879
1011.886	35.65319
1012.054	37.76098
1012.221	6.14661
1012.389	27.22227
1012.556	33.54542
1012.724	23.00695
1012.891	1.93177
1013.058	84.13817
1013.226	-35.99745
1013.393	96.7884
1013.561	14.57659
1013.728	6.14661
1013.895	-21.24814
1014.063	84.13817
1014.23	10.36155
1014.397	-19.141
1014.565	16.68414
1014.732	-23.35526
1014.899	35.65319
1015.066	18.79172
1015.233	4.03918
1015.401	77.81336
1015.568	29.32996
1015.735	71.48875
1015.902	60.94819
1016.069	77.81336
1016.236	-14.92664
1016.403	56.73213
1016.57	-31.78348
1016.737	65.16435
1016.904	-52.8523
1017.071	27.22227
1017.238	50.4082
1017.405	12.46906
1017.572	35.65319
1017.739	-31.78348
1017.906	79.92161
1018.073	-25.46235
1018.24	82.02988
1018.407	10.36155
1018.573	60.94819
1018.74	48.30027
1018.907	48.30027
1019.074	-48.63874
1019.241	-38.10439
1019.407	-4.39031
1019.574	25.11459
1019.741	71.48875
1019.907	-10.71218
1020.074	27.22227
1020.241	31.43768
1020.407	-14.92664
1020.574	18.79172
1020.74	69.38059
1020.907	44.08449
1021.073	31.43768
1021.24	37.76098
1021.406	-0.17561
1021.573	31.43768
1021.739	90.46319
1021.906	18.79172
1022.072	18.79172
1022.239	23.00695
1022.405	-42.31821
1022.571	60.94819
1022.738	-40.21131
1022.904	-2.28298
1023.07	86.24649
1023.237	27.22227
1023.403	12.46906
1023.569	12.46906
1023.735	60.94819
1023.902	18.79172
1024.068	46.19237
1024.234	33.54542
1024.4	-35.99745
1024.566	-27.56942
1024.732	27.22227
1024.898	14.57659
1025.065	77.81336
1025.231	-10.71218
1025.397	44.08449
1025.563	31.43768
1025.729	-8.60492
1025.895	-2.28298
1026.061	10.36155
1026.227	6.14661
1026.392	-2.28298
1026.558	65.16435
1026.724	27.22227
1026.89	56.73213
1027.056	56.73213
1027.222	-4.39031
1027.388	-10.71218
1027.553	-6.49763
1027.719	52.51615
1027.885	4.03918
1028.051	86.24649
1028.216	-6.49763
1028.382	31.43768
1028.548	6.14661
1028.713	8.25407
1028.879	20.89932
1029.045	29.32996
1029.21	44.08449
1029.376	63.05626
1029.541	-23.35526
1029.707	1.93177
1029.873	1.93177
1030.038	63.05626
1030.204	31.43768
1030.369	90.46319
1030.534	44.08449
1030.7	31.43768
1030.865	31.43768
1031.031	33.54542
1031.196	-23.35526
1031.361	-35.99745
1031.527	-10.71218
1031.692	-42.31821
1031.857	1.93177
1032.023	-29.67646
1032.188	14.57659
1032.353	39.86879
1032.518	41.97663
1032.684	18.79172
1032.849	-40.21131
1033.014	-23.35526
1033.179	39.86879
1033.344	37.76098
1033.509	4.03918
1033.674	52.51615
1033.839	56.73213
1034.004	16.68414
1034.17	-21.24814
1034.335	10.36155
1034.5	4.03918
1034.664	54.62413
1034.829	-40.21131
1034.994	151.61516
1035.159	48.30027
1035.324	23.00695
1035.489	60.94819
1035.654	27.22227
1035.819	14.57659
1035.984	29.32996
1036.148	41.97663
1036.313	54.62413
1036.478	-19.141
1036.643	71.48875
1036.807	35.65319
1036.972	-6.49763
1037.137	31.43768
1037.301	-14.92664
1037.466	35.65319
1037.631	126.30869
1037.795	4.03918
1037.96	29.32996
1038.124	-14.92664
1038.289	96.7884
1038.454	-4.39031
1038.618	44.08449
1038.783	-2.28298
1038.947	-63.38577
1039.111	-67.59898
1039.276	65.16435
1039.44	25.11459
1039.605	14.57659
1039.769	75.70514
1039.933	29.32996
1040.098	82.02988
1040.262	46.19237
1040.426	86.24649
1040.591	12.46906
1040.755	50.4082
1040.919	-14.92664
1041.083	75.70514
1041.248	33.54542
1041.412	98.89685
1041.576	65.16435
1041.74	25.11459
1041.904	35.65319
1042.068	-4.39031
1042.232	52.51615
1042.397	23.00695
1042.561	54.62413
1042.725	-10.71218
1042.889	39.86879
1043.053	6.14661
1043.217	23.00695
1043.381	73.59693
1043.544	48.30027
1043.708	-42.31821
1043.872	60.94819
1044.036	23.00695
1044.2	25.11459
1044.364	-6.49763
1044.528	-35.99745
1044.691	-52.8523
1044.855	44.08449
1045.019	65.16435
1045.183	-12.81942
1045.346	-29.67646
1045.51	-57.06577
1045.674	-35.99745
1045.837	14.57659
1046.001	-40.21131
1046.165	35.65319
1046.328	-19.141
1046.492	-0.17561
1046.655	-14.92664
1046.819	-12.81942
1046.983	-23.35526
1047.146	37.76098
1047.31	37.76098
1047.473	10.36155
1047.636	48.30027
1047.8	18.79172
1047.963	6.14661
1048.127	-0.17561
1048.29	1.93177
