Data from absorb_only_2.23.25_USB4F045381__89__0194.txt Node

Date: Sun Feb 23 19:30:50 EST 2025
User: ssocol
Spectrometer: USB4F04538
Trigger mode: 4
Integration Time (sec): 2.600000E-3
Scans to average: 1
Electric dark correction enabled: true
Nonlinearity correction enabled: true
Boxcar width: 0
XAxis mode: Wavelengths
Number of Pixels in Spectrum: 3648
>>>>>Begin Spectral Data<<<<<
345.52	52.34049
345.736	52.34049
345.952	52.34049
346.168	60.77252
346.384	54.44846
346.6	-59.34802
346.816	33.36978
347.032	5.97099
347.248	-2.45859
347.464	-0.35123
347.68	-8.78052
347.896	-34.06606
348.112	153.54842
348.328	-57.24133
348.544	-4.56592
348.76	-80.41353
348.975	54.44846
349.191	1.75615
349.407	-25.63794
349.623	-97.26409
349.839	33.36978
350.055	77.63768
350.27	16.50851
350.486	1.75615
350.702	58.66448
350.918	27.04663
351.133	-21.42373
351.349	24.93896
351.565	1.75615
351.781	86.0708
351.996	-50.9211
352.212	62.88058
352.428	14.40096
352.644	-34.06606
352.859	100.82962
353.075	8.07845
353.291	33.36978
353.506	10.18593
353.722	10.18593
353.938	14.40096
354.153	-38.27997
354.369	-38.27997
354.584	16.50851
354.8	18.61609
355.016	27.04663
355.231	-29.85205
355.447	-86.73269
355.662	-4.56592
355.878	-29.85205
356.093	16.50851
356.309	8.07845
356.524	35.47754
356.74	-8.78052
356.955	10.18593
357.171	33.36978
357.386	-15.10224
357.602	12.29343
357.817	-0.35123
358.033	-4.56592
358.248	18.61609
358.464	102.93811
358.679	8.07845
358.895	-15.10224
359.11	12.29343
359.325	18.61609
359.541	-4.56592
359.756	3.86356
359.972	73.42125
360.187	-15.10224
360.402	33.36978
360.618	60.77252
360.833	-0.35123
361.048	-59.34802
361.264	-65.66794
361.479	8.07845
361.694	48.12461
361.909	8.07845
362.125	12.29343
362.34	-67.77453
362.555	-57.24133
362.77	31.26204
362.986	46.01671
363.201	-6.67324
363.416	8.07845
363.631	-19.31659
363.847	12.29343
364.062	46.01671
364.277	8.07845
364.492	5.97099
364.707	52.34049
364.922	33.36978
365.138	-10.88778
365.353	-4.56592
365.568	18.61609
365.783	3.86356
365.998	54.44846
366.213	-53.02787
366.428	1.75615
366.643	-65.66794
366.858	-101.47647
367.073	18.61609
367.288	-23.53085
367.503	18.61609
367.718	35.47754
367.933	39.69314
368.148	18.61609
368.363	16.50851
368.578	-17.20943
368.793	20.72369
369.008	27.04663
369.223	35.47754
369.438	58.66448
369.653	5.97099
369.868	3.86356
370.083	-8.78052
370.298	43.90883
370.513	-0.35123
370.728	-63.56133
370.943	18.61609
371.157	-57.24133
371.372	-21.42373
371.587	3.86356
371.802	18.61609
372.017	35.47754
372.232	-25.63794
372.446	3.86356
372.661	12.29343
372.876	-31.95906
373.091	-42.49378
373.306	8.07845
373.52	-21.42373
373.735	16.50851
373.95	27.04663
374.165	8.07845
374.379	3.86356
374.594	58.66448
374.809	-76.20064
375.023	-0.35123
375.238	83.96248
375.453	-8.78052
375.667	52.34049
375.882	-8.78052
376.097	18.61609
376.311	54.44846
376.526	33.36978
376.741	12.29343
376.955	79.74592
377.17	29.15432
377.384	-6.67324
377.599	-40.38689
377.813	8.07845
378.028	20.72369
378.242	20.72369
378.457	24.93896
378.672	75.52945
378.886	58.66448
379.101	-0.35123
379.315	-0.35123
379.53	43.90883
379.744	-53.02787
379.958	-8.78052
380.173	54.44846
380.387	8.07845
380.602	16.50851
380.816	-15.10224
381.031	-6.67324
381.245	-34.06606
381.459	-67.77453
381.674	8.07845
381.888	-101.47647
382.103	-76.20064
382.317	16.50851
382.531	50.23254
382.746	33.36978
382.96	10.18593
383.174	3.86356
383.388	22.83131
383.603	1.75615
383.817	-25.63794
384.031	-15.10224
384.246	-0.35123
384.46	-34.06606
384.674	24.93896
384.888	81.85419
385.103	8.07845
385.317	-25.63794
385.531	-50.9211
385.745	-29.85205
385.959	-8.78052
386.174	52.34049
386.388	8.07845
386.602	46.01671
386.816	-25.63794
387.03	83.96248
387.244	-82.51994
387.458	3.86356
387.672	1.75615
387.887	-42.49378
388.101	69.20492
388.315	31.26204
388.529	-17.20943
388.743	-4.56592
388.957	-8.78052
389.171	1.75615
389.385	46.01671
389.599	-57.24133
389.813	16.50851
390.027	88.17913
390.241	8.07845
390.455	92.39587
390.669	-6.67324
390.883	-44.60065
391.097	67.09678
391.311	-6.67324
391.525	31.26204
391.738	52.34049
391.952	-99.37029
392.166	-42.49378
392.38	-12.99502
392.594	16.50851
392.808	22.83131
393.022	-21.42373
393.236	50.23254
393.449	48.12461
393.663	-4.56592
393.877	-34.06606
394.091	-59.34802
394.305	-40.38689
394.518	41.80097
394.732	113.4809
394.946	-12.99502
395.16	-12.99502
395.373	-42.49378
395.587	-38.27997
395.801	3.86356
396.015	1.75615
396.228	-34.06606
396.442	24.93896
396.656	35.47754
396.869	-0.35123
397.083	37.58533
397.297	12.29343
397.51	-8.78052
397.724	20.72369
397.938	35.47754
398.151	-12.99502
398.365	-42.49378
398.578	-8.78052
398.792	-34.06606
399.005	-27.74501
399.219	3.86356
399.433	-6.67324
399.646	60.77252
399.86	1.75615
400.073	27.04663
400.287	-46.70749
400.5	27.04663
400.714	-25.63794
400.927	48.12461
401.141	-15.10224
401.354	50.23254
401.567	12.29343
401.781	18.61609
401.994	14.40096
402.208	8.07845
402.421	-23.53085
402.635	48.12461
402.848	-38.27997
403.061	50.23254
403.275	3.86356
403.488	8.07845
403.701	-21.42373
403.915	1.75615
404.128	16.50851
404.341	52.34049
404.555	27.04663
404.768	117.69816
404.981	52.34049
405.195	1.75615
405.408	37.58533
405.621	-15.10224
405.834	-23.53085
406.048	-34.06606
406.261	-8.78052
406.474	29.15432
406.687	60.77252
406.9	-59.34802
407.114	16.50851
407.327	48.12461
407.54	3.86356
407.753	41.80097
407.966	-34.06606
408.179	-15.10224
408.392	-90.94533
408.605	3.86356
408.819	16.50851
409.032	10.18593
409.245	-84.62633
409.458	-10.88778
409.671	-6.67324
409.884	16.50851
410.097	33.36978
410.31	37.58533
410.523	41.80097
410.736	69.20492
410.949	-84.62633
411.162	20.72369
411.375	29.15432
411.588	94.50427
411.801	-0.35123
412.014	-34.06606
412.227	-17.20943
412.44	3.86356
412.653	67.09678
412.865	-19.31659
413.078	71.31307
413.291	27.04663
413.504	67.09678
413.717	-59.34802
413.93	46.01671
414.143	29.15432
414.356	-59.34802
414.568	18.61609
414.781	71.31307
414.994	-0.35123
415.207	-6.67324
415.42	48.12461
415.632	20.72369
415.845	24.93896
416.058	50.23254
416.271	67.09678
416.483	-15.10224
416.696	52.34049
416.909	-55.13461
417.121	12.29343
417.334	24.93896
417.547	-12.99502
417.759	10.18593
417.972	-25.63794
418.185	71.31307
418.397	54.44846
418.61	151.43941
418.823	52.34049
419.035	-40.38689
419.248	83.96248
419.46	50.23254
419.673	-29.85205
419.885	-8.78052
420.098	-4.56592
420.311	24.93896
420.523	-8.78052
420.736	27.04663
420.948	12.29343
421.161	20.72369
421.373	22.83131
421.586	-12.99502
421.798	1.75615
422.01	-55.13461
422.223	18.61609
422.435	-17.20943
422.648	50.23254
422.86	-12.99502
423.073	29.15432
423.285	33.36978
423.497	-8.78052
423.71	-8.78052
423.922	-10.88778
424.134	-38.27997
424.347	10.18593
424.559	-0.35123
424.771	14.40096
424.984	60.77252
425.196	109.26371
425.408	43.90883
425.621	54.44846
425.833	41.80097
426.045	24.93896
426.257	20.72369
426.47	-34.06606
426.682	83.96248
426.894	16.50851
427.106	46.01671
427.318	3.86356
427.531	20.72369
427.743	-29.85205
427.955	14.40096
428.167	1.75615
428.379	35.47754
428.591	12.29343
428.804	10.18593
429.016	8.07845
429.228	-4.56592
429.44	-4.56592
429.652	54.44846
429.864	1.75615
430.076	24.93896
430.288	75.52945
430.5	1.75615
430.712	60.77252
430.924	-8.78052
431.136	-23.53085
431.348	20.72369
431.56	29.15432
431.772	-48.81431
431.984	14.40096
432.196	1.75615
432.408	79.74592
432.62	58.66448
432.832	-50.9211
433.044	-8.78052
433.256	31.26204
433.468	-61.45468
433.679	1.75615
433.891	96.6127
434.103	86.0708
434.315	18.61609
434.527	3.86356
434.739	35.47754
434.95	52.34049
435.162	88.17913
435.374	-19.31659
435.586	60.77252
435.798	-44.60065
436.009	-36.17303
436.221	-0.35123
436.433	-29.85205
436.645	-0.35123
436.856	18.61609
437.068	-17.20943
437.28	-10.88778
437.491	29.15432
437.703	56.55646
437.915	-17.20943
438.126	79.74592
438.338	50.23254
438.55	20.72369
438.761	56.55646
438.973	52.34049
439.184	8.07845
439.396	-0.35123
439.608	69.20492
439.819	24.93896
440.031	-0.35123
440.242	-8.78052
440.454	24.93896
440.665	-40.38689
440.877	20.72369
441.088	-69.8811
441.3	-6.67324
441.511	-15.10224
441.723	20.72369
441.934	33.36978
442.146	10.18593
442.357	79.74592
442.569	102.93811
442.78	22.83131
442.991	22.83131
443.203	35.47754
443.414	-27.74501
443.626	-0.35123
443.837	-15.10224
444.048	60.77252
444.26	58.66448
444.471	-8.78052
444.682	33.36978
444.894	-4.56592
445.105	8.07845
445.316	35.47754
445.528	10.18593
445.739	1.75615
445.95	-25.63794
446.161	-17.20943
446.373	31.26204
446.584	50.23254
446.795	83.96248
447.006	-46.70749
447.217	27.04663
447.429	10.18593
447.64	-17.20943
447.851	71.31307
448.062	33.36978
448.273	-21.42373
448.484	-2.45859
448.695	124.02423
448.907	96.6127
449.118	69.20492
449.329	29.15432
449.54	20.72369
449.751	-0.35123
449.962	29.15432
450.173	50.23254
450.384	16.50851
450.595	-50.9211
450.806	-2.45859
451.017	29.15432
451.228	62.88058
451.439	64.98867
451.65	109.26371
451.861	8.07845
452.072	62.88058
452.283	1.75615
452.494	18.61609
452.705	41.80097
452.915	67.09678
453.126	14.40096
453.337	58.66448
453.548	-15.10224
453.759	12.29343
453.97	46.01671
454.181	62.88058
454.391	64.98867
454.602	52.34049
454.813	50.23254
455.024	8.07845
455.235	33.36978
455.445	29.15432
455.656	50.23254
455.867	5.97099
456.078	35.47754
456.288	56.55646
456.499	62.88058
456.71	98.72115
456.921	52.34049
457.131	-42.49378
457.342	39.69314
457.553	16.50851
457.763	24.93896
457.974	12.29343
458.184	69.20492
458.395	-17.20943
458.606	-19.31659
458.816	-4.56592
459.027	20.72369
459.237	29.15432
459.448	41.80097
459.659	35.47754
459.869	58.66448
460.08	60.77252
460.29	50.23254
460.501	29.15432
460.711	39.69314
460.922	3.86356
461.132	-31.95906
461.343	67.09678
461.553	43.90883
461.764	75.52945
461.974	1.75615
462.184	-29.85205
462.395	-8.78052
462.605	79.74592
462.816	64.98867
463.026	46.01671
463.236	52.34049
463.447	18.61609
463.657	60.77252
463.867	54.44846
464.078	33.36978
464.288	90.28749
464.498	62.88058
464.709	113.4809
464.919	67.09678
465.129	41.80097
465.339	-10.88778
465.55	102.93811
465.76	50.23254
465.97	8.07845
466.18	43.90883
466.391	71.31307
466.601	52.34049
466.811	-8.78052
467.021	62.88058
467.231	67.09678
467.441	1.75615
467.651	79.74592
467.862	140.89469
468.072	20.72369
468.282	50.23254
468.492	105.04662
468.702	39.69314
468.912	119.80683
469.122	75.52945
469.332	54.44846
469.542	-25.63794
469.752	8.07845
469.962	56.55646
470.172	54.44846
470.382	79.74592
470.592	35.47754
470.802	147.22146
471.012	151.43941
471.222	92.39587
471.432	54.44846
471.642	12.29343
471.852	56.55646
472.062	94.50427
472.272	79.74592
472.482	86.0708
472.691	117.69816
472.901	102.93811
473.111	24.93896
473.321	69.20492
473.531	100.82962
473.741	39.69314
473.95	109.26371
474.16	81.85419
474.37	113.4809
474.58	105.04662
474.79	126.13296
474.999	164.09378
475.209	86.0708
475.419	58.66448
475.628	75.52945
475.838	164.09378
476.048	111.37229
476.258	37.58533
476.467	143.00359
476.677	157.7665
476.886	113.4809
477.096	136.67694
477.306	86.0708
477.515	119.80683
477.725	159.87558
477.935	161.98467
478.144	210.49949
478.354	88.17913
478.563	166.20292
478.773	117.69816
478.982	109.26371
479.192	126.13296
479.401	199.95188
479.611	126.13296
479.82	176.7489
480.03	237.92561
480.239	254.80485
480.449	176.7489
480.658	204.17086
480.868	153.54842
481.077	178.85816
481.287	254.80485
481.496	261.13489
481.705	176.7489
481.915	206.28038
482.124	210.49949
482.333	294.89792
482.543	96.6127
482.752	252.69488
482.961	254.80485
483.171	278.01581
483.38	290.67728
483.589	244.25518
483.799	311.78121
484.008	288.56699
484.217	256.91485
484.426	391.99222
484.636	303.33942
484.845	301.22902
485.054	286.45672
485.263	328.66565
485.472	322.33385
485.682	362.43791
485.891	297.00827
486.1	370.88166
486.309	370.88166
486.518	438.44123
486.727	366.65975
486.936	366.65975
487.146	442.66424
487.355	349.77279
487.564	446.88733
487.773	501.79293
487.982	406.7706
488.191	400.43691
488.4	499.68099
488.609	423.66115
488.818	489.12151
489.027	459.55694
489.236	429.99538
489.445	535.58592
489.654	598.95729
489.863	520.80104
490.072	567.2701
490.281	607.4077
490.49	497.56906
490.698	556.70836
490.907	594.73216
491.116	603.18247
491.325	575.71972
491.534	582.05709
491.743	753.20736
491.952	649.66276
492.16	573.6073
492.369	768.00155
492.578	727.84706
492.787	799.70503
492.996	759.54766
493.204	700.37515
493.413	732.07367
493.622	717.28072
493.831	611.63298
494.039	789.13696
494.248	702.4883
494.457	909.62625
494.665	789.13696
494.874	899.05592
495.083	854.66273
495.291	886.37178
495.5	829.29687
495.709	831.41065
495.917	973.05219
496.126	962.48076
496.335	907.51217
496.543	928.65334
496.752	913.85444
496.96	1114.72421
497.169	871.57399
497.377	1053.40037
497.586	979.39514
497.794	915.96855
498.003	856.7766
498.211	1099.92152
498.42	941.33841
498.628	1102.03617
498.837	1030.14078
499.045	1099.92152
499.254	1047.05678
499.462	1157.01885
499.671	1152.78931
499.879	1140.10079
500.087	1114.72421
500.296	1252.18734
500.504	1032.25526
500.713	1173.93717
500.921	1140.10079
501.129	1188.74091
501.338	1214.11914
501.546	1421.38758
501.754	1146.44503
501.962	1300.83129
502.171	1343.13127
502.379	1368.51155
502.587	1135.87131
502.795	1300.83129
503.004	1271.22178
503.212	1195.08542
503.42	1140.10079
503.628	1402.35216
503.837	1292.37139
504.045	1366.39652
504.253	1334.67122
504.461	1343.13127
504.669	1398.12207
504.877	1476.37892
505.085	1565.21044
505.294	1470.03377
505.502	1393.89199
505.71	1641.3498
505.918	1421.38758
506.126	1505.98959
506.334	1302.94628
506.542	1503.87455
506.75	1472.14882
506.958	1588.4755
507.166	1343.13127
507.374	1605.39541
507.582	1630.77505
507.79	1766.12654
507.998	1556.75038
508.206	1694.22261
508.414	1715.37123
508.622	1764.01177
508.83	1541.94521
509.037	1607.51039
509.245	1453.11335
509.453	1618.08527
509.661	1630.77505
509.869	1833.79675
510.077	1683.64819
510.285	1607.51039
510.492	1766.12654
510.7	1969.12216
510.908	1757.66746
511.116	1848.59901
511.324	1649.80956
511.531	1893.00432
511.739	1685.76308
511.947	1772.4708
512.155	1814.76495
512.362	1952.20774
512.57	1799.96219
512.778	2021.97715
512.985	1867.63013
513.193	2041.00394
513.401	1818.99427
513.608	2030.43357
513.816	1757.66746
514.024	1943.75038
514.231	1903.57668
514.439	1922.60658
514.646	1918.37775
514.854	1897.23328
515.061	1901.46222
515.269	1825.33822
515.477	1818.99427
515.684	1971.23644
515.892	1918.37775
516.099	2112.87775
516.307	1998.72145
516.514	2294.63488
516.722	2114.99156
516.929	2155.15239
517.136	2091.73927
517.344	2235.46516
517.551	1971.23644
517.759	2210.10456
517.966	2180.51563
518.173	2220.67163
518.381	2277.72998
518.588	2290.40871
518.796	2241.80512
519.003	2258.71126
519.21	2267.16412
519.418	2326.32992
519.625	2290.40871
519.832	2442.52587
520.039	2163.60693
520.247	2488.9953
520.454	2366.47383
520.661	2408.72664
520.868	2415.0642
521.076	2294.63488
521.283	2450.97525
521.49	2300.97406
521.697	2480.54671
521.904	2609.36767
522.112	2241.80512
522.319	2467.87349
522.526	2423.51414
522.733	2463.649
522.94	2366.47383
523.147	2501.66784
523.354	2453.08757
523.561	2638.92687
523.768	2503.7799
523.975	2497.44371
524.183	2419.28919
524.39	2577.69444
524.597	2723.36811
524.804	2700.14882
525.011	2600.92174
525.218	2647.37191
525.425	2588.25249
525.632	2603.03324
525.838	2657.92792
526.045	2731.81109
526.252	2738.14319
526.459	2900.62507
526.666	2704.37062
526.873	2957.57929
527.08	2698.03789
527.287	2856.32004
527.494	2776.13328
527.701	2915.39201
527.907	2892.18651
528.114	2951.25157
528.321	2750.80704
528.528	2890.07683
528.735	2776.13328
528.941	3037.71863
529.148	2765.58091
529.355	3001.86953
529.562	2864.75958
529.768	3143.13108
529.975	2816.22916
530.182	3018.74025
530.388	2788.79567
530.595	3168.42413
530.802	2839.44029
531.008	3008.19616
531.215	3014.52266
531.422	3031.39264
531.628	3141.02322
531.835	3204.25194
532.042	2966.01603
532.248	3263.25202
532.455	3035.60999
532.661	3269.57267
532.868	3094.64626
533.074	3261.1451
533.281	3060.91274
533.487	3467.54116
533.694	3326.4517
533.9	3471.75156
534.107	3202.14455
534.313	3252.71725
534.52	3136.80745
534.726	3518.06116
534.933	3210.574
535.139	3454.90953
535.345	3307.49341
535.552	3383.31816
535.758	3381.21222
535.965	3473.85673
536.171	3339.08979
536.377	3581.19632
536.584	3343.30235
536.79	3429.64434
536.996	3381.21222
537.203	3480.17214
537.409	3419.11641
537.615	3699.00355
537.821	3461.22543
538.028	3808.34213
538.234	3322.23887
538.44	3692.69396
538.646	3465.43593
538.853	3656.93636
539.059	3490.69746
539.265	3850.38133
539.471	3600.13361
539.677	3757.88471
539.883	3640.10735
540.09	3888.20981
540.296	3715.82828
540.502	3982.75251
540.708	3534.89882
540.914	3600.13361
541.12	3860.88989
541.326	3928.13283
541.532	3884.00696
541.738	4018.45793
541.944	3656.93636
542.15	4148.62709
542.356	3741.06307
542.562	3896.61526
542.768	3835.66851
542.974	4102.44719
543.18	3949.14203
543.386	3961.74657
543.592	3787.31958
543.798	3932.33483
544.004	3921.82968
544.21	4010.05719
544.415	3976.45094
544.621	4207.38678
544.827	3808.34213
545.033	4102.44719
545.239	4003.75642
545.445	4383.56549
545.651	4064.65612
545.856	4169.61459
546.062	4037.3584
546.268	4316.46769
546.474	4024.75827
546.679	4083.5525
546.885	4035.25843
547.091	4043.65818
547.297	3932.33483
547.502	4358.40641
547.708	4169.61459
547.914	4387.75836
548.119	4391.95115
548.325	4358.40641
548.531	4146.52822
548.736	4253.54345
548.942	4224.17222
549.147	4354.21293
549.353	4062.55642
549.559	4597.29013
549.764	4127.63748
549.97	4383.56549
550.175	4222.07411
550.381	4580.53573
550.586	4205.28851
550.792	4479.97949
550.997	4379.37252
551.203	4580.53573
551.408	4521.88413
551.614	4503.02813
551.819	4316.46769
552.025	4523.97912
552.23	4452.73676
552.435	4591.0074
552.641	4833.79242
552.846	4618.23113
553.052	4722.90246
553.257	4645.45107
553.462	4649.63842
553.668	4706.15883
553.873	4865.16477
554.078	4708.25186
554.283	4429.68231
554.489	4844.25044
554.694	4706.15883
554.899	4994.78248
555.105	4739.64465
555.31	4666.38692
555.515	4710.34487
555.72	4982.24269
555.925	4777.30927
556.131	4900.71389
556.336	4724.99531
556.541	4967.61189
556.746	4714.53082
556.951	5019.85956
557.156	4735.45924
557.361	4789.86252
557.567	4599.38433
557.772	5028.21785
557.977	4714.53082
558.182	4850.52498
558.387	4831.70075
558.592	4819.15024
558.797	4888.1679
559.002	5115.95753
559.207	4959.25093
559.412	4980.15265
559.617	4817.0584
559.822	4902.80481
560.027	4748.0152
560.232	4869.34737
560.437	4804.50693
560.642	5197.39341
560.847	5078.35981
561.051	5249.57726
561.256	4950.8896
561.461	5341.38536
561.666	5051.20124
561.871	5163.9881
562.076	4917.44059
562.281	5241.22883
562.485	5053.2905
562.69	5266.27301
562.895	4873.52987
563.1	5293.40041
563.305	5011.5009
563.509	5257.92532
563.714	5082.53771
563.919	5216.18128
564.123	5174.4279
564.328	5391.44338
564.533	5059.55814
564.737	5040.75459
564.942	5118.04607
565.147	5205.74381
565.351	5074.18182
565.556	5226.61817
565.761	4998.96222
565.965	5316.35128
566.17	5080.44877
566.374	5209.91887
566.579	5272.53353
566.784	5601.95582
566.988	5237.05447
567.193	5337.21324
567.397	5155.63584
567.602	5349.7293
567.806	5186.95489
568.011	5533.20094
568.215	5385.18686
568.42	5499.85601
568.624	5393.52883
568.828	5624.86841
569.033	5308.00584
569.237	5606.12196
569.442	5295.48697
569.646	5272.53353
569.85	5345.55737
570.055	5645.69556
570.259	5330.9549
570.463	5537.36864
570.668	5447.74249
570.872	5479.01236
571.076	5439.40296
571.281	5610.288
571.485	5645.69556
571.689	5616.53689
571.893	5447.74249
572.098	5830.95323
572.302	5370.58751
572.506	5589.45684
572.71	5268.35988
572.914	5718.572
573.119	5410.21165
573.323	5703.99903
573.527	5514.44516
573.731	5785.17659
573.935	5641.53032
574.139	5635.28228
574.343	5410.21165
574.547	5893.35751
574.751	5924.55169
574.955	5760.20271
575.159	5518.61328
575.364	5687.34278
575.568	5793.50047
575.772	5785.17659
575.976	5533.20094
576.18	5645.69556
576.383	5654.02576
576.587	6036.8068
576.791	5618.61981
576.995	5745.63303
577.199	5543.62
577.403	5899.59677
577.607	5835.11418
577.811	5993.1602
578.015	5616.53689
578.219	5733.14382
578.422	5812.22781
578.626	6009.7887
578.83	5724.81721
579.034	6111.60539
579.238	5841.35542
579.442	6144.83943
579.645	5903.75616
579.849	6005.63172
580.053	5849.67675
580.257	5953.66147
580.46	5984.84538
580.664	6165.60765
580.868	6043.04118
581.071	6111.60539
581.275	5909.99507
581.479	5991.08153
581.682	6099.14108
581.886	6132.37737
582.09	6003.55319
582.293	6202.98452
582.497	6209.21326
582.7	6155.22383
582.904	6103.29595
583.107	6238.27793
583.311	6076.28764
583.515	6076.28764
583.718	6057.58725
583.922	6379.38391
584.125	6107.45072
584.329	6315.06959
584.532	6070.05439
584.735	6402.19974
584.939	6070.05439
585.142	6348.26688
585.346	6182.22053
585.549	6404.27376
585.753	6267.338
585.956	6182.22053
586.159	6366.93773
586.363	6480.99636
586.566	6223.74617
586.769	6377.30961
586.973	6074.20991
587.176	6167.68434
587.379	6169.76101
587.582	6576.33691
587.786	6074.20991
587.989	6630.20341
588.192	6267.338
588.395	6497.58085
588.599	6369.01215
588.802	6518.30937
589.005	6568.04837
589.208	6615.70242
589.411	6348.26688
589.615	6489.28879
589.818	6360.71432
590.021	6425.01274
590.224	6404.27376
590.427	6485.14262
590.63	6518.30937
590.833	6638.48917
591.036	6458.19026
591.239	6789.6399
591.442	6634.34634
591.645	6841.37582
591.848	6831.02977
592.051	6696.47925
592.254	6586.69707
592.457	6766.87157
592.66	6491.36184
592.863	6669.55753
593.066	6400.12569
593.269	7066.77892
593.472	6706.83272
593.675	6905.50862
593.878	6835.16826
594.081	6787.57016
594.284	6454.0434
594.486	6754.45132
594.689	6657.13081
594.892	6822.75253
595.095	6613.63076
595.298	6779.291
595.5	6804.12739
595.703	7087.44471
595.906	6692.3377
596.109	6692.3377
596.311	6837.23747
596.514	6992.3635
596.717	6696.47925
596.92	7110.17451
597.122	6615.70242
597.325	7021.30629
597.528	6744.10048
597.73	7149.4287
597.933	6831.02977
598.136	6955.14486
598.338	6893.09752
598.541	7072.97889
598.743	6940.66897
598.946	6973.75509
599.148	6907.57705
599.351	7112.24072
599.554	7097.77677
599.756	7159.75741
599.959	7037.84305
600.161	7163.88874
600.363	6859.99727
600.566	7087.44471
600.768	7010.97008
600.971	7058.51198
601.173	7039.91004
601.376	7196.93619
601.578	6814.47492
601.78	7213.45778
601.983	7054.37837
602.185	7211.39266
602.388	7004.76809
602.59	7407.48101
602.792	7289.85177
602.995	7172.15114
603.197	7145.29706
603.399	7413.67006
603.601	6953.07694
603.804	7172.15114
604.006	7077.1121
604.208	7153.56025
604.41	6932.39653
604.613	7186.60947
604.815	7072.97889
605.017	7345.57974
605.219	6853.79032
605.421	6973.75509
605.623	7066.77892
605.826	7390.97592
606.028	7027.50774
606.23	7196.93619
606.432	7101.90944
606.634	7376.53283
606.836	7236.17266
607.038	7522.97779
607.24	7360.02513
607.442	7130.83561
607.644	7079.17867
607.846	7558.02594
608.048	7041.97701
608.25	7378.59619
608.452	7149.4287
608.654	7318.74975
608.856	7201.06672
609.058	7304.3013
609.26	7229.97796
609.462	7176.2822
609.664	7174.21668
609.866	7201.06672
610.067	7052.31153
610.269	7345.57974
610.471	7126.70357
610.673	7300.17297
610.875	7170.08557
611.077	7597.19008
611.278	7145.29706
611.48	7411.60707
611.682	7201.06672
611.884	7566.27167
612.085	7397.1655
612.287	7514.73027
612.489	7467.30031
612.69	7593.0679
612.892	7271.27223
613.094	7496.17208
613.295	7010.97008
613.497	7426.04757
613.699	7285.72314
613.9	7520.91595
614.102	7209.32752
614.304	7543.5951
614.505	7289.85177
614.707	7588.94564
614.908	7293.98032
615.11	7397.1655
615.311	7186.60947
615.513	7566.27167
615.714	7192.80557
615.916	7560.08741
616.117	7469.36272
616.319	7547.71831
616.52	7564.21027
616.722	7694.03678
616.923	7560.08741
617.124	7691.9767
617.326	7170.08557
617.527	7444.61238
617.729	7393.03914
617.93	7329.06942
618.131	7411.60707
618.333	7308.42954
618.534	7291.91606
618.735	7494.10995
618.937	7467.30031
619.138	7254.75558
619.339	7081.24521
619.54	7465.23788
619.742	7555.96446
619.943	7584.82329
620.144	7393.03914
620.345	7560.08741
620.546	7357.96157
620.748	7535.34844
620.949	7411.60707
621.15	7689.91659
621.351	7525.03962
621.552	7640.4678
621.753	7541.53347
621.954	7648.71012
622.155	7446.67502
622.356	7811.42663
622.558	7836.13162
622.759	7576.57834
622.96	7349.7071
623.161	7417.79599
623.362	7275.40117
623.563	7706.39682
623.764	7549.77988
623.965	7481.73672
624.166	7473.48747
624.366	7731.11462
624.567	7423.98471
624.768	7829.95565
624.969	7147.36289
625.17	7574.51705
625.371	7465.23788
625.572	7564.21027
625.773	7459.05045
625.973	7704.33686
626.174	7419.85892
626.375	7520.91595
626.576	7318.74975
626.777	7630.16444
626.977	7316.68575
627.178	7663.13335
627.379	7275.40117
627.58	7601.31218
627.78	7256.82024
627.981	7588.94564
628.182	7535.34844
628.382	7582.76209
628.583	7178.3477
628.784	7605.43418
628.984	7570.3944
629.185	7762.00762
629.386	7494.10995
629.586	7601.31218
629.787	7353.83438
629.987	7506.4824
630.188	7745.53194
630.388	7696.09684
630.589	7533.28672
630.79	7807.30883
630.99	7609.5561
631.191	7689.91659
631.391	7502.35834
631.591	7459.05045
631.792	7564.21027
631.992	7794.95496
632.193	7615.73883
632.393	7753.76995
632.594	7696.09684
632.794	7786.71863
632.994	7613.67794
633.195	7780.54116
633.395	7764.06699
633.595	7671.37473
633.796	7644.589
633.996	7920.51784
634.196	7708.45675
634.397	7969.89859
634.597	7766.12633
634.797	7980.18476
634.997	7829.95565
635.198	7759.94824
635.398	7733.1743
635.598	7879.35817
635.798	7675.49529
635.998	7762.00762
636.199	7770.24496
636.399	7969.89859
636.599	7786.71863
636.799	7852.59996
636.999	7426.04757
637.199	7770.24496
637.399	7619.86054
637.599	7659.01253
637.799	7489.98563
637.999	7858.77524
638.199	7683.73616
638.399	7829.95565
638.599	7623.98216
638.799	7910.2287
638.999	7714.63642
639.199	7780.54116
639.399	7650.77064
639.599	7943.15215
639.799	7599.25114
639.999	7869.06697
640.199	7640.4678
640.399	7782.60034
640.599	7209.32752
640.799	8033.66464
640.998	7696.09684
641.198	7731.11462
641.398	7595.129
641.598	8157.02757
641.798	7934.92178
641.997	7675.49529
642.197	7753.76995
642.397	8095.35516
642.597	7817.60316
642.796	8200.18756
642.996	7776.42274
643.196	8002.81254
643.395	7819.66196
643.595	8058.34303
643.795	7862.89199
643.994	8115.91463
644.194	8011.04022
644.394	8109.747
644.593	7856.71683
644.793	7895.82303
644.992	7675.49529
645.192	8099.46721
645.392	7679.61577
645.591	8019.26756
645.791	8033.66464
645.99	8054.23017
646.19	7992.52749
646.389	8046.0042
646.589	7704.33686
646.788	7759.94824
646.987	7813.48549
647.187	8048.06072
647.386	7801.13199
647.586	8132.36077
647.785	7914.34442
647.984	8021.32435
648.184	7714.63642
648.383	7803.19096
648.582	7555.96446
648.782	8323.45375
648.981	7943.15215
649.18	7885.53265
649.38	7953.43965
649.579	8171.41521
649.778	7943.15215
649.977	8072.73741
650.177	7978.12757
650.376	8339.88391
650.575	7916.40225
650.774	8309.07634
650.973	7951.38219
651.173	7930.80647
651.372	7877.29997
651.571	8204.29757
651.77	8083.01851
651.969	8309.07634
652.168	8263.88394
652.367	8263.88394
652.566	8226.90125
652.765	8239.22953
652.964	8208.40751
653.163	8206.35255
653.362	7829.95565
653.561	8204.29757
653.76	8352.20572
653.959	8050.11722
654.158	8124.13786
654.357	7889.64886
654.556	7774.3635
654.755	8304.96833
654.954	8017.21076
655.153	8068.62483
655.352	8025.43786
655.551	8115.91463
655.749	7976.07036
655.948	8179.63627
656.147	7887.59077
656.346	8126.19362
656.545	8037.77791
656.743	7821.72074
656.942	7959.61191
657.141	8368.6337
657.34	8159.083
657.538	8333.72275
657.737	8257.7206
657.936	8383.00716
658.135	7920.51784
658.333	8270.0471
658.532	8056.28661
658.731	8302.9143
658.929	7844.36596
659.128	8214.57227
659.326	7862.89199
659.525	8194.02238
659.724	8091.24302
659.922	8183.74669
660.121	8185.80187
660.319	8041.89109
660.518	7862.89199
660.716	8387.11369
660.915	8025.43786
661.113	8323.45375
661.312	8272.10144
661.51	8216.62715
661.709	8105.63515
661.907	8208.40751
662.105	7846.42449
662.304	8194.02238
662.502	8237.17486
662.701	8350.15213
662.899	8025.43786
663.097	8128.24935
663.296	8052.1737
663.494	8333.72275
663.692	7934.92178
663.891	8257.7206
664.089	7951.38219
664.287	8025.43786
664.485	8017.21076
664.684	8323.45375
664.882	8107.69108
665.08	8239.22953
665.278	8017.21076
665.476	8144.69453
665.675	8132.36077
665.873	8399.43282
666.071	8272.10144
666.269	8198.13252
666.467	7967.8413
666.665	8405.59212
666.863	8136.4721
667.061	8380.95387
667.259	8214.57227
667.457	8467.17562
667.655	8041.89109
667.853	8165.24919
668.051	8218.68201
668.249	8089.18692
668.447	7978.12757
668.645	8070.68113
668.843	8267.99273
669.041	8329.61521
669.239	7869.06697
669.437	8290.58969
669.635	8173.4705
669.833	8255.66612
670.031	8039.83451
670.229	8224.84647
670.426	8165.24919
670.624	8313.18427
670.822	7951.38219
671.02	8189.91216
671.218	8148.80562
671.415	8245.39339
671.613	8060.39943
671.811	8183.74669
672.009	7949.32471
672.206	8021.32435
672.404	7889.64886
672.602	8056.28661
672.799	7988.41333
672.997	8395.32652
673.195	8200.18756
673.392	8493.85646
673.59	7916.40225
673.788	8105.63515
673.985	8017.21076
674.183	8313.18427
674.38	8085.07467
674.578	8150.86114
674.775	7762.00762
674.973	7741.41281
675.17	7918.46006
675.368	7920.51784
675.565	7854.65841
675.763	7852.59996
675.96	7648.71012
676.158	8052.1737
676.355	7766.12633
676.553	8126.19362
676.75	7951.38219
676.947	8097.4112
677.145	7984.29909
677.342	7992.52749
677.539	7885.53265
677.737	8319.34602
677.934	7961.66929
678.131	8218.68201
678.329	8048.06072
678.526	8085.07467
678.723	7864.95034
678.92	8027.49459
679.118	7856.71683
679.315	8064.51217
679.512	7906.1129
679.709	7901.99701
679.906	7811.42663
680.104	7895.82303
680.301	7689.91659
680.498	7762.00762
680.695	7570.3944
680.892	7794.95496
681.089	7912.28657
681.286	8019.26756
681.483	7844.36596
681.68	8068.62483
681.877	7434.29881
682.075	7722.87569
682.272	7543.5951
682.469	8210.46245
682.665	7595.129
682.862	7498.23419
683.059	7716.69627
683.256	7827.89696
683.453	7807.30883
683.65	7737.2936
683.847	7696.09684
684.044	7794.95496
684.241	7706.39682
684.438	7978.12757
684.635	7782.60034
684.831	7939.03701
685.028	7815.54433
685.225	7640.4678
685.422	7663.13335
685.619	7844.36596
685.815	7696.09684
686.012	7914.34442
686.209	7584.82329
686.405	7729.05492
686.602	7417.79599
686.799	7687.85647
686.996	7803.19096
687.192	7840.24883
687.389	7498.23419
687.586	7949.32471
687.782	7743.47239
687.979	7817.60316
688.175	7667.25408
688.372	7784.65949
688.568	7333.19713
688.765	7564.21027
688.962	7588.94564
689.158	7572.45574
689.355	7370.3426
689.551	7452.86284
689.748	7626.04294
689.944	7494.10995
690.14	7535.34844
690.337	7560.08741
690.533	7469.36272
690.73	7675.49529
690.926	7683.73616
691.123	7529.16321
691.319	7459.05045
691.515	7819.66196
691.712	7223.78306
691.908	7324.94162
692.104	7357.96157
692.301	7520.91595
692.497	7440.48702
692.693	7669.31441
692.889	7343.51603
693.086	7568.33305
693.282	7151.49448
693.478	7615.73883
693.674	7448.73765
693.87	7316.68575
694.067	7244.43196
694.263	7331.13328
694.459	7283.65879
694.655	7467.30031
694.851	7576.57834
695.047	7242.36717
695.243	7390.97592
695.439	7572.45574
695.635	7285.72314
695.831	7525.03962
696.027	7440.48702
696.224	7518.85407
696.42	7258.88487
696.615	7564.21027
696.811	7310.49363
697.007	7434.29881
697.203	7242.36717
697.399	7372.40603
697.595	7192.80557
697.791	7481.73672
697.987	7077.1121
698.183	7508.5444
698.379	7378.59619
698.575	7644.589
698.77	7232.04289
698.966	7551.84143
699.162	6992.3635
699.358	7002.70072
699.554	6919.9872
699.749	7209.32752
699.945	6998.5659
700.141	7335.26095
700.337	7267.1432
700.532	7357.96157
700.728	7415.73303
700.924	7388.91269
701.119	7050.24467
701.315	7327.00553
701.511	7172.15114
701.706	7401.29177
701.902	7271.27223
702.097	7378.59619
702.293	7327.00553
702.489	7242.36717
702.684	6690.26689
702.88	7110.17451
703.075	6953.07694
703.271	7062.64549
703.466	7176.2822
703.662	7186.60947
703.857	7087.44471
704.053	7118.43921
704.248	7161.82309
704.443	7308.42954
704.639	7079.17867
704.834	7048.17779
705.03	7128.7696
705.225	7143.2312
705.42	6915.85057
705.616	7234.10779
705.811	6835.16826
706.006	7184.54406
706.202	6731.67872
706.397	6737.88971
706.592	6831.02977
706.787	6942.73702
706.983	6692.3377
707.178	7157.69171
707.373	6957.21275
707.568	7172.15114
707.763	6938.60089
707.959	7006.83545
708.154	6841.37582
708.349	6994.43099
708.544	6994.43099
708.739	7058.51198
708.934	6771.01147
709.129	6874.47934
709.324	6831.02977
709.519	6948.94104
709.714	6731.67872
709.909	7095.71041
710.104	6748.24089
710.299	6719.25613
710.494	6783.43063
710.689	7137.03351
710.884	6824.82187
711.079	7006.83545
711.274	6824.82187
711.469	6907.57705
711.664	6913.78223
711.859	7269.20772
712.054	6965.4841
712.249	7044.04396
712.443	6773.08139
712.638	6828.9605
712.833	6599.12849
713.028	6841.37582
713.223	6700.62071
713.417	6982.02572
713.612	6650.91714
713.807	6936.53279
714.002	6750.31105
714.196	6864.13512
714.391	6781.36083
714.586	6907.57705
714.78	6655.05961
714.975	6919.9872
715.17	6406.34776
715.364	6828.9605
715.559	6576.33691
715.754	6690.26689
715.948	6275.64004
716.143	6816.54435
716.337	6584.62508
716.532	6797.9186
716.726	6555.61487
716.921	6771.01147
717.115	6615.70242
717.31	6789.6399
717.504	6545.25299
717.699	6787.57016
717.893	6439.52864
718.088	6926.19197
718.282	6547.32541
718.476	6597.05664
718.671	6497.58085
718.865	6746.1707
719.059	6456.11684
719.254	6601.20031
719.448	6621.91727
719.642	6640.56056
719.837	6398.05161
720.031	6727.53795
720.225	6315.06959
720.419	6764.80159
720.614	6406.34776
720.808	6731.67872
721.002	6335.8186
721.196	6487.21572
721.39	6431.23398
721.585	6497.58085
721.779	6344.11755
721.973	6704.76207
722.167	6369.01215
722.361	6456.11684
722.555	6356.56527
722.749	6416.71743
722.943	6427.08651
723.137	6491.36184
723.331	6209.21326
723.525	6292.24298
723.719	6217.51792
723.913	6480.99636
724.107	6240.3538
724.301	6681.98342
724.495	6333.7438
724.689	6352.41612
724.883	6086.67592
725.077	6232.05017
725.271	5980.68784
725.465	6200.90823
725.659	5961.9777
725.853	6366.93773
726.046	6443.67583
726.24	6109.52807
726.434	5999.39607
726.628	6159.37743
726.822	5991.08153
727.015	6259.03559
727.209	6151.07014
727.403	6126.14603
727.596	6092.9086
727.79	6144.83943
727.984	6049.27535
728.177	6256.95993
728.371	6005.63172
728.565	6315.06959
728.758	6190.52641
728.952	6364.86328
729.146	6088.7535
729.339	6269.41354
729.533	6107.45072
729.726	6485.14262
729.92	6136.53148
730.113	6518.30937
730.307	6323.36947
730.5	6315.06959
730.694	6124.06886
730.887	6308.84443
731.081	6425.01274
731.274	6302.61906
731.468	6049.27535
731.661	6225.82221
731.854	6302.61906
732.048	6256.95993
732.241	6036.8068
732.435	6335.8186
732.628	6478.9232
732.821	6348.26688
733.014	6155.22383
733.208	6099.14108
733.401	6074.20991
733.594	6067.97659
733.788	6007.71022
733.981	6109.52807
734.174	6040.96308
734.367	5947.42404
734.56	6024.3374
734.754	5995.23885
734.947	6040.96308
735.14	6074.20991
735.333	6107.45072
735.526	6323.36947
735.719	5997.31747
735.912	6047.19732
736.105	6153.147
736.298	6063.82092
736.491	6016.024
736.684	5924.55169
736.877	6082.52068
737.07	6024.3374
737.263	6084.59831
737.456	6252.80854
737.649	6022.25909
737.842	6207.13704
738.035	6024.3374
738.228	6205.06079
738.421	6130.30028
738.614	6261.11123
738.807	6200.90823
739	5986.92412
739.192	6070.05439
739.385	6057.58725
739.578	5999.39607
739.771	5995.23885
739.964	5781.01452
740.156	5870.47841
740.349	5726.8989
740.542	5878.79841
740.735	5853.83727
740.927	5766.4465
741.12	5766.4465
741.313	5895.43729
741.505	5930.78989
741.698	5826.79219
741.891	5789.33858
742.083	5895.43729
742.276	5803.90478
742.468	6024.3374
742.661	5808.06634
742.854	5851.75702
743.046	5878.79841
743.239	5891.27771
743.431	5991.08153
743.624	5697.75311
743.816	5679.01409
744.009	5835.11418
744.201	5758.12139
744.393	5828.87272
744.586	5526.94923
744.778	5699.83511
744.971	5518.61328
745.163	5774.77122
745.355	5735.22542
745.548	5587.3736
745.74	5776.85234
745.932	5803.90478
746.125	5805.98557
746.317	5774.77122
746.509	5733.14382
746.702	5778.93344
746.894	5608.20499
747.086	5760.20271
747.278	5741.47006
747.471	5564.45634
747.663	5670.68503
747.855	5695.67109
748.047	5520.6973
748.239	5849.67675
748.431	5762.28399
748.623	5708.16285
748.815	5703.99903
749.008	5905.83582
749.2	5795.58138
749.392	5837.19462
749.584	5616.53689
749.776	5743.55156
749.968	5691.50698
750.16	5778.93344
750.352	5756.04006
750.544	5791.41954
750.736	5666.52035
750.928	5866.31826
751.12	5518.61328
751.311	5576.95702
751.503	5474.84335
751.695	5645.69556
751.887	5643.61295
752.079	5543.62
752.271	5568.62333
752.463	5472.75881
752.654	5539.45245
752.846	5581.12372
753.038	5716.49022
753.23	5583.20704
753.421	5347.64335
753.613	5406.04109
753.805	5570.70679
753.997	5410.21165
754.188	5353.90113
754.38	5668.6027
754.572	5551.95482
754.763	5562.37281
754.955	5445.65764
755.146	5610.288
755.338	5545.70374
755.53	5710.24473
755.721	5487.3501
755.913	5401.87043
756.104	5372.6732
756.296	5274.62033
756.487	5424.80788
756.679	5676.93186
756.87	5349.7293
757.062	5157.72394
757.253	5078.35981
757.445	5191.13037
757.636	5314.26495
757.827	5383.10131
758.019	5107.60313
758.21	5166.07611
758.401	5034.48632
758.593	5189.04264
758.784	5308.00584
758.975	5383.10131
759.167	5149.3714
759.358	5095.07084
759.549	4927.89404
759.74	5107.60313
759.932	4934.16583
760.123	5086.71551
760.314	4890.25895
760.505	5203.65624
760.696	5015.68028
760.888	4863.07344
761.079	4996.87236
761.27	5255.83834
761.461	5163.9881
761.652	5166.07611
761.843	4927.89404
762.034	4988.51269
762.225	4875.62108
762.416	4735.45924
762.607	4733.3665
762.798	4971.79223
762.989	4890.25895
763.18	5028.21785
763.371	4798.23089
763.562	4674.76063
763.753	4817.0584
763.944	4750.10778
764.135	4727.08814
764.326	4771.03235
764.517	4653.82568
764.708	4785.67819
764.899	4764.75521
765.089	4735.45924
765.28	4791.95465
765.471	4856.79932
765.662	4670.57382
765.853	4574.25247
766.043	4647.54476
766.234	4752.20034
766.425	4655.91928
766.615	4666.38692
766.806	4672.66723
766.997	4789.86252
767.187	4607.76091
767.378	4921.62204
767.569	4651.73206
767.759	4509.31366
767.95	4505.12333
768.141	4555.40146
768.331	4618.23113
768.522	4576.34691
768.712	4387.75836
768.903	4588.91311
769.093	4526.0741
769.284	4467.40638
769.474	4396.14385
769.665	4500.93291
769.855	4417.10604
770.046	4415.00992
770.236	4329.05021
770.426	4425.49031
770.617	4345.8257
770.807	4471.59751
770.998	4364.69647
771.188	4448.54524
771.378	4427.58632
771.569	4303.88439
771.759	4398.24017
771.949	4370.98634
772.139	4293.39771
772.33	4343.72884
772.52	4320.66195
772.71	4482.07493
772.9	4446.44944
773.09	4538.6435
773.281	4354.21293
773.471	4498.83767
773.661	4161.21984
773.851	4178.009
774.041	4085.65199
774.231	4391.95115
774.421	4133.93458
774.611	4333.24422
774.802	4232.56442
774.992	4463.21517
775.182	4157.02234
775.372	4129.73653
775.562	4066.7558
775.752	4148.62709
775.942	4058.35696
776.131	4236.7604
776.321	3955.44439
776.511	4280.81299
776.701	4205.28851
776.891	4247.24997
777.081	3894.51393
777.271	4010.05719
777.461	3986.95346
777.651	3959.64586
777.84	3921.82968
778.03	4081.45298
778.22	4094.04975
778.41	4010.05719
778.599	4005.8567
778.789	4001.65612
778.979	4064.65612
779.169	4203.19021
779.358	3932.33483
779.548	4289.20289
779.738	4073.05472
779.927	4094.04975
780.117	3886.1084
780.307	3913.4252
780.496	3959.64586
780.686	4115.04271
780.875	3694.79718
781.065	3846.17776
781.254	3793.62655
781.444	3757.88471
781.633	3865.09317
781.823	3875.60103
782.012	3722.13724
782.202	3877.70255
782.391	3631.69239
782.581	3614.86157
782.77	3480.17214
782.96	3713.72526
783.149	3353.83343
783.338	3755.78207
783.528	3583.30053
783.717	3795.72883
783.906	3518.06116
784.096	3692.69396
784.285	3471.75156
784.474	3823.05675
784.663	3431.74987
784.853	3410.69376
785.042	3463.33069
785.231	3696.90037
785.42	3715.82828
785.61	3391.74174
785.799	3294.85378
785.988	3654.8328
786.177	3252.71725
786.366	3499.11739
786.555	3549.63081
786.744	3387.52999
786.933	3330.66447
787.122	3311.70649
787.312	3353.83343
787.501	3442.27726
787.69	3435.96088
787.879	3551.73531
788.068	3414.90512
788.257	3520.16593
788.445	3301.17367
788.634	3555.94425
788.823	3391.74174
789.012	3328.55809
789.201	3332.77082
789.39	3461.22543
789.579	3193.71484
789.768	3509.64189
789.957	3360.15188
790.145	3275.89318
790.334	3419.11641
790.523	3625.38097
790.712	3421.22203
790.9	3589.61308
791.089	3465.43593
791.278	3520.16593
791.467	3448.59347
791.655	3499.11739
791.844	3176.85463
792.033	3408.58805
792.221	3090.42979
792.41	3414.90512
792.599	3014.52266
792.787	3143.13108
792.976	3235.86075
793.164	3084.10497
793.353	3054.58726
793.541	3172.63942
793.73	3054.58726
793.918	3305.38685
794.107	2982.88881
794.295	3031.39264
794.484	3037.71863
794.672	3185.28487
794.861	3035.60999
795.049	3081.99666
795.238	3041.93588
795.426	3111.5115
795.614	3126.26775
795.803	3115.72765
795.991	3086.21326
796.179	3271.67953
796.368	3029.28395
796.556	3183.17733
796.744	2845.7703
796.932	3202.14455
797.121	2877.41846
797.309	2987.10685
797.497	2746.58581
797.685	2959.6885
797.874	2934.37701
798.062	3058.80427
798.25	2826.77988
798.438	2881.63798
798.626	2771.91237
798.814	2974.45254
799.002	2915.39201
799.19	2894.29617
799.378	2858.42995
799.566	3003.97842
799.755	2683.26107
799.943	3060.91274
800.131	2864.75958
800.318	2940.70508
800.506	2763.4704
800.694	2752.91763
800.882	2717.03573
801.07	2917.50151
801.258	2894.29617
801.446	2835.22021
801.634	2569.24779
801.822	2843.66031
802.01	2539.68303
802.197	2923.82993
802.385	2679.03901
802.573	2782.46453
802.761	2634.70427
802.949	2866.86943
803.136	2795.12668
803.324	2824.66976
803.512	2866.86943
803.699	3096.75447
803.887	2849.99024
804.075	2856.32004
804.262	2755.02821
804.45	3111.5115
804.638	2687.48309
804.825	2923.82993
805.013	2835.22021
805.201	3046.15307
805.388	2890.07683
805.576	2934.37701
805.763	2928.04881
805.951	2980.77976
806.138	2744.47517
806.326	2966.01603
806.513	2837.33025
806.701	2987.10685
806.888	2837.33025
807.075	3119.94374
807.263	2721.25733
807.45	2995.54276
807.638	2763.4704
807.825	2904.84427
808.012	2801.45757
808.2	2774.02283
808.387	2845.7703
808.574	2982.88881
808.761	2757.13878
808.949	2721.25733
809.136	2799.34729
809.323	2898.51545
809.51	2617.8134
809.698	2708.59238
809.885	2594.58717
810.072	2662.15024
810.259	2666.37251
810.446	2824.66976
810.633	2786.6853
810.82	2894.29617
811.008	2894.29617
811.195	3020.84902
811.382	2805.67809
811.569	2814.11897
811.756	2788.79567
811.943	2919.611
812.13	2864.75958
812.317	3008.19616
812.504	2807.78833
812.691	2841.55031
812.878	2647.37191
813.064	2932.26763
813.251	2902.73468
813.438	3216.89591
813.625	2858.42995
813.812	2955.47006
813.999	2757.13878
814.186	2881.63798
814.372	2645.26067
814.559	2784.57493
814.746	2780.35413
814.933	2877.41846
815.12	2723.36811
815.306	2712.81408
815.493	2670.59473
815.68	2731.81109
815.866	2488.9953
816.053	2695.92696
816.24	2712.81408
816.426	2873.19889
816.613	2565.0244
816.799	2755.02821
816.986	2670.59473
817.173	2733.92181
817.359	2586.1409
817.546	2847.88028
817.732	2632.59296
817.919	2923.82993
818.105	2763.4704
818.292	2807.78833
818.478	2695.92696
818.665	2868.97927
818.851	2664.26138
819.037	2710.70323
819.224	2630.48163
819.41	2687.48309
819.597	2529.12363
819.783	2746.58581
819.969	2565.0244
820.156	2712.81408
820.342	2750.80704
820.528	2738.14319
820.714	2657.92792
820.901	2780.35413
821.087	2518.56394
821.273	2729.70037
821.459	2562.91268
821.646	2698.03789
821.832	2577.69444
822.018	2700.14882
822.204	2469.98572
822.39	2721.25733
822.576	2581.9177
822.762	2664.26138
822.948	2505.89194
823.134	2761.35987
823.32	2434.07632
823.507	2666.37251
823.693	2543.90671
823.879	2638.92687
824.065	2539.68303
824.25	2455.19988
824.436	2459.42446
824.622	2748.69643
824.808	2501.66784
824.994	2695.92696
825.18	2446.75059
825.366	2622.03619
825.552	2393.93863
825.738	2516.45197
825.923	2324.21699
826.109	2548.13034
826.295	2155.15239
826.481	2520.6759
826.667	2370.6993
826.852	2385.48811
827.038	2222.78502
827.224	2573.47114
827.409	2516.45197
827.595	2571.35947
827.781	2239.69181
827.966	2505.89194
828.152	2195.3103
828.338	2560.80095
828.523	2370.6993
828.709	2628.37029
828.894	2345.34591
829.08	2571.35947
829.266	2184.74272
829.451	2569.24779
829.637	2305.20013
829.822	2465.76125
830.008	2288.29561
830.193	2467.87349
830.378	2091.73927
830.564	2408.72664
830.749	2214.33142
830.935	2548.13034
831.12	2193.1968
831.305	2191.0833
831.491	2007.17816
831.676	2358.02278
831.861	2210.10456
832.047	2412.95169
832.232	2108.65012
832.417	2191.0833
832.602	2239.69181
832.788	2095.96703
832.973	2028.31948
833.158	2182.62918
833.343	1998.72145
833.528	2300.97406
833.714	2032.54766
833.899	2332.66867
834.084	2021.97715
834.269	2032.54766
834.454	1952.20774
834.639	2057.91618
834.824	2091.73927
835.009	2161.49331
835.194	1956.43638
835.379	2210.10456
835.564	1988.15042
835.749	2243.91842
835.934	1969.12216
836.119	2172.06135
836.304	2002.94982
836.489	2085.39759
836.674	1876.08828
836.859	1983.92196
837.044	1909.92003
837.228	1981.80772
837.413	1814.76495
837.598	1973.35071
837.783	1734.40471
837.968	2138.24291
838.152	1804.19157
838.337	2062.14417
838.522	1850.7136
838.707	2127.67423
838.891	1740.74914
839.076	1897.23328
839.261	1698.45236
839.445	1994.49306
839.63	1821.10893
839.815	1882.43183
839.999	1759.78224
840.184	1884.54634
840.368	1654.03943
840.553	1825.33822
840.737	1787.27394
840.922	1888.77534
841.106	1618.08527
841.291	1850.7136
841.475	1664.61404
841.66	1945.86473
841.844	1783.04449
842.029	1952.20774
842.213	1730.17507
842.397	1749.20833
842.582	1774.58555
842.766	1825.33822
842.951	1698.45236
843.135	1842.25521
843.319	1673.07369
843.504	1675.1886
843.688	1478.49398
843.872	1683.64819
844.056	1520.79488
844.241	1770.35605
844.425	1550.40531
844.609	1689.99285
844.793	1613.85532
844.977	1766.12654
845.161	1550.40531
845.346	1656.15435
845.53	1450.9983
845.714	1732.28989
845.898	1419.27253
846.082	1668.84387
846.266	1461.57356
846.45	1495.41436
846.634	1596.93547
846.818	1594.82048
847.002	1556.75038
847.186	1556.75038
847.37	1444.65315
847.554	1520.79488
847.738	1453.11335
847.922	1664.61404
848.106	1514.44976
848.29	1567.32546
848.473	1406.58225
848.657	1459.45851
848.841	1393.89199
849.025	1560.98041
849.209	1355.82139
849.392	1541.94521
849.576	1529.25502
849.76	1529.25502
849.944	1277.56664
850.127	1364.28149
850.311	1178.16679
850.495	1440.42304
850.678	1360.05143
850.862	1319.8662
851.046	1309.29123
851.229	1450.9983
851.413	1347.3613
851.596	1417.15749
851.78	1235.26802
851.964	1495.41436
852.147	1186.62608
852.331	1258.53213
852.514	1262.762
852.698	1393.89199
852.881	1209.8894
853.065	1336.78623
853.248	1184.51125
853.431	1271.22178
853.615	1074.54603
853.798	1214.11914
853.982	1072.43144
854.165	1159.13363
854.348	1275.45168
854.532	1353.70636
854.715	1053.40037
854.898	1264.87694
855.081	1205.65967
855.265	1266.99189
855.448	1015.3396
855.631	1317.7512
855.814	1178.16679
855.997	1209.8894
856.181	1066.0877
856.364	1224.69354
856.547	1097.80687
856.73	1142.21553
856.913	1140.10079
857.096	1161.24841
857.279	1159.13363
857.462	1283.91152
857.645	1047.05678
857.828	1127.41242
858.011	1226.80843
858.194	1032.25526
858.377	962.48076
858.56	1044.94226
858.743	905.3981
858.926	1207.77453
859.109	973.05219
859.292	994.19557
859.475	1034.36975
859.658	973.05219
859.841	1055.51491
860.023	1099.92152
860.206	907.51217
860.389	962.48076
860.572	937.11002
860.755	966.70931
860.937	886.37178
861.12	966.70931
861.303	989.96684
861.486	954.02373
861.668	1042.82774
861.851	1004.76751
862.034	886.37178
862.216	966.70931
862.399	795.47777
862.581	970.93789
862.764	818.72815
862.947	947.68104
863.129	810.27334
863.312	928.65334
863.494	880.02982
863.677	1040.71324
863.859	787.02337
864.042	801.81867
864.224	880.02982
864.406	871.57399
864.589	829.29687
864.771	888.48578
864.954	738.41367
865.136	848.32114
865.318	694.03574
865.501	856.7766
865.683	643.32419
865.865	822.95561
866.048	780.68268
866.23	810.27334
866.412	831.41065
866.594	861.00439
866.777	776.4556
866.959	776.4556
867.141	751.09394
867.323	793.36416
867.505	675.01812
867.687	913.85444
867.869	742.64038
868.052	911.74035
868.234	738.41367
868.416	801.81867
868.598	740.52702
868.78	751.09394
868.962	677.13115
869.144	734.18699
869.326	658.11436
869.508	820.84188
869.69	729.96036
869.872	799.70503
870.054	685.58335
870.236	744.75376
870.417	812.38703
870.599	871.57399
870.781	723.62049
870.963	848.32114
871.145	679.24418
871.327	620.0837
871.508	573.6073
871.69	772.22855
871.872	643.32419
872.054	789.13696
872.235	586.28206
872.417	759.54766
872.599	620.0837
872.78	844.09347
872.962	641.21136
873.144	776.4556
873.325	683.47028
873.507	666.56615
873.689	573.6073
873.87	668.67912
874.052	539.8103
874.233	801.81867
874.415	563.04536
874.596	755.32078
874.778	611.63298
874.959	696.14886
875.141	560.93302
875.322	751.09394
875.503	666.56615
875.685	702.4883
875.866	516.57691
876.048	719.39397
876.229	522.91312
876.41	630.64738
876.592	584.16957
876.773	677.13115
876.954	463.78027
877.136	666.56615
877.317	645.43704
877.498	691.92262
877.679	611.63298
877.86	736.30033
878.042	700.37515
878.223	770.11505
878.404	590.50708
878.585	789.13696
878.766	620.0837
878.947	721.50723
879.128	556.70836
879.309	670.79211
879.49	573.6073
879.672	675.01812
879.853	510.24083
880.034	651.77565
880.215	615.85832
880.396	598.95729
880.576	626.42187
880.757	753.20736
880.938	592.61962
881.119	666.56615
881.3	691.92262
881.481	672.90511
881.662	708.82785
881.843	651.77565
882.023	624.30913
882.204	624.30913
882.385	641.21136
882.566	761.66112
882.747	632.76015
882.927	810.27334
883.108	609.52034
883.289	702.4883
883.469	641.21136
883.65	772.22855
883.831	607.4077
884.011	675.01812
884.192	586.28206
884.373	751.09394
884.553	552.48376
884.734	700.37515
884.914	569.38248
885.095	620.0837
885.275	470.11538
885.456	675.01812
885.636	617.971
885.817	628.53462
885.997	603.18247
886.178	725.73377
886.358	565.15772
886.538	649.66276
886.719	590.50708
886.899	586.28206
887.08	594.73216
887.26	725.73377
887.44	573.6073
887.621	738.41367
887.801	491.23337
887.981	795.47777
888.161	598.95729
888.342	643.32419
888.522	691.92262
888.702	677.13115
888.882	662.34023
889.062	704.60147
889.242	586.28206
889.423	719.39397
889.603	615.85832
889.783	598.95729
889.963	694.03574
890.143	571.49488
890.323	584.16957
890.503	751.09394
890.683	689.80952
890.863	639.09854
891.043	569.38248
891.223	664.45318
891.403	694.03574
891.583	592.61962
891.763	632.76015
891.943	761.66112
892.122	535.58592
892.302	550.37148
892.482	550.37148
892.662	567.2701
892.842	529.24946
893.022	687.69643
893.201	607.4077
893.381	666.56615
893.561	569.38248
893.741	700.37515
893.92	601.06987
894.1	658.11436
894.28	472.22711
894.459	630.64738
894.639	586.28206
894.819	615.85832
894.998	649.66276
895.178	582.05709
895.357	567.2701
895.537	590.50708
895.716	531.3616
895.896	603.18247
896.075	476.45062
896.255	516.57691
896.434	552.48376
896.614	609.52034
896.793	476.45062
896.973	582.05709
897.152	459.55694
897.331	556.70836
897.511	489.12151
897.69	516.57691
897.87	497.56906
898.049	512.35284
898.228	402.54813
898.407	522.91312
898.587	476.45062
898.766	506.01685
898.945	404.65936
899.124	461.6686
899.304	398.32572
899.483	432.10681
899.662	463.78027
899.841	468.00366
900.02	558.82068
900.199	444.77578
900.378	474.33885
900.557	459.55694
900.737	349.77279
900.916	497.56906
901.095	400.43691
901.274	463.78027
901.453	408.88187
901.632	442.66424
901.811	379.32569
901.989	402.54813
902.168	370.88166
902.347	434.21827
902.526	297.00827
902.705	353.99443
902.884	299.11864
903.063	379.32569
903.242	366.65975
903.42	320.22329
903.599	269.5752
903.778	360.32701
903.957	273.79547
904.135	415.21575
904.314	330.77629
904.493	372.99264
904.672	311.78121
904.85	341.32972
905.029	345.55122
905.207	400.43691
905.386	282.23623
905.565	394.10337
905.743	269.5752
905.922	341.32972
906.1	229.48645
906.279	322.33385
906.457	269.5752
906.636	343.44047
906.814	231.59621
906.993	282.23623
907.171	212.60907
907.35	318.11274
907.528	237.92561
907.707	221.0476
907.885	237.92561
908.063	280.12601
908.242	223.15728
908.42	284.34646
908.598	227.37671
908.777	246.36508
908.955	263.24494
909.133	246.36508
909.311	170.42125
909.49	282.23623
909.668	204.17086
909.846	187.2954
910.024	197.84241
910.202	252.69488
910.38	235.81579
910.559	218.93794
910.737	278.01581
910.915	254.80485
911.093	237.92561
911.271	263.24494
911.449	172.53045
911.627	278.01581
911.805	191.51415
911.983	240.03545
912.161	147.22146
912.339	269.5752
912.517	316.00221
912.695	311.78121
912.872	191.51415
913.05	269.5752
913.228	231.59621
913.406	299.11864
913.584	195.73297
913.762	263.24494
913.939	216.8283
914.117	261.13489
914.295	288.56699
914.473	273.79547
914.65	191.51415
914.828	176.7489
915.006	208.38993
915.184	210.49949
915.361	193.62355
915.539	193.62355
915.716	280.12601
915.894	218.93794
916.072	159.87558
916.249	185.18606
916.427	282.23623
916.604	244.25518
916.782	155.65745
916.959	214.71868
917.137	227.37671
917.314	231.59621
917.492	195.73297
917.669	267.46509
917.847	126.13296
918.024	189.40476
918.201	199.95188
918.379	261.13489
918.556	193.62355
918.733	210.49949
918.911	138.7858
919.088	187.2954
919.265	105.04662
919.442	244.25518
919.62	145.11251
919.797	288.56699
919.974	193.62355
920.151	187.2954
920.328	244.25518
920.506	221.0476
920.683	176.7489
920.86	134.5681
921.037	145.11251
921.214	208.38993
921.391	121.91552
921.568	189.40476
921.745	96.6127
921.922	284.34646
922.099	185.18606
922.276	227.37671
922.453	128.24171
922.63	138.7858
922.807	143.00359
922.984	111.37229
923.161	126.13296
923.338	77.63768
923.514	145.11251
923.691	210.49949
923.868	172.53045
924.045	202.06136
924.222	168.31207
924.399	113.4809
924.575	115.58952
924.752	136.67694
924.929	180.96744
925.105	109.26371
925.282	126.13296
925.459	155.65745
925.635	180.96744
925.812	140.89469
925.989	180.96744
926.165	126.13296
926.342	202.06136
926.518	117.69816
926.695	88.17913
926.871	132.45929
927.048	109.26371
927.224	130.35049
927.401	140.89469
927.577	111.37229
927.754	100.82962
927.93	100.82962
928.107	132.45929
928.283	128.24171
928.459	128.24171
928.636	159.87558
928.812	69.20492
928.988	178.85816
929.165	121.91552
929.341	69.20492
929.517	58.66448
929.693	157.7665
929.87	109.26371
930.046	79.74592
930.222	164.09378
930.398	197.84241
930.574	136.67694
930.751	126.13296
930.927	117.69816
931.103	185.18606
931.279	71.31307
931.455	121.91552
931.631	67.09678
931.807	46.01671
931.983	50.23254
932.159	41.80097
932.335	161.98467
932.511	79.74592
932.687	143.00359
932.863	153.54842
933.039	180.96744
933.215	46.01671
933.391	50.23254
933.566	41.80097
933.742	138.7858
933.918	102.93811
934.094	134.5681
934.27	35.47754
934.445	105.04662
934.621	20.72369
934.797	48.12461
934.973	117.69816
935.148	107.15516
935.324	46.01671
935.5	50.23254
935.675	48.12461
935.851	58.66448
936.027	62.88058
936.202	96.6127
936.378	100.82962
936.553	62.88058
936.729	-17.20943
936.904	46.01671
937.08	58.66448
937.255	35.47754
937.431	8.07845
937.606	-44.60065
937.782	18.61609
937.957	41.80097
938.133	31.26204
938.308	50.23254
938.483	58.66448
938.659	75.52945
938.834	8.07845
939.009	8.07845
939.185	29.15432
939.36	62.88058
939.535	46.01671
939.71	41.80097
939.886	43.90883
940.061	168.31207
940.236	20.72369
940.411	88.17913
940.586	24.93896
940.761	73.42125
940.937	77.63768
941.112	10.18593
941.287	12.29343
941.462	81.85419
941.637	1.75615
941.812	29.15432
941.987	12.29343
942.162	54.44846
942.337	128.24171
942.512	8.07845
942.687	50.23254
942.862	109.26371
943.037	-31.95906
943.212	50.23254
943.386	41.80097
943.561	58.66448
943.736	75.52945
943.911	8.07845
944.086	31.26204
944.26	86.0708
944.435	-69.8811
944.61	3.86356
944.785	41.80097
944.959	52.34049
945.134	12.29343
945.309	58.66448
945.483	12.29343
945.658	-0.35123
945.833	-29.85205
946.007	-46.70749
946.182	-61.45468
946.357	41.80097
946.531	75.52945
946.706	58.66448
946.88	88.17913
947.055	33.36978
947.229	46.01671
947.404	-15.10224
947.578	33.36978
947.752	46.01671
947.927	37.58533
948.101	3.86356
948.276	33.36978
948.45	58.66448
948.624	69.20492
948.799	60.77252
948.973	3.86356
949.147	100.82962
949.321	62.88058
949.496	14.40096
949.67	24.93896
949.844	-8.78052
950.018	105.04662
950.193	-38.27997
950.367	24.93896
950.541	33.36978
950.715	12.29343
950.889	50.23254
951.063	24.93896
951.237	98.72115
951.411	16.50851
951.585	-6.67324
951.759	24.93896
951.933	14.40096
952.107	37.58533
952.281	71.31307
952.455	-4.56592
952.629	-15.10224
952.803	41.80097
952.977	12.29343
953.151	79.74592
953.325	67.09678
953.499	50.23254
953.672	-8.78052
953.846	48.12461
954.02	12.29343
954.194	8.07845
954.368	48.12461
954.541	-8.78052
954.715	16.50851
954.889	12.29343
955.062	94.50427
955.236	10.18593
955.41	48.12461
955.583	-42.49378
955.757	37.58533
955.93	8.07845
956.104	29.15432
956.278	50.23254
956.451	24.93896
956.625	1.75615
956.798	33.36978
956.972	-4.56592
957.145	12.29343
957.319	-8.78052
957.492	-42.49378
957.665	24.93896
957.839	12.29343
958.012	18.61609
958.185	58.66448
958.359	35.47754
958.532	-2.45859
958.705	35.47754
958.879	29.15432
959.052	16.50851
959.225	41.80097
959.398	43.90883
959.572	83.96248
959.745	100.82962
959.918	18.61609
960.091	8.07845
960.264	56.55646
960.438	54.44846
960.611	52.34049
960.784	60.77252
960.957	-38.27997
961.13	62.88058
961.303	24.93896
961.476	10.18593
961.649	88.17913
961.822	-12.99502
961.995	75.52945
962.168	-59.34802
962.341	43.90883
962.514	113.4809
962.686	8.07845
962.859	46.01671
963.032	33.36978
963.205	52.34049
963.378	-0.35123
963.551	31.26204
963.723	46.01671
963.896	-42.49378
964.069	126.13296
964.242	3.86356
964.414	-12.99502
964.587	-8.78052
964.76	77.63768
964.932	-4.56592
965.105	41.80097
965.278	41.80097
965.45	29.15432
965.623	54.44846
965.795	-8.78052
965.968	105.04662
966.14	143.00359
966.313	18.61609
966.485	67.09678
966.658	62.88058
966.83	37.58533
967.003	41.80097
967.175	62.88058
967.348	16.50851
967.52	48.12461
967.692	39.69314
967.865	-21.42373
968.037	1.75615
968.209	-17.20943
968.382	50.23254
968.554	-0.35123
968.726	20.72369
968.898	-34.06606
969.071	5.97099
969.243	96.6127
969.415	46.01671
969.587	29.15432
969.759	75.52945
969.932	67.09678
970.104	27.04663
970.276	54.44846
970.448	20.72369
970.62	33.36978
970.792	24.93896
970.964	8.07845
971.136	50.23254
971.308	-21.42373
971.48	33.36978
971.652	-0.35123
971.824	-0.35123
971.996	27.04663
972.168	14.40096
972.339	16.50851
972.511	-6.67324
972.683	-59.34802
972.855	92.39587
973.027	-65.66794
973.199	33.36978
973.37	16.50851
973.542	-15.10224
973.714	-29.85205
973.886	43.90883
974.057	39.69314
974.229	52.34049
974.401	48.12461
974.572	-38.27997
974.744	1.75615
974.915	75.52945
975.087	16.50851
975.259	-27.74501
975.43	58.66448
975.602	24.93896
975.773	69.20492
975.945	24.93896
976.116	18.61609
976.288	-69.8811
976.459	24.93896
976.63	-59.34802
976.802	33.36978
976.973	43.90883
977.145	130.35049
977.316	73.42125
977.487	3.86356
977.659	-2.45859
977.83	-46.70749
978.001	60.77252
978.172	-0.35123
978.344	69.20492
978.515	48.12461
978.686	16.50851
978.857	18.61609
979.028	3.86356
979.2	-42.49378
979.371	18.61609
979.542	-6.67324
979.713	37.58533
979.884	75.52945
980.055	-25.63794
980.226	12.29343
980.397	-25.63794
980.568	50.23254
980.739	-36.17303
980.91	41.80097
981.081	-25.63794
981.252	-2.45859
981.423	60.77252
981.594	-31.95906
981.765	-17.20943
981.936	50.23254
982.106	-25.63794
982.277	-40.38689
982.448	24.93896
982.619	79.74592
982.79	-25.63794
982.96	64.98867
983.131	41.80097
983.302	96.6127
983.472	8.07845
983.643	-2.45859
983.814	8.07845
983.984	18.61609
984.155	-25.63794
984.326	33.36978
984.496	43.90883
984.667	20.72369
984.837	35.47754
985.008	50.23254
985.178	35.47754
985.349	-17.20943
985.519	-0.35123
985.69	27.04663
985.86	81.85419
986.031	-17.20943
986.201	16.50851
986.371	69.20492
986.542	94.50427
986.712	41.80097
986.882	-8.78052
987.053	-31.95906
987.223	18.61609
987.393	46.01671
987.563	37.58533
987.734	8.07845
987.904	37.58533
988.074	41.80097
988.244	58.66448
988.414	-4.56592
988.585	52.34049
988.755	46.01671
988.925	54.44846
989.095	3.86356
989.265	8.07845
989.435	16.50851
989.605	12.29343
989.775	29.15432
989.945	81.85419
990.115	-38.27997
990.285	-10.88778
990.455	12.29343
990.625	71.31307
990.795	41.80097
990.965	105.04662
991.134	52.34049
991.304	94.50427
991.474	50.23254
991.644	67.09678
991.814	58.66448
991.984	3.86356
992.153	1.75615
992.323	24.93896
992.493	-76.20064
992.662	-0.35123
992.832	27.04663
993.002	-78.3071
993.171	-31.95906
993.341	35.47754
993.511	41.80097
993.68	-42.49378
993.85	56.55646
994.019	12.29343
994.189	-6.67324
994.358	86.0708
994.528	24.93896
994.697	46.01671
994.867	67.09678
995.036	-65.66794
995.206	-0.35123
995.375	-65.66794
995.544	18.61609
995.714	41.80097
995.883	41.80097
996.052	-17.20943
996.222	-21.42373
996.391	-48.81431
996.56	29.15432
996.73	-21.42373
996.899	-25.63794
997.068	-34.06606
997.237	41.80097
997.406	12.29343
997.576	50.23254
997.745	41.80097
997.914	16.50851
998.083	52.34049
998.252	16.50851
998.421	-40.38689
998.59	-17.20943
998.759	-4.56592
998.928	-15.10224
999.097	-55.13461
999.266	79.74592
999.435	-38.27997
999.604	79.74592
999.773	39.69314
999.942	-42.49378
1000.111	50.23254
1000.28	-29.85205
1000.448	50.23254
1000.617	60.77252
1000.786	33.36978
1000.955	20.72369
1001.124	16.50851
1001.292	20.72369
1001.461	-2.45859
1001.63	-27.74501
1001.798	22.83131
1001.967	29.15432
1002.136	16.50851
1002.304	50.23254
1002.473	52.34049
1002.642	18.61609
1002.81	-29.85205
1002.979	16.50851
1003.147	-10.88778
1003.316	69.20492
1003.484	31.26204
1003.653	5.97099
1003.821	88.17913
1003.99	24.93896
1004.158	-0.35123
1004.327	41.80097
1004.495	43.90883
1004.663	16.50851
1004.832	1.75615
1005	-8.78052
1005.168	-38.27997
1005.337	14.40096
1005.505	58.66448
1005.673	69.20492
1005.842	-17.20943
1006.01	-55.13461
1006.178	37.58533
1006.346	31.26204
1006.514	-0.35123
1006.683	-55.13461
1006.851	41.80097
1007.019	-12.99502
1007.187	-15.10224
1007.355	-25.63794
1007.523	16.50851
1007.691	41.80097
1007.859	77.63768
1008.027	-17.20943
1008.195	16.50851
1008.363	-25.63794
1008.531	10.18593
1008.699	48.12461
1008.867	52.34049
1009.035	-55.13461
1009.203	16.50851
1009.37	52.34049
1009.538	-23.53085
1009.706	83.96248
1009.874	16.50851
1010.042	92.39587
1010.209	41.80097
1010.377	52.34049
1010.545	18.61609
1010.713	50.23254
1010.88	24.93896
1011.048	46.01671
1011.216	22.83131
1011.383	69.20492
1011.551	-25.63794
1011.718	24.93896
1011.886	-0.35123
1012.054	-38.27997
1012.221	16.50851
1012.389	10.18593
1012.556	-2.45859
1012.724	83.96248
1012.891	83.96248
1013.058	8.07845
1013.226	16.50851
1013.393	-25.63794
1013.561	-59.34802
1013.728	24.93896
1013.895	22.83131
1014.063	-6.67324
1014.23	-27.74501
1014.397	24.93896
1014.565	5.97099
1014.732	46.01671
1014.899	16.50851
1015.066	52.34049
1015.233	33.36978
1015.401	33.36978
1015.568	-8.78052
1015.735	16.50851
1015.902	-21.42373
1016.069	-15.10224
1016.236	-25.63794
1016.403	-8.78052
1016.57	39.69314
1016.737	3.86356
1016.904	-23.53085
1017.071	16.50851
1017.238	-19.31659
1017.405	121.91552
1017.572	52.34049
1017.739	33.36978
1017.906	1.75615
1018.073	50.23254
1018.24	-6.67324
1018.407	-23.53085
1018.573	-29.85205
1018.74	-38.27997
1018.907	5.97099
1019.074	43.90883
1019.241	22.83131
1019.407	-15.10224
1019.574	8.07845
1019.741	8.07845
1019.907	75.52945
1020.074	-15.10224
1020.241	-8.78052
1020.407	54.44846
1020.574	58.66448
1020.74	90.28749
1020.907	-25.63794
1021.073	18.61609
1021.24	-76.20064
1021.406	16.50851
1021.573	41.80097
1021.739	-17.20943
1021.906	-29.85205
1022.072	-23.53085
1022.239	-42.49378
1022.405	58.66448
1022.571	-15.10224
1022.738	-67.77453
1022.904	48.12461
1023.07	-23.53085
1023.237	12.29343
1023.403	20.72369
1023.569	-23.53085
1023.735	-63.56133
1023.902	5.97099
1024.068	-10.88778
1024.234	-12.99502
1024.4	83.96248
1024.566	-17.20943
1024.732	33.36978
1024.898	-21.42373
1025.065	20.72369
1025.231	37.58533
1025.397	-25.63794
1025.563	-8.78052
1025.729	56.55646
1025.895	119.80683
1026.061	-25.63794
1026.227	14.40096
1026.392	41.80097
1026.558	33.36978
1026.724	-40.38689
1026.89	-38.27997
1027.056	12.29343
1027.222	-2.45859
1027.388	41.80097
1027.553	-34.06606
1027.719	54.44846
1027.885	-12.99502
1028.051	24.93896
1028.216	-59.34802
1028.382	29.15432
1028.548	-55.13461
1028.713	5.97099
1028.879	10.18593
1029.045	-15.10224
1029.21	1.75615
1029.376	16.50851
1029.541	56.55646
1029.707	33.36978
1029.873	-15.10224
1030.038	46.01671
1030.204	-23.53085
1030.369	27.04663
1030.534	-29.85205
1030.7	-4.56592
1030.865	-42.49378
1031.031	-21.42373
1031.196	-50.9211
1031.361	46.01671
1031.527	-25.63794
1031.692	-31.95906
1031.857	-10.88778
1032.023	-25.63794
1032.188	69.20492
1032.353	83.96248
1032.518	20.72369
1032.684	62.88058
1032.849	12.29343
1033.014	1.75615
1033.179	71.31307
1033.344	-23.53085
1033.509	29.15432
1033.674	-71.98763
1033.839	12.29343
1034.004	27.04663
1034.17	-36.17303
1034.335	8.07845
1034.5	-48.81431
1034.664	71.31307
1034.829	94.50427
1034.994	-29.85205
1035.159	41.80097
1035.324	5.97099
1035.489	24.93896
1035.654	-76.20064
1035.819	24.93896
1035.984	58.66448
1036.148	16.50851
1036.313	-59.34802
1036.478	79.74592
1036.643	-12.99502
1036.807	69.20492
1036.972	-8.78052
1037.137	46.01671
1037.301	58.66448
1037.466	-6.67324
1037.631	-12.99502
1037.795	-23.53085
1037.96	16.50851
1038.124	-8.78052
1038.289	1.75615
1038.454	50.23254
1038.618	31.26204
1038.783	20.72369
1038.947	12.29343
1039.111	-42.49378
1039.276	46.01671
1039.44	-42.49378
1039.605	24.93896
1039.769	16.50851
1039.933	16.50851
1040.098	46.01671
1040.262	24.93896
1040.426	-0.35123
1040.591	10.18593
1040.755	41.80097
1040.919	33.36978
1041.083	1.75615
1041.248	60.77252
1041.412	-29.85205
1041.576	-17.20943
1041.74	-29.85205
1041.904	-4.56592
1042.068	-36.17303
1042.232	-42.49378
1042.397	-8.78052
1042.561	-15.10224
1042.725	-10.88778
1042.889	43.90883
1043.053	-19.31659
1043.217	37.58533
1043.381	37.58533
1043.544	10.18593
1043.708	-0.35123
1043.872	14.40096
1044.036	-8.78052
1044.2	16.50851
1044.364	-8.78052
1044.528	-21.42373
1044.691	12.29343
1044.855	-65.66794
1045.019	-23.53085
1045.183	-21.42373
1045.346	-34.06606
1045.51	14.40096
1045.674	29.15432
1045.837	12.29343
1046.001	-17.20943
1046.165	-6.67324
1046.328	10.18593
1046.492	50.23254
1046.655	39.69314
1046.819	-0.35123
1046.983	46.01671
1047.146	-15.10224
1047.31	62.88058
1047.473	-25.63794
1047.636	-12.99502
1047.8	67.09678
1047.963	8.07845
1048.127	-25.63794
1048.29	54.44846
