Data from absorb_only_2.23.25_USB4F045381__16__0121.txt Node

Date: Sun Feb 23 19:14:37 EST 2025
User: ssocol
Spectrometer: USB4F04538
Trigger mode: 4
Integration Time (sec): 2.600000E-3
Scans to average: 1
Electric dark correction enabled: true
Nonlinearity correction enabled: true
Boxcar width: 0
XAxis mode: Wavelengths
Number of Pixels in Spectrum: 3648
>>>>>Begin Spectral Data<<<<<
345.52	-2.80981
345.736	-2.80981
345.952	-2.80981
346.168	28.80304
346.384	79.39455
346.6	11.94218
346.816	28.80304
347.032	24.58768
347.248	-51.27223
347.464	-15.45344
347.68	3.51233
347.896	20.37242
348.112	20.37242
348.328	45.6654
348.544	-4.91714
348.76	-47.05863
348.975	-36.52418
349.191	-36.52418
349.407	30.91075
349.623	-7.02445
349.839	9.83468
350.055	7.72721
350.27	-9.13173
350.486	3.51233
350.702	-11.23899
350.918	66.74543
351.133	49.88122
351.349	-59.69913
351.565	49.88122
351.781	-4.91714
351.996	-19.66778
352.212	39.34183
352.428	35.12624
352.644	-42.84492
352.859	3.51233
353.075	28.80304
353.291	24.58768
353.506	-11.23899
353.722	39.34183
353.938	20.37242
354.153	14.04971
354.369	-13.34623
354.584	3.51233
354.8	-72.33872
355.016	14.04971
355.231	-32.31023
355.447	26.69535
355.662	-47.05863
355.878	41.44967
356.093	68.85356
356.309	11.94218
356.524	-17.56062
356.74	20.37242
356.955	-9.13173
357.171	104.6952
357.386	-21.77492
357.602	58.31314
357.817	-25.98912
358.033	85.71941
358.248	-30.20322
358.464	68.85356
358.679	49.88122
358.895	-17.56062
359.11	28.80304
359.325	54.09713
359.541	54.09713
359.756	-7.02445
359.972	73.06989
360.187	-4.91714
360.402	45.6654
360.618	-25.98912
360.833	-23.88203
361.048	-15.45344
361.264	33.01848
361.479	20.37242
361.694	-4.91714
361.909	28.80304
362.125	-28.09618
362.34	45.6654
362.555	5.61975
362.77	28.80304
362.986	47.77329
363.201	-25.98912
363.416	7.72721
363.631	11.94218
363.847	96.26129
364.062	-32.31023
364.277	-78.65817
364.492	62.52924
364.707	14.04971
364.922	-72.33872
365.138	54.09713
365.353	5.61975
365.568	54.09713
365.783	5.61975
365.998	24.58768
366.213	20.37242
366.428	20.37242
366.643	11.94218
366.858	22.48004
367.073	9.83468
367.288	62.52924
367.503	-11.23899
367.718	-38.63112
367.933	73.06989
368.148	-0.70246
368.363	-13.34623
368.578	115.23808
368.793	45.6654
369.008	-44.95179
369.223	-13.34623
369.438	5.61975
369.653	16.15725
369.868	3.51233
370.083	-51.27223
370.298	51.98916
370.513	39.34183
370.728	106.80373
370.943	41.44967
371.157	20.37242
371.372	11.94218
371.587	70.96171
371.802	41.44967
372.017	28.80304
372.232	39.34183
372.446	56.20513
372.661	43.55752
372.876	5.61975
373.091	9.83468
373.306	123.67278
373.52	-70.23219
373.735	-21.77492
373.95	3.51233
374.165	39.34183
374.379	-0.70246
374.594	11.94218
374.809	60.42118
375.023	45.6654
375.238	54.09713
375.453	24.58768
375.667	54.09713
375.882	37.23403
376.097	87.82774
376.311	-4.91714
376.526	-11.23899
376.741	37.23403
376.955	26.69535
377.17	-21.77492
377.384	75.17808
377.599	5.61975
377.813	37.23403
378.028	-9.13173
378.242	-25.98912
378.457	-4.91714
378.672	9.83468
378.886	11.94218
379.101	9.83468
379.315	28.80304
379.53	5.61975
379.744	-11.23899
379.958	-9.13173
380.173	16.15725
380.387	30.91075
380.602	45.6654
380.816	-11.23899
381.031	18.26482
381.245	-2.80981
381.459	-13.34623
381.674	-17.56062
381.888	49.88122
382.103	54.09713
382.317	45.6654
382.531	83.6111
382.746	-4.91714
382.96	100.4782
383.174	39.34183
383.388	-11.23899
383.603	79.39455
383.817	-47.05863
384.031	47.77329
384.246	75.17808
384.46	-95.5089
384.674	115.23808
384.888	-21.77492
385.103	-17.56062
385.317	-30.20322
385.531	-2.80981
385.745	9.83468
385.959	-47.05863
386.174	-0.70246
386.388	-4.91714
386.602	20.37242
386.816	-13.34623
387.03	-49.16544
387.244	-2.80981
387.458	-0.70246
387.672	3.51233
387.887	5.61975
388.101	54.09713
388.315	-103.93364
388.529	37.23403
388.743	47.77329
388.957	22.48004
389.171	-17.56062
389.385	66.74543
389.599	-4.91714
389.813	125.7815
390.027	-21.77492
390.241	-0.70246
390.455	56.20513
390.669	-4.91714
390.883	113.12946
391.097	54.09713
391.311	30.91075
391.525	30.91075
391.738	-87.08375
391.952	3.51233
392.166	3.51233
392.38	89.9361
392.594	7.72721
392.808	20.37242
393.022	70.96171
393.236	66.74543
393.449	37.23403
393.663	-38.63112
393.877	100.4782
394.091	7.72721
394.305	11.94218
394.518	33.01848
394.732	-30.20322
394.946	5.61975
395.16	14.04971
395.373	16.15725
395.587	28.80304
395.801	5.61975
396.015	37.23403
396.228	18.26482
396.442	-17.56062
396.656	28.80304
396.869	68.85356
397.083	33.01848
397.297	39.34183
397.51	11.94218
397.724	-11.23899
397.938	-0.70246
398.151	-32.31023
398.365	-4.91714
398.578	28.80304
398.792	-28.09618
399.005	33.01848
399.219	-4.91714
399.433	-2.80981
399.646	5.61975
399.86	-9.13173
400.073	24.58768
400.287	-4.91714
400.5	3.51233
400.714	20.37242
400.927	-28.09618
401.141	3.51233
401.354	66.74543
401.567	123.67278
401.781	54.09713
401.994	7.72721
402.208	62.52924
402.421	22.48004
402.635	62.52924
402.848	22.48004
403.061	20.37242
403.275	39.34183
403.488	-11.23899
403.701	43.55752
403.915	87.82774
404.128	5.61975
404.341	64.63732
404.555	-28.09618
404.768	1.40492
404.981	9.83468
405.195	81.50281
405.408	54.09713
405.621	-63.91243
405.834	43.55752
406.048	37.23403
406.261	30.91075
406.474	-19.66778
406.687	16.15725
406.9	62.52924
407.114	5.61975
407.327	-2.80981
407.54	56.20513
407.753	-28.09618
407.966	16.15725
408.179	28.80304
408.392	-0.70246
408.605	39.34183
408.819	62.52924
409.032	-80.7646
409.245	-13.34623
409.458	7.72721
409.671	58.31314
409.884	22.48004
410.097	56.20513
410.31	7.72721
410.523	7.72721
410.736	-13.34623
410.949	5.61975
411.162	20.37242
411.375	20.37242
411.588	58.31314
411.801	45.6654
412.014	58.31314
412.227	-0.70246
412.44	-0.70246
412.653	-30.20322
412.865	70.96171
413.078	37.23403
413.291	39.34183
413.504	113.12946
413.717	41.44967
413.93	-70.23219
414.143	75.17808
414.356	66.74543
414.568	9.83468
414.781	-9.13173
414.994	51.98916
415.207	-36.52418
415.42	100.4782
415.632	-17.56062
415.845	98.36974
416.058	11.94218
416.271	58.31314
416.483	45.6654
416.696	51.98916
416.909	81.50281
417.121	-0.70246
417.334	16.15725
417.547	39.34183
417.759	24.58768
417.972	49.88122
418.185	117.34672
418.397	16.15725
418.61	45.6654
418.823	30.91075
419.035	37.23403
419.248	62.52924
419.46	24.58768
419.673	45.6654
419.885	5.61975
420.098	83.6111
420.311	28.80304
420.523	14.04971
420.736	54.09713
420.948	98.36974
421.161	70.96171
421.373	45.6654
421.586	45.6654
421.798	43.55752
422.01	45.6654
422.223	28.80304
422.435	89.9361
422.648	60.42118
422.86	37.23403
423.073	73.06989
423.285	108.91229
423.497	108.91229
423.71	66.74543
423.922	98.36974
424.134	62.52924
424.347	39.34183
424.559	-21.77492
424.771	111.02086
424.984	45.6654
425.196	94.15287
425.408	83.6111
425.621	87.82774
425.833	66.74543
426.045	83.6111
426.257	60.42118
426.47	79.39455
426.682	108.91229
426.894	89.9361
427.106	108.91229
427.318	60.42118
427.531	58.31314
427.743	73.06989
427.955	83.6111
428.167	79.39455
428.379	125.7815
428.591	33.01848
428.804	73.06989
429.016	104.6952
429.228	47.77329
429.44	132.10782
429.652	125.7815
429.864	-21.77492
430.076	151.08791
430.288	3.51233
430.5	108.91229
430.712	140.5432
430.924	96.26129
431.136	79.39455
431.348	75.17808
431.56	121.56407
431.772	96.26129
431.984	87.82774
432.196	94.15287
432.408	35.12624
432.62	66.74543
432.832	83.6111
433.044	24.58768
433.256	79.39455
433.468	167.96055
433.679	102.58669
433.891	159.52406
434.103	62.52924
434.315	123.67278
434.527	96.26129
434.739	121.56407
434.95	115.23808
435.162	199.6003
435.374	77.2863
435.586	66.74543
435.798	54.09713
436.009	157.41499
436.221	148.97893
436.433	119.45538
436.645	70.96171
436.856	155.30595
437.068	155.30595
437.28	113.12946
437.491	79.39455
437.703	142.6521
437.915	140.5432
438.126	180.61589
438.338	83.6111
438.55	163.74226
438.761	83.6111
438.973	115.23808
439.184	134.21663
439.396	210.14789
439.608	174.28813
439.819	115.23808
440.031	182.72519
440.242	214.36707
440.454	218.58633
440.665	136.32547
440.877	146.86997
441.088	172.17891
441.3	148.97893
441.511	172.17891
441.723	197.49084
441.934	205.9288
442.146	121.56407
442.357	155.30595
442.569	157.41499
442.78	201.70978
442.991	174.28813
443.203	182.72519
443.414	214.36707
443.626	176.39736
443.837	119.45538
444.048	189.0532
444.26	222.80567
444.471	157.41499
444.682	172.17891
444.894	159.52406
445.105	220.69599
445.316	146.86997
445.528	214.36707
445.739	176.39736
445.95	233.35436
446.161	294.5462
446.373	281.88452
446.584	174.28813
446.795	182.72519
447.006	197.49084
447.217	197.49084
447.429	214.36707
447.64	235.46415
447.851	265.00332
448.062	129.99903
448.273	258.67319
448.484	248.12334
448.695	243.90353
448.907	193.27198
449.118	235.46415
449.329	205.9288
449.54	355.75346
449.751	148.97893
449.962	241.79366
450.173	208.03833
450.384	383.19595
450.595	277.66411
450.806	302.98769
451.017	222.80567
451.228	376.86282
451.439	334.64583
451.65	252.34322
451.861	275.55393
452.072	305.0981
452.283	357.86432
452.494	357.86432
452.705	296.65654
452.915	305.0981
453.126	387.41813
453.337	338.86722
453.548	345.19943
453.759	393.75151
453.97	334.64583
454.181	298.76691
454.391	414.86386
454.602	425.42065
454.813	343.08867
455.024	374.75181
455.235	400.08505
455.445	412.75256
455.656	435.97783
455.867	459.205
456.078	353.64262
456.288	343.08867
456.499	425.42065
456.71	478.21043
456.921	450.75854
457.131	435.97783
457.342	446.5354
457.553	459.205
457.763	465.54001
457.974	505.66485
458.184	480.32222
458.395	636.6336
458.606	484.54585
458.816	596.49263
459.027	681.00505
459.237	681.00505
459.448	611.28088
459.659	554.24401
459.869	613.39353
460.08	560.58096
460.29	805.69371
460.501	754.96854
460.711	636.6336
460.922	771.8763
461.132	803.58005
461.343	731.72145
461.553	708.47565
461.764	841.62734
461.974	670.43995
462.184	757.08198
462.395	754.96854
462.605	962.12838
462.816	866.9938
463.026	902.93169
463.236	856.42429
463.447	949.44289
463.657	940.98604
463.867	1061.50614
464.078	1000.18632
464.288	1103.79839
464.498	1057.27703
464.709	1095.33978
464.919	1133.40413
465.129	1158.78116
465.339	1160.89594
465.55	1186.2736
465.76	1069.96443
465.97	1203.19234
466.18	1135.51886
466.391	1406.22974
466.601	1245.49009
466.811	1410.45983
467.021	1249.71993
467.231	1541.59271
467.441	1247.60501
467.651	1490.83176
467.862	1621.96271
468.072	1695.98501
468.282	1657.91679
468.492	1588.123
468.702	1763.65931
468.912	1956.08399
469.122	1772.11834
469.332	1879.9649
469.542	1748.85587
469.752	2125.20818
469.962	2027.96713
470.172	1915.91093
470.382	1983.56959
470.592	2049.10778
470.802	2095.61472
471.012	2192.84455
471.222	2091.38696
471.432	2201.29851
471.642	2252.01931
471.852	2473.85812
472.062	2262.5855
472.272	2467.52145
472.482	2615.35008
472.691	2689.24224
472.901	2535.10732
473.111	2547.77837
473.321	2735.68072
473.531	3024.71506
473.741	2826.4282
473.95	3045.80164
474.16	2826.4282
474.37	3060.56133
474.58	3071.1035
474.79	3357.69472
474.999	3079.53695
475.209	3448.24258
475.419	3361.90697
475.628	3618.71874
475.838	3444.03178
476.048	3530.33874
476.258	3652.37862
476.467	3770.1497
476.677	3963.49714
476.886	4039.10836
477.096	3988.70383
477.306	4005.50665
477.515	3906.77142
477.725	4190.25025
477.935	4064.30617
478.144	4513.15472
478.354	4139.88167
478.563	4343.37936
478.773	4412.56442
478.982	4797.88222
479.192	4496.39319
479.401	4689.06488
479.611	4714.182
479.82	4860.63353
480.03	4885.7283
480.239	5078.01165
480.449	4921.27359
480.658	5320.17615
480.868	5299.31227
481.077	5464.07297
481.287	5389.01031
481.496	5382.75372
481.705	5632.85243
481.915	5553.69119
482.124	5449.47984
482.333	5736.96006
482.543	5589.10964
482.752	5830.60648
482.961	6069.70809
483.171	6078.01906
483.38	6005.2853
483.589	6169.4149
483.799	6190.18034
484.008	6426.74088
484.217	6376.96389
484.426	6418.44565
484.636	6281.52042
484.845	6654.7144
485.054	6580.1357
485.263	6934.11998
485.472	6578.06365
485.682	6913.4375
485.891	7012.69282
486.1	6896.88989
486.309	7087.1003
486.518	7107.7639
486.727	7281.25035
486.936	7130.49128
487.146	7400.94791
487.355	7481.39301
487.564	7462.83168
487.773	7530.88135
487.982	7448.39388
488.191	7712.23324
488.4	7551.49784
488.609	7611.27355
488.818	7897.53805
489.027	8092.95642
489.236	7854.31533
489.445	8206.01006
489.654	8020.98155
489.863	8292.30148
490.072	8308.73401
490.281	8614.56428
490.49	8343.64898
490.698	8468.88603
490.907	8366.23803
491.116	8616.61541
491.325	8645.32925
491.534	8555.0734
491.743	8678.1406
491.952	9036.71079
492.16	8616.61541
492.369	9001.9022
492.578	8979.37631
492.787	9003.94991
492.996	8958.89637
493.204	9548.03613
493.413	9384.52454
493.622	9570.51097
493.831	9315.00061
494.039	9627.71107
494.248	9415.19084
494.457	9652.22165
494.665	9539.86298
494.874	9595.0268
495.083	9799.23866
495.291	9605.24107
495.5	9621.58307
495.709	10180.71672
495.917	9925.77412
496.126	10107.31591
496.335	10203.14117
496.543	10237.79387
496.752	10011.45967
496.96	10243.90865
497.169	10300.97401
497.377	10144.01857
497.586	10415.07337
497.794	10445.62872
498.003	10571.89357
498.211	10828.34993
498.42	10449.70254
498.628	10439.51788
498.837	10618.72145
499.045	10781.55067
499.254	10964.6433
499.462	11098.85319
499.671	10940.23631
499.879	10932.10028
500.087	10917.8618
500.296	11192.36551
500.504	11013.45245
500.713	11180.16952
500.921	11330.56066
501.129	11102.91941
501.338	11070.38841
501.546	11395.57748
501.754	11289.91994
501.962	11663.66775
502.171	11296.01631
502.379	11578.38399
502.587	11080.55465
502.795	11815.92107
503.004	11249.27515
503.212	11651.48534
503.42	11771.26518
503.628	11781.41461
503.837	11651.48534
504.045	11874.77938
504.253	11852.45465
504.461	12069.57153
504.669	11882.89721
504.877	12211.56225
505.085	12049.2841
505.294	12485.30225
505.502	11984.35906
505.71	12211.56225
505.918	12170.99721
506.126	12353.51718
506.334	12254.15239
506.542	12647.46179
506.75	12438.67383
506.958	12531.92724
507.166	12596.79122
507.374	12572.46798
507.582	12718.39429
507.79	12550.17088
507.998	12521.79166
508.206	12775.13515
508.414	12819.71414
508.622	12777.16153
508.83	12833.8978
509.037	13164.1024
509.245	12566.38703
509.453	13141.82275
509.661	12886.57762
509.869	13287.64331
510.077	13095.23621
510.285	13234.98854
510.492	13149.92451
510.7	13522.5309
510.908	13172.20395
511.116	13018.26158
511.324	13200.55881
511.531	13208.66004
511.739	13198.5335
511.947	13421.29274
512.155	13257.26591
512.362	13451.66518
512.57	13366.62011
512.778	13281.56791
512.985	13237.01377
513.193	13988.11903
513.401	13516.45688
513.608	13836.3142
513.816	13597.44125
514.024	13892.98977
514.231	14063.00411
514.439	14063.00411
514.646	14079.19505
514.854	13791.78183
515.061	13340.29521
515.269	13759.39375
515.477	14127.76702
515.684	14228.95468
515.892	14008.35856
516.099	14012.40644
516.307	14253.23898
516.514	14595.21769
516.722	14407.03357
516.929	14334.18473
517.136	14239.07318
517.344	14326.09028
517.551	14235.02579
517.759	14346.32635
517.966	14615.4519
518.173	14710.55128
518.381	14763.15858
518.588	14722.69148
518.796	14655.91999
519.003	14842.06855
519.21	14827.9053
519.418	14712.57465
519.625	14718.64475
519.832	15050.46789
520.039	14987.74619
520.247	14965.49004
520.454	14914.90768
520.661	15428.82097
520.868	15238.63218
521.076	15797.07335
521.283	15143.53844
521.49	15165.79442
521.697	15064.63082
521.904	15517.84677
522.112	15139.4919
522.319	15523.91676
522.526	15151.63152
522.733	15598.78038
522.94	15637.22426
523.147	15693.87896
523.354	15277.0744
523.561	15612.94388
523.768	15471.31042
523.975	16110.72255
524.183	15639.24763
524.39	15833.49556
524.597	15924.55275
524.804	16122.8645
525.011	16037.87205
525.218	15960.97634
525.425	16068.22619
525.632	16169.40915
525.838	16171.43285
526.045	16126.91182
526.252	16215.95468
526.459	16602.52323
526.666	16078.34431
526.873	16390.00282
527.08	16547.8729
527.287	16373.81172
527.494	16385.95504
527.701	16825.19004
527.907	16254.40602
528.114	16557.99321
528.321	16606.57147
528.528	16960.82894
528.735	16865.67806
528.941	17025.61585
529.148	16703.73188
529.355	17213.91882
529.562	16632.88522
529.768	16997.27124
529.975	16541.80074
530.182	16861.62921
530.388	16873.77578
530.595	17009.41886
530.802	16881.87355
531.008	17234.16791
531.215	17578.44889
531.422	17337.44291
531.628	17045.86232
531.835	17248.34246
532.042	17507.56015
532.248	17912.6932
532.455	17645.29047
532.661	17450.85197
532.868	17862.04418
533.074	17882.30353
533.281	17675.67419
533.487	17655.4183
533.694	17442.751
533.9	18024.12877
534.107	17643.26492
534.313	18153.81285
534.52	17930.92738
534.726	17965.3705
534.933	17825.57822
535.139	18013.99782
535.345	17981.57938
535.552	18194.34218
535.758	18455.79207
535.965	18532.82033
536.171	18474.03511
536.377	18786.24235
536.584	18261.21879
536.79	18435.52239
536.996	18508.49502
537.203	18512.5492
537.409	18285.53855
537.615	18814.62945
537.821	18690.94849
538.028	18869.37819
538.234	18605.79962
538.44	18812.60177
538.646	18561.20057
538.853	18573.36376
539.059	18735.55304
539.265	18816.65713
539.471	19084.34602
539.677	18727.44298
539.883	18972.80045
540.09	18678.78394
540.296	18741.63563
540.502	19009.30493
540.708	19153.30762
540.914	19358.19205
541.12	19216.18848
541.326	19534.71047
541.532	19319.64623
541.738	19382.53755
541.944	19467.7515
542.15	19839.12671
542.356	19668.64201
542.562	19971.06972
542.768	19467.7515
542.974	19759.96942
543.18	19311.53151
543.386	19735.61461
543.592	19952.79963
543.798	19912.20065
544.004	20009.64104
544.21	20017.76151
544.415	20293.89752
544.621	20316.23545
544.827	20078.66718
545.033	20464.49095
545.239	20131.45515
545.445	20509.17506
545.651	20561.98617
545.856	20332.48154
546.062	20399.49949
546.268	20360.91284
546.474	20019.79163
546.679	19875.663
546.885	20389.34496
547.091	19944.6797
547.297	20056.33466
547.502	20330.45077
547.708	20419.80886
547.914	20754.97382
548.119	20645.27097
548.325	20072.57644
548.531	20413.716
548.736	20752.94217
548.942	20381.22141
549.147	20042.12332
549.353	20570.11121
549.559	20842.33844
549.764	20862.65689
549.97	20647.30239
550.175	20797.6393
550.381	21260.98139
550.586	20793.57585
550.792	20846.4021
550.997	20830.14757
551.203	21080.0901
551.408	21578.1262
551.614	21179.67795
551.819	21332.1272
552.025	21919.774
552.23	21645.22691
552.435	21409.3768
552.641	21555.76025
552.846	21439.87165
553.052	21872.99434
553.257	21657.42749
553.462	21569.99307
553.668	21592.35933
553.873	21759.10453
554.078	21600.49263
554.283	21545.59407
554.489	21757.0709
554.694	21881.12978
554.899	21767.23912
555.105	21866.89279
555.31	22253.39143
555.515	21602.52596
555.72	22161.84003
555.925	21950.28357
556.131	22418.20274
556.336	22047.91994
556.541	22338.84615
556.746	22259.49513
556.951	22322.56857
557.156	22338.84615
557.361	22428.37706
557.567	22597.2839
557.772	22285.94485
557.977	22387.68032
558.182	22342.91559
558.387	22314.42986
558.592	22530.12522
558.797	22385.64552
559.002	22479.25002
559.207	22397.85437
559.412	22591.1784
559.617	22393.78474
559.822	22782.4989
560.027	22945.34891
560.232	22802.85395
560.437	22817.1027
560.642	22888.34892
560.847	22910.74146
561.051	23317.94861
561.256	22847.63628
561.461	23224.27938
561.666	22847.63628
561.871	22794.71189
562.076	22892.42026
562.281	23159.12221
562.485	22800.81843
562.69	22733.64818
562.895	22731.61278
563.1	23069.53657
563.305	22631.8823
563.509	22815.06715
563.714	22859.84993
563.919	23199.84506
564.123	22957.56353
564.328	23358.67647
564.533	23167.26668
564.737	23079.71643
564.942	23641.76957
565.147	23267.04058
565.351	23537.89396
565.556	23338.31238
565.761	23389.22319
565.965	23544.00407
566.17	23472.72117
566.374	23619.36436
566.579	23511.41713
566.784	23497.1606
566.988	23592.88594
567.193	23456.42847
567.397	23535.85726
567.602	23647.88014
567.806	23558.2611
568.011	23621.40118
568.215	23770.0973
568.42	23910.66013
568.624	23456.42847
568.828	23574.55503
569.033	23558.2611
569.237	24077.72356
569.442	24289.6357
569.646	23753.80106
569.85	24214.24051
570.055	23937.14453
570.259	24100.13594
570.463	23823.06138
570.668	23935.10725
570.872	23708.98738
571.076	24073.64862
571.281	24385.41322
571.485	24261.10736
571.689	24381.33746
571.893	24458.77863
572.098	24501.57667
572.302	23979.92803
572.506	24473.04452
572.71	24169.41269
572.914	25027.46984
573.119	24811.38585
573.323	24197.93933
573.527	24452.66472
573.731	24903.11642
573.935	24819.53948
574.139	24876.61599
574.343	24012.52582
574.547	24662.5888
574.751	24691.12421
574.955	24485.27252
575.159	24886.80841
575.364	24603.48126
575.568	24648.32127
575.772	25372.0334
575.976	25145.71537
576.18	24615.71024
576.383	25113.09516
576.587	24813.42425
576.791	24960.19561
576.995	24905.15493
577.199	24968.34993
577.403	24570.87111
577.607	25172.2197
577.811	24784.8868
578.015	24754.31148
578.219	25139.59903
578.422	24848.0775
578.626	25553.51431
578.83	25078.43682
579.034	25755.40497
579.238	25202.80209
579.442	25569.82799
579.645	25367.95536
579.849	25441.36126
580.053	25323.09753
580.257	25359.79932
580.46	25539.23995
580.664	25323.09753
580.868	25722.77489
581.071	26100.0893
581.275	25877.77211
581.479	25482.14348
581.682	25345.52632
581.886	25425.04861
582.09	25229.30722
582.293	26063.37491
582.497	26257.15166
582.7	26277.5501
582.904	26026.66108
583.107	26295.90885
583.311	25994.02706
583.515	25694.22397
583.718	25883.89064
583.922	26098.0496
584.125	26169.44026
584.329	26265.31101
584.532	25828.82445
584.735	26512.14405
584.939	26214.31546
585.142	26375.46496
585.346	26212.27566
585.549	26846.73116
585.753	26361.18548
585.956	26179.63909
586.159	26412.18401
586.363	26495.82378
586.566	26485.62367
586.769	26591.70679
586.973	26448.90358
587.176	26691.67355
587.379	26120.48643
587.582	26024.62144
587.786	26297.94872
587.989	26418.3039
588.192	26628.42885
588.395	26724.31655
588.599	26879.37594
588.802	27162.99265
589.005	26736.55777
589.208	27385.41535
589.411	26799.80493
589.615	26718.19596
589.818	26681.47269
590.021	27081.3736
590.224	27142.58769
590.427	27340.52145
590.63	27648.66908
590.833	27073.21181
591.036	27462.96081
591.239	27397.65925
591.442	27320.11534
591.645	27793.56931
591.848	27318.07474
592.051	27487.44923
592.254	27009.95872
592.457	27428.2692
592.66	27632.34267
592.863	27581.32315
593.066	27454.79805
593.269	27391.5373
593.472	27920.10674
593.675	28160.94814
593.878	27564.99706
594.081	27630.30188
594.284	27730.30227
594.486	27975.21313
594.689	28105.83899
594.892	27756.83347
595.095	27826.2237
595.298	27283.38466
595.5	27883.3696
595.703	28246.67509
595.906	28044.60754
596.109	27867.04211
596.311	27993.58211
596.514	28479.37218
596.717	27832.34643
596.92	28091.55156
597.122	28150.74268
597.325	28207.89362
597.528	28109.92112
597.73	28309.95099
597.933	28040.52548
598.136	28895.81186
598.338	28287.49813
598.541	28461.00085
598.743	28801.905
598.946	28363.02189
599.148	28238.51054
599.351	28605.93256
599.554	28779.44933
599.756	28542.65186
599.959	28577.35406
600.161	28805.98786
600.363	28385.47518
600.566	28375.26913
600.768	28350.77469
600.971	28779.44933
601.173	28305.86864
601.376	28895.81186
601.578	28601.84991
601.78	28967.26421
601.983	28669.21427
602.185	28824.36078
602.388	28785.57359
602.59	28309.95099
602.792	29008.09469
602.995	28724.33142
603.197	28722.29003
603.399	28871.3142
603.601	28475.28966
603.804	28618.18056
604.006	28585.51932
604.208	28530.4041
604.41	28348.7335
604.613	28728.4142
604.815	29044.84248
605.017	28661.04883
605.219	28538.56927
605.421	28099.7158
605.623	28534.48669
605.826	29124.46384
606.028	28848.85815
606.23	29171.42077
606.432	28854.98252
606.634	29142.83823
606.836	28752.91098
607.038	29489.92582
607.24	29028.51008
607.442	28883.56301
607.644	29075.46589
607.846	28997.88703
608.048	29663.48107
608.25	29451.13217
608.452	28881.52154
608.654	29175.50401
608.856	28775.3665
609.058	28895.81186
609.26	29340.87862
609.462	29285.75298
609.664	29643.0624
609.866	29414.38065
610.067	29122.42225
610.269	29001.97009
610.471	28963.18118
610.673	29300.04474
610.875	29134.67182
611.077	29381.71291
611.278	28903.97778
611.48	29187.75374
611.682	29020.34391
611.884	29434.79812
612.085	29379.67118
612.287	29532.80346
612.489	29177.54563
612.69	29340.87862
612.892	29320.46163
613.094	29720.65391
613.295	29187.75374
613.497	29536.88707
613.699	29257.16962
613.9	29375.58774
614.102	29089.7569
614.304	29238.79471
614.505	29001.97009
614.707	29467.46629
614.908	28906.01926
615.11	28765.15943
615.311	29126.50543
615.513	29179.58725
615.714	29522.59446
615.916	29445.00689
616.117	28779.44933
616.319	29469.50806
616.52	29555.26336
616.722	29853.37987
616.923	29888.09358
617.124	29704.31872
617.326	29179.58725
617.527	28957.05665
617.729	29398.04674
617.93	29463.38276
618.131	29398.04674
618.333	29136.71342
618.534	29538.92887
618.735	29377.62946
618.937	29461.34099
619.138	29681.85796
619.339	29369.46258
619.54	29228.58647
619.742	29428.67287
619.943	29520.55266
620.144	29373.54602
620.345	29771.70181
620.546	29377.62946
620.748	29028.51008
620.949	29291.87802
621.15	29755.3664
621.351	29424.58937
621.552	29669.60669
621.753	29716.5701
621.954	29884.0096
622.155	29385.79636
622.356	29547.09611
622.558	29620.60199
622.759	29612.4346
622.96	28852.94106
623.161	29036.67627
623.362	29540.97068
623.563	29837.04412
623.764	29328.62841
623.965	29540.97068
624.166	29465.42453
624.366	29351.08715
624.567	29749.24065
624.768	29667.56481
624.969	29175.50401
625.17	28983.59635
625.371	29124.46384
625.572	29690.02549
625.773	29251.04465
625.973	29800.28893
626.174	29622.64384
626.375	29832.96019
626.576	29589.97437
626.777	29830.91823
626.977	29528.71985
627.178	29951.39589
627.379	29657.35546
627.58	29381.71291
627.78	29193.87863
627.981	29165.29592
628.182	30012.65722
628.382	30053.49867
628.583	30178.06795
628.784	30022.86754
628.984	29255.12796
629.185	30229.12219
629.386	29179.58725
629.586	29798.24698
629.787	29289.83634
629.987	29469.50806
630.188	29357.21228
630.388	29920.76561
630.589	29622.64384
630.79	29920.76561
630.99	30194.40522
631.191	30457.85439
631.391	30512.99751
631.591	30445.60049
631.792	30063.7091
631.992	30574.26871
632.193	30231.16437
632.393	30022.86754
632.594	30157.64646
632.794	29806.41477
632.994	30039.20411
633.195	30088.21426
633.395	30018.7834
633.595	29857.46382
633.796	29873.79966
633.996	30335.31739
634.196	29961.60604
634.397	30611.03199
634.597	30116.80383
634.797	30496.65871
634.997	29736.98916
635.198	30059.62493
635.398	29696.15116
635.598	30737.66429
635.798	30367.99349
635.998	29979.98438
636.199	29853.37987
636.399	30218.91128
636.599	30423.13512
636.799	30388.41621
636.999	29777.8276
637.199	30031.03581
637.399	29802.33087
637.599	29963.64807
637.799	29920.76561
637.999	30543.63297
638.199	30053.49867
638.399	29943.22779
638.599	30000.40487
638.799	30294.47269
638.999	30384.33166
639.199	30210.74257
639.399	30412.92364
639.599	30269.96611
639.799	30065.75119
639.999	30396.58534
640.199	30372.07802
640.399	30672.30505
640.599	29622.64384
640.799	30431.30433
640.998	30698.85708
641.198	29949.35386
641.398	30278.13495
641.598	30876.55726
641.798	30451.72744
641.997	30449.68512
642.197	30198.48955
642.397	30568.14154
642.597	30696.81461
642.796	31162.53389
642.996	30590.60789
643.196	30521.16693
643.395	29898.30356
643.595	30349.61314
643.795	30325.10617
643.994	30956.21935
644.194	30278.13495
644.394	30666.17769
644.593	30729.49431
644.793	30803.02491
644.992	30800.98236
645.192	30625.32893
645.392	30412.92364
645.591	30666.17769
645.791	30559.97199
645.99	30486.447
646.19	30594.6927
646.389	30653.92301
646.589	30325.10617
646.788	30492.57402
646.987	30690.6872
647.187	30852.04628
647.386	30576.31111
647.586	30676.38997
647.785	30831.62061
647.984	31029.7555
648.184	30470.10834
648.383	30351.6554
648.582	30455.81207
648.782	30962.34729
648.981	30888.81283
649.18	30899.02584
649.38	31377.03563
649.579	30962.34729
649.778	30864.30174
649.977	31189.09033
650.177	31215.64702
650.376	31150.27716
650.575	30809.15253
650.774	31493.48678
650.973	31097.16529
651.173	30733.5793
651.372	30811.19508
651.571	30894.94063
651.77	30680.47488
651.969	31154.36273
652.168	31101.25078
652.367	30860.21658
652.566	31148.23438
652.765	31086.95158
652.964	31086.95158
653.163	30876.55726
653.362	31189.09033
653.561	31377.03563
653.76	31391.33637
653.959	31039.969
654.158	31009.3286
654.357	30323.06393
654.556	30551.80247
654.755	31187.04752
654.954	30482.36233
655.153	30555.88723
655.352	31442.41106
655.551	31385.20747
655.749	31434.23904
655.948	31507.78817
656.147	30837.7483
656.346	31240.16112
656.545	30882.68504
656.743	31097.16529
656.942	30901.06845
657.141	31201.34723
657.34	31293.27577
657.538	30833.66317
657.737	31254.46111
657.936	31859.22034
658.135	30925.57983
658.333	31027.7128
658.532	30776.47199
658.731	31197.26159
658.929	30999.11521
659.128	31215.64702
659.326	31281.01845
659.525	31256.50398
659.724	31211.56136
659.922	31140.06326
660.121	31140.06326
660.319	30980.73119
660.518	30939.87823
660.716	30958.26199
660.915	31111.46454
661.113	31148.23438
661.312	30770.34443
661.51	30778.51451
661.709	30733.5793
661.907	30927.62246
662.105	30780.55704
662.304	31117.59281
662.502	31330.04806
662.701	31481.22852
662.899	31421.98106
663.097	31154.36273
663.296	30794.85475
663.494	31368.86382
663.692	31033.8409
663.891	31156.40552
664.089	30915.36673
664.287	31436.28205
664.485	31289.18999
664.684	31607.9002
664.882	30639.62594
665.08	30829.57805
665.278	30950.09142
665.476	31035.8836
665.675	30833.66317
665.873	30756.04683
666.071	31064.48155
666.269	31115.55005
666.467	30950.09142
666.665	31199.30441
666.863	30948.04878
667.061	31407.68016
667.259	31626.28856
667.457	32131.00484
667.655	30678.43242
667.853	30825.49294
668.051	30468.06601
668.249	30841.83343
668.447	30894.94063
668.645	31203.39005
668.843	31328.00514
669.041	31105.33628
669.239	30813.23763
669.437	30547.71772
669.635	30743.79179
669.833	30854.08885
670.031	30847.96113
670.229	30909.23888
670.426	31064.48155
670.624	31260.58971
670.822	30792.81222
671.02	30946.00614
671.218	30800.98236
671.415	30547.71772
671.613	30343.48638
671.811	30033.07789
672.009	29975.9003
672.206	30390.45849
672.404	30347.57089
672.602	30541.59059
672.799	30555.88723
672.997	31035.8836
673.195	30850.0037
673.392	31176.83348
673.59	31133.93494
673.788	30282.21938
673.985	30406.79677
674.183	30229.12219
674.38	30690.6872
674.578	30803.02491
674.775	30655.96545
674.973	31070.60973
675.17	30880.64244
675.368	30439.47356
675.565	30778.51451
675.763	30570.18393
675.96	30131.0987
676.158	30069.83538
676.355	30116.80383
676.553	30227.08
676.75	29808.45672
676.947	30249.54409
677.145	30131.0987
677.342	30269.96611
677.539	30439.47356
677.737	30535.46348
677.934	30525.25166
678.131	30500.7434
678.329	30321.02169
678.526	30153.56217
678.723	30188.27874
678.92	30196.44739
679.118	29961.60604
679.315	30078.00376
679.512	30302.64159
679.709	30318.97945
679.906	30288.34603
680.104	29957.52198
680.301	30165.81504
680.498	30026.95167
680.695	29714.5282
680.892	30374.12029
681.089	29649.18799
681.286	29979.98438
681.483	29675.73232
681.68	29935.05971
681.877	29739.03107
682.075	29818.66648
682.272	29585.89071
682.469	30347.57089
682.665	30006.53104
682.862	29998.36282
683.059	29884.0096
683.256	30245.4597
683.453	29930.97567
683.65	29445.00689
683.847	29647.14613
684.044	29628.7694
684.241	29504.21832
684.438	30129.05657
684.635	29410.29716
684.831	30300.59937
685.028	30037.16203
685.225	29763.5341
685.422	29455.2157
685.619	30004.48898
685.815	29295.96138
686.012	29608.35092
686.209	28779.44933
686.405	29692.06738
686.602	29398.04674
686.799	29510.34369
686.996	29177.54563
687.192	29363.33742
687.389	29577.72339
687.586	29483.80048
687.782	29702.27683
687.979	29628.7694
688.175	28867.23128
688.372	28995.8455
688.568	29359.254
688.765	29275.54462
688.962	29800.28893
689.158	29771.70181
689.355	29220.41989
689.551	28928.47563
689.748	28887.64596
689.944	29081.5906
690.14	28750.86958
690.337	28916.22669
690.533	29234.71141
690.73	28959.09816
690.926	29349.04544
691.123	29161.21269
691.319	29155.08786
691.515	29222.46153
691.712	28481.41345
691.908	28432.4234
692.104	28518.15638
692.301	28542.65186
692.497	28789.65644
692.693	28754.95239
692.889	28526.32153
693.086	28687.58657
693.282	28616.13922
693.478	28736.57978
693.674	28573.27143
693.87	28285.45697
694.067	28189.52358
694.263	28385.47518
694.459	28181.35915
694.655	28297.70396
694.851	28485.49598
695.047	28350.77469
695.243	28373.22792
695.439	28393.64005
695.635	28385.47518
695.831	28093.59262
696.027	28803.94643
696.224	28387.5164
696.42	28101.75686
696.615	28497.7436
696.811	28138.49617
697.007	27975.21313
697.203	27752.75174
697.399	27934.3935
697.595	28132.37292
697.791	27758.87434
697.987	27752.75174
698.183	28150.74268
698.379	27762.95608
698.575	28181.35915
698.77	27932.35253
698.966	28409.96984
699.162	28336.48635
699.358	28554.89966
699.554	27983.37711
699.749	28150.74268
699.945	27756.83347
700.141	27877.24679
700.337	27724.17972
700.532	28207.89362
700.728	27903.77908
700.924	28365.06309
701.119	27646.62828
701.315	27875.20585
701.511	27338.48084
701.706	28060.93583
701.902	27764.99696
702.097	27842.55101
702.293	27487.44923
702.489	27116.06143
702.684	27409.9032
702.88	27589.48622
703.075	27397.65925
703.271	27277.26293
703.466	27883.3696
703.662	27326.23716
703.857	27458.87943
704.053	27507.85638
704.248	26775.32199
704.443	27430.30987
704.639	27277.26293
704.834	27420.10652
705.03	27348.68393
705.225	27301.74995
705.42	26748.79904
705.616	26769.20129
705.811	26797.76468
706.006	26877.33563
706.202	26812.04648
706.397	26795.72443
706.592	27005.87792
706.787	27022.20115
706.983	27101.77816
707.178	27058.92874
707.373	27034.44363
707.568	27485.40852
707.763	27362.96833
707.959	27240.53274
708.154	27214.00565
708.349	26852.85203
708.544	27040.56489
708.739	26922.22277
708.934	26575.38603
709.129	26826.32836
709.324	26785.52319
709.519	26718.19596
709.714	26546.82495
709.909	26724.31655
710.104	26485.62367
710.299	26867.1341
710.494	26540.70476
710.689	26885.49688
710.884	26744.71861
711.079	27381.33406
711.274	26948.74732
711.469	27511.93783
711.664	26918.1421
711.859	26967.11061
712.054	27381.33406
712.249	27330.31838
712.443	26905.9001
712.638	26718.19596
712.833	26579.46621
713.028	26944.66661
713.223	26663.11125
713.417	26626.38872
713.612	26624.34859
713.807	26200.0369
714.002	26246.95249
714.196	26820.20754
714.391	26738.59798
714.586	27020.16074
714.78	27234.41109
714.975	26557.0253
715.17	26244.91267
715.364	26406.06413
715.559	26457.06355
715.754	26173.51979
715.948	26022.58181
716.143	25887.96967
716.337	25704.42068
716.532	26085.81141
716.726	25877.77211
716.921	26081.73203
717.115	26232.67374
717.31	26177.59932
717.504	26369.34517
717.699	26634.54924
717.893	25981.78942
718.088	26040.93861
718.282	26177.59932
718.476	25535.16158
718.671	25280.27965
718.865	25732.97174
719.059	25563.71035
719.254	25561.67114
719.448	25215.03518
719.642	25747.24741
719.837	25090.6691
720.031	25284.3575
720.225	25384.26755
720.419	25720.73553
720.614	25316.98063
720.808	25690.1453
721.002	25584.10257
721.196	25726.85362
721.39	25219.11289
721.585	25749.2868
721.779	25392.4237
721.973	25441.36126
722.167	25304.7469
722.361	25571.86721
722.555	25790.07498
722.749	25486.22175
722.943	25543.31833
723.137	25033.5858
723.331	24927.57871
723.525	25316.98063
723.719	24866.42362
723.913	25416.89233
724.107	25088.63038
724.301	24680.93294
724.495	24558.64246
724.689	24556.60437
724.883	24436.36106
725.077	24764.5032
725.271	24805.27065
725.465	24503.6147
725.659	24850.11595
725.853	24864.38515
726.046	25172.2197
726.24	25109.01767
726.434	25072.3207
726.628	25082.51423
726.822	24267.22053
727.015	24491.38656
727.209	24413.94381
727.403	24627.9393
727.596	24334.467
727.79	24570.87111
727.984	24752.27315
728.177	24691.12421
728.371	24746.15816
728.565	24495.46259
728.758	24420.05758
728.952	24835.84687
729.146	24654.43591
729.339	24709.46866
729.533	24259.06964
729.726	24004.3763
729.92	24446.55083
730.113	24748.19648
730.307	25076.39811
730.5	24982.62008
730.694	24878.65447
730.887	24917.38605
731.081	24613.67207
731.274	24705.3921
731.468	24464.89257
731.661	24666.66526
731.854	24432.28518
732.048	24224.42883
732.241	24087.91097
732.435	24685.00944
732.628	24864.38515
732.821	24432.28518
733.014	24389.48898
733.208	24332.42919
733.401	24220.3535
733.594	24448.58879
733.788	24713.54524
733.981	24874.57751
734.174	25463.79138
734.367	24711.50695
734.56	25015.23798
734.754	24471.00653
734.947	24071.61115
735.14	24069.57369
735.333	24379.29958
735.526	24259.06964
735.719	24269.25826
735.912	23918.80913
736.105	24232.57954
736.298	24438.39901
736.491	24208.12755
736.684	24232.57954
736.877	24544.37583
737.07	24096.06094
737.263	23994.18947
737.456	24407.83007
737.649	24352.80745
737.842	24709.46866
738.035	24632.01568
738.228	24122.54866
738.421	24303.90006
738.614	24613.67207
738.807	24271.29599
739	24489.34854
739.192	24022.71278
739.385	24367.07239
739.578	24012.52582
739.771	24281.48469
739.964	23847.50701
740.156	23721.20915
740.349	23751.76405
740.542	24195.9017
740.735	23792.50494
740.927	24208.12755
741.12	23352.56721
741.313	23763.98619
741.505	23523.63714
741.698	23252.78669
741.891	23322.02134
742.083	23617.32754
742.276	22959.59932
742.468	22988.10063
742.661	22953.49198
742.854	23265.0043
743.046	23383.11379
743.239	23772.13435
743.431	23853.61848
743.624	23163.19444
743.816	23067.5006
744.009	22914.81287
744.201	22949.42044
744.393	23319.98497
744.586	22894.45594
744.778	22947.38467
744.971	23169.3028
745.163	22737.719
745.355	23038.99747
745.548	22941.27739
745.74	23150.9778
745.932	22833.38718
746.125	23077.68045
746.317	23038.99747
746.509	22717.36505
746.702	23112.29256
746.894	23041.03338
747.086	23153.0139
747.278	22933.1344
747.471	22674.6229
747.663	22578.96751
747.855	22819.13824
748.047	22607.45979
748.239	22817.1027
748.431	23014.56673
748.623	23136.72521
748.815	22833.38718
749.008	22798.78292
749.2	23116.36463
749.392	22981.99315
749.584	23004.38739
749.776	23458.46505
749.968	22847.63628
750.16	23089.89638
750.352	22465.00536
750.544	22725.50659
750.736	23079.71643
750.928	23038.99747
751.12	23014.56673
751.311	22918.8843
751.503	22733.64818
751.695	22992.1723
751.887	22375.47158
752.079	22721.43582
752.271	22349.01977
752.463	22446.69107
752.654	22194.39078
752.846	22660.37586
753.038	22485.35492
753.23	22542.3356
753.421	22617.63577
753.613	22672.5876
753.805	22886.31326
753.997	22729.57738
754.188	23059.35678
754.38	22878.17064
754.572	22747.8961
754.763	22823.20935
754.955	22434.4817
755.146	22129.29023
755.338	22306.29121
755.53	22241.18414
755.721	22180.14971
755.913	22261.5297
756.104	22414.13304
756.296	22328.67263
756.487	21968.58972
756.679	22127.2559
756.87	21622.85953
757.062	22167.94322
757.253	21840.45316
757.445	21730.63398
757.636	21769.27277
757.827	21576.09291
758.019	21726.56682
758.21	21547.6273
758.401	21027.25154
758.593	21226.42664
758.784	21464.26818
758.975	21667.59476
759.167	21267.07941
759.358	21382.94865
759.549	21220.32886
759.74	21287.4064
759.932	21273.17746
760.123	21008.96191
760.314	21352.45548
760.505	21021.15496
760.696	20836.24299
760.888	20854.52946
761.079	21023.18715
761.27	21181.71046
761.461	21277.24286
761.652	21445.97073
761.843	21271.14478
762.034	21336.19282
762.225	20984.57626
762.416	20972.38366
762.607	20261.4069
762.798	21275.21016
762.989	21179.67795
763.18	21311.79932
763.371	21336.19282
763.562	20882.97576
763.753	20718.40485
763.944	20746.84726
764.135	20541.67387
764.326	21017.0906
764.517	20523.39316
764.708	20478.7084
764.899	19798.53243
765.089	20068.51597
765.28	20389.34496
765.471	20042.12332
765.662	19885.81221
765.853	19956.85962
766.043	20228.91735
766.234	20230.94791
766.425	19928.44004
766.615	20192.36789
766.806	20338.57389
766.997	20545.7363
767.187	20127.39444
767.378	20021.82177
767.569	20036.03281
767.759	20054.30445
767.95	20401.5304
768.141	19818.82936
768.331	19739.67371
768.522	19502.24495
768.712	19494.12874
768.903	19646.31882
769.093	19636.17209
769.284	19502.24495
769.474	19352.10577
769.665	19552.97279
769.855	19589.49844
770.046	19579.35229
770.236	19380.50874
770.426	19597.61544
770.617	19230.38793
770.807	19272.98749
770.998	19421.08581
771.188	19317.61754
771.378	19360.22082
771.569	19323.70361
771.759	19664.58321
771.949	19287.18774
772.139	19520.50667
772.33	19244.58758
772.52	19449.49076
772.71	19686.90681
772.9	18956.57666
773.09	19242.55905
773.281	19175.61973
773.471	18905.87897
773.661	18918.04619
773.851	19272.98749
774.041	19068.12045
774.231	18926.15775
774.421	18451.7381
774.611	18549.03752
774.802	18070.73229
774.992	18644.31849
775.182	18467.95406
775.372	18845.04506
775.562	18348.36711
775.752	18644.31849
775.942	17945.10972
776.131	18474.03511
776.321	18530.7932
776.511	18707.16811
776.701	18299.72533
776.891	18727.44298
777.081	18399.03793
777.271	18285.53855
777.461	18309.85886
777.651	17985.63164
777.84	18103.15325
778.03	18467.95406
778.22	18265.27204
778.41	18307.83215
778.599	18123.41682
778.789	17973.47491
778.979	18161.9186
779.169	17880.27758
779.358	17837.73342
779.548	18157.86572
779.738	18139.62793
779.927	18176.1038
780.117	18334.1797
780.307	18003.86696
780.496	17805.31983
780.686	18210.55432
780.875	17776.95867
781.065	18261.21879
781.254	17764.80409
781.444	17673.64859
781.633	17574.398
781.823	17639.21382
782.012	17740.49529
782.202	17736.44387
782.391	17323.26745
782.581	17381.99532
782.77	17001.32044
782.96	17088.38081
783.149	16928.43651
783.338	17035.73905
783.528	17092.43026
783.717	16853.53155
783.906	17100.52918
784.096	17222.01842
784.285	17396.1714
784.474	17548.06752
784.663	17392.12107
784.853	17187.59542
785.042	17219.99352
785.231	17240.2427
785.42	16985.12371
785.61	17096.47971
785.799	16663.24773
785.988	16952.73077
786.177	16598.475
786.366	16736.11987
786.555	17001.32044
786.744	16616.6921
786.933	16543.82479
787.122	16503.34416
787.312	16527.63244
787.501	16515.48826
787.69	16430.48115
787.879	16499.29615
788.068	16519.53631
788.257	16681.46548
788.445	16744.21696
788.634	16904.14262
788.823	16582.28218
789.012	16511.44022
789.201	16272.62004
789.39	16292.858
789.579	16456.79248
789.768	16446.6727
789.957	16260.47735
790.145	16396.07452
790.334	16580.25809
790.523	16400.12233
790.712	16371.78784
790.9	16181.55138
791.089	16045.96645
791.278	16084.4152
791.467	16175.48026
791.655	16228.09714
791.844	16047.99006
792.033	16169.40915
792.221	15932.64684
792.41	16009.54181
792.599	15560.33678
792.787	15934.67037
792.976	15742.4407
793.164	15831.47209
793.353	15873.96512
793.541	16094.53338
793.73	16102.62795
793.918	16009.54181
794.107	15592.71032
794.295	15552.24342
794.484	15402.51808
794.672	15598.78038
794.861	15867.89465
795.049	16047.99006
795.238	15633.17752
795.426	15592.71032
795.614	15586.64027
795.803	15766.72178
795.991	15475.35705
796.179	15208.2831
796.368	15155.67806
796.556	15353.95909
796.744	15285.16751
796.932	15714.11295
797.121	15293.26062
797.309	15331.70295
797.497	15254.81837
797.685	15046.42133
797.874	15218.39946
798.062	15339.79609
798.25	15099.02647
798.438	15236.60891
798.626	14880.51152
798.814	14935.14066
799.002	14916.93098
799.19	15034.28167
799.378	14852.18514
799.566	15014.04887
799.755	14937.16395
799.943	15220.42273
800.131	15337.7728
800.318	15212.32965
800.506	14787.43869
800.694	14872.41828
800.882	14651.8732
801.07	15101.04974
801.258	15244.702
801.446	15271.00457
801.634	15157.70133
801.822	14882.53482
802.01	14676.15388
802.197	14807.67203
802.385	14629.61578
802.573	14619.49873
802.761	14894.67466
802.949	14625.56896
803.136	14548.67858
803.324	14560.81928
803.512	14386.79799
803.699	14411.08067
803.887	14552.72548
804.075	14625.56896
804.262	14271.45203
804.45	14933.11736
804.638	14807.67203
804.825	15030.23511
805.013	14623.54555
805.201	14927.04747
805.388	14827.9053
805.576	14884.55813
805.763	14724.71484
805.951	14941.21054
806.138	14657.94338
806.326	15001.90918
806.513	15026.18855
806.701	14852.18514
806.888	14682.22403
807.075	14574.98337
807.263	14572.95993
807.45	14878.48821
807.638	14607.35823
807.825	14825.88198
808.012	14791.48536
808.2	14799.5787
808.387	14817.78867
808.574	14947.28042
808.761	14876.4649
808.949	14965.49004
809.136	14645.80301
809.323	14840.04523
809.51	14864.32503
809.698	14411.08067
809.885	14512.25621
810.072	14388.82156
810.259	14443.45723
810.446	14560.81928
810.633	14653.8966
810.82	14874.44159
811.008	14536.53784
811.195	14653.8966
811.382	14589.14741
811.569	14485.95091
811.756	14309.90131
811.943	14801.60203
812.13	14809.69536
812.317	15232.56237
812.504	15074.74719
812.691	15192.09693
812.878	14935.14066
813.064	14955.37359
813.251	14791.48536
813.438	14696.38768
813.625	14115.62415
813.812	14285.61763
813.999	14702.4578
814.186	14664.01356
814.372	15040.3515
814.559	15159.7246
814.746	14485.95091
814.933	14906.81448
815.12	14558.79583
815.306	14510.23274
815.493	14352.39714
815.68	14560.81928
815.866	14682.22403
816.053	14920.97758
816.24	14581.05368
816.426	14659.96678
816.613	14653.8966
816.799	14753.04184
816.986	14771.25196
817.173	14797.55537
817.359	14405.01002
817.546	14696.38768
817.732	14647.82641
817.919	14532.49091
818.105	14067.05186
818.292	14504.1623
818.478	14496.06836
818.665	14589.14741
818.851	14589.14741
819.037	14447.50428
819.224	14621.52214
819.41	14473.80992
819.597	14380.72729
819.783	14427.269
819.969	14483.92741
820.156	14277.52301
820.342	14117.64797
820.528	14249.19162
820.714	13593.39216
820.901	13957.75925
821.087	14046.81302
821.273	14322.04305
821.459	14330.13751
821.646	14275.49935
821.832	14073.12347
822.018	13921.32675
822.204	13836.3142
822.39	13844.41085
822.576	14158.12386
822.762	14008.35856
822.948	13864.65226
823.134	14121.69559
823.32	13858.57987
823.507	14022.5261
823.693	14006.33462
823.879	14063.00411
824.065	13941.56713
824.25	14006.33462
824.436	14067.05186
824.622	13982.04712
824.808	14135.86223
824.994	13967.87924
825.18	13706.76145
825.366	13925.37485
825.552	13892.98977
825.738	14038.71741
825.923	13583.26939
826.109	13783.68488
826.295	13427.3673
826.481	13757.36947
826.667	13799.87873
826.852	13656.15145
827.038	13356.49523
827.224	13795.83029
827.409	13650.07811
827.595	13718.90755
827.781	13820.12078
827.966	13627.80895
828.152	13413.19327
828.338	13366.62011
828.523	12961.53885
828.709	13234.98854
828.894	12953.43528
829.08	13135.74639
829.266	12957.48708
829.451	13396.99415
829.637	13139.7973
829.822	13350.42025
830.008	13226.88754
830.193	13368.64508
830.378	13368.64508
830.564	13212.71063
830.749	12850.10737
830.935	12552.19792
831.12	12351.4895
831.305	12837.95022
831.491	12475.16594
831.676	12499.49283
831.861	12647.46179
832.047	12629.22082
832.232	12637.32798
832.417	12503.54722
832.602	12535.98143
832.788	12562.33303
832.973	12507.60159
833.158	12540.03559
833.343	12075.65761
833.528	12450.8381
833.714	12531.92724
833.899	12572.46798
834.084	12335.26776
834.269	12781.21427
834.454	12540.03559
834.639	12568.41402
834.824	12631.24762
835.009	12852.13354
835.194	12527.87303
835.379	12981.79743
835.564	12402.17958
835.749	12726.50041
835.934	12679.88898
836.119	12633.27441
836.304	12136.5146
836.489	12154.77037
836.674	12087.82956
836.859	12241.9841
837.044	12164.9122
837.228	12037.11127
837.413	11984.35906
837.598	12191.2801
837.783	11901.16185
837.968	11970.15562
838.152	12112.17263
838.337	12264.29243
838.522	12063.48538
838.707	12049.2841
838.891	11903.19122
839.076	11980.30097
839.261	11870.72041
839.445	12045.22652
839.63	11641.33308
839.815	11927.54293
839.999	11943.77676
840.184	11531.67409
840.368	11489.02157
840.553	11549.95246
840.737	11752.99566
840.922	11789.534
841.106	11614.93614
841.291	11545.89067
841.475	11616.96673
841.66	11584.47622
841.844	11933.63068
842.029	11681.94077
842.213	11527.61212
842.397	11606.8137
842.582	11255.37213
842.766	11387.45093
842.951	11304.14465
843.135	11424.01916
843.319	11344.78396
843.504	11271.63029
843.688	11257.40444
843.872	11450.42758
844.056	11472.77189
844.241	11249.27515
844.425	11198.46336
844.609	11220.82135
844.793	11086.65426
844.977	11078.52142
845.161	10785.62042
845.346	10938.20232
845.53	10844.62648
845.714	11111.05173
845.898	10518.94974
846.082	10875.14301
846.266	10960.57558
846.45	11017.51959
846.634	10541.35009
846.818	10781.55067
847.002	10482.2913
847.186	10539.31376
847.37	10300.97401
847.554	10490.43798
847.738	10309.12534
847.922	10751.02606
848.106	10443.59178
848.29	10643.15079
848.473	10327.46506
848.657	10339.69094
848.841	10461.92371
849.025	10541.35009
849.209	10321.35194
849.392	10529.13191
849.576	10504.69417
849.76	10413.03624
849.944	10484.32799
850.127	10714.39298
850.311	10433.40693
850.495	10643.15079
850.678	10225.56396
850.862	10266.32844
851.046	10080.80561
851.229	10278.55673
851.413	10123.62876
851.596	10413.03624
851.78	10146.05747
851.964	10203.14117
852.147	10137.90177
852.331	10072.64812
852.514	9805.36266
852.698	9907.40959
852.881	9803.32134
853.065	9915.57175
853.248	9590.94099
853.431	9654.2641
853.615	9919.65274
853.798	9880.88095
853.982	9717.57232
854.165	10007.37998
854.348	9709.40435
854.532	9944.13746
854.715	9611.36944
854.898	9866.59527
855.081	9701.23613
855.265	9960.45944
855.448	9390.65809
855.631	9351.80977
855.814	9462.20539
855.997	9439.72124
856.181	9071.51433
856.364	9327.27093
856.547	9302.7297
856.73	9386.56907
856.913	9046.94764
857.096	9206.58677
857.279	9132.92014
857.462	8967.08855
857.645	8883.10517
857.828	8948.65573
858.011	9012.14055
858.194	9337.49573
858.377	9132.92014
858.56	9321.13584
858.743	9537.81966
858.926	9417.23513
859.109	9188.17218
859.292	9118.5935
859.475	9124.73359
859.658	9067.42005
859.841	8883.10517
860.023	8766.2977
860.206	8762.19812
860.389	9067.42005
860.572	8803.19062
860.755	8917.93118
860.937	8891.29999
861.12	8612.51314
861.303	8438.09668
861.486	8610.46197
861.668	8378.55833
861.851	8565.33158
862.034	8438.09668
862.216	8464.78103
862.399	8150.51855
862.581	8436.0439
862.764	8341.59532
862.947	8343.64898
863.129	8345.70263
863.312	8360.07761
863.494	8166.96199
863.677	8121.73945
863.859	8086.78812
864.042	8464.78103
864.224	7889.30585
864.406	8290.24733
864.589	8111.46025
864.771	8308.73401
864.954	8062.11308
865.136	8191.62476
865.318	7981.89907
865.501	7969.55571
865.683	7850.19841
865.865	8080.61963
866.048	7979.8419
866.23	7953.09675
866.412	7786.37544
866.594	8064.16945
866.777	7693.69343
866.959	7574.1735
867.141	7712.23324
867.323	7837.84714
867.505	7889.30585
867.687	8109.40435
867.869	7852.25688
868.052	8109.40435
868.234	7747.24822
868.416	7934.57884
868.598	7876.95694
868.78	8000.41274
868.962	7757.54559
869.144	8265.59594
869.326	7644.24557
869.508	7761.66439
869.69	7454.58164
869.872	7567.98948
870.054	7460.7692
870.236	7543.2515
870.417	7473.14375
870.599	7901.65402
870.781	7429.82943
870.963	7831.67122
871.145	7386.50556
871.327	7262.66998
871.508	7082.96732
871.69	7419.5151
871.872	7169.74131
872.054	7487.57973
872.235	7448.39388
872.417	7367.93524
872.599	7469.01899
872.78	7708.11343
872.962	7118.09486
873.144	7314.27773
873.325	7442.20593
873.507	7541.18986
873.689	7254.41147
873.87	7497.8905
874.052	7180.06893
874.233	7471.08138
874.415	7293.63628
874.596	7436.01778
874.778	7221.37388
874.959	7390.63205
875.141	6992.01892
875.322	7413.32623
875.503	7140.82101
875.685	7134.62324
875.866	6824.47698
876.048	7167.67572
876.229	7097.43238
876.41	7320.46973
876.592	7262.66998
876.773	7147.01858
876.954	6961.00383
877.136	7254.41147
877.317	7293.63628
877.498	7469.01899
877.679	7221.37388
877.86	7411.26323
878.042	7308.08552
878.223	7580.35732
878.404	7272.99263
878.585	7289.50772
878.766	7097.43238
878.947	7347.29949
879.128	7122.22709
879.309	7268.86364
879.49	7303.95728
879.672	7638.06373
879.853	7386.50556
880.034	7343.17207
880.215	7194.52667
880.396	7283.31473
880.576	7163.54447
880.757	7357.61764
880.938	7318.40575
881.119	7543.2515
881.3	7254.41147
881.481	7555.62088
881.662	7291.57201
881.843	7380.31565
882.023	7076.76767
882.204	7027.16322
882.385	6992.01892
882.566	7124.29317
882.747	7159.41313
882.927	7471.08138
883.108	7080.90079
883.289	7487.57973
883.469	7378.2523
883.65	7590.66326
883.831	7541.18986
884.011	7493.76626
884.192	7460.7692
884.373	7262.66998
884.553	7361.74474
884.734	7293.63628
884.914	7266.79911
885.095	7252.34678
885.275	7035.43153
885.456	7223.43889
885.636	7045.7664
885.817	7250.28208
885.997	7314.27773
886.178	7485.51751
886.358	7285.37908
886.538	7184.19982
886.719	6907.23232
886.899	7324.59763
887.08	7281.25035
887.26	7419.5151
887.44	7047.83331
887.621	7621.57789
887.801	7446.33125
887.981	7774.02029
888.161	7466.95657
888.342	7473.14375
888.522	7345.23579
888.702	7506.13873
888.882	7262.66998
889.062	7347.29949
889.242	7208.98332
889.423	7394.75846
889.603	7134.62324
889.783	7528.81958
889.963	7349.36316
890.143	7347.29949
890.323	7089.16676
890.503	7155.2817
890.683	7169.74131
890.863	7184.19982
891.043	7178.00345
891.223	7685.45297
891.403	7442.20593
891.583	7458.7067
891.763	7417.45216
891.943	7316.34175
892.122	7047.83331
892.302	7105.69764
892.482	7018.89456
892.662	7336.98079
892.842	7159.41313
893.022	7250.28208
893.201	7082.96732
893.381	7272.99263
893.561	7045.7664
893.741	7303.95728
893.92	7049.9002
894.1	7116.02871
894.28	7113.96254
894.459	7264.73456
894.639	6934.11998
894.819	7180.06893
894.998	7095.36601
895.178	7025.09609
895.357	7051.96706
895.537	7118.09486
895.716	6961.00383
895.896	7198.65725
896.075	6961.00383
896.255	6820.33826
896.434	6578.06365
896.614	6843.1001
896.793	6625.71513
896.973	6832.75415
897.152	6395.63183
897.331	6708.55825
897.511	6410.15004
897.69	6689.92175
897.87	6536.61764
898.049	6488.94328
898.228	6219.24801
898.407	6364.51754
898.587	6210.94343
898.766	6634.0011
898.945	6186.02744
899.124	6352.07035
899.304	6501.38125
899.483	6306.42348
899.662	6107.10449
899.841	6323.02365
900.02	6269.06762
900.199	6567.70301
900.378	6260.76529
900.557	6337.54758
900.737	6032.30406
900.916	6293.97237
901.095	6080.09674
901.274	6140.33934
901.453	5878.45175
901.632	6065.55246
901.811	6028.14759
901.989	6420.51949
902.168	5851.41031
902.347	6169.4149
902.526	5795.23456
902.705	5822.28429
902.884	5653.67868
903.063	5895.09066
903.242	5597.4424
903.42	5745.28612
903.599	5564.10909
903.778	5537.02133
903.957	5439.05547
904.135	5678.66706
904.314	5411.94936
904.493	5951.23583
904.672	5453.64942
904.85	5386.92481
905.029	5194.95781
905.207	5461.98831
905.386	4979.8043
905.565	5146.93517
905.743	4831.35214
905.922	5002.79357
906.1	4756.03664
906.279	4981.89435
906.457	4433.5249
906.636	4944.26995
906.814	4776.96056
906.993	4772.77596
907.171	4737.20317
907.35	4676.5051
907.528	4496.39319
907.707	4753.94412
907.885	4360.15367
908.063	4534.10464
908.242	4316.11816
908.42	4529.91484
908.598	4427.23699
908.777	4611.60005
908.955	4085.30208
909.133	4441.90848
909.311	4081.10306
909.49	4351.76669
909.668	4209.13533
909.846	4722.55365
910.024	4299.34023
910.202	4425.14097
910.38	4370.63691
910.559	4494.2979
910.737	4097.89862
910.915	4399.98708
911.093	4441.90848
911.271	4441.90848
911.449	4355.96022
911.627	4519.43993
911.805	4314.021
911.983	4353.86347
912.161	4102.0973
912.339	4523.62996
912.517	4175.56067
912.695	4427.23699
912.872	4265.78023
913.05	4477.53478
913.228	4316.11816
913.406	4464.96152
913.584	4332.89472
913.762	4779.05283
913.939	4508.96447
914.117	4492.20259
914.295	4204.93879
914.473	4431.42895
914.65	4358.05696
914.828	4416.75669
915.006	4324.50661
915.184	4450.29171
915.361	4118.89119
915.539	4542.48399
915.716	4148.27728
915.894	4190.25025
916.072	4043.3082
916.249	4177.65924
916.427	4099.99797
916.604	4420.94887
916.782	4123.08945
916.959	4370.63691
917.137	4051.70764
917.314	4462.8659
917.492	4148.27728
917.669	4165.06748
917.847	3833.21628
918.024	4156.67254
918.201	4181.85633
918.379	4074.80438
918.556	3988.70383
918.733	4186.05333
918.911	3990.80425
919.088	4165.06748
919.265	3719.68378
919.442	3934.08564
919.62	3738.60981
919.797	3976.10085
919.974	3576.63711
920.151	3700.75619
920.328	3719.68378
920.506	3896.26504
920.683	3553.48904
920.86	3980.30193
921.037	3723.8897
921.214	3974.00028
921.391	3734.40416
921.568	3782.76443
921.745	3437.71544
921.922	3879.45379
922.099	3481.92639
922.276	3820.60438
922.453	3526.12935
922.63	3660.79284
922.807	3313.46191
922.984	3401.91985
923.161	3252.36609
923.338	3454.55864
923.514	3258.687
923.691	3317.67489
923.868	3187.04114
924.045	3256.58005
924.222	3332.41977
924.399	3412.4485
924.575	3075.32026
924.752	3530.33874
924.929	3142.77977
925.105	3345.05756
925.282	3197.57849
925.459	3231.29527
925.635	2995.19127
925.812	3125.91642
925.989	2682.90924
926.165	3054.23584
926.342	2777.89197
926.518	3081.64528
926.695	2710.35143
926.871	2851.74853
927.048	2708.24057
927.224	2965.66451
927.401	2885.50581
927.577	3066.88668
927.754	2642.79754
927.93	2957.22775
928.107	2554.11374
928.283	2720.90553
928.459	2623.79568
928.636	2794.77496
928.812	2429.49941
928.988	2737.79141
929.165	2334.42942
929.341	2581.56576
929.517	2505.53993
929.693	2822.20794
929.87	2433.72425
930.046	2590.01213
930.222	2230.88626
930.398	2456.96013
930.574	2338.65519
930.751	2547.77837
930.927	2509.76398
931.103	2566.78415
931.279	2207.63888
931.455	2456.96013
931.631	2228.77291
931.807	2467.52145
931.983	2116.75305
932.159	2203.41197
932.335	2006.8258
932.511	2057.56384
932.687	1932.82616
932.863	2285.83032
933.039	2220.3194
933.215	2120.98063
933.391	1983.56959
933.566	2123.09441
933.742	2008.93996
933.918	2066.0198
934.094	1854.59033
934.27	1770.00359
934.445	1596.58297
934.621	1780.57731
934.797	1410.45983
934.973	1575.43299
935.148	1382.96428
935.324	1577.548
935.5	1444.30064
935.675	1448.53074
935.851	1300.4788
936.027	1440.07053
936.202	1198.96263
936.378	1277.21415
936.553	1114.37177
936.729	1211.65179
936.904	928.30098
937.08	1046.70436
937.255	814.14844
937.431	972.69981
937.606	797.23912
937.782	894.4755
937.957	653.53639
938.133	805.69371
938.308	674.66595
938.483	687.34425
938.659	560.58096
938.834	596.49263
939.009	484.54585
939.185	512.00084
939.36	467.65171
939.535	488.76953
939.71	465.54001
939.886	433.86636
940.061	400.08505
940.236	497.21707
940.411	364.197
940.586	480.32222
940.761	334.64583
940.937	446.5354
941.112	454.98174
941.287	372.64081
941.462	286.10501
941.637	336.75651
941.812	404.30748
941.987	324.09267
942.162	275.55393
942.337	302.98769
942.512	345.19943
942.687	321.98209
942.862	290.32557
943.037	250.23327
943.212	281.88452
943.386	296.65654
943.561	273.44377
943.736	256.56318
943.911	239.6838
944.086	366.30793
944.26	231.24458
944.435	286.10501
944.61	176.39736
944.785	298.76691
944.959	157.41499
945.134	290.32557
945.309	210.14789
945.483	288.21528
945.658	243.90353
945.833	258.67319
946.007	281.88452
946.182	256.56318
946.357	227.02509
946.531	191.16258
946.706	208.03833
946.88	281.88452
947.055	189.0532
947.229	279.77431
947.404	281.88452
947.578	340.97794
947.752	195.3814
947.927	243.90353
948.101	290.32557
948.276	231.24458
948.45	214.36707
948.624	326.20327
948.799	290.32557
948.973	305.0981
949.147	273.44377
949.321	345.19943
949.496	267.11341
949.67	347.3102
949.844	292.43587
950.018	321.98209
950.193	298.76691
950.367	353.64262
950.541	191.16258
950.715	256.56318
950.889	248.12334
951.063	404.30748
951.237	290.32557
951.411	368.41887
951.585	248.12334
951.759	258.67319
951.933	385.30703
952.107	319.87153
952.281	258.67319
952.455	378.97385
952.629	315.65046
952.803	307.20854
952.977	239.6838
953.151	353.64262
953.325	277.66411
953.499	302.98769
953.672	315.65046
953.846	349.42099
954.02	267.11341
954.194	309.31899
954.368	340.97794
954.541	366.30793
954.715	231.24458
954.889	395.86267
955.062	383.19595
955.236	400.08505
955.41	305.0981
955.583	315.65046
955.757	296.65654
955.93	442.31232
956.104	290.32557
956.278	311.42946
956.451	227.02509
956.625	243.90353
956.798	343.08867
956.972	355.75346
957.145	248.12334
957.319	355.75346
957.492	326.20327
957.665	408.52999
957.839	300.87729
958.012	300.87729
958.185	319.87153
958.359	334.64583
958.532	298.76691
958.705	368.41887
958.879	378.97385
959.052	334.64583
959.225	313.53995
959.398	332.53516
959.572	336.75651
959.745	452.87013
959.918	332.53516
960.091	376.86282
960.264	239.6838
960.438	387.41813
960.611	246.01343
960.784	357.86432
960.957	311.42946
961.13	383.19595
961.303	271.33363
961.476	332.53516
961.649	258.67319
961.822	302.98769
961.995	294.5462
962.168	378.97385
962.341	338.86722
962.514	326.20327
962.686	309.31899
962.859	288.21528
963.032	302.98769
963.205	326.20327
963.378	267.11341
963.551	216.47669
963.723	222.80567
963.896	235.46415
964.069	246.01343
964.242	184.83451
964.414	246.01343
964.587	222.80567
964.76	298.76691
964.932	250.23327
965.105	328.31388
965.278	336.75651
965.45	273.44377
965.623	340.97794
965.795	248.12334
965.968	292.43587
966.14	281.88452
966.313	307.20854
966.485	277.66411
966.658	324.09267
966.83	229.13482
967.003	218.58633
967.175	248.12334
967.348	252.34322
967.52	260.78321
967.692	208.03833
967.865	319.87153
968.037	250.23327
968.209	224.91537
968.382	269.22351
968.554	180.61589
968.726	309.31899
968.898	212.25747
969.071	288.21528
969.243	212.25747
969.415	214.36707
969.587	205.9288
969.759	248.12334
969.932	167.96055
970.104	243.90353
970.276	176.39736
970.448	220.69599
970.62	104.6952
970.792	273.44377
970.964	201.70978
971.136	235.46415
971.308	256.56318
971.48	153.19692
971.652	146.86997
971.824	184.83451
971.996	227.02509
972.168	214.36707
972.339	146.86997
972.511	151.08791
972.683	146.86997
972.855	108.91229
973.027	134.21663
973.199	96.26129
973.37	140.5432
973.542	113.12946
973.714	174.28813
973.886	172.17891
974.057	129.99903
974.229	220.69599
974.401	119.45538
974.572	184.83451
974.744	70.96171
974.915	104.6952
975.087	231.24458
975.259	174.28813
975.43	210.14789
975.602	148.97893
975.773	165.85139
975.945	155.30595
976.116	172.17891
976.288	159.52406
976.459	125.7815
976.63	233.35436
976.802	191.16258
976.973	191.16258
977.145	233.35436
977.316	258.67319
977.487	146.86997
977.659	189.0532
977.83	100.4782
978.001	151.08791
978.172	100.4782
978.344	127.89025
978.515	113.12946
978.686	92.04447
978.857	58.31314
979.028	146.86997
979.2	155.30595
979.371	113.12946
979.542	123.67278
979.713	54.09713
979.884	174.28813
980.055	20.37242
980.226	129.99903
980.397	96.26129
980.568	113.12946
980.739	148.97893
980.91	70.96171
981.081	87.82774
981.252	79.39455
981.423	138.43433
981.594	163.74226
981.765	68.85356
981.936	111.02086
982.106	134.21663
982.277	11.94218
982.448	100.4782
982.619	104.6952
982.79	104.6952
982.96	64.63732
983.131	75.17808
983.302	73.06989
983.472	87.82774
983.643	129.99903
983.814	113.12946
983.984	111.02086
984.155	123.67278
984.326	132.10782
984.496	83.6111
984.667	92.04447
984.837	47.77329
985.008	104.6952
985.178	136.32547
985.349	83.6111
985.519	102.58669
985.69	79.39455
985.86	73.06989
986.031	165.85139
986.201	81.50281
986.371	45.6654
986.542	20.37242
986.712	73.06989
986.882	96.26129
987.053	28.80304
987.223	125.7815
987.393	64.63732
987.563	81.50281
987.734	100.4782
987.904	104.6952
988.074	3.51233
988.244	66.74543
988.414	43.55752
988.585	83.6111
988.755	70.96171
988.925	197.49084
989.095	136.32547
989.265	-13.34623
989.435	47.77329
989.605	148.97893
989.775	54.09713
989.945	73.06989
990.115	172.17891
990.285	68.85356
990.455	96.26129
990.625	20.37242
990.795	60.42118
990.965	54.09713
991.134	79.39455
991.304	119.45538
991.474	81.50281
991.644	14.04971
991.814	98.36974
991.984	56.20513
992.153	11.94218
992.323	83.6111
992.493	60.42118
992.662	30.91075
992.832	28.80304
993.002	87.82774
993.171	11.94218
993.341	138.43433
993.511	51.98916
993.68	73.06989
993.85	20.37242
994.019	41.44967
994.189	37.23403
994.358	79.39455
994.528	49.88122
994.697	56.20513
994.867	47.77329
995.036	28.80304
995.206	14.04971
995.375	41.44967
995.544	24.58768
995.714	75.17808
995.883	39.34183
996.052	127.89025
996.222	70.96171
996.391	20.37242
996.56	92.04447
996.73	96.26129
996.899	37.23403
997.068	20.37242
997.237	87.82774
997.406	108.91229
997.576	-11.23899
997.745	62.52924
997.914	-13.34623
998.083	64.63732
998.252	45.6654
998.421	18.26482
998.59	47.77329
998.759	22.48004
998.928	79.39455
999.097	70.96171
999.266	115.23808
999.435	87.82774
999.604	121.56407
999.773	77.2863
999.942	56.20513
1000.111	30.91075
1000.28	89.9361
1000.448	66.74543
1000.617	14.04971
1000.786	56.20513
1000.955	-11.23899
1001.124	45.6654
1001.292	49.88122
1001.461	11.94218
1001.63	51.98916
1001.798	28.80304
1001.967	14.04971
1002.136	16.15725
1002.304	-34.41722
1002.473	-13.34623
1002.642	70.96171
1002.81	64.63732
1002.979	-4.91714
1003.147	16.15725
1003.316	47.77329
1003.484	58.31314
1003.653	33.01848
1003.821	3.51233
1003.99	39.34183
1004.158	7.72721
1004.327	94.15287
1004.495	28.80304
1004.663	64.63732
1004.832	22.48004
1005	24.58768
1005.168	58.31314
1005.337	41.44967
1005.505	39.34183
1005.673	77.2863
1005.842	64.63732
1006.01	45.6654
1006.178	11.94218
1006.346	41.44967
1006.514	51.98916
1006.683	28.80304
1006.851	79.39455
1007.019	85.71941
1007.187	45.6654
1007.355	60.42118
1007.523	62.52924
1007.691	79.39455
1007.859	58.31314
1008.027	-47.05863
1008.195	56.20513
1008.363	7.72721
1008.531	28.80304
1008.699	9.83468
1008.867	-13.34623
1009.035	30.91075
1009.203	49.88122
1009.37	7.72721
1009.538	51.98916
1009.706	62.52924
1009.874	-42.84492
1010.042	100.4782
1010.209	20.37242
1010.377	37.23403
1010.545	98.36974
1010.713	-2.80981
1010.88	45.6654
1011.048	20.37242
1011.216	28.80304
1011.383	41.44967
1011.551	24.58768
1011.718	5.61975
1011.886	37.23403
1012.054	7.72721
1012.221	-13.34623
1012.389	66.74543
1012.556	-4.91714
1012.724	41.44967
1012.891	62.52924
1013.058	39.34183
1013.226	3.51233
1013.393	28.80304
1013.561	62.52924
1013.728	28.80304
1013.895	66.74543
1014.063	45.6654
1014.23	51.98916
1014.397	43.55752
1014.565	56.20513
1014.732	3.51233
1014.899	43.55752
1015.066	39.34183
1015.233	96.26129
1015.401	-34.41722
1015.568	39.34183
1015.735	5.61975
1015.902	1.40492
1016.069	3.51233
1016.236	70.96171
1016.403	20.37242
1016.57	45.6654
1016.737	11.94218
1016.904	85.71941
1017.071	33.01848
1017.238	16.15725
1017.405	-15.45344
1017.572	45.6654
1017.739	45.6654
1017.906	-61.80579
1018.073	30.91075
1018.24	5.61975
1018.407	45.6654
1018.573	43.55752
1018.74	-30.20322
1018.907	22.48004
1019.074	49.88122
1019.241	-28.09618
1019.407	28.80304
1019.574	-17.56062
1019.741	24.58768
1019.907	79.39455
1020.074	-34.41722
1020.241	-19.66778
1020.407	73.06989
1020.574	43.55752
1020.74	3.51233
1020.907	47.77329
1021.073	33.01848
1021.24	3.51233
1021.406	-9.13173
1021.573	62.52924
1021.739	66.74543
1021.906	-0.70246
1022.072	22.48004
1022.239	62.52924
1022.405	54.09713
1022.571	70.96171
1022.738	45.6654
1022.904	-49.16544
1023.07	64.63732
1023.237	16.15725
1023.403	64.63732
1023.569	28.80304
1023.735	7.72721
1023.902	7.72721
1024.068	45.6654
1024.234	49.88122
1024.4	79.39455
1024.566	-13.34623
1024.732	87.82774
1024.898	-13.34623
1025.065	-30.20322
1025.231	106.80373
1025.397	45.6654
1025.563	39.34183
1025.729	11.94218
1025.895	-53.37899
1026.061	47.77329
1026.227	28.80304
1026.392	92.04447
1026.558	-2.80981
1026.724	-21.77492
1026.89	54.09713
1027.056	37.23403
1027.222	-0.70246
1027.388	-30.20322
1027.553	-0.70246
1027.719	37.23403
1027.885	-34.41722
1028.051	45.6654
1028.216	49.88122
1028.382	41.44967
1028.548	16.15725
1028.713	79.39455
1028.879	41.44967
1029.045	47.77329
1029.21	41.44967
1029.376	79.39455
1029.541	-0.70246
1029.707	30.91075
1029.873	28.80304
1030.038	-21.77492
1030.204	113.12946
1030.369	24.58768
1030.534	104.6952
1030.7	24.58768
1030.865	81.50281
1031.031	41.44967
1031.196	41.44967
1031.361	11.94218
1031.527	28.80304
1031.692	11.94218
1031.857	-9.13173
1032.023	-11.23899
1032.188	-17.56062
1032.353	62.52924
1032.518	-47.05863
1032.684	-44.95179
1032.849	89.9361
1033.014	77.2863
1033.179	24.58768
1033.344	-13.34623
1033.509	37.23403
1033.674	3.51233
1033.839	3.51233
1034.004	-21.77492
1034.17	45.6654
1034.335	45.6654
1034.5	33.01848
1034.664	49.88122
1034.829	-2.80981
1034.994	-25.98912
1035.159	-13.34623
1035.324	64.63732
1035.489	-19.66778
1035.654	-13.34623
1035.819	-11.23899
1035.984	66.74543
1036.148	-2.80981
1036.313	7.72721
1036.478	41.44967
1036.643	62.52924
1036.807	-19.66778
1036.972	18.26482
1037.137	-21.77492
1037.301	70.96171
1037.466	-13.34623
1037.631	22.48004
1037.795	28.80304
1037.96	49.88122
1038.124	14.04971
1038.289	-47.05863
1038.454	-42.84492
1038.618	24.58768
1038.783	47.77329
1038.947	37.23403
1039.111	-21.77492
1039.276	7.72721
1039.44	-4.91714
1039.605	47.77329
1039.769	16.15725
1039.933	37.23403
1040.098	37.23403
1040.262	62.52924
1040.426	-2.80981
1040.591	35.12624
1040.755	45.6654
1040.919	24.58768
1041.083	-4.91714
1041.248	14.04971
1041.412	24.58768
1041.576	41.44967
1041.74	9.83468
1041.904	73.06989
1042.068	41.44967
1042.232	26.69535
1042.397	-17.56062
1042.561	33.01848
1042.725	-30.20322
1042.889	-68.12563
1043.053	-0.70246
1043.217	20.37242
1043.381	37.23403
1043.544	14.04971
1043.708	33.01848
1043.872	-0.70246
1044.036	37.23403
1044.2	45.6654
1044.364	89.9361
1044.528	70.96171
1044.691	-15.45344
1044.855	92.04447
1045.019	24.58768
1045.183	11.94218
1045.346	33.01848
1045.51	-30.20322
1045.674	-2.80981
1045.837	49.88122
1046.001	73.06989
1046.165	66.74543
1046.328	30.91075
1046.492	-19.66778
1046.655	35.12624
1046.819	16.15725
1046.983	11.94218
1047.146	47.77329
1047.31	-13.34623
1047.473	20.37242
1047.636	7.72721
1047.8	66.74543
1047.963	70.96171
1048.127	-30.20322
1048.29	-19.66778
