Data from absorb_only_2.23.25_USB4F045381__24__0129.txt Node

Date: Sun Feb 23 19:16:22 EST 2025
User: ssocol
Spectrometer: USB4F04538
Trigger mode: 4
Integration Time (sec): 2.600000E-3
Scans to average: 1
Electric dark correction enabled: true
Nonlinearity correction enabled: true
Boxcar width: 0
XAxis mode: Wavelengths
Number of Pixels in Spectrum: 3648
>>>>>Begin Spectral Data<<<<<
345.52	-40.73804
345.736	-40.73804
345.952	-40.73804
346.168	3.51233
346.384	-32.31023
346.6	-55.48573
346.816	-40.73804
347.032	-11.23899
347.248	60.42118
347.464	18.26482
347.68	-2.80981
347.896	-49.16544
348.112	9.83468
348.328	3.51233
348.544	22.48004
348.76	68.85356
348.975	-23.88203
349.191	-78.65817
349.407	-74.44523
349.623	-9.13173
349.839	-15.45344
350.055	-38.63112
350.27	3.51233
350.486	1.40492
350.702	-74.44523
350.918	-44.95179
351.133	14.04971
351.349	-13.34623
351.565	-80.7646
351.781	-23.88203
351.996	30.91075
352.212	-28.09618
352.428	-40.73804
352.644	39.34183
352.859	35.12624
353.075	9.83468
353.291	-17.56062
353.506	1.40492
353.722	-49.16544
353.938	33.01848
354.153	-36.52418
354.369	-152.36765
354.584	-9.13173
354.8	11.94218
355.016	-23.88203
355.231	5.61975
355.447	18.26482
355.662	-0.70246
355.878	-7.02445
356.093	-116.56997
356.309	94.15287
356.524	-13.34623
356.74	28.80304
356.955	20.37242
357.171	-15.45344
357.386	11.94218
357.602	18.26482
357.817	14.04971
358.033	-2.80981
358.248	9.83468
358.464	43.55752
358.679	56.20513
358.895	-13.34623
359.11	18.26482
359.325	3.51233
359.541	30.91075
359.756	24.58768
359.972	1.40492
360.187	41.44967
360.402	35.12624
360.618	-19.66778
360.833	18.26482
361.048	45.6654
361.264	-36.52418
361.479	18.26482
361.694	-0.70246
361.909	-32.31023
362.125	26.69535
362.34	1.40492
362.555	-2.80981
362.77	20.37242
362.986	-28.09618
363.201	-19.66778
363.416	28.80304
363.631	5.61975
363.847	-2.80981
364.062	5.61975
364.277	-28.09618
364.492	-15.45344
364.707	18.26482
364.922	14.04971
365.138	14.04971
365.353	1.40492
365.568	30.91075
365.783	5.61975
365.998	-21.77492
366.213	39.34183
366.428	-53.37899
366.643	-21.77492
366.858	-11.23899
367.073	1.40492
367.288	1.40492
367.503	39.34183
367.718	28.80304
367.933	16.15725
368.148	-28.09618
368.363	-40.73804
368.578	39.34183
368.793	-2.80981
369.008	-66.01904
369.223	-32.31023
369.438	-19.66778
369.653	77.2863
369.868	-13.34623
370.083	39.34183
370.298	-9.13173
370.513	51.98916
370.728	-74.44523
370.943	-15.45344
371.157	37.23403
371.372	-55.48573
371.587	79.39455
371.802	43.55752
372.017	-19.66778
372.232	37.23403
372.446	-70.23219
372.661	-7.02445
372.876	-55.48573
373.091	18.26482
373.306	5.61975
373.52	-25.98912
373.735	35.12624
373.95	1.40492
374.165	26.69535
374.379	1.40492
374.594	-49.16544
374.809	-21.77492
375.023	35.12624
375.238	-7.02445
375.453	18.26482
375.667	-32.31023
375.882	24.58768
376.097	-11.23899
376.311	-55.48573
376.526	-21.77492
376.741	-15.45344
376.955	-17.56062
377.17	1.40492
377.384	49.88122
377.599	-0.70246
377.813	-30.20322
378.028	39.34183
378.242	-32.31023
378.457	-66.01904
378.672	18.26482
378.886	39.34183
379.101	20.37242
379.315	20.37242
379.53	14.04971
379.744	-40.73804
379.958	-25.98912
380.173	-0.70246
380.387	43.55752
380.602	-55.48573
380.816	-23.88203
381.031	26.69535
381.245	30.91075
381.459	26.69535
381.674	-13.34623
381.888	-17.56062
382.103	-7.02445
382.317	26.69535
382.531	39.34183
382.746	-66.01904
382.96	56.20513
383.174	35.12624
383.388	-30.20322
383.603	22.48004
383.817	26.69535
384.031	54.09713
384.246	-36.52418
384.46	-42.84492
384.674	20.37242
384.888	26.69535
385.103	16.15725
385.317	-7.02445
385.531	-32.31023
385.745	30.91075
385.959	-2.80981
386.174	20.37242
386.388	68.85356
386.602	24.58768
386.816	28.80304
387.03	5.61975
387.244	-53.37899
387.458	-66.01904
387.672	37.23403
387.887	-63.91243
388.101	3.51233
388.315	60.42118
388.529	22.48004
388.743	-9.13173
388.957	3.51233
389.171	-38.63112
389.385	-19.66778
389.599	-2.80981
389.813	-30.20322
390.027	-23.88203
390.241	51.98916
390.455	-11.23899
390.669	62.52924
390.883	35.12624
391.097	30.91075
391.311	-4.91714
391.525	5.61975
391.738	100.4782
391.952	26.69535
392.166	-13.34623
392.38	-23.88203
392.594	49.88122
392.808	45.6654
393.022	22.48004
393.236	3.51233
393.449	14.04971
393.663	28.80304
393.877	1.40492
394.091	24.58768
394.305	-15.45344
394.518	68.85356
394.732	-23.88203
394.946	22.48004
395.16	-4.91714
395.373	81.50281
395.587	24.58768
395.801	-32.31023
396.015	-0.70246
396.228	9.83468
396.442	45.6654
396.656	73.06989
396.869	-23.88203
397.083	9.83468
397.297	-23.88203
397.51	-2.80981
397.724	22.48004
397.938	77.2863
398.151	1.40492
398.365	26.69535
398.578	49.88122
398.792	43.55752
399.005	68.85356
399.219	5.61975
399.433	22.48004
399.646	26.69535
399.86	39.34183
400.073	3.51233
400.287	-0.70246
400.5	54.09713
400.714	-15.45344
400.927	1.40492
401.141	9.83468
401.354	79.39455
401.567	14.04971
401.781	68.85356
401.994	-28.09618
402.208	14.04971
402.421	9.83468
402.635	14.04971
402.848	-4.91714
403.061	-13.34623
403.275	18.26482
403.488	70.96171
403.701	68.85356
403.915	-19.66778
404.128	20.37242
404.341	56.20513
404.555	-4.91714
404.768	28.80304
404.981	37.23403
405.195	28.80304
405.408	60.42118
405.621	73.06989
405.834	-44.95179
406.048	28.80304
406.261	-44.95179
406.474	102.58669
406.687	-15.45344
406.9	-15.45344
407.114	14.04971
407.327	3.51233
407.54	73.06989
407.753	79.39455
407.966	54.09713
408.179	60.42118
408.392	-7.02445
408.605	98.36974
408.819	-7.02445
409.032	24.58768
409.245	-19.66778
409.458	43.55752
409.671	-7.02445
409.884	43.55752
410.097	28.80304
410.31	11.94218
410.523	18.26482
410.736	33.01848
410.949	51.98916
411.162	51.98916
411.375	18.26482
411.588	68.85356
411.801	16.15725
412.014	73.06989
412.227	30.91075
412.44	26.69535
412.653	-19.66778
412.865	3.51233
413.078	11.94218
413.291	26.69535
413.504	-7.02445
413.717	51.98916
413.93	-15.45344
414.143	14.04971
414.356	-34.41722
414.568	39.34183
414.781	83.6111
414.994	26.69535
415.207	1.40492
415.42	87.82774
415.632	64.63732
415.845	1.40492
416.058	35.12624
416.271	-57.59244
416.483	70.96171
416.696	47.77329
416.909	22.48004
417.121	-2.80981
417.334	37.23403
417.547	70.96171
417.759	11.94218
417.972	64.63732
418.185	96.26129
418.397	-36.52418
418.61	-2.80981
418.823	45.6654
419.035	-11.23899
419.248	45.6654
419.46	77.2863
419.673	37.23403
419.885	92.04447
420.098	-23.88203
420.311	39.34183
420.523	60.42118
420.736	1.40492
420.948	111.02086
421.161	60.42118
421.373	11.94218
421.586	-7.02445
421.798	7.72721
422.01	45.6654
422.223	77.2863
422.435	26.69535
422.648	-4.91714
422.86	85.71941
423.073	7.72721
423.285	62.52924
423.497	-13.34623
423.71	33.01848
423.922	37.23403
424.134	94.15287
424.347	102.58669
424.559	96.26129
424.771	83.6111
424.984	5.61975
425.196	62.52924
425.408	54.09713
425.621	11.94218
425.833	30.91075
426.045	115.23808
426.257	70.96171
426.47	-7.02445
426.682	37.23403
426.894	-7.02445
427.106	18.26482
427.318	89.9361
427.531	-23.88203
427.743	26.69535
427.955	54.09713
428.167	22.48004
428.379	119.45538
428.591	129.99903
428.804	35.12624
429.016	26.69535
429.228	28.80304
429.44	11.94218
429.652	18.26482
429.864	-2.80981
430.076	77.2863
430.288	94.15287
430.5	138.43433
430.712	77.2863
430.924	37.23403
431.136	64.63732
431.348	45.6654
431.56	68.85356
431.772	37.23403
431.984	51.98916
432.196	85.71941
432.408	79.39455
432.62	43.55752
432.832	51.98916
433.044	68.85356
433.256	94.15287
433.468	119.45538
433.679	129.99903
433.891	129.99903
434.103	22.48004
434.315	56.20513
434.527	37.23403
434.739	113.12946
434.95	115.23808
435.162	121.56407
435.374	111.02086
435.586	144.76102
435.798	83.6111
436.009	85.71941
436.221	138.43433
436.433	22.48004
436.645	151.08791
436.856	47.77329
437.068	68.85356
437.28	51.98916
437.491	102.58669
437.703	129.99903
437.915	98.36974
438.126	170.06972
438.338	89.9361
438.55	178.50662
438.761	94.15287
438.973	161.63315
439.184	96.26129
439.396	104.6952
439.608	81.50281
439.819	178.50662
440.031	121.56407
440.242	89.9361
440.454	138.43433
440.665	81.50281
440.877	153.19692
441.088	96.26129
441.3	87.82774
441.511	161.63315
441.723	148.97893
441.934	73.06989
442.146	92.04447
442.357	195.3814
442.569	89.9361
442.78	161.63315
442.991	157.41499
443.203	123.67278
443.414	153.19692
443.626	115.23808
443.837	220.69599
444.048	161.63315
444.26	111.02086
444.471	148.97893
444.682	106.80373
444.894	184.83451
445.105	138.43433
445.316	172.17891
445.528	146.86997
445.739	212.25747
445.95	178.50662
446.161	178.50662
446.373	186.94385
446.584	163.74226
446.795	220.69599
447.006	148.97893
447.217	127.89025
447.429	125.7815
447.64	178.50662
447.851	170.06972
448.062	212.25747
448.273	186.94385
448.484	231.24458
448.695	193.27198
448.907	134.21663
449.118	203.81928
449.329	161.63315
449.54	195.3814
449.751	132.10782
449.962	174.28813
450.173	161.63315
450.384	231.24458
450.595	170.06972
450.806	246.01343
451.017	167.96055
451.228	197.49084
451.439	286.10501
451.65	254.45319
451.861	186.94385
452.072	294.5462
452.283	195.3814
452.494	214.36707
452.705	161.63315
452.915	296.65654
453.126	296.65654
453.337	199.6003
453.548	283.99475
453.759	313.53995
453.97	294.5462
454.181	313.53995
454.391	248.12334
454.602	332.53516
454.813	305.0981
455.024	298.76691
455.235	281.88452
455.445	271.33363
455.656	425.42065
455.867	313.53995
456.078	300.87729
456.288	271.33363
456.499	326.20327
456.71	296.65654
456.921	313.53995
457.131	406.41873
457.342	343.08867
457.553	431.75491
457.763	372.64081
457.974	423.30926
458.184	364.197
458.395	406.41873
458.606	406.41873
458.816	414.86386
459.027	609.16823
459.237	433.86636
459.448	533.12172
459.659	518.33696
459.869	509.88883
460.08	495.10517
460.29	550.01944
460.501	661.98807
460.711	573.25523
460.922	463.42832
461.132	636.6336
461.343	678.89201
461.553	600.71778
461.764	602.83037
461.974	497.21707
462.184	562.6933
462.395	583.81748
462.605	735.9481
462.816	632.40802
463.026	763.42234
463.236	729.60814
463.447	714.81528
463.657	729.60814
463.867	809.92106
464.078	778.21687
464.288	816.26215
464.498	881.79147
464.709	907.15983
464.919	750.74171
465.129	976.92843
465.339	921.95856
465.55	960.01411
465.76	905.04575
465.97	873.33561
466.18	905.04575
466.391	1101.68373
466.601	976.92843
466.811	1040.36082
467.021	1034.01733
467.231	1165.12552
467.441	1082.65201
467.651	1171.4699
467.862	1311.05372
468.072	1277.21415
468.282	1330.0887
468.492	1323.74369
468.702	1480.25652
468.912	1531.01755
469.122	1463.33611
469.332	1471.79631
469.542	1456.99095
469.752	1746.74107
469.962	1674.83611
470.172	1670.6063
470.382	1676.95101
470.592	1863.0486
470.802	1761.54455
471.012	1886.30843
471.222	2144.23174
471.432	1888.42293
471.642	1911.68206
471.852	2150.57279
472.062	2027.96713
472.272	2313.3
472.482	2207.63888
472.691	2579.45414
472.901	2161.14104
473.111	2410.48708
473.321	2435.83666
473.531	2636.46369
473.741	2389.36128
473.95	2676.57611
474.16	2372.4599
474.37	2761.00812
474.58	2908.71182
474.79	3077.42861
474.999	2839.08862
475.209	3012.06237
475.419	2767.33966
475.628	3332.41977
475.838	2959.33696
476.048	3182.82608
476.258	3161.7498
476.467	3469.2955
476.677	3515.60557
476.886	3608.19903
477.096	3456.66396
477.306	3620.82262
477.515	3709.16864
477.725	3629.23797
477.935	3618.71874
478.144	3927.78266
478.354	3650.27502
478.563	3936.1866
478.773	4087.40155
478.982	4148.27728
479.192	4070.60516
479.401	4209.13533
479.611	4314.021
479.82	4297.24289
480.03	4330.79773
480.239	4567.61991
480.449	4423.04493
480.658	4866.90753
480.868	4825.07697
481.077	4858.54215
481.287	4743.4812
481.496	4958.90255
481.705	4996.52405
481.915	5126.05193
482.124	5109.34366
482.333	5290.96606
482.543	5161.55206
482.752	5238.7938
482.961	5359.81106
483.171	5524.51795
483.38	5393.18126
483.589	5464.07297
483.799	5739.04161
484.008	5969.94706
484.217	5797.31545
484.426	6011.52075
484.636	6017.75599
484.845	6183.95095
485.054	6044.77292
485.263	6237.93195
485.472	6136.18531
485.682	6123.72267
485.891	6159.0313
486.1	6161.10807
486.309	6517.96392
486.518	6578.06365
486.727	6660.92795
486.936	6563.5586
487.146	6395.63183
487.355	6847.23833
487.564	6723.05201
487.773	6992.01892
487.982	6613.28548
488.191	7099.49873
488.4	6929.98367
488.609	7264.73456
488.818	7211.04847
489.027	7246.1526
489.236	7532.9431
489.445	7541.18986
489.654	7398.88479
489.863	7730.77134
490.072	7419.5151
490.281	7464.89414
490.49	7685.45297
490.698	8014.81112
490.907	7837.84714
491.116	7916.05928
491.325	7848.13991
491.534	7977.7847
491.743	8037.43514
491.952	8300.5179
492.16	8119.68365
492.369	8253.26919
492.578	8259.43266
492.787	8376.505
492.996	8454.5182
493.204	8358.0241
493.413	8460.67596
493.622	8715.04771
493.831	8594.05197
494.039	8503.77543
494.248	8592.00064
494.457	8799.0917
494.665	8842.12678
494.874	8919.97961
495.083	9143.15294
495.291	8979.37631
495.5	8979.37631
495.709	9194.31053
495.917	8883.10517
496.126	9308.86523
496.335	9188.17218
496.543	9454.02956
496.752	9317.04571
496.96	9523.51593
497.169	9359.98886
497.377	9607.28387
497.586	9621.58307
497.794	9768.61662
498.003	9617.49767
498.211	10003.30024
498.42	9707.36232
498.628	9909.45015
498.837	9931.89536
499.045	9993.10062
499.254	9887.00317
499.462	10115.47245
499.671	10148.09636
499.879	10331.5404
500.087	10266.32844
500.296	10337.65332
500.504	10174.60067
500.713	10445.62872
500.921	10390.62698
501.129	10305.0497
501.338	10410.9991
501.546	10816.14202
501.754	10561.71273
501.962	10649.25785
502.171	10726.60444
502.379	10795.79458
502.587	10463.96053
502.795	10881.246
503.004	10586.14623
503.212	11052.08851
503.42	10812.07263
503.628	10946.33821
503.837	10877.17735
504.045	11137.48057
504.253	10938.20232
504.461	11511.36389
504.669	10946.33821
504.877	11188.30022
505.085	11245.21045
505.294	11448.39622
505.502	11157.80923
505.71	11476.83437
505.918	11172.03865
506.126	11417.92468
506.334	11165.94039
506.542	11401.67229
506.75	11275.69473
506.958	11600.72177
507.166	11572.29167
507.374	11616.96673
507.582	11525.58112
507.79	11797.65326
507.998	11596.66044
508.206	11645.39401
508.414	11805.77237
508.622	11935.65991
508.83	11815.92107
509.037	12142.59993
509.245	11661.63737
509.453	12124.34375
509.661	12124.34375
509.869	12150.71359
510.077	12059.42791
510.285	12140.57149
510.492	12351.4895
510.7	12394.06945
510.908	12160.85549
511.116	12400.15206
511.324	12383.93164
511.531	12728.52692
511.739	12527.87303
511.947	12201.42126
512.155	12089.85819
512.362	12426.50932
512.57	12582.60277
512.778	12592.7374
512.985	12529.90014
513.193	12507.60159
513.401	12639.35475
513.608	12756.89751
513.816	12937.22788
514.024	12809.58279
514.231	12854.1597
514.439	13068.90358
514.646	12799.4513
514.854	12809.58279
515.061	12643.40828
515.269	12908.86414
515.477	12973.69406
515.684	13182.33079
515.892	13133.72092
516.099	13139.7973
516.307	13139.7973
516.514	13431.41698
516.722	13520.50623
516.929	13279.54277
517.136	13230.93805
517.344	13536.7035
517.551	13494.18516
517.759	13666.27361
517.966	13583.26939
518.173	13407.11863
518.381	13421.29274
518.588	13850.4833
518.796	13579.22026
519.003	13892.98977
519.21	13623.75996
519.418	13866.67639
519.625	13836.3142
519.832	14115.62415
520.039	13980.02314
520.247	13990.14299
520.454	14109.55268
520.661	14158.12386
520.868	13947.6392
521.076	14178.36149
521.283	14192.52771
521.49	14322.04305
521.697	14295.73586
521.904	14748.99513
522.112	14198.59892
522.319	14457.62186
522.526	14303.83041
522.733	14522.37358
522.94	14218.83615
523.147	14718.64475
523.354	14585.10055
523.561	14951.327
523.768	14522.37358
523.975	14829.92863
524.183	14647.82641
524.39	15111.1661
524.597	14904.79118
524.804	15060.58427
525.011	15056.53771
525.218	15034.28167
525.425	14973.58319
525.632	14848.13851
525.838	15165.79442
526.045	15040.3515
526.252	15127.35227
526.459	15012.02559
526.666	15186.02712
526.873	15165.79442
527.08	14999.8859
527.287	15471.31042
527.494	15325.6331
527.701	15503.6835
527.907	15388.35502
528.114	15697.92575
528.321	15523.91676
528.528	15793.02646
528.735	15744.46412
528.941	15570.45349
529.148	15479.40368
529.355	15902.2941
529.562	15641.271
529.768	16141.07752
529.975	15780.88582
530.182	16058.1081
530.388	15584.61692
530.595	15677.69183
530.802	15643.29437
531.008	16266.54868
531.215	16104.6516
531.422	16143.1012
531.628	16456.79248
531.835	16422.38542
532.042	16092.50974
532.248	16381.90725
532.455	16353.573
532.661	16422.38542
532.868	16454.76852
533.074	16632.88522
533.281	16586.33037
533.487	16691.58653
533.694	16612.64384
533.9	16900.09367
534.107	16479.05619
534.313	16934.51004
534.52	16784.70301
534.726	17005.36964
534.933	16622.7645
535.139	17064.08438
535.345	17021.56658
535.552	17058.01034
535.758	17329.34263
535.965	17015.49271
536.171	17136.97487
536.377	16995.24664
536.584	17153.17326
536.79	17418.44839
536.996	17388.07076
537.203	17327.31757
537.409	17381.99532
537.615	17444.77624
537.821	17375.9199
538.028	17785.06179
538.234	17321.2424
538.44	17673.64859
538.646	17515.66152
538.853	17396.1714
539.059	17570.34712
539.265	17564.27083
539.471	17625.03507
539.677	17602.75451
539.883	17874.19975
540.09	17849.88873
540.296	17762.77834
540.502	17961.31832
540.708	18062.62719
540.914	18222.71358
541.12	18255.13893
541.326	18563.22776
541.532	17906.6152
541.738	18397.01106
541.944	18394.98418
542.15	18569.30935
542.356	18439.5763
542.562	18486.1973
542.768	18340.26
542.974	18322.01921
543.18	18259.19216
543.386	18680.81136
543.592	18865.32263
543.798	18757.85603
544.004	18407.14549
544.21	18818.68481
544.415	18816.65713
544.621	18840.98959
544.827	19143.16591
545.033	19126.93939
545.239	18909.9347
545.445	19408.91252
545.651	18984.96847
545.856	19301.3882
546.062	19171.56294
546.268	19388.62402
546.474	19045.81071
546.679	18960.63258
546.885	18772.04909
547.091	18991.05253
547.297	18711.22305
547.502	19437.31711
547.708	19272.98749
547.914	19122.8828
548.119	19193.87546
548.325	19066.09227
548.531	19169.53456
548.736	19137.08093
548.942	19175.61973
549.147	19315.58886
549.353	19408.91252
549.559	19414.99915
549.764	19191.84703
549.97	19260.816
550.175	19228.35942
550.381	19678.78908
550.586	19658.49504
550.792	20031.97249
550.997	19688.93626
551.203	20170.03278
551.408	19914.23056
551.614	20174.09367
551.819	19983.24997
552.025	20143.6374
552.23	20255.31503
552.435	20413.716
552.641	20480.73948
552.846	20348.7279
553.052	20267.49881
553.257	20482.77057
553.462	20194.39838
553.668	20354.82035
553.873	20561.98617
554.078	20490.89495
554.283	20237.03963
554.489	20590.42409
554.694	20586.36148
554.899	20645.27097
555.105	20616.83147
555.31	20956.12709
555.515	20590.42409
555.72	20781.38557
555.925	20848.43393
556.131	21230.49184
556.336	21128.8666
556.541	21236.58968
556.746	20901.26309
556.951	20952.06298
557.156	20817.95685
557.361	20817.95685
557.567	20824.05219
557.772	20897.19921
557.977	20935.80674
558.182	21271.14478
558.387	21055.70273
558.592	21206.10086
558.797	21098.38101
559.002	20915.4868
559.207	21029.28374
559.412	21017.0906
559.617	21197.97066
559.822	21153.25573
560.027	21376.84995
560.232	21541.52762
560.437	21216.2637
560.642	21299.60279
560.847	21651.32718
561.051	21572.02635
561.256	21399.21205
561.461	21470.3674
561.666	21315.86487
561.871	21582.19279
562.076	21454.10289
562.281	21382.94865
562.485	21167.483
562.69	21602.52596
562.895	21328.06159
563.1	21669.62822
563.305	21545.59407
563.509	21864.85895
563.714	21785.54216
563.919	21630.99307
564.123	21641.16008
564.328	22021.4759
564.533	21934.01169
564.737	21389.0474
564.942	21549.66053
565.147	22137.42759
565.351	22066.22773
565.556	21917.74006
565.761	21917.74006
565.965	21956.38559
566.17	22145.56501
566.374	22322.56857
566.579	22092.67286
566.784	22084.53583
566.988	22253.39143
567.193	22019.44176
567.397	22287.97947
567.602	22454.83072
567.806	22294.08335
568.011	22595.24873
568.215	22355.12398
568.42	22365.29773
568.624	22369.36726
568.828	22357.15872
569.033	22438.55147
569.237	22469.07525
569.442	22678.69352
569.646	22503.66983
569.85	22568.79186
570.055	22652.23477
570.259	22186.253
570.463	22475.1801
570.668	22479.25002
570.872	22621.70619
571.076	22872.0637
571.281	22843.56509
571.485	23110.25653
571.689	22965.70669
571.893	23041.03338
572.098	23240.5692
572.302	22931.09866
572.506	22977.92152
572.71	22774.35698
572.914	23205.95359
573.119	22870.02807
573.323	22827.28047
573.527	22725.50659
573.731	22894.45594
573.935	23132.65306
574.139	23189.66422
574.343	22904.63436
574.547	23216.13456
574.751	23232.42426
574.955	23576.59179
575.159	23279.25832
575.364	23389.22319
575.568	23342.38517
575.772	23486.97745
575.976	23531.78388
576.18	23155.05
576.383	23592.88594
576.587	23472.72117
576.791	23157.0861
576.995	23491.0507
577.199	23252.78669
577.403	23393.29614
577.607	23519.56379
577.811	23574.55503
578.015	23073.6085
578.219	23647.88014
578.422	23855.65564
578.626	23845.46985
578.83	23346.45798
579.034	23808.80163
579.238	23790.46787
579.442	23924.9209
579.645	23865.8415
579.849	24045.12433
580.053	24130.69882
580.257	23878.06462
580.46	24069.57369
580.664	24314.08898
580.868	23749.72703
581.071	24106.24847
581.275	24016.60059
581.479	24057.34896
581.682	24116.43607
581.886	24122.54866
582.09	24173.4879
582.293	24701.31555
582.497	24263.14508
582.7	24442.47492
582.904	24874.57751
583.107	24452.66472
583.311	24627.9393
583.515	24556.60437
583.718	24409.86798
583.922	24446.55083
584.125	24332.42919
584.329	24413.94381
584.532	24562.71867
584.735	24866.42362
584.939	25109.01767
585.142	24801.19386
585.346	24819.53948
585.549	24760.4265
585.753	24721.69841
585.956	24964.27277
586.159	24721.69841
586.363	25225.22948
586.566	24964.27277
586.769	25147.75415
586.973	24846.03906
587.176	24915.34752
587.379	24786.92518
587.582	25092.70782
587.786	24996.89034
587.989	25088.63038
588.192	25388.34562
588.395	25394.46274
588.599	25335.33138
588.802	25606.53424
589.005	25003.0062
589.208	25200.76325
589.411	25341.44834
589.615	25386.30658
589.818	25162.02568
590.021	25188.53025
590.224	25582.06334
590.427	25883.89064
590.63	25622.84833
590.833	25826.78498
591.036	25610.61275
591.239	25808.4299
591.442	25529.04403
591.645	25857.37712
591.848	26004.22514
592.051	25834.94284
592.254	25333.2924
592.457	25420.97047
592.66	25335.33138
592.863	25898.16729
593.066	25920.60219
593.269	26161.28122
593.472	25871.65359
593.675	26104.16871
593.878	25777.83844
594.081	25810.46935
594.284	25949.15603
594.486	26340.78635
594.689	26459.10355
594.892	26395.86437
595.095	26289.78925
595.298	26085.81141
595.5	26167.40049
595.703	26467.26356
595.906	25961.39349
596.109	26055.21623
596.311	26183.71864
596.514	26410.14405
596.717	26485.62367
596.92	26656.99079
597.122	26395.86437
597.325	26667.19156
597.528	26846.73116
597.73	27460.92012
597.933	26404.02418
598.136	26920.18243
598.338	26805.9257
598.541	27118.1019
598.743	27173.19519
598.946	26699.83426
599.148	27069.13093
599.351	26995.67595
599.554	27162.99265
599.756	27124.22333
599.959	27118.1019
600.161	26605.98753
600.363	26971.19135
600.566	27073.21181
600.768	27224.20835
600.971	27211.96512
601.173	27114.02096
601.376	27077.2927
601.578	26840.6103
601.78	27014.03952
601.983	26652.91049
602.185	27254.81665
602.388	26820.20754
602.59	27093.61632
602.792	27130.34477
602.995	26936.50519
603.197	26761.04037
603.399	27240.53274
603.601	26928.3438
603.804	27060.96917
604.006	26938.54554
604.208	26840.6103
604.41	26683.51286
604.613	27232.37054
604.815	27124.22333
605.017	27544.58957
605.219	27165.03316
605.421	26926.30346
605.623	27473.1643
605.826	27981.33611
606.028	27265.01948
606.23	27293.58759
606.432	27420.10652
606.634	27887.45149
606.836	27401.74056
607.038	27728.26142
607.24	27469.0829
607.442	28042.56651
607.644	27734.38398
607.846	27732.34313
608.048	27277.26293
608.25	27540.50808
608.452	27450.71667
608.654	27869.08304
608.856	27148.70916
609.058	27397.65925
609.26	27248.69497
609.462	27381.33406
609.664	27216.04619
609.866	27187.47879
610.067	27250.73553
610.269	27573.1601
610.471	27179.31672
610.673	27813.97827
610.875	27687.44461
611.077	27746.62914
611.278	27648.66908
611.48	27389.49665
611.682	27589.48622
611.884	28187.48247
612.085	27434.39122
612.287	28271.16886
612.489	27548.67106
612.69	27752.75174
612.892	27518.06
613.094	28193.6058
613.295	27438.47258
613.497	27901.73812
613.699	27707.85296
613.9	27816.01917
614.102	27779.2831
614.304	27940.51641
614.505	27877.24679
614.707	28052.77168
614.908	27793.56931
615.11	27701.73044
615.311	27756.83347
615.513	28120.12647
615.714	27836.42826
615.916	27975.21313
616.117	27713.97548
616.319	27860.91932
616.52	27871.12398
616.722	28130.33185
616.923	28099.7158
617.124	27787.44664
617.326	27220.12727
617.527	27732.34313
617.729	27689.48544
617.93	27785.40575
618.131	27887.45149
618.333	27981.33611
618.534	28062.97687
618.735	27540.50808
618.937	27493.57136
619.138	27807.85557
619.339	27750.71087
619.54	28028.27933
619.742	28107.88005
619.943	27287.46583
620.144	27779.2831
620.345	28201.77026
620.546	27918.06578
620.748	28209.93474
620.949	28085.42839
621.15	28152.78377
621.351	27867.04211
621.552	28062.97687
621.753	27905.82003
621.954	28224.22261
622.155	27760.91521
622.356	28109.92112
622.558	28218.09923
622.759	28067.05896
622.96	27477.2457
623.161	27456.83874
623.362	27532.34513
623.563	27630.30188
623.764	27550.7118
623.965	27597.64932
624.166	27971.13115
624.366	27918.06578
624.567	28530.4041
624.768	28440.58837
624.969	27687.44461
625.17	28126.24969
625.371	28020.11525
625.572	28236.4694
625.773	27999.70513
625.973	28467.12462
626.174	28610.01522
626.375	27918.06578
626.576	27993.58211
626.777	28369.1455
626.977	27920.10674
627.178	28379.35155
627.379	28363.02189
627.58	28248.71624
627.78	28344.65111
627.981	27999.70513
628.182	28595.72593
628.382	28365.06309
628.583	28085.42839
628.784	28409.96984
628.984	27411.94386
629.185	27722.13887
629.386	27909.90194
629.586	28430.38216
629.787	28091.55156
629.987	28028.27933
630.188	28234.42827
630.388	28377.31033
630.589	27571.11934
630.79	28189.52358
630.99	28103.79792
631.191	28328.3216
631.391	28522.23895
631.591	28079.30524
631.792	27783.36487
631.992	28046.64858
632.193	28013.9922
632.393	28283.41581
632.594	28016.03322
632.794	28056.85375
632.994	28830.48511
633.195	28579.39537
633.395	27928.27059
633.595	28224.22261
633.796	28705.95895
633.996	28971.34723
634.196	28810.07072
634.397	28885.60448
634.597	28509.99126
634.797	28693.71069
634.997	28542.65186
635.198	28805.98786
635.398	28367.1043
635.598	28738.62118
635.798	28244.63395
635.998	28399.76371
636.199	28501.82615
636.399	28540.61057
636.599	28630.42859
636.799	28391.59883
636.999	28189.52358
637.199	27950.7213
637.399	28052.77168
637.599	28324.23923
637.799	28042.56651
637.999	28238.51054
638.199	28393.64005
638.399	28056.85375
638.599	28340.56873
638.799	28577.35406
638.999	28140.53725
639.199	28044.60754
639.399	28481.41345
639.599	28348.7335
639.799	28114.00326
639.999	28554.89966
640.199	28685.5452
640.399	28334.44516
640.599	27965.00818
640.799	29042.80092
640.998	28840.69235
641.198	29244.91968
641.398	29187.75374
641.598	29510.34369
641.798	29277.58629
641.997	29393.96328
642.197	29367.42086
642.397	29494.00939
642.597	28926.43414
642.796	28844.77525
642.996	28752.91098
643.196	29173.46239
643.395	28636.55262
643.595	29197.96189
643.795	28955.01514
643.994	29402.13021
644.194	29093.84005
644.394	28846.8167
644.593	29032.59318
644.793	29328.62841
644.992	28952.97363
645.192	29073.42432
645.392	29353.12886
645.591	29087.71532
645.791	29138.75502
645.99	28689.62794
646.19	28591.64328
646.389	28840.69235
646.589	28779.44933
646.788	28985.63787
646.987	28765.15943
647.187	28767.20084
647.386	28524.28024
647.586	29126.50543
647.785	29212.25333
647.984	29412.3389
648.184	29445.00689
648.383	29387.83809
648.582	29189.79537
648.782	29849.29592
648.981	29704.31872
649.18	29900.34556
649.38	29788.03728
649.579	29434.79812
649.778	29359.254
649.977	29747.19873
650.177	29567.51427
650.376	29520.55266
650.575	28730.4556
650.774	29402.13021
650.973	29445.00689
651.173	29271.46128
651.372	29144.87983
651.571	29187.75374
651.77	29326.58671
651.969	29598.14171
652.168	29679.81608
652.367	29759.45025
652.566	29638.97868
652.765	29453.17393
652.964	29306.1698
653.163	29669.60669
653.362	29585.89071
653.561	29212.25333
653.76	29475.63338
653.959	29696.15116
654.158	29794.1631
654.357	28830.48511
654.556	29020.34391
654.755	29881.96761
654.954	29189.79537
655.153	28509.99126
655.352	29363.33742
655.551	29073.42432
655.749	29310.25317
655.948	29361.29571
656.147	29093.84005
656.346	28967.26421
656.545	28797.82214
656.743	29144.87983
656.942	29308.21148
657.141	29892.17757
657.34	29916.68159
657.538	29943.22779
657.737	30171.94149
657.936	29955.47995
658.135	29134.67182
658.333	29881.96761
658.532	29244.91968
658.731	29204.08678
658.929	29042.80092
659.128	29393.96328
659.326	29514.42727
659.525	29837.04412
659.724	29526.67805
659.922	29583.84888
660.121	29551.17973
660.319	29504.21832
660.518	29587.93254
660.716	29663.48107
660.915	29300.04474
661.113	29404.17195
661.312	29081.5906
661.51	29465.42453
661.709	29728.82152
661.907	29396.00501
662.105	29283.71131
662.304	29855.42184
662.502	29959.56401
662.701	29881.96761
662.899	29653.27172
663.097	29808.45672
663.296	29353.12886
663.494	29506.2601
663.692	29242.87802
663.891	29641.02054
664.089	29569.55609
664.287	29926.89164
664.485	29332.71181
664.684	29879.92562
664.882	29524.63625
665.08	29783.9534
665.278	29618.56014
665.476	29690.02549
665.675	29259.21129
665.873	29447.04865
666.071	29159.17108
666.269	29461.34099
666.467	29634.89496
666.665	29751.28256
666.863	29477.67515
667.061	29569.55609
667.259	29841.12805
667.457	30057.58284
667.655	30022.86754
667.853	29967.73214
668.051	29116.29747
668.249	29416.42239
668.447	29314.33655
668.645	29099.96479
668.843	29779.86953
669.041	29534.84526
669.239	29034.63472
669.437	29404.17195
669.635	29073.42432
669.833	28975.43027
670.031	29069.34119
670.229	29230.62812
670.426	29298.00306
670.624	29514.42727
670.822	29581.80705
671.02	29344.96203
671.218	29251.04465
671.415	29110.17271
671.613	28795.78071
671.811	29140.79662
672.009	28881.52154
672.206	29208.17005
672.404	29069.34119
672.602	29181.62887
672.799	29300.04474
672.997	29249.00299
673.195	28881.52154
673.392	29563.43063
673.59	28722.29003
673.788	29124.46384
673.985	28957.05665
674.183	29396.00501
674.38	28938.68311
674.578	29314.33655
674.775	29202.04515
674.973	29583.84888
675.17	29489.92582
675.368	29251.04465
675.565	29283.71131
675.763	29581.80705
675.96	29261.25295
676.158	29151.00465
676.355	28628.38725
676.553	29032.59318
676.75	28340.56873
676.947	29042.80092
677.145	28871.3142
677.342	28877.4386
677.539	29195.92025
677.737	28903.97778
677.934	28846.8167
678.131	29048.92559
678.329	28726.37281
678.526	28263.00426
678.723	28626.34591
678.92	28607.97389
679.118	28330.36279
679.315	28375.26913
679.512	28299.74513
679.709	28793.73929
679.906	28779.44933
680.104	28797.82214
680.301	28616.13922
680.498	28054.81271
680.695	28052.77168
680.892	28528.36282
681.089	28587.56064
681.286	28701.8762
681.483	28236.4694
681.68	28397.72249
681.877	28483.45471
682.075	28636.55262
682.272	28218.09923
682.469	28528.36282
682.665	28587.56064
682.862	28716.16587
683.059	28661.04883
683.256	28205.8525
683.453	28393.64005
683.65	28301.7863
683.847	28422.21722
684.044	27905.82003
684.241	27860.91932
684.438	28297.70396
684.635	27709.8938
684.831	27762.95608
685.028	28062.97687
685.225	28242.59282
685.422	28128.29077
685.619	28077.26419
685.815	28289.53929
686.012	28332.40397
686.209	27501.73422
686.405	28230.346
686.602	28138.49617
686.799	27805.81467
686.996	28060.93583
687.192	28214.01698
687.389	28052.77168
687.586	27683.36296
687.782	27893.57433
687.979	27540.50808
688.175	27675.19966
688.372	27689.48544
688.568	27895.61527
688.765	27781.32399
688.962	27613.97556
689.158	27634.38347
689.355	27487.44923
689.551	27279.3035
689.748	26960.9895
689.944	27316.03413
690.14	27552.75255
690.337	27660.91394
690.533	27552.75255
690.73	27277.26293
690.926	27693.5671
691.123	27352.76518
691.319	27291.547
691.515	27279.3035
691.712	27187.47879
691.908	27138.50671
692.104	27134.42574
692.301	27658.87313
692.497	27258.89778
692.693	27416.02518
692.889	26883.45656
693.086	26997.71634
693.282	27211.96512
693.478	27422.14719
693.674	27038.52447
693.87	27867.04211
694.067	27865.00118
694.263	27532.34513
694.459	27287.46583
694.655	27177.27621
694.851	27301.74995
695.047	26985.47401
695.243	27028.32238
695.439	26512.14405
695.635	26748.79904
695.831	27167.07366
696.027	27309.91233
696.224	27128.30429
696.42	26761.04037
696.615	26899.77912
696.811	27187.47879
697.007	26730.43715
697.203	26346.90607
697.399	26628.42885
697.595	26724.31655
697.791	26393.82442
697.987	26397.90432
698.183	26771.24152
698.379	26334.66664
698.575	26677.39236
698.77	26098.0496
698.966	26173.51979
699.162	25945.07689
699.358	25994.02706
699.554	25822.70606
699.749	26240.83302
699.945	26104.16871
700.141	26381.58477
700.337	26495.82378
700.532	26404.02418
700.728	26147.00296
700.924	26373.42503
701.119	26567.22569
701.315	26122.52616
701.511	26026.66108
701.706	26879.37594
701.902	26591.70679
702.097	26273.4704
702.293	26242.87284
702.489	26265.31101
702.684	25955.27475
702.88	26526.42437
703.075	26361.18548
703.271	26212.27566
703.466	26342.82625
703.662	25932.83951
703.857	25804.35102
704.053	25900.20681
704.248	26106.20842
704.443	25896.12776
704.639	25602.45574
704.834	26242.87284
705.03	26102.12901
705.225	25698.30265
705.42	25783.9567
705.616	25785.99612
705.811	25712.57809
706.006	26126.60561
706.202	25969.55184
706.397	25739.08987
706.592	26051.1369
706.787	25747.24741
706.983	25592.25951
707.178	25855.33763
707.373	25622.84833
707.568	26169.44026
707.763	25694.22397
707.959	25753.36558
708.154	25957.31433
708.349	25641.20184
708.544	25735.01111
708.739	25706.46003
708.934	25249.69603
709.129	25439.32218
709.324	25212.99632
709.519	25433.20492
709.714	25125.32767
709.909	26012.38364
710.104	25200.76325
710.299	25359.79932
710.494	25433.20492
710.689	25117.17265
710.884	25392.4237
711.079	25812.5088
711.274	25796.19327
711.469	25818.62715
711.664	25594.29875
711.859	25983.82902
712.054	25533.12239
712.249	25278.24073
712.443	25292.51324
712.638	25537.20076
712.833	25053.97249
713.028	25559.63193
713.223	25053.97249
713.417	25290.4743
713.612	24962.23419
713.807	25145.71537
714.002	25043.77912
714.196	24813.42425
714.391	24475.08251
714.586	24831.77001
714.78	24846.03906
714.975	24992.81311
715.17	24603.48126
715.364	25062.12723
715.559	24811.38585
715.754	24707.43038
715.948	24507.69076
716.143	24738.00487
716.337	24772.65661
716.532	25239.5016
716.726	24556.60437
716.921	24707.43038
717.115	24605.51942
717.31	24685.00944
717.504	24415.98173
717.699	24866.42362
717.893	24795.0787
718.088	24833.80844
718.282	24605.51942
718.476	24699.27728
718.671	24526.03319
718.865	24911.27048
719.059	24780.81006
719.254	25135.52149
719.448	24642.20665
719.642	24699.27728
719.837	23994.18947
720.031	24583.09984
720.225	24464.89257
720.419	24403.75425
720.614	24091.98595
720.808	24324.27796
721.002	23959.55478
721.196	24087.91097
721.39	24340.58046
721.585	24055.31151
721.779	24006.41368
721.973	24055.31151
722.167	23442.17252
722.361	24238.6926
722.555	24232.57954
722.749	24104.21096
722.943	23882.13902
723.137	23698.80265
723.331	23800.65326
723.525	23816.95004
723.719	23806.76453
723.913	23823.06138
724.107	22959.59932
724.301	23869.91586
724.495	23387.18672
724.689	23708.98738
724.883	23611.2171
725.077	24230.54186
725.271	24383.37534
725.465	23863.80432
725.659	23674.35961
725.853	24041.04948
726.046	23869.91586
726.24	23770.0973
726.434	23295.54883
726.628	23431.98979
726.822	23067.5006
727.015	23666.21203
727.209	23116.36463
727.403	23393.29614
727.596	23104.14845
727.79	23153.0139
727.984	23421.80714
728.177	23601.03309
728.371	23354.60362
728.565	23191.70038
728.758	23609.18029
728.952	23619.36436
729.146	23138.76128
729.339	23647.88014
729.533	23438.09942
729.726	23990.11476
729.92	23694.72878
730.113	23910.66013
730.307	24051.23663
730.5	23525.67382
730.694	23513.45379
730.887	23256.85921
731.081	23431.98979
731.274	23271.11315
731.468	23277.22203
731.661	23283.33093
731.854	23193.73655
732.048	23421.80714
732.241	23385.15025
732.435	23878.06462
732.628	23922.88364
732.821	23984.00271
733.014	23429.95326
733.208	23177.44733
733.401	23118.40068
733.594	23169.3028
733.788	22961.6351
733.981	23405.51507
734.174	23081.75242
734.367	23120.43672
734.56	22880.20629
734.754	23205.95359
734.947	22760.10874
735.14	23006.42325
735.333	23118.40068
735.526	23167.26668
735.719	22699.0468
735.912	22825.24491
736.105	23130.617
736.298	23305.7305
736.491	23026.78204
736.684	22739.75441
736.877	23197.80888
737.07	23134.68913
737.263	22831.35161
737.456	23330.16683
737.649	23201.88123
737.842	23423.84367
738.035	23132.65306
738.228	23142.83344
738.421	23148.94171
738.614	23238.53296
738.807	23118.40068
739	22888.34892
739.192	22552.51101
739.385	22285.94485
739.578	22359.19347
739.771	22617.63577
739.964	22583.03779
740.156	22786.56988
740.349	22576.93237
740.542	22686.83479
740.735	22578.96751
740.927	22729.57738
741.12	22794.71189
741.313	22477.21506
741.505	22499.59983
741.698	22424.30732
741.891	22654.27004
742.083	22031.64661
742.276	22125.22157
742.468	22436.51658
742.661	22220.83896
742.854	22465.00536
743.046	22519.95
743.239	22279.84101
743.431	22790.64088
743.624	22015.37351
743.816	21777.40743
744.009	22088.60434
744.201	21777.40743
744.393	22039.78324
744.586	21897.40087
744.778	22009.27117
744.971	22393.78474
745.163	22208.63203
745.355	22163.87442
745.548	22098.77567
745.74	22060.1251
745.932	21984.86212
746.125	21779.44111
746.317	21720.46611
746.509	21403.27793
746.702	21824.18294
746.894	21816.04792
747.086	21722.49968
747.278	21995.03249
747.471	21990.96433
747.663	21990.96433
747.855	22222.87346
748.047	21927.9098
748.239	22062.15931
748.431	22108.9471
748.623	21911.63826
748.815	21653.36062
749.008	22049.95413
749.2	21724.53325
749.392	21936.04567
749.584	21425.64061
749.776	21761.13817
749.968	22222.87346
750.16	21767.23912
750.352	21490.6984
750.544	21551.69377
750.736	21964.52166
750.928	22279.84101
751.12	21598.4593
751.311	21523.22882
751.503	21572.02635
751.695	21797.74436
751.887	21494.76464
752.079	21547.6273
752.271	21413.44273
752.463	21842.48695
752.654	21389.0474
752.846	21608.62599
753.038	21092.284
753.23	21600.49263
753.421	21303.66828
753.613	21185.77549
753.805	21307.7338
753.997	21323.996
754.188	21490.6984
754.38	21515.09612
754.572	21460.20205
754.763	21822.14918
754.955	21698.09714
755.146	21409.3768
755.338	21147.15839
755.53	21307.7338
755.721	21470.3674
755.913	21258.94873
756.104	21106.51041
756.296	20927.67871
756.487	20889.0715
756.679	21502.89718
756.87	21015.05842
757.062	20941.9028
757.253	20889.0715
757.445	20687.93174
757.636	20689.96326
757.827	20901.26309
758.019	20982.54415
758.21	20832.17937
758.401	20559.95492
758.593	20332.48154
758.784	20302.02035
758.975	20092.87904
759.167	20178.15458
759.358	20484.80166
759.549	20476.67732
759.74	20444.18065
759.932	20559.95492
760.123	20342.63548
760.314	20324.35846
760.505	20046.18368
760.696	20001.52063
760.888	20318.2662
761.079	20141.60701
761.27	20352.78953
761.461	20555.89244
761.652	19999.49054
761.843	19814.76994
762.034	19960.91963
762.225	19662.55382
762.416	19591.52769
762.607	19802.59178
762.798	20103.0305
762.989	19688.93626
763.18	19930.46998
763.371	19800.5621
763.562	19806.65115
763.753	19662.55382
763.944	19713.28991
764.135	19494.12874
764.326	20172.06322
764.517	19956.85962
764.708	19869.57352
764.899	19626.02545
765.089	19672.70083
765.28	19956.85962
765.471	19719.37841
765.662	19557.03113
765.853	19378.47993
766.043	19204.01768
766.234	19520.50667
766.425	18956.57666
766.615	19295.30226
766.806	18883.57279
766.997	19431.23034
767.187	19443.40391
767.378	19557.03113
767.569	19597.61544
767.759	19258.78743
767.95	19264.87314
768.141	19228.35942
768.331	18717.30549
768.522	18506.46794
768.712	18692.97593
768.903	18881.54498
769.093	18573.36376
769.284	18472.00809
769.474	18644.31849
769.665	18763.93875
769.855	18463.90005
770.046	18891.68407
770.236	18443.63022
770.426	18628.09985
770.617	18549.03752
770.807	18530.7932
770.998	18534.84747
771.188	18267.29868
771.378	18433.49545
771.569	18547.01036
771.759	18435.52239
771.949	18553.09185
772.139	18490.2514
772.33	17957.26615
772.52	17937.00551
772.71	18336.20646
772.9	18313.9123
773.09	18251.08571
773.281	18070.73229
773.471	17941.05761
773.661	18013.99782
773.851	18086.94265
774.041	17876.22569
774.231	18184.20971
774.421	17647.31603
774.611	17742.521
774.802	17677.6998
774.992	17325.29251
775.182	17819.50067
775.372	17736.44387
775.562	17932.95342
775.752	18058.57466
775.942	17825.57822
776.131	17894.4593
776.321	17874.19975
776.511	17343.51815
776.701	17317.1923
776.891	17088.38081
777.081	17201.7695
777.271	16665.27191
777.461	17226.06824
777.651	17023.59121
777.84	17181.52086
778.03	17120.77667
778.22	17469.07933
778.41	17303.01705
778.599	17163.29734
778.789	16985.12371
778.979	17098.50444
779.169	17268.59205
779.358	17112.67764
779.548	17667.57179
779.738	17254.41731
779.927	17377.94504
780.117	17323.26745
780.307	17262.51714
780.496	17155.19807
780.686	17090.40553
780.875	16869.72692
781.065	17232.14299
781.254	17003.34504
781.444	17169.37182
781.633	16855.55596
781.823	17053.96099
782.012	17157.22288
782.202	17145.07404
782.391	17053.96099
782.581	16620.74037
782.77	16220.00216
782.96	16400.12233
783.149	16080.36794
783.338	16222.02591
783.528	16282.739
783.717	16278.69141
783.906	16402.14624
784.096	16165.36176
784.285	16230.12089
784.474	16361.66847
784.663	16408.21797
784.853	16282.739
785.042	16191.66995
785.231	16209.88348
785.42	15878.0121
785.61	15962.99989
785.799	15647.34112
785.988	15932.64684
786.177	15501.66018
786.366	15843.61291
786.555	15665.55152
786.744	15892.17658
786.933	15969.07053
787.122	16086.43883
787.312	15679.71522
787.501	15728.2768
787.69	15669.59829
787.879	15697.92575
788.068	15574.50018
788.257	15517.84677
788.445	15594.73367
788.634	15930.62332
788.823	16106.67525
789.012	15916.45868
789.201	15685.78538
789.39	15894.20008
789.579	15762.67493
789.768	15637.22426
789.957	15637.22426
790.145	15665.55152
790.334	15323.60982
790.523	15038.32822
790.712	14975.60648
790.9	15301.35373
791.089	15471.31042
791.278	15756.60465
791.467	15291.23734
791.655	15406.56467
791.844	15105.09629
792.033	15188.05039
792.221	15246.72528
792.41	15471.31042
792.599	15317.53997
792.787	15426.79767
792.976	15339.79609
793.164	15190.07366
793.353	14898.72127
793.541	15242.67873
793.73	15260.8882
793.918	15521.89343
794.107	14995.83933
794.295	15090.93338
794.484	15283.14423
794.672	14920.97758
794.861	14882.53482
795.049	14589.14741
795.238	14809.69536
795.426	14904.79118
795.614	14463.69239
795.803	14577.00681
795.991	14564.86617
796.179	14639.7328
796.368	14380.72729
796.556	14366.56225
796.744	14210.74128
796.932	14301.80677
797.121	14192.52771
797.309	14226.93098
797.497	14239.07318
797.685	14655.91999
797.874	14522.37358
798.062	14850.16183
798.25	14530.46745
798.438	14607.35823
798.626	14475.83342
798.814	14421.19839
799.002	14105.50503
799.19	14425.24546
799.378	14028.59786
799.566	14075.14733
799.755	14087.29047
799.943	14366.56225
800.131	14148.00497
800.318	14087.29047
800.506	14125.74321
800.694	14073.12347
800.882	14030.62177
801.07	14206.69383
801.258	14097.40969
801.446	14336.20834
801.634	13816.07239
801.822	14158.12386
802.01	13852.50745
802.197	13947.6392
802.385	13769.51511
802.573	13797.85451
802.761	13874.77286
802.949	14235.02579
803.136	13714.85887
803.324	14071.0996
803.512	13801.90295
803.699	14105.50503
803.887	14135.86223
804.075	14241.09687
804.262	14085.26662
804.45	14022.5261
804.638	13919.3027
804.825	14281.57032
805.013	14002.28673
805.201	14208.71756
805.388	14091.33817
805.576	14524.39705
805.763	13992.16695
805.951	14137.88602
806.138	13882.8693
806.326	14200.62265
806.513	13961.80725
806.701	13872.74875
806.888	13882.8693
807.075	14346.32635
807.263	13943.59116
807.45	13977.99916
807.638	13629.83343
807.825	14097.40969
808.012	13765.46658
808.2	14117.64797
808.387	14352.39714
808.574	14277.52301
808.761	14077.17119
808.949	14307.87767
809.136	14206.69383
809.323	14744.94843
809.51	14263.35736
809.698	14311.92493
809.885	14178.36149
810.072	14350.37355
810.259	14239.07318
810.446	14056.93247
810.633	14218.83615
810.82	14445.48076
811.008	14409.05712
811.195	14405.01002
811.382	14160.14764
811.569	14437.38666
811.756	13945.61518
811.943	14295.73586
812.13	14168.2427
812.317	13971.92722
812.504	13864.65226
812.691	13988.11903
812.878	13785.70912
813.064	13969.90323
813.251	14065.02799
813.438	14233.00209
813.625	13787.73336
813.812	13996.21487
813.999	14014.43038
814.186	14257.28634
814.372	14188.48023
814.559	14407.03357
814.746	13971.92722
814.933	14388.82156
815.12	14002.28673
815.306	13842.38669
815.493	13789.7576
815.68	14182.409
815.866	13686.51769
816.053	13949.66321
816.24	13739.15081
816.426	13988.11903
816.613	13820.12078
816.799	13973.9512
816.986	13941.56713
817.173	13953.71123
817.359	13793.80606
817.546	14222.88357
817.732	13599.46579
817.919	13969.90323
818.105	13787.73336
818.292	13982.04712
818.478	13684.4933
818.665	13990.14299
818.851	13781.66064
819.037	13933.47101
819.224	13720.93189
819.41	13625.78446
819.597	13303.8442
819.783	13224.86228
819.969	13581.24483
820.156	13291.69356
820.342	13194.48285
820.528	13461.78914
820.714	13475.96252
820.901	13619.71097
821.087	13234.98854
821.273	13666.27361
821.459	13777.61214
821.646	13961.80725
821.832	13218.78647
822.018	13512.40751
822.204	13127.6445
822.39	13567.07277
822.576	13324.09493
822.762	13514.43219
822.948	13097.26177
823.134	13145.87364
823.32	12760.95036
823.507	13275.49247
823.693	13081.0572
823.879	13010.15858
824.065	12860.23817
824.25	13050.67281
824.436	13028.39023
824.622	13295.74379
824.808	13433.44182
824.994	13548.85131
825.18	13334.22014
825.366	13413.19327
825.552	12963.56473
825.738	13273.46731
825.923	12683.94227
826.109	12837.95022
826.295	12592.7374
826.481	12473.13865
826.667	12760.95036
826.852	12844.02882
827.038	12706.23495
827.224	12677.86232
827.409	12463.00214
827.595	12789.31967
827.781	12434.61902
827.966	12793.37234
828.152	12811.60907
828.338	13004.08127
828.523	12649.48853
828.709	12675.83566
828.894	12732.57993
829.08	12570.441
829.266	12282.54406
829.451	12394.06945
829.637	12383.93164
829.822	12454.89281
830.008	12375.82127
830.193	12805.53021
830.378	12487.3295
830.564	12760.95036
830.749	12610.97936
830.935	12718.39429
831.12	12339.32324
831.305	12694.07539
831.491	12083.77227
831.676	12491.38397
831.861	12223.73119
832.047	12310.93433
832.232	12018.85149
832.417	12006.67795
832.602	11706.30366
832.788	11970.15562
832.973	11982.33002
833.158	12231.84367
833.343	12199.39305
833.528	12456.92015
833.714	12144.62835
833.899	11986.38809
834.084	11996.53312
834.269	11933.63068
834.454	11677.88016
834.639	12077.68629
834.824	12033.0536
835.009	12069.57153
835.194	12012.76476
835.379	12434.61902
835.564	11884.92665
835.749	11872.7499
835.934	11649.45491
836.119	11560.10679
836.304	11235.0485
836.489	11208.62624
836.674	11235.0485
836.859	11202.52854
837.044	11415.89316
837.228	11466.67811
837.413	11249.27515
837.598	11594.62976
837.783	11371.19736
837.968	11791.56383
838.152	11533.70505
838.337	11556.04508
838.522	11606.8137
838.707	11578.38399
838.891	11399.6407
839.076	11692.09213
839.261	11438.23928
839.445	11531.67409
839.63	11476.83437
839.815	11509.33281
839.999	11545.89067
840.184	11708.33385
840.368	11655.54618
840.553	11503.23954
840.737	11300.0805
840.922	11261.46902
841.106	11196.43075
841.291	11369.16562
841.475	11184.23489
841.66	11387.45093
841.844	11210.65878
842.029	11428.0821
842.213	10958.54171
842.397	11072.42168
842.582	10919.89591
842.766	10842.59195
842.951	10779.51578
843.135	10934.13431
843.319	10757.1312
843.504	10624.82895
843.688	10578.00193
843.872	10661.47164
844.056	10449.70254
844.241	10661.47164
844.425	10380.44043
844.609	10584.11018
844.793	10582.07411
844.977	10368.21614
845.161	10203.14117
845.346	10254.09967
845.53	10343.76612
845.714	10457.85004
845.898	10201.10265
846.082	10292.82246
846.266	10080.80561
846.45	10376.36572
846.634	9970.66021
846.818	10168.4845
847.002	10296.89826
847.186	10482.2913
847.37	9972.70032
847.554	9997.18051
847.738	9770.6582
847.922	9919.65274
848.106	10139.94072
848.29	10017.57909
848.473	10054.29293
848.657	9919.65274
848.841	10086.92358
849.025	10278.55673
849.209	9684.89896
849.392	9880.88095
849.576	9717.57232
849.76	9668.5608
849.944	9760.45017
850.127	9895.16591
850.311	9684.89896
850.495	9846.18589
850.678	9564.38166
850.862	9893.12525
851.046	9566.42478
851.229	9396.7915
851.413	9531.68958
851.596	9737.99118
851.78	9688.98334
851.964	9811.48653
852.147	9278.18609
852.331	9676.73
852.514	9492.86246
852.698	9527.60279
852.881	9447.89752
853.065	9817.61026
853.248	9323.18089
853.431	9449.94155
853.615	9306.82007
853.798	9335.4508
853.982	9044.90031
854.165	9325.22591
854.348	9206.58677
854.532	9282.27685
854.715	8938.41466
854.898	9171.8025
855.081	8831.88105
855.265	9179.98748
855.448	8813.43761
855.631	9026.47349
855.814	8962.9925
855.997	9175.89502
856.181	8881.05643
856.364	9157.47814
856.547	8917.93118
856.73	8803.19062
856.913	8514.03597
857.096	8756.04862
857.279	8659.6848
857.462	8647.3801
857.645	8622.76869
857.828	8610.46197
858.011	8380.61165
858.194	8794.99271
858.377	8825.7334
858.56	8827.78264
858.743	8768.34746
858.926	8600.20586
859.109	8694.5445
859.292	8680.19116
859.475	8138.18513
859.658	8392.93114
859.841	8302.57196
860.023	8427.8326
860.206	8078.56343
860.389	8470.9385
860.572	8327.21911
860.755	8366.23803
860.937	8014.81112
861.12	8310.78799
861.303	8068.28211
861.486	8284.08475
861.668	8111.46025
861.851	8277.92199
862.034	8179.29374
862.216	7988.07048
862.399	7697.81354
862.581	7804.90675
862.764	7782.25714
862.947	7730.77134
863.129	7545.31312
863.312	7730.77134
863.494	7504.07671
863.677	7829.61254
863.859	7555.62088
864.042	8012.75427
864.224	8053.88742
864.406	7790.49366
864.589	7380.31565
864.771	7804.90675
864.954	7570.05084
865.136	7646.30614
865.318	7367.93524
865.501	7400.94791
865.683	7396.82164
865.865	7600.96867
866.048	7473.14375
866.23	7543.2515
866.412	7411.26323
866.594	7499.95259
866.777	7252.34678
866.959	7361.74474
867.141	7487.57973
867.323	7485.51751
867.505	7347.29949
867.687	7394.75846
867.869	7262.66998
868.052	7341.10833
868.234	7169.74131
868.416	7343.17207
868.598	7242.02303
868.78	7479.33073
868.962	7454.58164
869.144	7664.85033
869.326	7310.14961
869.508	7347.29949
869.69	7128.42526
869.872	7334.91698
870.054	7167.67572
870.236	7244.08783
870.417	7004.42353
870.599	6948.59638
870.781	6950.66434
870.963	7155.2817
871.145	7076.76767
871.327	7153.21596
871.508	6824.47698
871.69	7188.33063
871.872	7194.52667
872.054	7279.18596
872.235	7101.56505
872.417	7002.35615
872.599	7229.63381
872.78	7372.06213
872.962	7116.02871
873.144	7045.7664
873.325	7058.16751
873.507	7211.04847
873.689	6958.93598
873.87	7087.1003
874.052	7099.49873
874.233	7237.89338
874.415	7020.96176
874.596	7225.50389
874.778	7105.69764
874.959	7330.78931
875.141	7058.16751
875.322	7429.82943
875.503	7101.56505
875.685	7378.2523
875.866	7045.7664
876.048	7025.09609
876.229	6799.64329
876.41	7095.36601
876.592	7227.56886
876.773	7130.49128
876.954	6814.13001
877.136	7002.35615
877.317	6872.06574
877.498	7223.43889
877.679	7070.56782
877.86	7047.83331
878.042	6578.06365
878.223	6816.19945
878.404	6689.92175
878.585	6956.8681
878.766	6607.07035
878.947	6956.8681
879.128	6702.34629
879.309	6954.80021
879.49	6789.29494
879.672	6907.23232
879.853	6644.35804
880.034	6584.27975
880.215	6708.55825
880.396	6894.82133
880.576	6399.78001
880.757	6836.8926
880.938	6571.84733
881.119	6905.16388
881.3	6766.52658
881.481	6998.22133
881.662	6696.13412
881.843	6903.09541
882.023	6590.49564
882.204	6716.84054
882.385	6704.41696
882.566	6828.61561
882.747	6781.01586
882.927	6921.71077
883.108	6789.29494
883.289	7070.56782
883.469	7054.0339
883.65	7312.21368
883.831	6977.54584
884.011	7202.78775
884.192	6998.22133
884.373	7033.36448
884.553	6874.13454
884.734	6973.41047
884.914	6905.16388
885.095	7258.54077
885.275	6884.47822
885.456	6913.4375
885.636	6631.92964
885.817	6971.34276
885.997	6869.99691
886.178	7233.76364
886.358	6938.25621
886.538	7103.63136
886.719	6822.40763
886.899	7289.50772
887.08	7047.83331
887.26	7450.45649
887.44	7155.2817
887.621	7520.5723
887.801	7124.29317
887.981	7516.44853
888.161	7260.60539
888.342	7033.36448
888.522	6992.01892
888.702	7113.96254
888.882	6845.16923
889.062	6816.19945
889.242	6890.68416
889.423	7161.47881
889.603	6656.78561
889.783	7111.89635
889.963	6590.49564
890.143	7029.23033
890.323	6901.02693
890.503	6741.68521
890.683	6565.63081
890.863	6691.99256
891.043	6598.78318
891.223	6888.61553
891.403	6714.77
891.583	6816.19945
891.763	6414.29789
891.943	6820.33826
892.122	6671.2834
892.302	6925.84726
892.482	6650.57193
892.662	6611.21379
892.842	6696.13412
893.022	7161.47881
893.201	6876.20333
893.381	6855.51449
893.561	6515.89116
893.741	6488.94328
893.92	6441.25665
894.1	6524.18203
894.28	6393.55771
894.459	6553.19715
894.639	6515.89116
894.819	6691.99256
894.998	6522.10935
895.178	6598.78318
895.357	6615.35715
895.537	6557.3418
895.716	6403.92809
895.896	6563.5586
896.075	6213.01961
896.255	6580.1357
896.434	6291.8971
896.614	6406.0021
896.793	6244.1595
896.973	6325.09857
897.152	6138.26234
897.331	6200.56218
897.511	6165.26153
897.69	6177.72136
897.87	6013.59919
898.049	5969.94706
898.228	5853.49056
898.407	5938.76061
898.587	5670.33797
898.766	5990.73509
898.945	5543.27271
899.124	5799.39632
899.304	5576.60979
899.483	5994.89241
899.662	5884.69152
899.841	5996.97103
900.02	5730.71527
900.199	6009.44229
900.378	5609.94084
900.557	5797.31545
900.737	5589.10964
900.916	5861.81133
901.095	5676.58482
901.274	5734.87849
901.453	5528.68584
901.632	5786.91077
901.811	5672.42028
901.989	5724.47026
902.168	5278.44605
902.347	5843.08906
902.526	5459.90362
902.705	5620.35555
902.884	5382.75372
903.063	5476.58045
903.242	5343.12371
903.42	5374.41126
903.599	4942.17948
903.778	5234.61938
903.957	5128.14036
904.135	5372.32559
904.314	5142.75871
904.493	5332.69335
904.672	4977.71423
904.85	4835.53547
905.029	4950.5412
905.207	4902.45632
905.386	4802.06628
905.565	4776.96056
905.743	4630.44567
905.922	4785.3295
906.1	4686.97164
906.279	4603.22364
906.457	4425.14097
906.636	4835.53547
906.814	4299.34023
906.993	4511.05961
907.171	4263.68255
907.35	4364.34703
907.528	4129.38669
907.707	4370.63691
907.885	4066.40586
908.063	4192.34867
908.242	4005.50665
908.42	4202.84049
908.598	3877.3523
908.777	4125.18855
908.955	3936.1866
909.133	4154.57376
909.311	3744.91814
909.49	4055.90723
909.668	3902.56893
909.846	4129.38669
910.024	3814.29817
910.202	4051.70764
910.38	3742.81538
910.559	4070.60516
910.737	3999.20575
910.915	4146.17841
911.093	3976.10085
911.271	4314.021
911.449	3997.1054
911.627	4129.38669
911.805	3856.33624
911.983	4150.37612
912.161	3986.60338
912.339	4186.05333
912.517	4079.00352
912.695	4366.44368
912.872	4102.0973
913.05	4557.147
913.228	4081.10306
913.406	3995.00504
913.584	4074.80438
913.762	4452.38747
913.939	4217.52814
914.117	4467.05712
914.295	4016.00775
914.473	4154.57376
914.65	3988.70383
914.828	4207.03707
915.006	4037.0084
915.184	4244.80245
915.361	3986.60338
915.539	4418.85279
915.716	4144.07952
915.894	4079.00352
916.072	4016.00775
916.249	4240.60664
916.427	3753.32897
916.604	3835.31819
916.782	3635.54928
916.959	4114.69284
917.137	3873.14924
917.314	3904.67018
917.492	3753.32897
917.669	3936.1866
917.847	3789.07153
918.024	3919.37841
918.201	3608.19903
918.379	3992.90466
918.556	3425.08229
918.733	4024.40826
918.911	3521.91989
919.088	3976.10085
919.265	3618.71874
919.442	3805.8896
919.62	3633.44553
919.797	3805.8896
919.974	3532.4434
920.151	3399.81407
920.328	3193.3636
920.506	3519.81514
920.683	3425.08229
920.86	3410.34281
921.037	3081.64528
921.214	3658.68931
921.391	3258.687
921.568	3454.55864
921.745	3208.11544
921.922	3553.48904
922.099	3305.03575
922.276	3534.54805
922.453	3431.39895
922.63	3374.5433
922.807	3353.4824
922.984	3376.6493
923.161	3094.29489
923.338	3437.71544
923.514	2921.3689
923.691	3047.91022
923.868	2868.62763
924.045	2929.80666
924.222	2858.0783
924.399	2936.13482
924.575	2885.50581
924.752	2893.94456
924.929	2661.79838
925.105	2986.75535
925.282	2756.78702
925.459	2893.94456
925.635	2625.90704
925.812	3018.38878
925.989	2739.90209
926.165	2896.05421
926.342	2647.02003
926.518	2750.45527
926.695	2530.88355
926.871	2562.56073
927.048	2520.32391
927.224	2642.79754
927.401	2549.89017
927.577	2615.35008
927.754	2353.44506
927.93	2275.26463
928.107	2300.62188
928.283	2480.19468
928.459	2304.84796
928.636	2617.4615
928.812	2118.86685
928.988	2370.34718
929.165	2173.82267
929.341	2359.78343
929.517	2072.36168
929.693	2387.24864
929.87	2036.42347
930.046	2171.70908
930.222	1983.56959
930.398	2156.91376
930.574	2165.36828
930.751	2325.97777
930.927	2211.86576
931.103	2435.83666
931.279	2038.53754
931.455	2344.99377
931.631	1968.76978
931.807	2140.00434
931.983	1953.96967
932.159	2144.23174
932.335	1704.44448
932.511	2038.53754
932.687	2032.19531
932.863	1958.19831
933.039	1651.57201
933.215	1803.83912
933.391	1698.09988
933.566	1795.38034
933.742	1590.238
933.918	2030.08122
934.094	1522.55741
934.27	1774.23309
934.445	1454.8759
934.621	1480.25652
934.797	1336.43373
934.973	1421.03508
935.148	1152.43685
935.324	1387.19436
935.5	1277.21415
935.675	1406.22974
935.851	1205.3072
936.027	1306.82375
936.202	951.55712
936.378	1108.02773
936.553	833.17213
936.729	1031.90285
936.904	871.22166
937.08	864.87988
937.255	845.85499
937.431	837.39972
937.606	670.43995
937.782	738.06144
937.957	554.24401
938.133	645.0849
938.308	522.5611
938.483	463.42832
938.659	499.329
938.834	528.89743
939.009	442.31232
939.185	507.77683
939.36	509.88883
939.535	480.32222
939.71	429.64347
939.886	461.31665
940.061	448.64696
940.236	385.30703
940.411	271.33363
940.586	446.5354
940.761	317.76099
940.937	372.64081
941.112	376.86282
941.287	343.08867
941.462	254.45319
941.637	315.65046
941.812	313.53995
941.987	279.77431
942.162	220.69599
942.337	300.87729
942.512	260.78321
942.687	260.78321
942.862	125.7815
943.037	313.53995
943.212	239.6838
943.386	343.08867
943.561	248.12334
943.736	290.32557
943.911	246.01343
944.086	279.77431
944.26	248.12334
944.435	288.21528
944.61	233.35436
944.785	269.22351
944.959	174.28813
945.134	227.02509
945.309	239.6838
945.483	279.77431
945.658	231.24458
945.833	199.6003
946.007	197.49084
946.182	144.76102
946.357	208.03833
946.531	189.0532
946.706	256.56318
946.88	220.69599
947.055	246.01343
947.229	178.50662
947.404	246.01343
947.578	193.27198
947.752	246.01343
947.927	300.87729
948.101	119.45538
948.276	313.53995
948.45	170.06972
948.624	321.98209
948.799	302.98769
948.973	298.76691
949.147	193.27198
949.321	305.0981
949.496	227.02509
949.67	210.14789
949.844	229.13482
950.018	256.56318
950.193	298.76691
950.367	248.12334
950.541	252.34322
950.715	237.57397
950.889	197.49084
951.063	271.33363
951.237	273.44377
951.411	283.99475
951.585	311.42946
951.759	319.87153
951.933	174.28813
952.107	229.13482
952.281	161.63315
952.455	224.91537
952.629	239.6838
952.803	279.77431
952.977	309.31899
953.151	265.00332
953.325	277.66411
953.499	345.19943
953.672	258.67319
953.846	193.27198
954.02	237.57397
954.194	275.55393
954.368	260.78321
954.541	275.55393
954.715	208.03833
954.889	364.197
955.062	260.78321
955.236	250.23327
955.41	265.00332
955.583	305.0981
955.757	216.47669
955.93	224.91537
956.104	265.00332
956.278	351.5318
956.451	256.56318
956.625	256.56318
956.798	233.35436
956.972	262.89326
957.145	229.13482
957.319	273.44377
957.492	315.65046
957.665	250.23327
957.839	229.13482
958.012	313.53995
958.185	359.9752
958.359	220.69599
958.532	237.57397
958.705	220.69599
958.879	237.57397
959.052	243.90353
959.225	220.69599
959.398	237.57397
959.572	300.87729
959.745	241.79366
959.918	237.57397
960.091	265.00332
960.264	338.86722
960.438	222.80567
960.611	197.49084
960.784	292.43587
960.957	248.12334
961.13	262.89326
961.303	258.67319
961.476	231.24458
961.649	161.63315
961.822	241.79366
961.995	366.30793
962.168	237.57397
962.341	212.25747
962.514	271.33363
962.686	241.79366
962.859	315.65046
963.032	283.99475
963.205	292.43587
963.378	239.6838
963.551	265.00332
963.723	216.47669
963.896	170.06972
964.069	229.13482
964.242	265.00332
964.414	203.81928
964.587	269.22351
964.76	239.6838
964.932	311.42946
965.105	218.58633
965.278	161.63315
965.45	172.17891
965.623	233.35436
965.795	224.91537
965.968	220.69599
966.14	237.57397
966.313	229.13482
966.485	197.49084
966.658	205.9288
966.83	161.63315
967.003	286.10501
967.175	155.30595
967.348	220.69599
967.52	182.72519
967.692	275.55393
967.865	180.61589
968.037	229.13482
968.209	184.83451
968.382	241.79366
968.554	203.81928
968.726	233.35436
968.898	153.19692
969.071	220.69599
969.243	119.45538
969.415	161.63315
969.587	182.72519
969.759	146.86997
969.932	111.02086
970.104	155.30595
970.276	136.32547
970.448	111.02086
970.62	186.94385
970.792	136.32547
970.964	123.67278
971.136	119.45538
971.308	98.36974
971.48	208.03833
971.652	180.61589
971.824	248.12334
971.996	60.42118
972.168	153.19692
972.339	39.34183
972.511	199.6003
972.683	146.86997
972.855	186.94385
973.027	186.94385
973.199	231.24458
973.37	123.67278
973.542	203.81928
973.714	212.25747
973.886	127.89025
974.057	178.50662
974.229	159.52406
974.401	142.6521
974.572	111.02086
974.744	174.28813
974.915	56.20513
975.087	111.02086
975.259	161.63315
975.43	66.74543
975.602	203.81928
975.773	104.6952
975.945	170.06972
976.116	136.32547
976.288	125.7815
976.459	146.86997
976.63	189.0532
976.802	60.42118
976.973	222.80567
977.145	79.39455
977.316	199.6003
977.487	102.58669
977.659	144.76102
977.83	96.26129
978.001	132.10782
978.172	85.71941
978.344	151.08791
978.515	174.28813
978.686	113.12946
978.857	129.99903
979.028	89.9361
979.2	178.50662
979.371	155.30595
979.542	26.69535
979.713	89.9361
979.884	89.9361
980.055	81.50281
980.226	60.42118
980.397	144.76102
980.568	123.67278
980.739	73.06989
980.91	159.52406
981.081	85.71941
981.252	39.34183
981.423	123.67278
981.594	98.36974
981.765	68.85356
981.936	94.15287
982.106	64.63732
982.277	155.30595
982.448	37.23403
982.619	111.02086
982.79	77.2863
982.96	146.86997
983.131	87.82774
983.302	89.9361
983.472	73.06989
983.643	60.42118
983.814	-9.13173
983.984	146.86997
984.155	89.9361
984.326	77.2863
984.496	108.91229
984.667	68.85356
984.837	119.45538
985.008	106.80373
985.178	111.02086
985.349	75.17808
985.519	121.56407
985.69	64.63732
985.86	51.98916
986.031	-13.34623
986.201	77.2863
986.371	89.9361
986.542	68.85356
986.712	77.2863
986.882	18.26482
987.053	96.26129
987.223	94.15287
987.393	54.09713
987.563	54.09713
987.734	3.51233
987.904	73.06989
988.074	142.6521
988.244	30.91075
988.414	66.74543
988.585	22.48004
988.755	66.74543
988.925	56.20513
989.095	-23.88203
989.265	102.58669
989.435	87.82774
989.605	100.4782
989.775	81.50281
989.945	1.40492
990.115	142.6521
990.285	79.39455
990.455	79.39455
990.625	140.5432
990.795	18.26482
990.965	39.34183
991.134	79.39455
991.304	119.45538
991.474	75.17808
991.644	94.15287
991.814	98.36974
991.984	62.52924
992.153	115.23808
992.323	54.09713
992.493	140.5432
992.662	22.48004
992.832	22.48004
993.002	26.69535
993.171	35.12624
993.341	70.96171
993.511	43.55752
993.68	-44.95179
993.85	18.26482
994.019	54.09713
994.189	68.85356
994.358	98.36974
994.528	-47.05863
994.697	102.58669
994.867	51.98916
995.036	64.63732
995.206	37.23403
995.375	73.06989
995.544	37.23403
995.714	81.50281
995.883	94.15287
996.052	47.77329
996.222	-28.09618
996.391	37.23403
996.56	47.77329
996.73	43.55752
996.899	26.69535
997.068	39.34183
997.237	-13.34623
997.406	-30.20322
997.576	60.42118
997.745	39.34183
997.914	73.06989
998.083	81.50281
998.252	-28.09618
998.421	1.40492
998.59	-17.56062
998.759	-7.02445
998.928	11.94218
999.097	39.34183
999.266	26.69535
999.435	123.67278
999.604	39.34183
999.773	85.71941
999.942	58.31314
1000.111	39.34183
1000.28	18.26482
1000.448	3.51233
1000.617	77.2863
1000.786	56.20513
1000.955	-13.34623
1001.124	16.15725
1001.292	5.61975
1001.461	49.88122
1001.63	94.15287
1001.798	-2.80981
1001.967	58.31314
1002.136	-21.77492
1002.304	70.96171
1002.473	-78.65817
1002.642	11.94218
1002.81	-7.02445
1002.979	-4.91714
1003.147	47.77329
1003.316	-70.23219
1003.484	28.80304
1003.653	-49.16544
1003.821	60.42118
1003.99	54.09713
1004.158	11.94218
1004.327	-15.45344
1004.495	28.80304
1004.663	60.42118
1004.832	-55.48573
1005	-4.91714
1005.168	39.34183
1005.337	37.23403
1005.505	30.91075
1005.673	64.63732
1005.842	-11.23899
1006.01	-11.23899
1006.178	77.2863
1006.346	77.2863
1006.514	18.26482
1006.683	79.39455
1006.851	39.34183
1007.019	18.26482
1007.187	22.48004
1007.355	-13.34623
1007.523	33.01848
1007.691	30.91075
1007.859	58.31314
1008.027	9.83468
1008.195	-2.80981
1008.363	-7.02445
1008.531	28.80304
1008.699	26.69535
1008.867	22.48004
1009.035	-9.13173
1009.203	41.44967
1009.37	-0.70246
1009.538	9.83468
1009.706	-74.44523
1009.874	56.20513
1010.042	-4.91714
1010.209	47.77329
1010.377	51.98916
1010.545	22.48004
1010.713	33.01848
1010.88	-7.02445
1011.048	60.42118
1011.216	39.34183
1011.383	5.61975
1011.551	1.40492
1011.718	-11.23899
1011.886	54.09713
1012.054	9.83468
1012.221	45.6654
1012.389	7.72721
1012.556	18.26482
1012.724	37.23403
1012.891	56.20513
1013.058	-4.91714
1013.226	5.61975
1013.393	30.91075
1013.561	9.83468
1013.728	3.51233
1013.895	14.04971
1014.063	-40.73804
1014.23	43.55752
1014.397	35.12624
1014.565	37.23403
1014.732	33.01848
1014.899	20.37242
1015.066	-28.09618
1015.233	9.83468
1015.401	-55.48573
1015.568	1.40492
1015.735	-4.91714
1015.902	9.83468
1016.069	60.42118
1016.236	-66.01904
1016.403	47.77329
1016.57	-23.88203
1016.737	-4.91714
1016.904	-40.73804
1017.071	-15.45344
1017.238	51.98916
1017.405	-42.84492
1017.572	62.52924
1017.739	43.55752
1017.906	-72.33872
1018.073	-72.33872
1018.24	22.48004
1018.407	39.34183
1018.573	20.37242
1018.74	-21.77492
1018.907	9.83468
1019.074	3.51233
1019.241	11.94218
1019.407	1.40492
1019.574	68.85356
1019.741	9.83468
1019.907	-28.09618
1020.074	11.94218
1020.241	22.48004
1020.407	43.55752
1020.574	1.40492
1020.74	-30.20322
1020.907	-7.02445
1021.073	-38.63112
1021.24	39.34183
1021.406	26.69535
1021.573	-91.29638
1021.739	5.61975
1021.906	-28.09618
1022.072	73.06989
1022.239	-42.84492
1022.405	-11.23899
1022.571	-0.70246
1022.738	28.80304
1022.904	22.48004
1023.07	39.34183
1023.237	-40.73804
1023.403	43.55752
1023.569	-38.63112
1023.735	81.50281
1023.902	-9.13173
1024.068	22.48004
1024.234	30.91075
1024.4	22.48004
1024.566	98.36974
1024.732	-23.88203
1024.898	5.61975
1025.065	14.04971
1025.231	-47.05863
1025.397	-11.23899
1025.563	37.23403
1025.729	-11.23899
1025.895	47.77329
1026.061	24.58768
1026.227	-47.05863
1026.392	5.61975
1026.558	47.77329
1026.724	3.51233
1026.89	14.04971
1027.056	-63.91243
1027.222	37.23403
1027.388	70.96171
1027.553	-36.52418
1027.719	26.69535
1027.885	-23.88203
1028.051	-32.31023
1028.216	22.48004
1028.382	54.09713
1028.548	-11.23899
1028.713	35.12624
1028.879	-4.91714
1029.045	68.85356
1029.21	-9.13173
1029.376	-11.23899
1029.541	60.42118
1029.707	28.80304
1029.873	81.50281
1030.038	-44.95179
1030.204	28.80304
1030.369	-74.44523
1030.534	37.23403
1030.7	-21.77492
1030.865	47.77329
1031.031	9.83468
1031.196	-30.20322
1031.361	-44.95179
1031.527	43.55752
1031.692	51.98916
1031.857	-38.63112
1032.023	18.26482
1032.188	18.26482
1032.353	51.98916
1032.518	9.83468
1032.684	37.23403
1032.849	-61.80579
1033.014	-7.02445
1033.179	-15.45344
1033.344	35.12624
1033.509	18.26482
1033.674	-66.01904
1033.839	-74.44523
1034.004	14.04971
1034.17	-13.34623
1034.335	64.63732
1034.5	5.61975
1034.664	11.94218
1034.829	43.55752
1034.994	-28.09618
1035.159	24.58768
1035.324	22.48004
1035.489	-21.77492
1035.654	-11.23899
1035.819	102.58669
1035.984	35.12624
1036.148	-15.45344
1036.313	16.15725
1036.478	-99.72133
1036.643	54.09713
1036.807	-59.69913
1036.972	33.01848
1037.137	-82.87101
1037.301	14.04971
1037.466	-11.23899
1037.631	79.39455
1037.795	-23.88203
1037.96	11.94218
1038.124	-11.23899
1038.289	18.26482
1038.454	-7.02445
1038.618	64.63732
1038.783	18.26482
1038.947	24.58768
1039.111	35.12624
1039.276	28.80304
1039.44	28.80304
1039.605	58.31314
1039.769	-23.88203
1039.933	5.61975
1040.098	-61.80579
1040.262	14.04971
1040.426	47.77329
1040.591	108.91229
1040.755	-25.98912
1040.919	-7.02445
1041.083	81.50281
1041.248	-7.02445
1041.412	28.80304
1041.576	-44.95179
1041.74	-38.63112
1041.904	-47.05863
1042.068	68.85356
1042.232	45.6654
1042.397	-28.09618
1042.561	60.42118
1042.725	-2.80981
1042.889	43.55752
1043.053	26.69535
1043.217	26.69535
1043.381	-11.23899
1043.544	-36.52418
1043.708	-11.23899
1043.872	-74.44523
1044.036	-28.09618
1044.2	-23.88203
1044.364	43.55752
1044.528	-28.09618
1044.691	1.40492
1044.855	-13.34623
1045.019	-25.98912
1045.183	18.26482
1045.346	85.71941
1045.51	-7.02445
1045.674	-38.63112
1045.837	20.37242
1046.001	22.48004
1046.165	41.44967
1046.328	35.12624
1046.492	18.26482
1046.655	37.23403
1046.819	-15.45344
1046.983	-28.09618
1047.146	35.12624
1047.31	-36.52418
1047.473	41.44967
1047.636	39.34183
1047.8	-66.01904
1047.963	5.61975
1048.127	1.40492
1048.29	-63.91243
