Data from absorb_only_2.23.25_USB4F045381__79__0184.txt Node

Date: Sun Feb 23 19:28:46 EST 2025
User: ssocol
Spectrometer: USB4F04538
Trigger mode: 4
Integration Time (sec): 2.600000E-3
Scans to average: 1
Electric dark correction enabled: true
Nonlinearity correction enabled: true
Boxcar width: 0
XAxis mode: Wavelengths
Number of Pixels in Spectrum: 3648
>>>>>Begin Spectral Data<<<<<
345.52	-23.17966
345.736	-23.17966
345.952	-23.17966
346.168	16.85977
346.384	-12.64382
346.6	29.5056
346.816	6.32224
347.032	-73.74306
347.248	25.29023
347.464	-18.9654
347.68	2.10739
347.896	14.75222
348.112	-2.10736
348.328	-21.07254
348.544	18.96735
348.76	-33.71489
348.975	52.69182
349.191	18.96735
349.407	29.5056
349.623	-18.9654
349.839	-21.07254
350.055	0
350.27	40.04444
350.486	12.64469
350.702	56.90779
350.918	-25.28676
351.133	-40.03573
351.349	-21.07254
351.565	-6.32202
351.781	-40.03573
351.996	0
352.212	-6.32202
352.428	-48.46317
352.644	27.39791
352.859	37.93663
353.075	-14.75104
353.291	-44.2495
353.506	-14.75104
353.722	35.82884
353.938	-2.10736
354.153	-18.9654
354.369	48.47593
354.584	35.82884
354.8	-31.6079
355.016	23.18258
355.231	31.61332
355.447	69.55627
355.662	-18.9654
355.878	14.75222
356.093	-44.2495
356.309	10.53718
356.524	18.96735
356.74	-52.67674
356.955	-4.2147
357.171	44.26014
357.386	2.10739
357.602	61.12386
357.817	-37.92881
358.033	52.69182
358.248	12.64469
358.464	27.39791
358.679	46.36803
358.895	-8.42931
359.11	-12.64382
359.325	-6.32202
359.541	27.39791
359.756	88.53052
359.972	23.18258
360.187	-56.89021
360.402	-29.50088
360.618	69.55627
360.833	-54.78349
361.048	-48.46317
361.264	40.04444
361.479	-27.39383
361.694	29.5056
361.909	-12.64382
362.125	-37.92881
362.34	35.82884
362.555	-54.78349
362.77	10.53718
362.986	-31.6079
363.201	35.82884
363.416	-44.2495
363.631	18.96735
363.847	40.04444
364.062	12.64469
364.277	-35.82187
364.492	-4.2147
364.707	-4.2147
364.922	71.66443
365.138	-58.9969
365.353	-29.50088
365.568	27.39791
365.783	-14.75104
365.998	4.2148
366.213	61.12386
366.428	40.04444
366.643	-27.39383
366.858	61.12386
367.073	-80.06246
367.288	10.53718
367.503	8.4297
367.718	-40.03573
367.933	-31.6079
368.148	-6.32202
368.363	35.82884
368.578	10.53718
368.793	16.85977
369.008	-52.67674
369.223	42.15228
369.438	63.23193
369.653	52.69182
369.868	71.66443
370.083	-23.17966
370.298	35.82884
370.513	-37.92881
370.728	-14.75104
370.943	-6.32202
371.157	-40.03573
371.372	2.10739
371.587	10.53718
371.802	18.96735
372.017	18.96735
372.232	86.42218
372.446	37.93663
372.661	37.93663
372.876	-23.17966
373.091	-23.17966
373.306	16.85977
373.52	2.10739
373.735	-35.82187
373.95	-37.92881
374.165	6.32224
374.379	56.90779
374.594	-10.53658
374.809	0
375.023	23.18258
375.238	-21.07254
375.453	-18.9654
375.667	-80.06246
375.882	-2.10736
376.097	23.18258
376.311	-29.50088
376.526	29.5056
376.741	-21.07254
376.955	-29.50088
377.17	21.07496
377.384	35.82884
377.599	-21.07254
377.813	-2.10736
378.028	52.69182
378.242	-4.2147
378.457	23.18258
378.672	77.98905
378.886	-44.2495
379.101	31.61332
379.315	40.04444
379.53	-12.64382
379.744	44.26014
379.958	18.96735
380.173	-23.17966
380.387	-6.32202
380.602	23.18258
380.816	-69.53
381.031	69.55627
381.245	27.39791
381.459	6.32224
381.674	10.53718
381.888	65.34002
382.103	4.2148
382.317	-16.85823
382.531	4.2148
382.746	10.53718
382.96	-54.78349
383.174	-12.64382
383.388	-58.9969
383.603	8.4297
383.817	21.07496
384.031	27.39791
384.246	21.07496
384.46	18.96735
384.674	-65.31684
384.888	-23.17966
385.103	2.10739
385.317	14.75222
385.531	69.55627
385.745	-12.64382
385.959	18.96735
386.174	-4.2147
386.388	14.75222
386.602	-4.2147
386.816	71.66443
387.03	-6.32202
387.244	-35.82187
387.458	-92.70056
387.672	35.82884
387.887	10.53718
388.101	23.18258
388.315	16.85977
388.529	-4.2147
388.743	59.01582
388.957	10.53718
389.171	12.64469
389.385	-65.31684
389.599	-10.53658
389.813	-6.32202
390.027	31.61332
390.241	103.28953
390.455	27.39791
390.669	-31.6079
390.883	-29.50088
391.097	52.69182
391.311	-27.39383
391.525	-21.07254
391.738	-48.46317
391.952	40.04444
392.166	37.93663
392.38	12.64469
392.594	4.2148
392.808	40.04444
393.022	21.07496
393.236	48.47593
393.449	61.12386
393.663	6.32224
393.877	-31.6079
394.091	21.07496
394.305	12.64469
394.518	48.47593
394.732	4.2148
394.946	4.2148
395.16	77.98905
395.373	-31.6079
395.587	-44.2495
395.801	-61.10358
396.015	-58.9969
396.228	21.07496
396.442	54.79979
396.656	27.39791
396.869	-48.46317
397.083	-14.75104
397.297	29.5056
397.51	10.53718
397.724	-12.64382
397.938	71.66443
398.151	-4.2147
398.365	18.96735
398.578	-2.10736
398.792	8.4297
399.005	52.69182
399.219	23.18258
399.433	29.5056
399.646	4.2148
399.86	-6.32202
400.073	-10.53658
400.287	56.90779
400.5	-31.6079
400.714	14.75222
400.927	52.69182
401.141	6.32224
401.354	14.75222
401.567	6.32224
401.781	31.61332
401.994	40.04444
402.208	23.18258
402.421	-27.39383
402.635	-31.6079
402.848	-23.17966
403.061	-23.17966
403.275	16.85977
403.488	-16.85823
403.701	-67.42343
403.915	10.53718
404.128	-21.07254
404.341	-25.28676
404.555	21.07496
404.768	31.61332
404.981	44.26014
405.195	21.07496
405.408	33.72107
405.621	-31.6079
405.834	21.07496
406.048	6.32224
406.261	-21.07254
406.474	-73.74306
406.687	18.96735
406.9	-14.75104
407.114	6.32224
407.327	10.53718
407.54	29.5056
407.753	44.26014
407.966	-50.56997
408.179	99.07256
408.392	-61.10358
408.605	82.20557
408.819	-40.03573
409.032	44.26014
409.245	35.82884
409.458	-71.63655
409.671	42.15228
409.884	-40.03573
410.097	18.96735
410.31	-23.17966
410.523	-31.6079
410.736	44.26014
410.949	-23.17966
411.162	35.82884
411.375	-14.75104
411.588	37.93663
411.801	73.77262
412.014	-40.03573
412.227	-21.07254
412.44	63.23193
412.653	115.94096
412.865	-31.6079
413.078	-2.10736
413.291	10.53718
413.504	14.75222
413.717	-4.2147
413.93	-18.9654
414.143	2.10739
414.356	-8.42931
414.568	10.53718
414.781	-16.85823
414.994	54.79979
415.207	118.04961
415.42	-6.32202
415.632	25.29023
415.845	48.47593
416.058	37.93663
416.271	65.34002
416.483	67.44814
416.696	-23.17966
416.909	-35.82187
417.121	40.04444
417.334	6.32224
417.547	14.75222
417.759	-69.53
417.972	-6.32202
418.185	-8.42931
418.397	61.12386
418.61	-40.03573
418.823	35.82884
419.035	12.64469
419.248	35.82884
419.46	29.5056
419.673	65.34002
419.885	86.42218
420.098	61.12386
420.311	-18.9654
420.523	-14.75104
420.736	61.12386
420.948	63.23193
421.161	10.53718
421.373	-12.64382
421.586	27.39791
421.798	-80.06246
422.01	33.72107
422.223	52.69182
422.435	27.39791
422.648	21.07496
422.86	-40.03573
423.073	31.61332
423.285	-40.03573
423.497	61.12386
423.71	73.77262
423.922	18.96735
424.134	-56.89021
424.347	-6.32202
424.559	10.53718
424.771	6.32224
424.984	-42.14263
425.196	-40.03573
425.408	27.39791
425.621	18.96735
425.833	65.34002
426.045	-25.28676
426.257	-40.03573
426.47	27.39791
426.682	-2.10736
426.894	-35.82187
427.106	2.10739
427.318	-35.82187
427.531	-67.42343
427.743	14.75222
427.955	-35.82187
428.167	-16.85823
428.379	54.79979
428.591	-14.75104
428.804	-63.21022
429.016	2.10739
429.228	35.82884
429.44	65.34002
429.652	25.29023
429.864	-40.03573
430.076	21.07496
430.288	2.10739
430.5	18.96735
430.712	54.79979
430.924	27.39791
431.136	-12.64382
431.348	2.10739
431.56	23.18258
431.772	37.93663
431.984	-4.2147
432.196	25.29023
432.408	14.75222
432.62	12.64469
432.832	-4.2147
433.044	31.61332
433.256	4.2148
433.468	14.75222
433.679	-6.32202
433.891	54.79979
434.103	31.61332
434.315	10.53718
434.527	65.34002
434.739	-6.32202
434.95	54.79979
435.162	18.96735
435.374	-10.53658
435.586	2.10739
435.798	56.90779
436.009	-54.78349
436.221	-2.10736
436.433	56.90779
436.645	-14.75104
436.856	0
437.068	37.93663
437.28	-2.10736
437.491	2.10739
437.703	40.04444
437.915	-29.50088
438.126	29.5056
438.338	80.0973
438.55	-92.70056
438.761	-31.6079
438.973	-31.6079
439.184	2.10739
439.396	-56.89021
439.608	-14.75104
439.819	52.69182
440.031	10.53718
440.242	59.01582
440.454	48.47593
440.665	-6.32202
440.877	10.53718
441.088	59.01582
441.3	23.18258
441.511	-12.64382
441.723	77.98905
441.934	-23.17966
442.146	94.85568
442.357	18.96735
442.569	48.47593
442.78	-107.44383
442.991	6.32224
443.203	-35.82187
443.414	16.85977
443.626	86.42218
443.837	35.82884
444.048	10.53718
444.26	-12.64382
444.471	48.47593
444.682	6.32224
444.894	21.07496
445.105	80.0973
445.316	16.85977
445.528	99.07256
445.739	-25.28676
445.95	-46.35635
446.161	-4.2147
446.373	44.26014
446.584	10.53718
446.795	-2.10736
447.006	18.96735
447.217	4.2148
447.429	27.39791
447.64	25.29023
447.851	37.93663
448.062	37.93663
448.273	29.5056
448.484	-29.50088
448.695	23.18258
448.907	12.64469
449.118	29.5056
449.329	14.75222
449.54	12.64469
449.751	-23.17966
449.962	-46.35635
450.173	-29.50088
450.384	48.47593
450.595	-6.32202
450.806	80.0973
451.017	-4.2147
451.228	-4.2147
451.439	29.5056
451.65	124.37568
451.861	-8.42931
452.072	82.20557
452.283	29.5056
452.494	-29.50088
452.705	113.83233
452.915	2.10739
453.126	48.47593
453.337	-23.17966
453.548	35.82884
453.759	61.12386
453.97	10.53718
454.181	65.34002
454.391	37.93663
454.602	18.96735
454.813	14.75222
455.024	35.82884
455.235	88.53052
455.445	40.04444
455.656	65.34002
455.867	56.90779
456.078	-37.92881
456.288	-23.17966
456.499	111.72373
456.71	-31.6079
456.921	-6.32202
457.131	86.42218
457.342	-14.75104
457.553	31.61332
457.763	6.32224
457.974	65.34002
458.184	-21.07254
458.395	23.18258
458.606	-46.35635
458.816	-12.64382
459.027	96.96411
459.237	122.26697
459.448	27.39791
459.659	16.85977
459.869	31.61332
460.08	65.34002
460.29	63.23193
460.501	18.96735
460.711	61.12386
460.922	69.55627
461.132	118.04961
461.343	-8.42931
461.553	61.12386
461.764	25.29023
461.974	-21.07254
462.184	27.39791
462.395	46.36803
462.605	23.18258
462.816	31.61332
463.026	52.69182
463.236	40.04444
463.447	6.32224
463.657	2.10739
463.867	61.12386
464.078	90.63889
464.288	23.18258
464.498	14.75222
464.709	-18.9654
464.919	61.12386
465.129	71.66443
465.339	86.42218
465.55	21.07496
465.76	73.77262
465.97	-2.10736
466.18	69.55627
466.391	12.64469
466.601	107.50658
466.811	44.26014
467.021	21.07496
467.231	-10.53658
467.441	42.15228
467.651	52.69182
467.862	77.98905
468.072	80.0973
468.282	-8.42931
468.492	71.66443
468.702	94.85568
468.912	52.69182
469.122	56.90779
469.332	69.55627
469.542	12.64469
469.752	23.18258
469.962	31.61332
470.172	54.79979
470.382	18.96735
470.592	18.96735
470.802	65.34002
471.012	90.63889
471.222	90.63889
471.432	63.23193
471.642	90.63889
471.852	77.98905
472.062	92.74727
472.272	61.12386
472.482	73.77262
472.691	141.24617
472.901	73.77262
473.111	105.39804
473.321	103.28953
473.531	118.04961
473.741	18.96735
473.95	118.04961
474.16	40.04444
474.37	71.66443
474.58	46.36803
474.79	132.81075
474.999	94.85568
475.209	52.69182
475.419	109.61514
475.628	151.79091
475.838	86.42218
476.048	86.42218
476.258	137.02842
476.467	145.464
476.677	189.75633
476.886	179.20971
477.096	31.61332
477.306	137.02842
477.515	158.11802
477.725	90.63889
477.935	185.53762
478.144	170.77278
478.354	170.77278
478.563	234.05762
478.773	158.11802
478.982	141.24617
479.192	151.79091
479.401	189.75633
479.611	179.20971
479.82	162.33619
480.03	215.07028
480.239	183.42829
480.449	221.39921
480.658	189.75633
480.868	276.25732
481.077	221.39921
481.287	202.41294
481.496	170.77278
481.705	263.59661
481.915	160.22709
482.124	303.69116
482.333	301.58075
482.543	238.27725
482.752	234.05762
482.961	291.029
483.171	240.38709
483.38	257.26651
483.589	282.58793
483.799	269.92688
484.008	335.34939
484.217	369.12252
484.426	390.23295
484.636	316.35397
484.845	352.2354
485.054	305.80158
485.263	356.45708
485.472	348.0138
485.682	371.23349
485.891	339.57079
486.1	369.12252
486.309	394.45523
486.518	457.79724
486.727	383.89964
486.936	402.9
487.146	305.80158
487.355	413.45632
487.564	474.69081
487.773	656.3536
487.982	462.02054
488.191	525.37723
488.4	440.90465
488.609	521.15305
488.818	561.28507
489.027	495.80913
489.236	563.39742
489.445	592.97171
489.654	419.79031
489.863	601.42197
490.072	567.62216
490.281	607.75981
490.49	569.73455
490.698	660.57945
490.907	588.74665
491.116	584.52165
491.325	628.88674
491.534	630.9995
491.743	669.03129
491.952	711.29325
492.16	707.06685
492.369	628.88674
492.578	681.7094
492.787	726.08599
492.996	609.87244
493.204	838.10432
493.413	770.4673
493.622	865.58452
493.831	728.19928
494.039	897.29422
494.248	829.64917
494.457	901.52231
494.665	846.55961
494.874	871.92631
495.083	745.10599
495.291	907.86452
495.5	880.38215
495.709	958.60461
495.917	907.86452
496.126	990.31924
496.335	981.86185
496.543	922.66327
496.752	924.77741
496.96	990.31924
497.169	831.76294
497.377	1074.89846
497.586	931.11986
497.794	1074.89846
498.003	871.92631
498.211	1125.65016
498.42	933.23403
498.628	1110.84729
498.837	1047.4092
499.045	1180.63408
499.254	998.77672
499.462	1117.19135
499.671	1115.07666
499.879	1305.41376
500.087	1136.22377
500.296	1159.48609
500.504	1117.19135
500.713	1057.98188
500.921	1252.53983
501.129	1091.81538
501.338	1060.09644
501.546	1373.09412
501.754	1225.04602
501.962	1294.83886
502.171	1191.20821
502.379	1428.08524
502.587	1134.10904
502.795	1356.17389
503.004	1244.08014
503.212	1277.91913
503.42	1299.06881
503.628	1260.99955
503.837	1252.53983
504.045	1667.08145
504.253	1351.94384
504.461	1360.40394
504.669	1366.74902
504.877	1525.37746
505.085	1390.01441
505.294	1565.56294
505.502	1504.22705
505.71	1616.32279
505.918	1550.75782
506.126	1472.50133
506.334	1330.79371
506.542	1574.02299
506.75	1428.08524
506.958	1540.18269
507.166	1544.41274
507.374	1669.19636
507.582	1607.86289
507.79	1588.828
507.998	1620.55273
508.206	1667.08145
508.414	1692.46021
508.622	1607.86289
508.83	1603.63293
509.037	1692.46021
509.245	1586.713
509.453	1758.01993
509.661	1707.2643
509.869	1874.32617
510.077	1686.11556
510.285	1694.57509
510.492	1694.57509
510.7	2009.64468
510.908	1637.4724
511.116	1673.42618
511.324	1684.00067
511.531	1914.50131
511.739	1815.1174
511.947	2013.87298
512.155	1686.11556
512.362	1925.07339
512.57	1844.72225
512.778	2024.44362
512.985	1823.57602
513.193	2037.12816
513.401	1844.72225
513.608	2005.41636
513.816	1891.24225
514.024	1895.47122
514.231	1703.03457
514.439	2153.39101
514.646	1895.47122
514.854	2039.24223
515.061	1946.21712
515.269	2013.87298
515.477	2051.92648
515.684	2144.93631
515.892	2056.15451
516.099	2136.48148
516.307	2035.01409
516.514	2326.68208
516.722	2144.93631
516.929	2132.25401
517.136	2066.72445
517.344	2328.795
517.551	2087.86381
517.759	2159.73195
517.966	2208.34336
518.173	2214.68365
518.381	2212.57023
518.588	2288.64779
518.796	2303.43927
519.003	2322.4562
519.21	2187.20851
519.418	2284.42157
519.625	2263.28991
519.832	2330.90792
520.039	2229.47736
520.247	2385.84021
520.454	2303.43927
520.661	2402.74108
520.868	2185.09498
521.076	2504.1319
521.283	2464.00104
521.49	2461.88878
521.697	2301.32623
521.904	2466.11329
522.112	2377.38954
522.319	2725.83067
522.526	2423.86622
522.733	2660.39095
522.94	2480.89874
523.147	2616.05389
523.354	2366.82596
523.561	2622.38809
523.768	2550.5941
523.975	2622.38809
524.183	2689.9459
524.39	2765.93266
524.597	2706.83332
524.804	2799.699
525.011	2497.79572
525.218	2768.04316
525.425	2852.45185
525.632	2816.58086
525.838	2742.7163
526.045	2827.13157
526.252	2497.79572
526.459	2911.52454
526.666	2814.47067
526.873	2865.11122
527.08	2829.24167
527.287	2934.72857
527.494	2715.27671
527.701	2934.72857
527.907	2696.27878
528.114	2875.66032
528.321	2841.90197
528.528	2979.02222
528.735	2943.16596
528.941	3040.1787
529.148	2799.699
529.355	3048.61307
529.562	2913.63408
529.768	3280.45789
529.975	2873.55053
530.182	3035.96143
530.388	2757.49054
530.595	3073.91468
530.802	2810.25026
531.008	3168.77541
531.215	2955.8216
531.422	3139.26666
531.628	3147.69805
531.835	3208.81789
532.042	3236.21194
532.248	3341.54712
532.455	3097.10584
532.661	3217.24713
532.868	3196.17354
533.074	3309.95105
533.281	3103.43037
533.487	3356.29062
533.694	3061.26415
533.9	3406.83328
534.107	3337.33454
534.313	3427.88971
534.52	3360.5029
534.726	3406.83328
534.933	3459.47103
535.139	3552.08606
535.345	3261.49625
535.552	3480.52299
535.758	3482.62809
535.965	3528.93562
536.171	3465.78681
536.377	3581.54702
536.584	3507.88783
536.79	3457.36573
536.996	3368.92723
537.203	3427.88971
537.409	3280.45789
537.615	3642.56165
537.821	3495.25829
538.028	3760.33776
538.234	3577.33853
538.44	3592.06791
538.646	3425.78415
538.853	3724.59068
539.059	3343.65339
539.265	3686.73474
539.471	3482.62809
539.677	3819.20302
539.883	3678.32147
540.09	3915.87654
540.296	3676.2181
540.502	3781.36283
540.708	3693.0445
540.914	4077.60382
541.12	3796.07921
541.326	3823.40709
541.532	3905.3706
541.738	3886.45863
541.944	3623.62777
542.15	3840.22258
542.356	3804.48814
542.562	3966.29803
542.768	3821.30506
542.974	4016.7078
543.18	3995.70516
543.386	4090.20082
543.592	4071.30504
543.798	4327.30269
544.004	4008.30699
544.21	4058.70692
544.415	3854.9351
544.621	4018.80795
544.827	4136.3834
545.033	4411.16698
545.239	3995.70516
545.445	4373.43235
545.651	4088.10137
545.856	4178.35876
546.062	4140.58132
546.268	4356.65914
546.474	3972.59989
546.679	4245.50174
546.885	4014.60763
547.091	4167.86571
547.297	3821.30506
547.502	4398.58955
547.708	4050.30775
547.914	4409.07079
548.119	4222.4238
548.325	4365.04592
548.531	4293.74728
548.736	4411.16698
548.942	4260.18636
549.147	4289.55246
549.353	4344.07832
549.559	4494.99633
549.764	4297.942
549.97	4444.70293
550.175	4289.55246
550.381	4670.92272
550.586	4285.35756
550.792	4693.94902
550.997	4373.43235
551.203	4312.62287
551.408	4629.04976
551.614	4371.33577
551.819	4417.45539
552.025	4589.26216
552.23	4375.5289
552.435	4536.8978
552.641	4597.63917
552.846	4815.31519
553.052	4358.75587
553.257	4857.14788
553.462	4666.73583
553.668	4819.49887
553.873	4645.80002
554.078	4649.98736
554.283	4599.73336
554.489	4886.42533
554.694	4698.13532
554.899	4585.07352
555.105	4668.82929
555.31	4938.69533
555.515	4869.69591
555.72	4884.33424
555.925	4706.50767
556.131	5001.40036
556.336	4748.36396
556.541	4875.96962
556.746	4750.45654
556.951	4827.86596
557.156	4687.66939
557.361	4802.76361
557.567	4836.23268
557.772	4855.05647
557.977	4800.6716
558.182	4942.87631
558.387	4827.86596
558.592	4921.97049
558.797	4867.60463
559.002	4963.77983
559.207	4781.84248
559.412	5009.75947
559.617	4915.6983
559.822	5151.8076
560.027	4959.59931
560.232	5210.26678
560.437	4779.75025
560.642	5187.30285
560.847	5043.19219
561.051	5112.12847
561.256	4967.96026
561.461	5082.88586
561.666	5047.37087
561.871	5068.26285
562.076	4972.14059
562.281	5258.27315
562.485	4963.77983
562.69	5431.41056
562.895	5070.35192
563.1	5316.699
563.305	5034.83457
563.509	5201.91659
563.714	5112.12847
563.919	5279.14163
564.123	5097.50774
564.328	5168.51209
564.533	5039.01343
564.737	5080.79693
564.942	5337.56092
565.147	5377.19212
565.351	5197.74135
565.556	5377.19212
565.761	5072.44097
565.965	5368.84942
566.17	5214.44174
566.374	5360.50633
566.579	5510.6243
566.784	5254.09918
566.988	5377.19212
567.193	5687.6898
567.397	5510.6243
567.602	5462.6832
567.806	5314.61268
568.011	5410.55919
568.215	5602.303
568.42	5583.55425
568.624	5506.45601
568.828	5418.90002
569.033	5091.24136
569.237	5573.13746
569.442	5627.29837
569.646	5539.79975
569.85	5483.52869
570.055	5435.58055
570.259	5093.33017
570.463	5562.72007
570.668	5370.93513
570.872	5506.45601
571.076	5345.90504
571.281	5585.63754
571.485	5446.00512
571.689	5718.91896
571.893	5766.79337
572.098	5656.45533
572.302	5525.2126
572.506	5673.11438
572.71	5512.70842
572.914	5656.45533
573.119	5685.60767
573.323	5614.80111
573.527	5671.03208
573.731	5839.62176
573.935	5812.57459
574.139	5650.2078
574.343	5629.38116
574.547	5777.19919
574.751	5785.52343
574.955	5972.71894
575.159	5610.63517
575.364	5654.37284
575.568	5664.78504
575.772	5970.64003
575.976	5671.03208
576.18	5727.24584
576.383	5685.60767
576.587	5960.24518
576.791	5668.94976
576.995	5860.42457
577.199	5754.3056
577.403	5802.17077
577.607	5827.13895
577.811	5727.24584
578.015	5723.08245
578.219	6064.16723
578.422	6082.86695
578.626	6014.292
578.83	5781.36136
579.034	6062.08937
579.238	5902.02309
579.442	6084.94458
579.645	5918.65986
579.849	6001.82107
580.053	6020.52714
580.257	5951.92887
580.46	6049.62169
580.664	6329.93995
580.868	5904.10277
581.071	6151.41629
581.275	5804.25158
581.479	6147.26251
581.682	6116.10619
581.886	6037.15316
582.09	6273.91048
582.293	6267.68393
582.497	6251.07876
582.7	6205.40684
582.904	6197.10163
583.107	6290.51358
583.311	6157.64677
583.515	6263.53278
583.718	5951.92887
583.922	6155.56997
584.125	6130.64646
584.329	6317.49043
584.532	6230.3202
584.735	6371.43228
584.939	6084.94458
585.142	6412.91528
585.346	6251.07876
585.549	6327.86509
585.753	6010.13511
585.956	6236.54802
586.159	6217.86394
586.363	6595.33009
586.566	6392.17495
586.769	6470.97585
586.973	6205.40684
587.176	6499.9993
587.379	6240.69978
587.582	6458.53583
587.786	6325.7902
587.989	6425.35837
588.192	6346.538
588.395	6611.90436
588.599	6292.58886
588.802	6661.61833
589.005	6408.7674
589.208	6692.68283
589.411	6574.61016
589.615	6433.65329
589.818	6417.06307
590.021	6671.97374
590.224	6259.38153
590.427	6626.40564
590.63	6696.82437
590.833	6597.40195
591.036	6481.34189
591.239	6578.75433
591.442	6572.53805
591.645	6651.26235
591.848	6506.21802
592.051	6798.26354
592.254	6593.2582
592.457	6703.03652
592.66	6572.53805
592.863	6806.54186
593.066	6676.11574
593.269	6899.64792
593.472	6779.63597
593.675	6994.77557
593.878	6734.09413
594.081	6705.10718
594.284	6599.47379
594.486	6938.94557
594.689	6868.61768
594.892	7025.78514
595.095	6729.95341
595.298	7071.2567
595.5	6732.02378
595.703	7025.78514
595.906	6818.95867
596.109	6943.08169
596.311	6947.21772
596.514	6938.94557
596.717	6858.27314
596.92	6932.74122
597.122	6841.72068
597.325	7060.92321
597.528	6899.64792
597.73	7054.72284
597.933	6889.30508
598.136	7100.18751
598.338	6924.46844
598.541	7104.32012
598.743	7054.72284
598.946	7145.64136
599.148	6823.09742
599.351	7003.04528
599.554	7129.11394
599.756	7155.97028
599.959	7067.12337
600.161	7259.22898
600.363	7083.65615
600.566	6901.71642
600.768	7106.38639
600.971	7149.773
601.173	7141.50964
601.376	7112.58508
601.578	7027.85226
601.78	7333.5411
601.983	7104.32012
602.185	7139.44374
602.388	6998.91047
602.59	7294.32436
602.792	7164.23302
602.995	7436.70536
603.197	7191.08445
603.399	7277.80968
603.601	7153.90454
603.804	7294.32436
604.006	7162.16737
604.208	7042.32151
604.41	6909.9902
604.613	7257.16435
604.815	7046.45537
605.017	7451.14402
605.219	7052.65601
605.421	7327.34951
605.623	7219.99719
605.826	7560.43098
606.028	7391.31979
606.23	7325.2856
606.432	7168.36425
606.634	7475.89354
606.836	7259.22898
607.038	7508.88806
607.24	7354.17831
607.442	7228.25718
607.644	7323.22167
607.846	7395.44619
608.048	7428.45422
608.25	7500.63995
608.452	7368.62306
608.654	7484.14269
608.856	7050.58915
609.058	7444.95615
609.26	7329.4134
609.462	7331.47726
609.664	7302.58118
609.866	7288.13152
610.067	7240.64649
610.269	7096.0548
610.471	6990.64058
610.673	7306.70945
610.875	7083.65615
611.077	7438.76809
611.278	7139.44374
611.48	7290.19582
611.682	7319.09375
611.884	7418.13981
612.085	7308.77356
612.287	7463.51917
612.489	7314.96574
612.69	7566.61523
612.892	7519.19772
613.094	7459.39421
613.295	7286.0672
613.497	7482.08043
613.699	7370.68651
613.9	7475.89354
614.102	7354.17831
614.304	7506.82607
614.505	7240.64649
614.707	7603.71669
614.908	7242.7113
615.11	7554.24654
615.311	7273.68079
615.513	7430.51704
615.714	7484.14269
615.916	7537.75375
616.117	7414.01389
616.319	7498.57787
616.52	7352.11469
616.722	7698.50021
616.923	7642.87185
617.124	7706.74014
617.326	7383.06674
617.527	7616.08231
617.729	7618.14317
617.93	7642.87185
618.131	7364.4961
618.333	7378.94009
618.534	7488.26713
618.735	7298.45281
618.937	7469.70645
619.138	7502.70201
619.339	7385.13004
619.54	7603.71669
619.742	7562.49242
619.943	7494.45364
620.144	7401.63562
620.345	7735.57724
620.546	7434.64261
620.748	7749.99424
620.949	7521.25959
621.15	7659.35593
621.351	7461.4567
621.552	7686.13969
621.753	7422.26564
621.954	7723.21899
622.155	7331.47726
622.356	7581.0444
622.558	7459.39421
622.759	7500.63995
622.96	7362.43259
623.161	7506.82607
623.362	7432.57983
623.563	7710.85998
623.764	7667.59747
623.965	7550.12347
624.166	7636.68996
624.366	7432.57983
624.567	7558.36952
624.768	7513.01199
624.969	7463.51917
625.17	7675.83867
625.371	7578.98315
625.572	7432.57983
625.773	7292.2601
625.973	7513.01199
626.174	7508.88806
626.375	7556.30804
626.576	7688.19983
626.777	7583.10562
626.977	7500.63995
627.178	7682.01934
627.379	7436.70536
627.58	7630.50789
627.78	7469.70645
627.981	7766.46956
628.182	7471.76884
628.382	7721.1592
628.583	7484.14269
628.784	7389.25656
628.984	7529.50684
629.185	7869.41001
629.386	7568.67661
629.586	7883.81754
629.787	7558.36952
629.987	7578.98315
630.188	7352.11469
630.388	7646.993
630.589	7449.08142
630.79	7727.33849
630.99	7574.8606
631.191	7962.01218
631.391	7352.11469
631.591	7475.89354
631.792	7461.4567
631.992	7756.17264
632.193	7655.23504
632.393	7702.62022
632.594	7496.51576
632.794	7747.93473
632.994	7702.62022
633.195	7700.56023
633.395	7508.88806
633.595	7651.11406
633.796	7632.5686
633.996	7758.23206
634.196	7702.62022
634.397	7957.89741
634.597	7554.24654
634.797	7887.93379
634.997	7578.98315
635.198	7758.23206
635.398	7712.91987
635.598	7834.41609
635.798	7634.62929
635.998	7801.47515
636.199	7657.2955
636.399	7797.35716
636.599	7665.53712
636.799	7906.45588
636.999	7867.35171
637.199	7599.59465
637.399	7646.993
637.599	7714.97973
637.799	7362.43259
637.999	7994.92738
638.199	7609.89959
638.399	7822.06387
638.599	7832.35744
638.799	8027.83737
638.999	8175.86832
639.199	7787.06182
639.399	7500.63995
639.599	8079.24883
639.799	7698.50021
639.999	7881.75938
640.199	7749.99424
640.399	7945.55262
640.599	7411.9509
640.799	7953.78256
640.998	7855.00148
641.198	8015.49674
641.398	7949.66763
641.598	8118.31311
641.798	7904.39796
641.997	8023.72391
642.197	7801.47515
642.397	7855.00148
642.597	7791.18002
642.796	7937.32234
642.996	7690.25995
643.196	8046.34695
643.395	7799.41617
643.595	7770.58817
643.795	7581.0444
643.994	7725.27875
644.194	7723.21899
644.394	8188.19955
644.593	7805.59306
644.793	8204.64007
644.992	7807.65199
645.192	7935.26472
645.392	7828.24007
645.591	8081.30503
645.791	7988.75618
645.99	7970.24147
646.19	7957.89741
646.389	7906.45588
646.589	7791.18002
646.788	7754.11319
646.987	7877.64301
647.187	8128.59197
647.386	7832.35744
647.586	8118.31311
647.785	7774.70671
647.984	8128.59197
648.184	7978.47044
648.383	8110.08965
648.582	7912.62955
648.782	8321.74221
648.981	7941.43752
649.18	8163.53638
649.38	8099.80988
649.579	8064.8549
649.778	7962.01218
649.977	8377.18944
650.177	7992.87034
650.376	8064.8549
650.575	7855.00148
650.774	8344.33353
650.973	7945.55262
651.173	8128.59197
651.372	7988.75618
651.571	8233.40793
651.77	8075.13638
651.969	8171.75776
652.168	8023.72391
652.367	8118.31311
652.566	7865.29339
652.765	8093.64178
652.964	8167.64711
653.163	8079.24883
653.362	8200.53006
653.561	7978.47044
653.76	7966.12687
653.959	8227.24372
654.158	7988.75618
654.357	8145.03712
654.556	7731.4579
654.755	8334.06504
654.954	8095.69783
655.153	8153.25921
655.352	7994.92738
655.551	8056.62935
655.749	7855.00148
655.948	8223.13414
656.147	7927.03404
656.346	8241.62661
656.545	7984.64194
656.743	8182.03403
656.942	7955.84
657.141	8344.33353
657.34	8182.03403
657.538	8327.90371
657.737	8138.87034
657.936	8278.60675
658.135	7970.24147
658.333	8225.18894
658.532	8223.13414
658.731	8405.9343
658.929	7955.84
659.128	8223.13414
659.326	8019.61036
659.525	8397.72187
659.724	8091.5857
659.922	8225.18894
660.121	8305.31067
660.319	8262.17192
660.518	8225.18894
660.716	8366.92251
660.915	8221.07932
661.113	8613.19686
661.312	8241.62661
661.51	8362.8156
661.709	8046.34695
661.907	8182.03403
662.105	7830.29877
662.304	8410.0404
662.502	8031.95075
662.701	8397.72187
662.899	7994.92738
663.097	8319.68833
663.296	8311.47264
663.494	8340.2262
663.692	7962.01218
663.891	8231.35321
664.089	7898.22405
664.287	8389.50913
664.485	8184.08922
664.684	8321.74221
664.882	8256.00853
665.08	8212.85986
665.278	8192.3098
665.476	8126.53624
665.675	7780.88436
665.873	8208.75
666.071	8132.70338
666.269	8251.89951
666.467	8013.43989
666.665	8342.27987
666.863	8151.20372
667.061	8428.51689
667.259	8118.31311
667.457	8397.72187
667.655	8276.55246
667.853	8383.34938
668.051	8089.52961
668.249	8301.20259
668.447	8251.89951
668.645	8414.14642
668.843	8366.92251
669.041	8512.66793
669.239	8227.24372
669.437	8186.1444
669.635	8274.49816
669.833	8075.13638
670.031	7996.98441
670.229	8323.79606
670.426	7889.99188
670.624	8247.79041
670.822	7857.0599
671.02	8153.25921
671.218	8015.49674
671.415	8264.22634
671.613	8040.17728
671.811	8175.86832
672.009	8395.66871
672.206	8594.73574
672.404	7959.95481
672.602	8299.14852
672.799	7947.61013
672.997	8258.06301
673.195	8136.81471
673.392	8251.89951
673.59	8003.15537
673.788	8128.59197
673.985	8056.62935
674.183	8145.03712
674.38	7970.24147
674.578	8225.18894
674.775	7996.98441
674.973	8044.29041
675.17	7990.81327
675.368	7927.03404
675.565	7929.09174
675.763	7953.78256
675.96	7848.82608
676.158	8068.96755
676.355	7770.58817
676.553	8136.81471
676.75	7822.06387
676.947	8101.86588
677.145	7721.1592
677.342	7937.32234
677.539	7933.20708
677.737	8194.36489
677.934	8027.83737
678.131	7933.20708
678.329	7754.11319
678.526	7970.24147
678.723	7789.12093
678.92	7982.5848
679.118	7488.26713
679.315	7731.4579
679.512	7655.23504
679.709	7962.01218
679.906	7723.21899
680.104	8034.00741
680.301	7776.76595
680.498	8083.3612
680.695	7931.14942
680.892	8077.19262
681.089	7758.23206
681.286	8256.00853
681.483	7502.70201
681.68	7943.49508
681.877	7776.76595
682.075	7822.06387
682.272	7754.11319
682.469	8068.96755
682.665	7706.74014
682.862	7791.18002
683.059	7782.94353
683.256	7731.4579
683.453	7677.89891
683.65	7859.11831
683.847	8015.49674
684.044	7789.12093
684.241	7661.41635
684.438	7906.45588
684.635	7372.74994
684.831	7770.58817
685.028	7399.5725
685.225	8001.0984
685.422	7529.50684
685.619	7607.83865
685.815	7558.36952
686.012	7459.39421
686.209	7219.99719
686.405	8044.29041
686.602	7420.20273
686.799	7576.92189
686.996	7548.06191
687.192	7533.63034
687.389	7747.93473
687.586	8101.86588
687.782	7688.19983
687.979	7904.39796
688.175	7566.61523
688.372	7677.89891
688.568	7576.92189
688.765	7675.83867
688.962	7331.47726
689.158	7710.85998
689.355	7659.35593
689.551	7504.76405
689.748	7319.09375
689.944	7492.39149
690.14	7576.92189
690.337	7628.44716
690.533	7719.0994
690.73	7601.65568
690.926	7506.82607
691.123	7620.20401
691.319	7335.60492
691.515	7541.87708
691.712	7279.87409
691.908	7414.01389
692.104	7453.2066
692.301	7535.69206
692.497	7327.34951
692.693	7752.05373
692.889	7418.13981
693.086	7558.36952
693.282	7312.9017
693.478	7624.32562
693.674	7490.32932
693.87	7447.0188
694.067	7424.32852
694.263	7426.39138
694.459	7329.4134
694.655	7607.83865
694.851	7422.26564
695.047	7447.0188
695.243	7310.83764
695.439	7290.19582
695.635	7284.00285
695.831	7403.69872
696.027	7172.49539
696.224	7430.51704
696.42	7253.03502
696.615	7436.70536
696.811	7261.29359
697.007	7440.8308
697.203	7354.17831
697.399	7477.95586
697.595	7242.7113
697.791	7155.97028
697.987	6957.5574
698.183	7418.13981
698.379	7209.67171
698.575	7583.10562
698.77	7164.23302
698.966	7314.96574
699.162	7211.73685
699.358	7100.18751
699.554	6996.84303
699.749	7129.11394
699.945	6841.72068
700.141	7089.85558
700.337	7005.11265
700.532	7046.45537
700.728	7108.45265
700.924	7432.57983
701.119	7207.60655
701.315	7240.64649
701.511	7114.65127
701.706	7426.39138
701.902	7195.21511
702.097	7378.94009
702.293	7178.69195
702.489	7155.97028
702.684	7174.56093
702.88	7197.2804
703.075	6907.92179
703.271	7127.04791
703.466	6839.65152
703.662	7226.19221
703.857	7151.83878
704.053	7036.12054
704.248	7108.45265
704.443	7360.36905
704.639	6957.5574
704.834	7527.44506
705.03	6930.67306
705.225	7393.383
705.42	7029.91936
705.616	7228.25718
705.811	6891.37369
706.006	7029.91936
706.202	7100.18751
706.397	6980.3027
706.592	6926.53667
706.787	7147.70719
706.983	7073.32333
707.178	7416.07686
707.373	7038.18755
707.568	7178.69195
707.763	7147.70719
707.959	7042.32151
708.154	6943.08169
708.349	6874.82414
708.544	6965.82873
708.739	6936.87748
708.934	6876.89291
709.129	6924.46844
709.324	6723.74216
709.519	6988.57305
709.714	6773.42637
709.909	7077.45653
710.104	6678.18671
710.299	6872.75534
710.494	6744.44552
710.689	6845.85893
710.884	6897.5794
711.079	7178.69195
711.274	6576.68226
711.469	7139.44374
711.664	6895.51085
711.859	6963.76093
712.054	6976.1674
712.249	6953.42159
712.443	6922.40019
712.638	7017.51641
712.833	6847.92802
713.028	6883.0991
713.223	6653.33359
713.417	6889.30508
713.612	6655.40481
713.807	6688.5412
714.002	6427.43214
714.196	6887.23644
714.391	6901.71642
714.586	6907.92179
714.78	6847.92802
714.975	6928.60488
715.17	6549.74321
715.364	6899.64792
715.559	6696.82437
715.754	6645.04848
715.948	6385.95239
716.143	6835.51313
716.337	6421.21077
716.532	6537.30848
716.726	6508.29088
716.921	6818.95867
717.115	6825.16676
717.31	6905.85336
717.504	6611.90436
717.699	6777.56613
717.893	6412.91528
718.088	6827.23608
718.282	6624.3341
718.476	6628.47716
718.671	6404.61943
718.865	6831.37465
719.059	6599.47379
719.254	6725.8126
719.448	6595.33009
719.642	6734.09413
719.837	6450.24202
720.031	6537.30848
720.225	6458.53583
720.419	6821.02806
720.614	6609.83266
720.808	6671.97374
721.002	6417.06307
721.196	6549.74321
721.39	6392.17495
721.585	6499.9993
721.779	6336.16439
721.973	6383.87816
722.167	6261.45717
722.361	6441.94784
722.555	6336.16439
722.749	6371.43228
722.943	6352.76189
723.137	6479.26873
723.331	6111.95161
723.525	6296.73936
723.719	6192.94889
723.913	6352.76189
724.107	6379.72963
724.301	6522.80025
724.495	6186.7196
724.689	6551.81558
724.883	6290.51358
725.077	6149.33941
725.271	6124.41506
725.465	6168.03045
725.659	6105.71957
725.853	6305.04007
726.046	6234.4721
726.24	6344.46333
726.434	6300.88976
726.628	6296.73936
726.822	6020.52714
727.015	6352.76189
727.209	6026.76208
727.403	6172.18376
727.596	5956.08707
727.79	6439.87424
727.984	6278.06139
728.177	6385.95239
728.371	6101.56476
728.565	6161.80032
728.758	6211.63549
728.952	6186.7196
729.146	6184.64312
729.339	6219.94004
729.533	6392.17495
729.726	6491.70735
729.92	6184.64312
730.113	6342.38863
730.307	6084.94458
730.5	6381.80391
730.694	6251.07876
730.887	6309.19028
731.081	6319.56541
731.274	6356.91103
731.468	6116.10619
731.661	6591.18629
731.854	6292.58886
732.048	6234.4721
732.241	6095.33237
732.435	6499.9993
732.628	6491.70735
732.821	6329.93995
733.014	6093.25486
733.208	6224.09218
733.401	6155.56997
733.594	5947.77057
733.788	6097.40986
733.981	6147.26251
734.174	6091.17732
734.367	6120.26067
734.56	6089.09977
734.754	6396.3232
734.947	5935.29512
735.14	6012.21357
735.333	6371.43228
735.526	6178.41354
735.719	5999.7425
735.912	6246.92724
736.105	6093.25486
736.298	6103.64218
736.491	5972.71894
736.684	5947.77057
736.877	6003.89961
737.07	6076.63392
737.263	6118.18344
737.456	6051.69969
737.649	6309.19028
737.842	6232.39616
738.035	6130.64646
738.228	6070.40068
738.421	6093.25486
738.614	6132.72355
738.807	6249.00301
739	6051.69969
739.192	5770.95577
739.385	5908.26206
739.578	5812.57459
739.771	5904.10277
739.964	5976.87667
740.156	5887.46468
740.349	5712.67356
740.542	5997.6639
740.735	5827.13895
740.927	5858.34439
741.12	5760.54959
741.313	5918.65986
741.505	5820.89722
741.698	5635.6294
741.891	5845.86285
742.083	5743.89847
742.276	5920.73935
742.468	5835.46092
742.661	5802.17077
742.854	5970.64003
743.046	6062.08937
743.239	5931.13645
743.431	5922.81882
743.624	5804.25158
743.816	5639.79477
744.009	5685.60767
744.201	5735.57235
744.393	5598.13678
744.586	5685.60767
744.778	5885.38481
744.971	5652.29033
745.163	5714.75538
745.355	5581.47094
745.548	5754.3056
745.74	5775.11808
745.932	5845.86285
746.125	5833.38046
746.317	5756.38695
746.509	5748.06139
746.702	5725.16416
746.894	5593.97046
747.086	5904.10277
747.278	5752.22422
747.471	5614.80111
747.663	5693.93606
747.855	5762.63087
748.047	5506.45601
748.239	5906.18243
748.431	5554.38574
748.623	5804.25158
748.815	5639.79477
749.008	5785.52343
749.2	5912.42125
749.392	5912.42125
749.584	5573.13746
749.776	5931.13645
749.968	5568.97057
750.16	5668.94976
750.352	5571.05403
750.544	5552.3021
750.736	5471.02168
750.928	5658.53779
751.12	5385.53445
751.311	5443.92025
751.503	5654.37284
751.695	5468.93709
751.887	5387.61998
752.079	5631.46393
752.271	5352.16288
752.463	5614.80111
752.654	5585.63754
752.846	5583.55425
753.038	5460.59852
753.23	5673.11438
753.421	5479.35978
753.613	5637.7121
753.805	5345.90504
753.997	5360.50633
754.188	5300.00777
754.38	5404.30333
754.572	5393.87641
754.763	5566.8871
754.955	5656.45533
755.146	5493.95055
755.338	5252.01215
755.53	5612.71815
755.721	5464.76785
755.913	5375.10648
756.104	5435.58055
756.296	5414.72965
756.487	5377.19212
756.679	5373.02082
756.87	5277.05489
757.062	5128.8365
757.253	5272.88133
757.445	5318.7853
757.636	5191.47832
757.827	5252.01215
758.019	5170.60004
758.21	5239.48952
758.401	5066.17376
758.593	5279.14163
758.784	5135.10162
758.975	5354.24878
759.167	5195.6537
759.358	5237.40234
759.549	5143.45479
759.74	5304.18072
759.932	5164.3361
760.123	5126.74807
760.314	5043.19219
760.505	5122.57116
760.696	5001.40036
760.888	4884.33424
761.079	4917.78905
761.27	4957.50901
761.461	4846.69057
761.652	5191.47832
761.843	4970.05044
762.034	5147.63124
762.225	4911.51672
762.416	4917.78905
762.607	4633.23746
762.798	4930.33309
762.989	4982.59103
763.18	4934.51426
763.371	4861.33065
763.562	4967.96026
763.753	4871.78717
763.944	4800.6716
764.135	4786.02689
764.326	4838.3243
764.517	4633.23746
764.708	4907.33505
764.899	4708.6007
765.089	4892.69849
765.28	4934.51426
765.471	4921.97049
765.662	4675.10952
765.853	5028.5661
766.043	4716.97259
766.234	4901.06238
766.425	4440.51124
766.615	4850.87356
766.806	4827.86596
766.997	4719.0655
767.187	4444.70293
767.378	4731.62253
767.569	4492.90103
767.759	4559.93983
767.95	4656.26821
768.141	4813.22332
768.331	4362.94925
768.522	4553.65591
768.712	4693.94902
768.903	4486.61498
769.093	4333.59371
769.284	4486.61498
769.474	4465.66006
769.665	4670.92272
769.855	4400.68584
770.046	4589.26216
770.236	4350.36883
770.426	4463.56444
770.617	4348.27201
770.807	4480.32873
770.998	4321.01147
771.188	4321.01147
771.378	4216.12936
771.569	4302.13665
771.759	4232.91409
771.949	4394.3969
772.139	4308.42845
772.33	4323.10856
772.52	4306.3312
772.71	4434.22355
772.9	4356.65914
773.09	4524.32829
773.281	4392.30054
773.471	4515.94817
773.661	4344.07832
773.851	4323.10856
774.041	4201.44161
774.231	4247.59961
774.421	4079.70337
774.611	4230.81608
774.802	4100.69775
774.992	4348.27201
775.182	4199.34328
775.372	4258.08863
775.562	4071.30504
775.752	4157.37214
775.942	4044.00817
776.131	4274.86994
776.321	4197.24492
776.511	4088.10137
776.701	3798.18148
776.891	4056.60716
777.081	3911.67422
777.271	4214.03118
777.461	4018.80795
777.651	4027.20835
777.84	3913.77539
778.03	4209.83474
778.22	3962.09668
778.41	3959.99598
778.599	3976.80104
778.789	4222.4238
778.979	4004.10647
779.169	4182.55583
779.358	4073.40465
779.548	4180.45731
779.738	4146.87803
779.927	4157.37214
780.117	4065.00607
780.307	3836.01883
780.496	3827.61108
780.686	3909.57303
780.875	3743.5163
781.065	3661.49401
781.254	3634.14678
781.444	3743.5163
781.633	3634.14678
781.823	3857.03681
782.012	3661.49401
782.202	4035.60842
782.391	3764.54293
782.581	3663.59751
782.77	3634.14678
782.96	3846.52806
783.149	3575.23426
783.338	3722.48773
783.528	3754.02986
783.717	3785.56761
783.906	3829.71305
784.096	3743.5163
784.285	3770.85054
784.474	3854.9351
784.663	3520.51672
784.853	3533.14495
785.042	3636.25053
785.231	3655.18339
785.42	3491.04829
785.61	3596.27613
785.799	3545.77252
785.988	3554.19053
786.177	3373.1393
786.366	3638.35426
786.555	3465.78681
786.744	3299.41816
786.933	3324.69636
787.122	3516.30717
787.312	3434.2063
787.501	3499.46821
787.69	3650.97622
787.879	3642.56165
788.068	3284.67141
788.257	3448.94437
788.445	3198.28097
788.634	3554.19053
788.823	3491.04829
789.012	3476.31274
789.201	3303.63137
789.39	3415.25606
789.579	3493.1533
789.768	3343.65339
789.957	3242.53324
790.145	3484.73317
790.334	3267.81695
790.523	3366.82118
790.712	3406.83328
790.9	3503.67806
791.089	3280.45789
791.278	3602.58833
791.467	3600.48428
791.655	3547.87705
791.844	3162.45237
792.033	3339.44084
792.221	3269.92382
792.41	3356.29062
792.599	3265.71007
792.787	3381.56321
792.976	3069.6979
793.164	3187.74364
793.353	2993.7853
793.541	3541.56341
793.73	3118.18705
793.918	3411.04471
794.107	2913.63408
794.295	3183.52859
794.484	2976.91314
794.672	3158.23693
794.861	3029.6354
795.049	3179.31348
795.238	3086.56464
795.426	3202.49579
795.614	3025.41797
795.803	3183.52859
795.991	3149.80586
796.179	3364.7151
796.368	3116.079
796.556	3027.52669
796.744	3012.76531
796.932	3164.56007
797.121	2774.37457
797.309	3048.61307
797.497	2917.85309
797.685	2909.415
797.874	2995.89425
798.062	3006.43878
798.25	2816.58086
798.438	3029.6354
798.626	2875.66032
798.814	2816.58086
799.002	2860.89149
799.19	2837.68193
799.378	2903.08628
799.566	2928.40038
799.755	2715.27671
799.943	2831.35175
800.131	2930.50979
800.318	2888.31875
800.506	2740.60564
800.694	2795.4784
800.882	2611.83103
801.07	2900.97668
801.258	2662.5021
801.446	2871.44072
801.634	2765.93266
801.822	2825.02145
802.01	2670.94658
802.197	2953.71237
802.385	2613.94246
802.573	2774.37457
802.761	2740.60564
802.949	2995.89425
803.136	2898.86706
803.324	3029.6354
803.512	2841.90197
803.699	2943.16596
803.887	2884.09933
804.075	2818.69103
804.262	2647.72378
804.45	2941.05664
804.638	2635.05616
804.825	3038.07007
805.013	2799.699
805.201	3137.15877
805.388	2905.19587
805.576	3027.52669
805.763	2955.8216
805.951	2998.00319
806.138	2998.00319
806.326	2960.04003
806.513	2833.46182
806.701	2844.01198
806.888	2732.16288
807.075	3006.43878
807.263	2723.7199
807.45	2900.97668
807.638	2683.61291
807.825	2951.60312
808.012	2926.29095
808.2	3025.41797
808.387	2673.05766
808.574	2848.23194
808.761	2749.0482
808.949	2844.01198
809.136	2575.93474
809.323	2700.50063
809.51	2647.72378
809.698	2649.83501
809.885	2569.59974
810.072	2761.71163
810.259	2725.83067
810.446	2835.57188
810.633	2734.27359
810.82	2869.3309
811.008	2841.90197
811.195	2886.20905
811.382	2778.59545
811.569	2913.63408
811.756	2597.05063
811.943	2875.66032
812.13	2761.71163
812.317	2884.09933
812.504	2934.72857
812.691	2926.29095
812.878	2535.81128
813.064	2829.24167
813.251	2698.38971
813.438	2955.8216
813.625	2825.02145
813.812	2943.16596
813.999	2749.0482
814.186	2896.75743
814.372	2833.46182
814.559	3025.41797
814.746	2609.71958
814.933	3012.76531
815.12	2892.53812
815.306	3040.1787
815.493	2854.56178
815.68	2995.89425
815.866	2628.72218
816.053	2949.49385
816.24	2715.27671
816.426	2761.71163
816.613	2664.61324
816.799	2966.36756
816.986	2689.9459
817.173	2755.37997
817.359	2436.54079
817.546	2789.14739
817.732	2504.1319
817.919	2911.52454
818.105	2698.38971
818.292	2787.03703
818.478	2808.14004
818.665	3006.43878
818.851	2658.27978
819.037	2749.0482
819.224	2679.39085
819.41	2717.38753
819.597	2732.16288
819.783	2641.39002
819.969	2580.15801
820.156	2601.27366
820.342	2683.61291
820.528	2698.38971
820.714	2529.47561
820.901	2907.30544
821.087	2546.3705
821.273	2673.05766
821.459	2468.22553
821.646	2622.38809
821.832	2546.3705
822.018	2531.58751
822.204	2537.92315
822.39	2825.02145
822.576	2685.72392
822.762	2820.80118
822.948	2578.04638
823.134	2770.15364
823.32	2563.26463
823.507	2875.66032
823.693	2685.72392
823.879	2673.05766
824.065	2444.99029
824.25	2700.50063
824.436	2457.66422
824.622	2816.58086
824.808	2613.94246
824.994	2706.83332
825.18	2362.60046
825.366	2597.05063
825.552	2267.51632
825.738	2637.16746
825.923	2373.16413
826.109	2641.39002
826.295	2233.70405
826.481	2542.14685
826.667	2373.16413
826.852	2432.31598
827.038	2294.98706
827.224	2461.88878
827.409	2379.50222
827.595	2356.26213
827.781	2330.90792
827.966	2419.64127
828.152	2202.003
828.338	2457.66422
828.523	2352.03652
828.709	2567.48805
828.894	2417.52879
829.08	2390.06549
829.266	2322.4562
829.451	2480.89874
829.637	2333.02082
829.822	2212.57023
830.008	2447.10264
830.193	2497.79572
830.378	2174.52719
830.564	2495.68364
830.749	2320.34325
830.935	2316.11731
831.12	2125.91276
831.305	2261.17669
831.491	2159.73195
831.676	2373.16413
831.861	2136.48148
832.047	2335.13372
832.232	2104.77476
832.417	2003.30218
832.602	2168.18642
832.788	2237.93071
832.973	2007.53052
833.158	2187.20851
833.343	2174.52719
833.528	2259.06347
833.714	2244.27063
833.899	2166.07282
834.084	2009.64468
834.269	2345.69805
834.454	2121.68522
834.639	2240.04403
834.824	2256.95023
835.009	2343.5852
835.194	2142.82261
835.379	2326.68208
835.564	2102.66091
835.749	2221.02386
835.934	2134.36775
836.119	1965.24597
836.304	1948.33146
836.489	2058.26851
836.674	1819.34672
836.859	1863.75345
837.044	1977.9316
837.228	2009.64468
837.413	1766.479
837.598	1946.21712
837.783	1798.19994
837.968	1859.52433
838.152	1840.49304
838.337	1984.27433
838.522	1867.98256
838.707	2056.15451
838.891	1736.87199
839.076	1922.95898
839.261	1713.60886
839.445	1992.73122
839.63	1808.77338
839.815	1956.78876
839.999	1751.67558
840.184	1946.21712
840.368	1728.41272
840.553	1903.92909
840.737	1789.74111
840.922	2013.87298
841.106	1654.39191
841.291	1872.21164
841.475	1827.8053
841.66	2075.18028
841.844	1798.19994
842.029	2005.41636
842.213	1667.08145
842.397	1658.62177
842.582	1688.23045
842.766	1870.0971
842.951	1692.46021
843.135	1973.70308
843.319	1622.6677
843.504	1836.26381
843.688	1561.33292
843.872	1620.55273
844.056	1810.88806
844.241	1844.72225
844.425	1768.59375
844.609	1760.1347
844.793	1612.09285
844.977	1658.62177
845.161	1523.26242
845.346	1738.9868
845.53	1311.75872
845.714	1603.63293
845.898	1546.52777
846.082	1597.28797
846.266	1514.80227
846.45	1593.05799
846.634	1332.90871
846.818	1584.598
847.002	1491.53678
847.186	1777.05275
847.37	1394.24449
847.554	1531.72256
847.738	1351.94384
847.922	1635.35745
848.106	1383.66929
848.29	1618.43776
848.473	1368.86405
848.657	1455.58092
848.841	1472.50133
849.025	1711.49401
849.209	1461.92607
849.392	1633.24249
849.576	1339.25374
849.76	1474.61638
849.944	1320.2187
850.127	1390.01441
850.311	1256.76969
850.495	1390.01441
850.678	1337.13873
850.862	1339.25374
851.046	1267.34438
851.229	1398.47458
851.413	1315.9887
851.596	1519.03235
851.78	1252.53983
851.964	1523.26242
852.147	1218.70137
852.331	1394.24449
852.514	1231.3907
852.698	1354.05887
852.881	1180.63408
853.065	1220.81625
853.248	1237.73541
853.431	1337.13873
853.615	1110.84729
853.798	1161.60087
853.982	1045.29468
854.165	1326.5637
854.348	1068.55471
854.532	1328.6787
854.715	1277.91913
854.898	1267.34438
855.081	1146.79749
855.265	1206.01215
855.448	1009.34873
855.631	1231.3907
855.814	1140.45325
855.997	1307.52874
856.181	1053.75279
856.364	1220.81625
856.547	1041.06565
856.73	1089.70075
856.913	1096.04466
857.096	1269.45932
857.279	1026.26425
857.462	1138.33851
857.645	1070.66929
857.828	1275.80418
858.011	1142.56799
858.194	1222.93113
858.377	1053.75279
858.56	1142.56799
858.743	1043.18016
858.926	1127.76487
859.109	1011.46315
859.292	1102.38862
859.475	948.03341
859.658	1108.73262
859.841	1005.11991
860.023	1087.58612
860.206	1024.14979
860.389	1024.14979
860.572	960.71887
860.755	1053.75279
860.937	865.58452
861.12	1068.55471
861.303	865.58452
861.486	1028.37872
861.668	901.52231
861.851	903.63637
862.034	939.57658
862.216	1026.26425
862.399	907.86452
862.581	971.29028
862.764	895.18018
862.947	909.9786
863.129	867.69844
863.312	1019.92089
863.494	897.29422
863.677	890.95213
863.859	838.10432
864.042	958.60461
864.224	838.10432
864.406	973.40458
864.589	711.29325
864.771	920.54914
864.954	762.01336
865.136	977.6332
865.318	732.42589
865.501	863.47061
865.683	755.67302
865.865	755.67302
866.048	685.93553
866.23	740.87925
866.412	762.01336
866.594	950.14763
866.777	791.60282
866.959	821.19417
867.141	688.04861
867.323	795.83004
867.505	783.14849
867.687	778.92139
867.869	774.69432
868.052	821.19417
868.234	662.69239
868.416	793.71643
868.598	666.91831
868.78	778.92139
868.962	605.64718
869.144	795.83004
869.326	698.61419
869.508	764.12683
869.69	692.27481
869.872	745.10599
870.054	734.53922
870.236	863.47061
870.417	704.95367
870.599	762.01336
870.781	715.51969
870.963	812.73931
871.145	622.54853
871.327	719.74618
871.508	609.87244
871.69	736.65255
871.872	660.57945
872.054	745.10599
872.235	656.3536
872.417	857.12892
872.599	681.7094
872.78	787.37564
872.962	609.87244
873.144	895.18018
873.325	673.25728
873.507	630.9995
873.689	643.67633
873.87	719.74618
874.052	611.98509
874.233	711.29325
874.415	677.48332
874.596	669.03129
874.778	487.36163
874.959	707.06685
875.141	614.09776
875.322	694.38792
875.503	688.04861
875.685	772.5808
875.866	647.90204
876.048	772.5808
876.229	571.84695
876.41	764.12683
876.592	483.13796
876.773	592.97171
876.954	588.74665
877.136	681.7094
877.317	654.24069
877.498	751.44618
877.679	688.04861
877.86	745.10599
878.042	723.97271
878.223	745.10599
878.404	637.33786
878.585	840.21813
878.766	616.21043
878.947	776.80785
879.128	584.52165
879.309	776.80785
879.49	620.43582
879.672	698.61419
879.853	660.57945
880.034	702.8405
880.215	470.46733
880.396	770.4673
880.576	645.78918
880.757	762.01336
880.938	624.66125
881.119	652.12779
881.3	681.7094
881.481	698.61419
881.662	580.2967
881.843	611.98509
882.023	618.32312
882.204	747.21937
882.385	641.5635
882.566	633.11228
882.747	597.19681
882.927	726.08599
883.108	618.32312
883.289	592.97171
883.469	654.24069
883.65	740.87925
883.831	658.46652
884.011	755.67302
884.192	688.04861
884.373	730.31258
884.553	588.74665
884.734	620.43582
884.914	673.25728
885.095	795.83004
885.275	571.84695
885.456	584.52165
885.636	609.87244
885.817	671.14428
885.997	650.01491
886.178	702.8405
886.358	592.97171
886.538	618.32312
886.719	552.83581
886.899	671.14428
887.08	630.9995
887.26	696.50105
887.44	569.73455
887.621	713.40647
887.801	576.0718
887.981	588.74665
888.161	578.18424
888.342	707.06685
888.522	711.29325
888.702	694.38792
888.882	493.69724
889.062	702.8405
889.242	592.97171
889.423	783.14849
889.603	669.03129
889.783	656.3536
889.963	595.08425
890.143	685.93553
890.323	669.03129
890.503	681.7094
890.683	622.54853
890.863	694.38792
891.043	559.17274
891.223	669.03129
891.403	508.48083
891.583	804.2846
891.763	603.53457
891.943	618.32312
892.122	609.87244
892.302	639.45067
892.482	592.97171
892.662	673.25728
892.842	584.52165
893.022	728.19928
893.201	559.17274
893.381	645.78918
893.561	552.83581
893.741	719.74618
893.92	527.48935
894.1	588.74665
894.28	630.9995
894.459	650.01491
894.639	597.19681
894.819	614.09776
894.998	519.04098
895.178	690.1617
895.357	500.03297
895.537	719.74618
895.716	597.19681
895.896	715.51969
896.075	516.92892
896.255	652.12779
896.434	474.69081
896.614	559.17274
896.793	491.58535
896.973	493.69724
897.152	533.82578
897.331	592.97171
897.511	445.1277
897.69	580.2967
897.87	476.80258
898.049	542.27454
898.228	550.72353
898.407	447.23925
898.587	516.92892
898.766	407.12248
898.945	457.79724
899.124	493.69724
899.304	440.90465
899.483	436.68165
899.662	474.69081
899.841	493.69724
900.02	386.01073
900.199	516.92892
900.378	394.45523
900.557	491.58535
900.737	436.68165
900.916	504.25687
901.095	305.80158
901.274	519.04098
901.453	386.01073
901.632	402.9
901.811	402.9
901.989	356.45708
902.168	398.67758
902.347	504.25687
902.526	305.80158
902.705	398.67758
902.884	443.01617
903.063	462.02054
903.242	381.78858
903.42	525.37723
903.599	301.58075
903.778	390.23295
903.957	291.029
904.135	286.80843
904.314	282.58793
904.493	405.01123
904.672	310.02248
904.85	411.34503
905.029	280.47771
905.207	383.89964
905.386	307.91202
905.565	318.4645
905.743	367.01157
905.922	322.68561
906.1	305.80158
906.279	291.029
906.457	248.82665
906.636	335.34939
906.814	208.74152
906.993	322.68561
907.171	320.57505
907.35	234.05762
907.528	263.59661
907.707	257.26651
907.885	225.6186
908.063	291.029
908.242	259.37653
908.42	293.13931
908.598	255.15652
908.777	297.36
908.955	244.60683
909.133	265.70668
909.311	225.6186
909.49	272.03701
909.668	187.64696
909.846	250.93658
910.024	170.77278
910.202	246.71673
910.38	280.47771
910.559	297.36
910.737	234.05762
910.915	261.48656
911.093	225.6186
911.271	208.74152
911.449	204.52245
911.627	297.36
911.805	272.03701
911.983	250.93658
912.161	269.92688
912.339	208.74152
912.517	219.28955
912.695	282.58793
912.872	248.82665
913.05	265.70668
913.228	168.6636
913.406	246.71673
913.584	223.5089
913.762	223.5089
913.939	196.08454
914.117	293.13931
914.295	179.20971
914.473	206.63197
914.65	248.82665
914.828	156.00896
915.006	170.77278
915.184	217.1799
915.361	244.60683
915.539	255.15652
915.716	141.24617
915.894	280.47771
916.072	198.19399
916.249	284.69817
916.427	198.19399
916.604	259.37653
916.782	250.93658
916.959	310.02248
917.137	242.49695
917.314	259.37653
917.492	229.83807
917.669	263.59661
917.847	307.91202
918.024	212.96067
918.201	113.83233
918.379	255.15652
918.556	158.11802
918.733	250.93658
918.911	189.75633
919.088	170.77278
919.265	168.6636
919.442	206.63197
919.62	191.86571
919.797	248.82665
919.974	128.59318
920.151	198.19399
920.328	200.30345
920.506	267.81677
920.683	250.93658
920.86	208.74152
921.037	162.33619
921.214	261.48656
921.391	196.08454
921.568	187.64696
921.745	177.10045
921.922	198.19399
922.099	139.13728
922.276	153.89993
922.453	238.27725
922.63	156.00896
922.807	118.04961
922.984	215.07028
923.161	120.15828
923.338	168.6636
923.514	137.02842
923.691	183.42829
923.868	162.33619
924.045	181.31899
924.222	126.48442
924.399	149.68192
924.575	221.39921
924.752	77.98905
924.929	111.72373
925.105	179.20971
925.282	181.31899
925.459	229.83807
925.635	139.13728
925.812	141.24617
925.989	90.63889
926.165	52.69182
926.342	168.6636
926.518	82.20557
926.695	181.31899
926.871	115.94096
927.048	111.72373
927.224	80.0973
927.401	128.59318
927.577	126.48442
927.754	111.72373
927.93	187.64696
928.107	107.50658
928.283	124.37568
928.459	105.39804
928.636	115.94096
928.812	82.20557
928.988	115.94096
929.165	151.79091
929.341	139.13728
929.517	31.61332
929.693	109.61514
929.87	63.23193
930.046	160.22709
930.222	90.63889
930.398	107.50658
930.574	82.20557
930.751	113.83233
930.927	99.07256
931.103	33.72107
931.279	99.07256
931.455	139.13728
931.631	105.39804
931.807	145.464
931.983	33.72107
932.159	46.36803
932.335	54.79979
932.511	124.37568
932.687	94.85568
932.863	105.39804
933.039	128.59318
933.215	103.28953
933.391	156.00896
933.566	120.15828
933.742	94.85568
933.918	128.59318
934.094	21.07496
934.27	25.29023
934.445	18.96735
934.621	27.39791
934.797	37.93663
934.973	77.98905
935.148	0
935.324	61.12386
935.5	86.42218
935.675	90.63889
935.851	153.89993
936.027	6.32224
936.202	37.93663
936.378	-4.2147
936.553	6.32224
936.729	99.07256
936.904	80.0973
937.08	48.47593
937.255	65.34002
937.431	61.12386
937.606	37.93663
937.782	86.42218
937.957	-10.53658
938.133	71.66443
938.308	35.82884
938.483	23.18258
938.659	52.69182
938.834	88.53052
939.009	44.26014
939.185	46.36803
939.36	37.93663
939.535	-14.75104
939.71	27.39791
939.886	52.69182
940.061	48.47593
940.236	35.82884
940.411	21.07496
940.586	37.93663
940.761	6.32224
940.937	-29.50088
941.112	61.12386
941.287	50.58386
941.462	4.2148
941.637	63.23193
941.812	56.90779
941.987	-35.82187
942.162	-86.38163
942.337	-31.6079
942.512	56.90779
942.687	37.93663
942.862	-35.82187
943.037	40.04444
943.212	40.04444
943.386	-40.03573
943.561	27.39791
943.736	18.96735
943.911	-40.03573
944.086	33.72107
944.26	2.10739
944.435	84.31387
944.61	71.66443
944.785	52.69182
944.959	137.02842
945.134	16.85977
945.309	4.2148
945.483	71.66443
945.658	4.2148
945.833	35.82884
946.007	23.18258
946.182	46.36803
946.357	-2.10736
946.531	4.2148
946.706	126.48442
946.88	-6.32202
947.055	42.15228
947.229	52.69182
947.404	42.15228
947.578	-40.03573
947.752	21.07496
947.927	6.32224
948.101	82.20557
948.276	33.72107
948.45	35.82884
948.624	35.82884
948.799	-6.32202
948.973	35.82884
949.147	-21.07254
949.321	103.28953
949.496	-23.17966
949.67	94.85568
949.844	59.01582
950.018	65.34002
950.193	21.07496
950.367	-14.75104
950.541	54.79979
950.715	-12.64382
950.889	2.10739
951.063	-33.71489
951.237	-21.07254
951.411	69.55627
951.585	56.90779
951.759	-14.75104
951.933	27.39791
952.107	54.79979
952.281	33.72107
952.455	42.15228
952.629	61.12386
952.803	27.39791
952.977	113.83233
953.151	90.63889
953.325	31.61332
953.499	23.18258
953.672	80.0973
953.846	50.58386
954.02	-14.75104
954.194	-52.67674
954.368	25.29023
954.541	54.79979
954.715	-8.42931
954.889	0
955.062	2.10739
955.236	59.01582
955.41	4.2148
955.583	29.5056
955.757	23.18258
955.93	10.53718
956.104	-2.10736
956.278	-23.17966
956.451	-25.28676
956.625	10.53718
956.798	-21.07254
956.972	46.36803
957.145	92.74727
957.319	61.12386
957.492	23.18258
957.665	2.10739
957.839	103.28953
958.012	-71.63655
958.185	-14.75104
958.359	27.39791
958.532	86.42218
958.705	-2.10736
958.879	80.0973
959.052	27.39791
959.225	29.5056
959.398	27.39791
959.572	21.07496
959.745	21.07496
959.918	-8.42931
960.091	-8.42931
960.264	42.15228
960.438	103.28953
960.611	61.12386
960.784	113.83233
960.957	54.79979
961.13	-2.10736
961.303	25.29023
961.476	18.96735
961.649	65.34002
961.822	63.23193
961.995	27.39791
962.168	56.90779
962.341	0
962.514	54.79979
962.686	103.28953
962.859	-23.17966
963.032	-12.64382
963.205	-12.64382
963.378	37.93663
963.551	71.66443
963.723	52.69182
963.896	-18.9654
964.069	61.12386
964.242	-12.64382
964.414	92.74727
964.587	69.55627
964.76	69.55627
964.932	56.90779
965.105	69.55627
965.278	-31.6079
965.45	-6.32202
965.623	18.96735
965.795	8.4297
965.968	4.2148
966.14	118.04961
966.313	46.36803
966.485	44.26014
966.658	59.01582
966.83	-8.42931
967.003	80.0973
967.175	-31.6079
967.348	-6.32202
967.52	-8.42931
967.692	-23.17966
967.865	31.61332
968.037	10.53718
968.209	-27.39383
968.382	137.02842
968.554	52.69182
968.726	-2.10736
968.898	103.28953
969.071	90.63889
969.243	52.69182
969.415	40.04444
969.587	141.24617
969.759	-31.6079
969.932	-29.50088
970.104	44.26014
970.276	27.39791
970.448	29.5056
970.62	61.12386
970.792	-6.32202
970.964	-27.39383
971.136	-2.10736
971.308	-8.42931
971.48	94.85568
971.652	96.96411
971.824	-16.85823
971.996	71.66443
972.168	35.82884
972.339	18.96735
972.511	21.07496
972.683	27.39791
972.855	56.90779
973.027	10.53718
973.199	-6.32202
973.37	63.23193
973.542	27.39791
973.714	4.2148
973.886	-52.67674
974.057	31.61332
974.229	-31.6079
974.401	21.07496
974.572	-6.32202
974.744	6.32224
974.915	35.82884
975.087	25.29023
975.259	101.18103
975.43	-23.17966
975.602	50.58386
975.773	12.64469
975.945	-14.75104
976.116	-4.2147
976.288	80.0973
976.459	-2.10736
976.63	65.34002
976.802	14.75222
976.973	35.82884
977.145	27.39791
977.316	99.07256
977.487	12.64469
977.659	37.93663
977.83	-65.31684
978.001	65.34002
978.172	77.98905
978.344	8.4297
978.515	44.26014
978.686	31.61332
978.857	65.34002
979.028	-42.14263
979.2	27.39791
979.371	12.64469
979.542	0
979.713	31.61332
979.884	2.10739
980.055	10.53718
980.226	-54.78349
980.397	90.63889
980.568	16.85977
980.739	-12.64382
980.91	18.96735
981.081	40.04444
981.252	103.28953
981.423	86.42218
981.594	44.26014
981.765	-18.9654
981.936	77.98905
982.106	50.58386
982.277	-2.10736
982.448	69.55627
982.619	-21.07254
982.79	-40.03573
982.96	21.07496
983.131	-31.6079
983.302	63.23193
983.472	-18.9654
983.643	33.72107
983.814	40.04444
983.984	75.88082
984.155	52.69182
984.326	-6.32202
984.496	-23.17966
984.667	-14.75104
984.837	-18.9654
985.008	2.10739
985.178	-44.2495
985.349	-14.75104
985.519	29.5056
985.69	82.20557
985.86	48.47593
986.031	27.39791
986.201	23.18258
986.371	-14.75104
986.542	4.2148
986.712	73.77262
986.882	14.75222
987.053	37.93663
987.223	-42.14263
987.393	-50.56997
987.563	-12.64382
987.734	48.47593
987.904	31.61332
988.074	18.96735
988.244	44.26014
988.414	61.12386
988.585	-37.92881
988.755	27.39791
988.925	46.36803
989.095	61.12386
989.265	-27.39383
989.435	18.96735
989.605	44.26014
989.775	-10.53658
989.945	12.64469
990.115	23.18258
990.285	-18.9654
990.455	-8.42931
990.625	14.75222
990.795	59.01582
990.965	-48.46317
991.134	44.26014
991.304	-54.78349
991.474	52.69182
991.644	-12.64382
991.814	52.69182
991.984	-40.03573
992.153	-14.75104
992.323	27.39791
992.493	88.53052
992.662	21.07496
992.832	-4.2147
993.002	-42.14263
993.171	18.96735
993.341	25.29023
993.511	-6.32202
993.68	48.47593
993.85	10.53718
994.019	-52.67674
994.189	10.53718
994.358	-27.39383
994.528	14.75222
994.697	-54.78349
994.867	88.53052
995.036	69.55627
995.206	4.2148
995.375	-27.39383
995.544	14.75222
995.714	21.07496
995.883	10.53718
996.052	46.36803
996.222	-12.64382
996.391	48.47593
996.56	27.39791
996.73	23.18258
996.899	-4.2147
997.068	27.39791
997.237	0
997.406	75.88082
997.576	-61.10358
997.745	-2.10736
997.914	33.72107
998.083	80.0973
998.252	54.79979
998.421	18.96735
998.59	40.04444
998.759	40.04444
998.928	44.26014
999.097	-50.56997
999.266	31.61332
999.435	-46.35635
999.604	33.72107
999.773	-48.46317
999.942	52.69182
1000.111	23.18258
1000.28	73.77262
1000.448	6.32224
1000.617	54.79979
1000.786	-31.6079
1000.955	4.2148
1001.124	-42.14263
1001.292	14.75222
1001.461	-10.53658
1001.63	21.07496
1001.798	-37.92881
1001.967	-48.46317
1002.136	35.82884
1002.304	6.32224
1002.473	2.10739
1002.642	-82.16888
1002.81	-27.39383
1002.979	6.32224
1003.147	42.15228
1003.316	12.64469
1003.484	31.61332
1003.653	12.64469
1003.821	-8.42931
1003.99	-10.53658
1004.158	29.5056
1004.327	42.15228
1004.495	-12.64382
1004.663	10.53718
1004.832	18.96735
1005	-65.31684
1005.168	31.61332
1005.337	31.61332
1005.505	4.2148
1005.673	48.47593
1005.842	59.01582
1006.01	31.61332
1006.178	4.2148
1006.346	37.93663
1006.514	-52.67674
1006.683	-35.82187
1006.851	35.82884
1007.019	-25.28676
1007.187	-58.9969
1007.355	-48.46317
1007.523	-6.32202
1007.691	56.90779
1007.859	44.26014
1008.027	-58.9969
1008.195	-18.9654
1008.363	-2.10736
1008.531	46.36803
1008.699	-14.75104
1008.867	10.53718
1009.035	10.53718
1009.203	8.4297
1009.37	-105.33773
1009.538	21.07496
1009.706	35.82884
1009.874	18.96735
1010.042	52.69182
1010.209	-2.10736
1010.377	-25.28676
1010.545	40.04444
1010.713	6.32224
1010.88	-18.9654
1011.048	46.36803
1011.216	23.18258
1011.383	86.42218
1011.551	21.07496
1011.718	18.96735
1011.886	-56.89021
1012.054	14.75222
1012.221	21.07496
1012.389	-40.03573
1012.556	27.39791
1012.724	-18.9654
1012.891	-31.6079
1013.058	-56.89021
1013.226	-27.39383
1013.393	-2.10736
1013.561	6.32224
1013.728	46.36803
1013.895	8.4297
1014.063	18.96735
1014.23	29.5056
1014.397	12.64469
1014.565	-2.10736
1014.732	21.07496
1014.899	4.2148
1015.066	-25.28676
1015.233	23.18258
1015.401	69.55627
1015.568	-69.53
1015.735	61.12386
1015.902	21.07496
1016.069	52.69182
1016.236	16.85977
1016.403	14.75222
1016.57	21.07496
1016.737	59.01582
1016.904	-25.28676
1017.071	27.39791
1017.238	25.29023
1017.405	10.53718
1017.572	-21.07254
1017.739	61.12386
1017.906	10.53718
1018.073	-27.39383
1018.24	-35.82187
1018.407	2.10739
1018.573	61.12386
1018.74	18.96735
1018.907	-14.75104
1019.074	27.39791
1019.241	-31.6079
1019.407	-23.17966
1019.574	46.36803
1019.741	10.53718
1019.907	27.39791
1020.074	6.32224
1020.241	-61.10358
1020.407	59.01582
1020.574	29.5056
1020.74	-31.6079
1020.907	-18.9654
1021.073	54.79979
1021.24	-21.07254
1021.406	6.32224
1021.573	59.01582
1021.739	63.23193
1021.906	25.29023
1022.072	-10.53658
1022.239	-31.6079
1022.405	44.26014
1022.571	-16.85823
1022.738	23.18258
1022.904	4.2148
1023.07	12.64469
1023.237	-12.64382
1023.403	6.32224
1023.569	14.75222
1023.735	80.0973
1023.902	-23.17966
1024.068	-44.2495
1024.234	-31.6079
1024.4	27.39791
1024.566	-44.2495
1024.732	-14.75104
1024.898	44.26014
1025.065	-69.53
1025.231	56.90779
1025.397	21.07496
1025.563	-12.64382
1025.729	-27.39383
1025.895	-56.89021
1026.061	31.61332
1026.227	48.47593
1026.392	-10.53658
1026.558	44.26014
1026.724	-31.6079
1026.89	-21.07254
1027.056	-23.17966
1027.222	-63.21022
1027.388	33.72107
1027.553	10.53718
1027.719	48.47593
1027.885	-14.75104
1028.051	-75.84956
1028.216	-44.2495
1028.382	-14.75104
1028.548	-21.07254
1028.713	27.39791
1028.879	-2.10736
1029.045	-4.2147
1029.21	4.2148
1029.376	-23.17966
1029.541	-4.2147
1029.707	69.55627
1029.873	2.10739
1030.038	82.20557
1030.204	-35.82187
1030.369	-46.35635
1030.534	23.18258
1030.7	44.26014
1030.865	120.15828
1031.031	37.93663
1031.196	35.82884
1031.361	23.18258
1031.527	18.96735
1031.692	10.53718
1031.857	10.53718
1032.023	35.82884
1032.188	10.53718
1032.353	-27.39383
1032.518	-29.50088
1032.684	69.55627
1032.849	90.63889
1033.014	0
1033.179	-37.92881
1033.344	37.93663
1033.509	-33.71489
1033.674	-2.10736
1033.839	-67.42343
1034.004	12.64469
1034.17	-10.53658
1034.335	-21.07254
1034.5	-25.28676
1034.664	73.77262
1034.829	29.5056
1034.994	-12.64382
1035.159	14.75222
1035.324	10.53718
1035.489	52.69182
1035.654	-113.76198
1035.819	-44.2495
1035.984	-27.39383
1036.148	33.72107
1036.313	29.5056
1036.478	-2.10736
1036.643	16.85977
1036.807	-40.03573
1036.972	-18.9654
1037.137	-31.6079
1037.301	6.32224
1037.466	69.55627
1037.631	-46.35635
1037.795	4.2148
1037.96	-4.2147
1038.124	6.32224
1038.289	21.07496
1038.454	14.75222
1038.618	40.04444
1038.783	-23.17966
1038.947	10.53718
1039.111	6.32224
1039.276	18.96735
1039.44	31.61332
1039.605	31.61332
1039.769	-40.03573
1039.933	71.66443
1040.098	23.18258
1040.262	-14.75104
1040.426	90.63889
1040.591	18.96735
1040.755	44.26014
1040.919	-48.46317
1041.083	-23.17966
1041.248	14.75222
1041.412	31.61332
1041.576	-2.10736
1041.74	-63.21022
1041.904	-37.92881
1042.068	8.4297
1042.232	23.18258
1042.397	61.12386
1042.561	6.32224
1042.725	42.15228
1042.889	14.75222
1043.053	-12.64382
1043.217	-40.03573
1043.381	-14.75104
1043.544	21.07496
1043.708	67.44814
1043.872	46.36803
1044.036	12.64469
1044.2	-37.92881
1044.364	50.58386
1044.528	18.96735
1044.691	-37.92881
1044.855	-71.63655
1045.019	10.53718
1045.183	18.96735
1045.346	63.23193
1045.51	18.96735
1045.674	-31.6079
1045.837	18.96735
1046.001	18.96735
1046.165	-48.46317
1046.328	67.44814
1046.492	84.31387
1046.655	-46.35635
1046.819	-67.42343
1046.983	52.69182
1047.146	-27.39383
1047.31	10.53718
1047.473	-40.03573
1047.636	56.90779
1047.8	-35.82187
1047.963	21.07496
1048.127	35.82884
1048.29	27.39791
