Data from absorb_only_2.23.25_USB4F045381__50__0155.txt Node

Date: Sun Feb 23 19:21:35 EST 2025
User: ssocol
Spectrometer: USB4F04538
Trigger mode: 4
Integration Time (sec): 2.600000E-3
Scans to average: 1
Electric dark correction enabled: true
Nonlinearity correction enabled: true
Boxcar width: 0
XAxis mode: Wavelengths
Number of Pixels in Spectrum: 3648
>>>>>Begin Spectral Data<<<<<
345.52	23.18258
345.736	23.18258
345.952	23.18258
346.168	-56.89021
346.384	-10.53658
346.6	-27.39383
346.816	40.04444
347.032	-18.9654
347.248	6.32224
347.464	27.39791
347.68	31.61332
347.896	-2.10736
348.112	-14.75104
348.328	-27.39383
348.544	25.29023
348.76	-50.56997
348.975	10.53718
349.191	-10.53658
349.407	50.58386
349.623	25.29023
349.839	-42.14263
350.055	-25.28676
350.27	-18.9654
350.486	16.85977
350.702	59.01582
350.918	-84.27527
351.133	18.96735
351.349	-0
351.565	-18.9654
351.781	-50.56997
351.996	6.32224
352.212	12.64469
352.428	27.39791
352.644	-52.67674
352.859	42.15228
353.075	-2.10736
353.291	-6.32202
353.506	-16.85823
353.722	-77.95602
353.938	-8.42931
354.153	-8.42931
354.369	16.85977
354.584	10.53718
354.8	-2.10736
355.016	-16.85823
355.231	37.93663
355.447	-8.42931
355.662	40.04444
355.878	-2.10736
356.093	-27.39383
356.309	18.96735
356.524	6.32224
356.74	-35.82187
356.955	-31.6079
357.171	-12.64382
357.386	-25.28676
357.602	-2.10736
357.817	21.07496
358.033	16.85977
358.248	48.47593
358.464	-2.10736
358.679	56.90779
358.895	77.98905
359.11	2.10739
359.325	-44.2495
359.541	-12.64382
359.756	-23.17966
359.972	59.01582
360.187	48.47593
360.402	8.4297
360.618	-18.9654
360.833	48.47593
361.048	35.82884
361.264	-27.39383
361.479	33.72107
361.694	-40.03573
361.909	-27.39383
362.125	-4.2147
362.34	-10.53658
362.555	-29.50088
362.77	18.96735
362.986	31.61332
363.201	-52.67674
363.416	90.63889
363.631	31.61332
363.847	-10.53658
364.062	14.75222
364.277	-23.17966
364.492	50.58386
364.707	-33.71489
364.922	2.10739
365.138	-2.10736
365.353	8.4297
365.568	52.69182
365.783	-8.42931
365.998	-35.82187
366.213	25.29023
366.428	14.75222
366.643	48.47593
366.858	-16.85823
367.073	-6.32202
367.288	31.61332
367.503	14.75222
367.718	-31.6079
367.933	73.77262
368.148	44.26014
368.363	42.15228
368.578	54.79979
368.793	8.4297
369.008	-48.46317
369.223	14.75222
369.438	-73.74306
369.653	-6.32202
369.868	2.10739
370.083	99.07256
370.298	-50.56997
370.513	50.58386
370.728	48.47593
370.943	6.32224
371.157	-27.39383
371.372	40.04444
371.587	10.53718
371.802	2.10739
372.017	-31.6079
372.232	-0
372.446	23.18258
372.661	-29.50088
372.876	-56.89021
373.091	-18.9654
373.306	128.59318
373.52	23.18258
373.735	-6.32202
373.95	31.61332
374.165	-0
374.379	31.61332
374.594	25.29023
374.809	67.44814
375.023	67.44814
375.238	-37.92881
375.453	-44.2495
375.667	-35.82187
375.882	50.58386
376.097	6.32224
376.311	-25.28676
376.526	23.18258
376.741	-48.46317
376.955	-27.39383
377.17	-16.85823
377.384	63.23193
377.599	46.36803
377.813	14.75222
378.028	-48.46317
378.242	56.90779
378.457	18.96735
378.672	-37.92881
378.886	40.04444
379.101	10.53718
379.315	-50.56997
379.53	56.90779
379.744	65.34002
379.958	-21.07254
380.173	35.82884
380.387	90.63889
380.602	-16.85823
380.816	25.29023
381.031	-6.32202
381.245	71.66443
381.459	-2.10736
381.674	-33.71489
381.888	4.2148
382.103	-0
382.317	6.32224
382.531	27.39791
382.746	10.53718
382.96	61.12386
383.174	40.04444
383.388	65.34002
383.603	-0
383.817	-6.32202
384.031	-0
384.246	-18.9654
384.46	-12.64382
384.674	-31.6079
384.888	56.90779
385.103	8.4297
385.317	-2.10736
385.531	31.61332
385.745	40.04444
385.959	-0
386.174	-16.85823
386.388	92.74727
386.602	-18.9654
386.816	16.85977
387.03	40.04444
387.244	-2.10736
387.458	67.44814
387.672	42.15228
387.887	23.18258
388.101	31.61332
388.315	-2.10736
388.529	75.88082
388.743	54.79979
388.957	101.18103
389.171	8.4297
389.385	21.07496
389.599	-14.75104
389.813	25.29023
390.027	27.39791
390.241	44.26014
390.455	-25.28676
390.669	52.69182
390.883	-21.07254
391.097	40.04444
391.311	-16.85823
391.525	31.61332
391.738	-42.14263
391.952	42.15228
392.166	27.39791
392.38	-25.28676
392.594	6.32224
392.808	-18.9654
393.022	-18.9654
393.236	65.34002
393.449	52.69182
393.663	82.20557
393.877	-65.31684
394.091	48.47593
394.305	-101.12544
394.518	-56.89021
394.732	-73.74306
394.946	40.04444
395.16	-2.10736
395.373	12.64469
395.587	2.10739
395.801	77.98905
396.015	-56.89021
396.228	37.93663
396.442	48.47593
396.656	10.53718
396.869	-10.53658
397.083	16.85977
397.297	-80.06246
397.51	50.58386
397.724	6.32224
397.938	-42.14263
398.151	25.29023
398.365	27.39791
398.578	158.11802
398.792	-21.07254
399.005	18.96735
399.219	-0
399.433	-16.85823
399.646	54.79979
399.86	23.18258
400.073	-2.10736
400.287	27.39791
400.5	-40.03573
400.714	-0
400.927	52.69182
401.141	33.72107
401.354	-16.85823
401.567	25.29023
401.781	75.88082
401.994	29.5056
402.208	56.90779
402.421	33.72107
402.635	40.04444
402.848	56.90779
403.061	-27.39383
403.275	35.82884
403.488	88.53052
403.701	77.98905
403.915	23.18258
404.128	-0
404.341	-0
404.555	134.91958
404.768	65.34002
404.981	-8.42931
405.195	-40.03573
405.408	40.04444
405.621	33.72107
405.834	18.96735
406.048	37.93663
406.261	44.26014
406.474	46.36803
406.687	23.18258
406.9	52.69182
407.114	80.0973
407.327	27.39791
407.54	69.55627
407.753	8.4297
407.966	-40.03573
408.179	-23.17966
408.392	-2.10736
408.605	14.75222
408.819	56.90779
409.032	-6.32202
409.245	-4.2147
409.458	48.47593
409.671	6.32224
409.884	59.01582
410.097	29.5056
410.31	6.32224
410.523	23.18258
410.736	21.07496
410.949	-35.82187
411.162	6.32224
411.375	16.85977
411.588	56.90779
411.801	-0
412.014	8.4297
412.227	40.04444
412.44	56.90779
412.653	8.4297
412.865	-0
413.078	56.90779
413.291	14.75222
413.504	-90.59428
413.717	-16.85823
413.93	-44.2495
414.143	6.32224
414.356	113.83233
414.568	42.15228
414.781	65.34002
414.994	88.53052
415.207	6.32224
415.42	56.90779
415.632	37.93663
415.845	48.47593
416.058	65.34002
416.271	31.61332
416.483	18.96735
416.696	2.10739
416.909	16.85977
417.121	23.18258
417.334	29.5056
417.547	-23.17966
417.759	48.47593
417.972	2.10739
418.185	-4.2147
418.397	40.04444
418.61	46.36803
418.823	77.98905
419.035	65.34002
419.248	16.85977
419.46	-16.85823
419.673	35.82884
419.885	-14.75104
420.098	-10.53658
420.311	-0
420.523	31.61332
420.736	101.18103
420.948	65.34002
421.161	94.85568
421.373	52.69182
421.586	-16.85823
421.798	103.28953
422.01	27.39791
422.223	37.93663
422.435	25.29023
422.648	23.18258
422.86	23.18258
423.073	56.90779
423.285	35.82884
423.497	16.85977
423.71	-31.6079
423.922	61.12386
424.134	27.39791
424.347	27.39791
424.559	73.77262
424.771	111.72373
424.984	73.77262
425.196	25.29023
425.408	44.26014
425.621	77.98905
425.833	29.5056
426.045	52.69182
426.257	-37.92881
426.47	-44.2495
426.682	92.74727
426.894	25.29023
427.106	54.79979
427.318	48.47593
427.531	-8.42931
427.743	-6.32202
427.955	4.2148
428.167	-2.10736
428.379	-18.9654
428.591	31.61332
428.804	50.58386
429.016	14.75222
429.228	-6.32202
429.44	-2.10736
429.652	61.12386
429.864	73.77262
430.076	4.2148
430.288	99.07256
430.5	59.01582
430.712	29.5056
430.924	27.39791
431.136	-0
431.348	73.77262
431.56	33.72107
431.772	61.12386
431.984	105.39804
432.196	-31.6079
432.408	92.74727
432.62	111.72373
432.832	-37.92881
433.044	-2.10736
433.256	-10.53658
433.468	92.74727
433.679	-35.82187
433.891	-6.32202
434.103	130.70195
434.315	107.50658
434.527	50.58386
434.739	42.15228
434.95	48.47593
435.162	33.72107
435.374	109.61514
435.586	23.18258
435.798	31.61332
436.009	33.72107
436.221	23.18258
436.433	94.85568
436.645	96.96411
436.856	92.74727
437.068	77.98905
437.28	33.72107
437.491	4.2148
437.703	10.53718
437.915	99.07256
438.126	29.5056
438.338	25.29023
438.55	59.01582
438.761	61.12386
438.973	10.53718
439.184	50.58386
439.396	61.12386
439.608	75.88082
439.819	25.29023
440.031	23.18258
440.242	25.29023
440.454	92.74727
440.665	42.15228
440.877	44.26014
441.088	46.36803
441.3	88.53052
441.511	80.0973
441.723	14.75222
441.934	128.59318
442.146	18.96735
442.357	48.47593
442.569	130.70195
442.78	71.66443
442.991	132.81075
443.203	56.90779
443.414	-18.9654
443.626	77.98905
443.837	54.79979
444.048	73.77262
444.26	27.39791
444.471	33.72107
444.682	124.37568
444.894	44.26014
445.105	73.77262
445.316	115.94096
445.528	82.20557
445.739	6.32224
445.95	156.00896
446.161	73.77262
446.373	-21.07254
446.584	124.37568
446.795	23.18258
447.006	12.64469
447.217	124.37568
447.429	82.20557
447.64	46.36803
447.851	75.88082
448.062	96.96411
448.273	103.28953
448.484	48.47593
448.695	134.91958
448.907	44.26014
449.118	54.79979
449.329	59.01582
449.54	103.28953
449.751	23.18258
449.962	103.28953
450.173	132.81075
450.384	50.58386
450.595	54.79979
450.806	94.85568
451.017	132.81075
451.228	35.82884
451.439	113.83233
451.65	134.91958
451.861	107.50658
452.072	103.28953
452.283	37.93663
452.494	67.44814
452.705	46.36803
452.915	77.98905
453.126	109.61514
453.337	84.31387
453.548	137.02842
453.759	73.77262
453.97	145.464
454.181	14.75222
454.391	77.98905
454.602	73.77262
454.813	147.57295
455.024	134.91958
455.235	111.72373
455.445	158.11802
455.656	158.11802
455.867	73.77262
456.078	124.37568
456.288	120.15828
456.499	84.31387
456.71	143.35507
456.921	191.86571
457.131	134.91958
457.342	56.90779
457.553	162.33619
457.763	160.22709
457.974	124.37568
458.184	99.07256
458.395	40.04444
458.606	134.91958
458.816	164.4453
459.027	111.72373
459.237	153.89993
459.448	143.35507
459.659	128.59318
459.869	166.55444
460.08	103.28953
460.29	202.41294
460.501	204.52245
460.711	208.74152
460.922	160.22709
461.132	158.11802
461.343	73.77262
461.553	200.30345
461.764	137.02842
461.974	73.77262
462.184	208.74152
462.395	187.64696
462.605	255.15652
462.816	189.75633
463.026	267.81677
463.236	200.30345
463.447	267.81677
463.657	210.85109
463.867	225.6186
464.078	200.30345
464.288	189.75633
464.498	196.08454
464.709	200.30345
464.919	219.28955
465.129	221.39921
465.339	295.24965
465.55	250.93658
465.76	278.36751
465.97	269.92688
466.18	377.56649
466.391	356.45708
466.601	293.13931
466.811	307.91202
467.021	267.81677
467.231	293.13931
467.441	345.90302
467.651	453.574
467.862	377.56649
468.072	438.79314
468.282	329.01742
468.492	343.79226
468.702	489.47348
468.912	514.81688
469.122	390.23295
469.332	445.1277
469.542	428.23586
469.752	459.90888
469.962	472.57906
470.172	457.79724
470.382	546.49901
470.592	392.34408
470.802	521.15305
471.012	514.81688
471.222	525.37723
471.432	588.74665
471.642	487.36163
471.852	609.87244
472.062	630.9995
472.272	719.74618
472.482	645.78918
472.691	787.37564
472.901	639.45067
473.111	673.25728
473.321	753.55959
473.531	882.49613
473.741	850.78731
473.95	1011.46315
474.16	869.81237
474.37	859.24281
474.58	933.23403
474.79	935.34821
474.999	962.83314
475.209	979.74753
475.419	884.61012
475.628	1096.04466
475.838	1066.44013
476.048	1045.29468
476.258	1005.11991
476.467	1307.52874
476.677	1282.14905
476.886	1394.24449
477.096	1241.96523
477.306	1394.24449
477.515	1294.83886
477.725	1303.29877
477.935	1286.37898
478.144	1578.253
478.354	1349.82882
478.563	1550.75782
478.773	1533.83759
478.982	1631.12754
479.192	1722.06823
479.401	1789.74111
479.611	1654.39191
479.82	1893.35674
480.03	1717.83855
480.239	1768.59375
480.449	1861.63889
480.658	1901.81463
480.868	1882.78425
481.077	2172.41361
481.287	2092.09159
481.496	2265.40312
481.705	2256.95023
481.915	2235.81739
482.124	2265.40312
482.333	2320.34325
482.543	2314.00433
482.752	2442.87794
482.961	2533.6994
483.171	2510.46799
483.38	2398.51592
483.589	2516.80396
483.799	2645.61254
484.008	2922.07205
484.217	2668.83548
484.426	2968.47671
484.636	2746.93758
484.845	3084.45635
485.054	2900.97668
485.263	2905.19587
485.472	2801.80928
485.682	3113.97093
485.891	3107.64664
486.1	3107.64664
486.309	3217.24713
486.518	3259.38932
486.727	3175.0983
486.936	3343.65339
487.146	3221.46165
487.355	3411.04471
487.564	3309.95105
487.773	3659.39049
487.982	3375.2453
488.191	3448.94437
488.4	3587.85961
488.609	3575.23426
488.818	3743.5163
489.027	3911.67422
489.236	3604.69236
489.445	3785.56761
489.654	3850.73162
489.863	4159.47089
490.072	3747.72178
490.281	4002.00617
490.49	3831.81499
490.698	3974.70048
490.907	3976.80104
491.116	4335.69068
491.325	4159.47089
491.534	4331.49673
491.743	4077.60382
491.952	4146.87803
492.16	4474.04229
492.369	4306.3312
492.578	4266.47945
492.787	4541.08746
492.996	4666.73583
493.204	4488.71035
493.413	4735.80802
493.622	4520.13828
493.831	4670.92272
494.039	4815.31519
494.248	4689.76262
494.457	4993.04089
494.665	4829.95767
494.874	4913.60752
495.083	4936.6048
495.291	5097.50774
495.5	4938.69533
495.709	4930.33309
495.917	5041.10282
496.126	5072.44097
496.335	5233.22789
496.543	5314.61268
496.752	4990.95096
496.96	5189.3906
497.169	5160.16003
497.377	5291.6616
497.586	5425.1554
497.794	5654.37284
498.003	5216.52918
498.211	5335.47484
498.42	5510.6243
498.628	5541.88353
498.837	5635.6294
499.045	5731.40914
499.254	5335.47484
499.462	5573.13746
499.671	5633.54668
499.879	5912.42125
500.087	5589.80405
500.296	5752.22422
500.504	5793.84729
500.713	6030.91858
500.921	5773.03693
501.129	6064.16723
501.338	5614.80111
501.546	6093.25486
501.754	5916.58035
501.962	6049.62169
502.171	6141.03167
502.379	6338.23916
502.587	5899.94339
502.795	6130.64646
503.004	6201.25428
503.212	6365.20903
503.42	6145.18559
503.628	6192.94889
503.837	6224.09218
504.045	6309.19028
504.253	6338.23916
504.461	6607.76093
504.669	6350.68728
504.877	6309.19028
505.085	6410.84136
505.294	6502.07223
505.502	6367.28347
505.71	6785.84537
505.918	6599.47379
506.126	6812.75037
506.334	6570.4659
506.542	6789.98485
506.75	6533.16339
506.958	6624.3341
507.166	6632.62013
507.374	6736.16445
507.582	6785.84537
507.79	7083.65615
507.998	6959.62527
508.206	6810.68089
508.414	6988.57305
508.622	7000.97789
508.83	6796.1939
509.037	7110.51888
509.245	6984.43792
509.453	6986.50549
509.661	7139.44374
509.869	7442.89349
510.077	7145.64136
510.285	7207.60655
510.492	7308.77356
510.7	7319.09375
510.908	7273.68079
511.116	7122.91578
511.324	7081.58963
511.531	7265.42274
511.739	7471.76884
511.947	7321.15772
512.155	7277.80968
512.362	7393.383
512.57	7424.32852
512.778	7393.383
512.985	7482.08043
513.193	7657.2955
513.401	7407.82485
513.608	7717.03958
513.816	7537.75375
514.024	7597.53359
514.231	7500.63995
514.439	7710.85998
514.646	7480.01816
514.854	7686.13969
515.061	7636.68996
515.269	7694.38012
515.477	7556.30804
515.684	7776.76595
515.892	7737.63687
516.099	7937.32234
516.307	7780.88436
516.514	7949.66763
516.722	7962.01218
516.929	8231.35321
517.136	7768.52888
517.344	7980.52763
517.551	7885.87567
517.759	8085.41736
517.966	7959.95481
518.173	8095.69783
518.381	8093.64178
518.588	8247.79041
518.796	8023.72391
519.003	8426.46402
519.21	8196.41997
519.418	8169.70244
519.625	8159.42557
519.832	8264.22634
520.039	8101.86588
520.247	8286.82369
520.454	8553.70561
520.661	8492.14624
520.868	8455.2024
521.076	8596.78705
521.283	8163.53638
521.49	8693.17756
521.697	8362.8156
521.904	8705.47978
522.112	8500.35515
522.319	8926.80757
522.526	8492.14624
522.733	8951.38661
522.94	8691.12712
523.147	8834.61329
523.354	8592.68442
523.561	8992.34602
523.768	9012.82309
523.975	8965.72321
524.183	8869.44651
524.39	9119.27574
524.597	8904.27454
524.804	9041.48804
525.011	9125.41582
525.218	9074.2438
525.425	8871.49536
525.632	8971.8672
525.838	9250.23071
526.045	9280.91327
526.252	9223.63609
526.459	9548.71721
526.666	9172.48459
526.873	9329.99758
527.08	9115.18228
527.287	9422.00507
527.494	9106.99513
527.701	9779.50485
527.907	9391.33959
528.114	9573.23506
528.321	9550.76045
528.528	9499.67466
528.735	9456.75487
528.941	9475.14993
529.148	9260.45865
529.355	9511.93615
529.562	9591.62196
529.768	9701.91682
529.975	9605.922
530.182	9622.26397
530.388	9524.19708
530.595	9687.62189
530.802	9387.25058
531.008	9997.86049
531.215	9771.33872
531.422	9899.92741
531.628	9879.52044
531.835	9955.01889
532.042	9881.56121
532.248	10044.77497
532.455	9883.60195
532.661	10146.7371
532.868	10220.12828
533.074	9993.78061
533.281	9965.21985
533.487	10348.52044
533.694	10046.81456
533.9	10499.26331
534.107	10238.4733
534.313	10169.16408
534.52	10018.25902
534.726	10344.44532
534.933	10038.65612
535.139	10554.24657
535.345	10307.7668
535.552	10279.23607
535.758	10786.29871
535.965	10440.19687
536.171	10480.9335
536.377	10552.21032
536.584	10348.52044
536.79	10552.21032
536.996	10609.22067
537.203	10613.29247
537.409	10462.60265
537.615	10920.57394
537.821	10603.11289
538.028	10953.11798
538.234	10651.97206
538.44	11026.33158
538.646	10694.71805
538.853	10916.50573
539.059	10898.19822
539.265	11054.79966
539.471	11036.499
539.677	10971.42274
539.883	10867.68365
540.09	11162.55243
540.296	10808.68143
540.502	11406.41263
540.708	11188.97777
540.914	11369.84287
541.12	11377.96976
541.326	11276.37213
541.532	11178.81439
541.738	11412.50728
541.944	11262.14644
542.15	11388.12815
542.356	11203.20607
542.562	11398.2863
542.768	11507.97876
542.974	11725.2517
543.18	11377.96976
543.386	11834.86475
543.592	11554.69118
543.798	11725.2517
544.004	11382.03315
544.21	11694.79912
544.415	11654.19257
544.621	11782.09123
544.827	11597.33733
545.033	11733.37205
545.239	11686.6781
545.445	12139.2192
545.651	11613.58241
545.856	12122.99142
546.062	11865.3084
546.268	11767.88199
546.474	11660.28378
546.679	11733.37205
546.885	11371.87461
547.091	12031.70103
547.297	11954.59902
547.502	12149.36132
547.708	12013.44107
547.914	11944.45316
548.119	11993.15146
548.325	12169.645
548.531	11885.60313
548.736	12062.1329
548.942	11911.98503
549.147	11936.33632
549.353	12039.81637
549.559	12159.50325
549.764	11954.59902
549.97	12116.90588
550.175	12271.05236
550.381	12445.43179
550.586	12250.77234
550.792	12755.54656
550.997	12301.47106
551.203	12453.54124
551.408	12392.71776
551.614	12279.16417
551.819	12477.86897
552.025	12193.98443
552.23	12337.97142
552.435	12591.38613
552.641	12715.01672
552.846	12483.95075
553.052	12615.70868
553.257	12447.45916
553.462	12520.44024
553.668	12808.23193
553.873	12941.95508
554.078	12755.54656
554.283	12579.22452
554.489	12982.4727
554.694	12887.25298
554.899	13045.27103
555.105	12814.31077
555.31	13037.16829
555.515	12751.49368
555.72	13045.27103
555.925	12960.18826
556.131	12779.86336
556.336	12800.12674
556.541	13282.24295
556.746	13065.52754
556.951	13426.0174
557.156	13093.88584
557.361	13243.76453
557.567	13233.63837
557.772	13079.70681
557.977	13162.75214
558.182	13253.89059
558.387	13027.03975
558.592	13308.5694
558.797	13312.61956
559.002	13393.6193
559.207	13361.22019
559.412	13138.447
559.617	13276.16752
559.822	13509.03302
560.027	13318.69477
560.232	13557.62464
560.437	13207.30984
560.642	13707.43624
560.847	13442.21607
561.051	13585.96881
561.256	13276.16752
561.461	13804.6019
561.666	13717.55799
561.871	13636.58169
562.076	13448.29051
562.281	13460.43928
562.485	13419.94283
562.69	13602.16516
562.895	13701.36315
563.1	13832.94059
563.305	13654.80182
563.509	13911.88115
563.714	13565.72304
563.919	13747.92279
564.123	13766.14133
564.328	13632.53274
564.533	13654.80182
564.737	13614.31229
564.942	13859.25458
565.147	13938.19375
565.351	13796.50503
565.556	13905.80895
565.761	13664.92399
565.965	13851.15802
566.17	13581.91968
566.374	13709.4606
566.579	13836.98893
566.784	13911.88115
566.988	14195.22603
567.193	14035.34424
567.397	13822.81969
567.602	14081.89353
567.806	13919.97738
568.011	14000.93743
568.215	14140.58441
568.42	14466.39041
568.624	13909.85709
568.828	14146.65578
569.033	13958.43392
569.237	14197.24976
569.442	14229.62925
569.646	14172.96481
569.85	14312.59948
570.055	14235.70035
570.259	14389.49608
570.463	14427.94351
570.668	14089.98894
570.872	14357.11885
571.076	14405.68454
571.281	14262.00825
571.485	14304.50495
571.689	14421.8729
571.893	14510.90723
572.098	14324.74121
572.302	14407.70809
572.506	14466.39041
572.71	14049.51154
572.914	14438.06117
573.119	14373.30752
573.323	14543.2827
573.527	14561.49376
573.731	14559.47031
573.935	14699.08551
574.139	14537.21232
574.343	14229.62925
574.547	14567.56409
574.751	14632.31366
574.955	14486.62541
575.159	14790.13647
575.364	14543.2827
575.568	14444.13174
575.772	14650.52427
575.976	14749.66958
576.18	14697.06214
576.383	14688.96863
576.587	14786.0898
576.791	14925.69861
576.995	14964.14118
577.199	14786.0898
577.403	14909.51222
577.607	14966.16447
577.811	15411.2857
578.015	15039.00265
578.219	15128.0267
578.422	15200.86444
578.626	14972.23433
578.83	14654.57106
579.034	15178.60846
579.238	15099.70089
579.442	15265.60917
579.645	15063.28197
579.849	15269.65572
580.053	15405.21581
580.257	15356.6568
580.46	15101.72416
580.664	15231.21352
580.868	15255.4928
581.071	15340.47051
581.275	15360.70338
581.479	15162.4223
581.682	15077.44489
581.886	14992.46719
582.09	15563.03457
582.293	15597.43148
582.497	15429.4954
582.7	15182.655
582.904	15409.2624
583.107	15569.10459
583.311	15690.50663
583.515	15393.07603
583.718	15194.79463
583.922	15427.4721
584.125	15429.4954
584.329	15516.49789
584.532	15611.59498
584.735	15694.55342
584.939	15467.93824
585.142	15627.78188
585.346	15571.12794
585.549	15682.41307
585.753	15690.50663
585.956	15648.01558
586.159	15811.91199
586.363	15777.51342
586.566	15888.80408
586.769	15767.39626
586.973	15882.73358
587.176	15862.49869
587.379	15830.12312
587.582	16076.99522
587.786	15467.93824
587.989	15933.32135
588.192	15730.97468
588.395	16218.653
588.599	16133.65739
588.802	16246.98554
589.005	15633.85198
589.208	16157.94155
589.411	16014.2635
589.615	15921.18022
589.818	16295.55641
590.021	16170.08372
590.224	16218.653
590.427	16220.67675
590.63	15656.10908
590.833	16271.27085
591.036	16319.84224
591.239	16554.61977
591.442	16267.22328
591.645	16149.8468
591.848	16386.62967
592.051	16532.35519
592.254	16477.70687
592.457	16423.06006
592.66	16437.22761
592.863	16461.51507
593.066	16240.91425
593.269	16487.82681
593.472	16364.36696
593.675	16793.47511
593.878	16678.09181
594.081	16562.71604
594.284	16605.22205
594.486	16425.08399
594.689	16449.3713
594.892	16562.71604
595.095	16556.64383
595.298	16663.92246
595.5	16700.35816
595.703	16935.18487
595.906	16939.23391
596.109	16939.23391
596.311	16844.08432
596.514	16730.72183
596.717	16746.916
596.92	16744.89172
597.122	16603.19794
597.325	17095.12989
597.528	16815.74297
597.73	17168.02193
597.933	16910.89088
598.136	17323.94247
598.338	16979.72484
598.541	17064.75928
598.743	17307.74212
598.946	17072.85805
599.148	17200.41958
599.351	17004.01991
599.554	17372.54468
599.756	16963.52834
599.959	17234.84289
600.161	17176.12127
600.363	16959.47924
600.566	17127.5259
600.768	17447.47656
600.971	17487.98205
601.173	16892.67064
601.376	17443.42608
601.578	17218.64358
601.78	17222.69339
601.983	16921.01333
602.185	17362.41908
602.388	17263.19213
602.59	17449.5018
602.792	17372.54468
602.995	17376.59495
603.197	17089.05572
603.399	17498.10862
603.601	17473.80498
603.804	17483.93144
604.006	17445.45132
604.208	17390.77097
604.41	17388.74581
604.613	17461.65334
604.815	17198.3947
605.017	17676.34939
605.219	17313.81723
605.421	17368.49443
605.623	17481.90614
605.826	17506.20993
606.028	17279.39196
606.23	17380.64522
606.432	17437.35038
606.634	17621.6592
606.836	17575.07315
607.038	17552.79347
607.24	17271.29202
607.442	17518.36199
607.644	17749.27341
607.846	17903.23855
608.048	17706.73387
608.25	17635.83791
608.452	17526.46343
608.654	17566.9714
608.856	17251.04239
609.058	17528.4888
609.26	17251.04239
609.462	17330.01765
609.664	17605.45516
609.866	17615.58266
610.067	17585.2004
610.269	17757.37635
610.471	17303.69206
610.673	17485.95674
610.875	17230.79304
611.077	17692.55436
611.278	17597.35322
611.48	17753.32487
611.682	17731.042
611.884	17716.8622
612.085	17538.61569
612.287	18051.14507
612.489	17524.43807
612.69	17566.9714
612.892	17810.04676
613.094	17753.32487
613.295	17712.81086
613.497	17769.53085
613.699	17933.62877
613.9	17698.63127
614.102	17524.43807
614.304	17593.30227
614.505	17332.04272
614.707	17330.01765
614.908	17398.87162
615.11	17769.53085
615.311	17481.90614
615.513	17483.93144
615.714	17522.41271
615.916	17970.09807
616.117	17457.60281
616.319	17564.94597
616.52	17755.35061
616.722	17933.62877
616.923	17937.68086
617.124	17933.62877
617.326	17544.69186
617.527	17781.68548
617.729	17724.96492
617.93	17901.21257
618.131	18073.434
618.333	17546.71726
618.534	17552.79347
618.735	17799.91766
618.937	17581.14949
619.138	17765.47934
619.339	17781.68548
619.54	17895.13463
619.742	17889.05672
619.943	17447.47656
620.144	17319.89236
620.345	17771.55662
620.546	17672.29819
620.748	17834.35696
620.949	17820.17595
621.15	17949.83721
621.351	17905.26454
621.552	18091.67072
621.753	18006.56852
621.954	18251.76124
622.155	17654.06792
622.356	18113.96044
622.558	17761.42784
622.759	18170.69989
622.96	17269.26705
623.161	17925.52463
623.362	17615.58266
623.563	17866.77133
623.764	17763.45359
623.965	18126.11865
624.166	17828.27936
624.366	17830.30523
624.567	17864.7454
624.768	18211.22983
624.969	17668.24699
625.17	17718.88788
625.371	17872.84912
625.572	17903.23855
625.773	17639.889
625.973	17838.40871
626.174	17933.62877
626.375	17955.91543
626.576	17805.99511
626.777	18053.17132
626.977	17927.55066
627.178	18174.75282
627.379	17984.28088
627.58	18126.11865
627.78	18140.3034
627.981	17970.09807
628.182	18075.46029
628.382	18312.56115
628.583	17889.05672
628.784	18199.0707
628.984	17834.35696
629.185	18286.21411
629.386	18113.96044
629.586	18355.12308
629.787	18164.62053
629.987	18099.77602
630.188	17897.1606
630.388	18028.85658
630.589	17546.71726
630.79	18276.0808
630.99	18174.75282
631.191	18182.85872
631.391	18314.58787
631.591	18227.44222
631.792	18093.69704
631.992	18142.32981
632.193	18109.90773
632.393	18259.8677
632.594	18251.76124
632.794	18190.96468
632.994	18308.50772
633.195	18563.90349
633.395	18211.22983
633.595	18245.68144
633.796	18168.67343
633.996	18351.0695
634.196	17915.39454
634.397	18413.90182
634.597	18140.3034
634.797	18107.88138
634.997	17943.75902
635.198	18045.06635
635.398	18130.17142
635.598	18363.23031
635.798	18036.96143
635.998	17923.49861
636.199	17994.41157
636.399	18456.46773
636.599	17951.86328
636.799	18008.59469
636.999	17643.9401
637.199	17992.38543
637.399	18095.72336
637.599	18209.2033
637.799	17720.91356
637.999	18592.28456
638.199	18308.50772
638.399	18419.98257
638.599	18107.88138
638.799	18468.62973
638.999	18351.0695
639.199	18154.48833
639.399	18602.42083
639.599	18843.69323
639.799	18324.72153
639.999	18764.61461
640.199	18174.75282
640.399	18628.77562
640.599	17793.84023
640.799	18517.2791
640.998	18488.90003
641.198	18529.44179
641.398	18338.90882
641.598	18709.8714
641.798	18642.96693
641.997	18359.17669
642.197	18620.66638
642.397	18890.33219
642.597	18385.52548
642.796	18505.11655
642.996	18521.33331
643.196	18726.09131
643.395	18267.97422
643.595	18533.49605
643.795	18809.22232
643.994	18245.68144
644.194	18397.68668
644.394	18651.07633
644.593	18434.1711
644.793	19048.5149
644.992	18432.14415
645.192	18624.72099
645.392	18677.43233
645.591	18709.8714
645.791	18665.26794
645.99	18831.5269
646.19	18381.47178
646.389	18237.57508
646.589	18318.64132
646.788	18551.74041
646.987	18302.4276
647.187	18515.252
647.386	18336.88205
647.586	18634.85758
647.785	18624.72099
647.984	18523.36042
648.184	18638.91225
648.383	18722.03631
648.582	18797.05639
648.782	19235.12112
648.981	19241.20669
649.18	18839.63777
649.38	19111.38922
649.579	19024.1775
649.778	18953.19674
649.977	18922.77792
650.177	19143.84202
650.376	19105.30444
650.575	18442.27891
650.774	18926.83371
650.973	18600.39357
651.173	18640.93959
651.372	18586.20283
651.571	18961.30857
651.77	19091.10676
651.969	19044.45862
652.168	18874.1097
652.367	19048.5149
652.566	18793.00111
652.765	18868.02634
652.964	18868.02634
653.163	18732.17384
653.362	19249.32084
653.561	18689.59687
653.76	18880.1931
653.959	18415.92873
654.158	18906.55493
654.357	18553.76758
654.556	18545.65892
654.755	18784.8906
654.954	18592.28456
655.153	18527.41466
655.352	18604.4481
655.551	19042.43049
655.749	18886.27654
655.948	19149.92704
656.147	18829.49919
656.346	18750.42165
656.545	18547.68608
656.743	18841.6655
656.942	19192.52318
657.141	19109.36096
657.34	18715.95384
657.538	18977.53244
657.737	18886.27654
657.936	18987.67249
658.135	18766.64219
658.333	19121.53061
658.532	19151.95538
658.731	19072.85288
658.929	18916.69427
659.128	18857.88747
659.326	18521.33331
659.525	18949.14084
659.724	18906.55493
659.922	19034.31801
660.121	18780.83537
660.319	18945.08497
660.518	18490.92708
660.716	18859.91524
660.915	18999.84068
661.113	19257.43506
661.312	18981.58845
661.51	19097.19145
661.709	19087.05031
661.907	19074.88107
662.105	19007.95289
662.304	19107.3327
662.502	19208.75075
662.701	19135.72872
662.899	18969.42047
663.097	19131.6721
663.296	18953.19674
663.494	19314.23641
663.692	19222.9501
663.891	18770.69737
664.089	18851.8042
664.287	19139.78536
664.485	19024.1775
664.684	19285.83533
664.882	18661.21318
665.08	18941.0291
665.278	19082.99388
665.476	19208.75075
665.675	18616.61179
665.873	18930.88952
666.071	18888.30436
666.269	18961.30857
666.467	19052.57119
666.665	18979.56044
666.863	18519.3062
667.061	18900.47137
667.259	18742.31147
667.457	18527.41466
667.655	18456.46773
667.853	18845.72097
668.051	18588.23007
668.249	18657.15843
668.447	18559.84911
668.645	18642.96693
668.843	18861.94301
669.041	18945.08497
669.239	18458.49472
669.437	18720.00881
669.635	19095.16322
669.833	18910.61065
670.031	18707.84393
670.229	18681.48716
670.426	18705.81646
670.624	18353.09629
670.822	18541.60461
671.02	18699.73408
671.218	18507.14363
671.415	18663.24056
671.613	18472.68376
671.811	18338.90882
672.009	18450.38679
672.206	18859.91524
672.404	18758.53189
672.602	18569.98508
672.799	18754.47676
672.997	18973.47645
673.195	18868.02634
673.392	19089.07853
673.59	18752.4492
673.788	18764.61461
673.985	18754.47676
674.183	19058.65565
674.38	18655.13106
674.578	18977.53244
674.775	18924.80582
674.973	18740.28394
675.17	18790.97348
675.368	18857.88747
675.565	18626.7483
675.763	18523.36042
675.96	18709.8714
676.158	18636.88491
676.355	18138.277
676.553	18681.48716
676.75	18073.434
676.947	18535.52318
677.145	18434.1711
677.342	18511.19781
677.539	18316.6146
677.737	18675.40493
677.934	18671.35012
678.131	18752.4492
678.329	18679.45975
678.526	18533.49605
678.723	18267.97422
678.92	18328.77502
679.118	17994.41157
679.315	17844.48636
679.512	17887.03076
679.709	18018.72559
679.906	17838.40871
680.104	18223.3891
680.301	18126.11865
680.498	18142.32981
680.695	18105.85503
680.892	18314.58787
681.089	18150.43547
681.286	18136.2506
681.483	17957.94151
681.68	18316.6146
681.877	18059.25008
682.075	18219.336
682.272	18111.93408
682.469	18211.22983
682.665	17864.7454
682.862	18318.64132
683.059	18259.8677
683.256	18134.2242
683.453	18142.32981
683.65	18150.43547
683.847	17961.99368
684.044	18008.59469
684.241	17968.07197
684.438	18162.59408
684.635	17729.0163
684.831	18049.11883
685.028	18221.36255
685.225	18122.0659
685.422	17793.84023
685.619	18267.97422
685.815	18190.96468
686.012	18111.93408
686.209	17710.78519
686.405	18292.29414
686.602	17961.99368
686.799	17911.34253
686.996	17814.09843
687.192	17824.22765
687.389	17587.22587
687.586	17639.889
687.782	17765.47934
687.979	17724.96492
688.175	17465.70387
688.372	17842.46047
688.568	17931.60273
688.765	17860.69357
688.962	17674.32379
689.158	17903.23855
689.355	17554.81887
689.551	17720.91356
689.748	17459.62807
689.944	17327.99259
690.14	17627.73577
690.337	17419.12346
690.533	17708.75953
690.73	17526.46343
690.926	17799.91766
691.123	17627.73577
691.319	17692.55436
691.515	17830.30523
691.712	17348.24336
691.908	17560.89512
692.104	17512.28595
692.301	17494.05798
692.497	17246.99249
692.693	17654.06792
692.889	17340.14301
693.086	17425.19907
693.282	17512.28595
693.478	17560.89512
693.674	17536.5903
693.87	17411.02269
694.067	17548.74266
694.263	17471.7797
694.459	17281.41695
694.655	17354.31865
694.851	17550.76806
695.047	17323.94247
695.243	17441.40084
695.439	17340.14301
695.635	17362.41908
695.831	17218.64358
696.027	17330.01765
696.224	17558.8697
696.42	17131.57545
696.615	17566.9714
696.811	17056.66055
697.007	17018.19221
697.203	16578.90869
697.399	16797.52379
697.595	16667.97083
697.791	16955.43015
697.987	16663.92246
698.183	17483.93144
698.379	17030.34
698.575	17465.70387
698.77	17159.92264
698.966	16999.9707
699.162	17006.04451
699.358	17238.89275
699.554	16878.49948
699.749	16923.03783
699.945	16742.86744
700.141	16902.79297
700.337	16872.42616
700.532	16862.30402
700.728	17157.89782
700.924	17109.30306
701.119	17080.95686
701.315	16789.42645
701.511	16789.42645
701.706	16894.6951
701.902	16833.96235
702.097	16916.96435
702.293	16591.05327
702.489	16568.78827
702.684	16692.26127
702.88	16777.2805
703.075	16605.22205
703.271	16617.36681
703.466	16991.87232
703.662	16605.22205
703.857	16619.39094
704.053	16803.59683
704.248	16672.01922
704.443	16625.46336
704.639	16923.03783
704.834	16969.60201
705.03	16700.35816
705.225	16763.11033
705.42	16894.6951
705.616	17133.60023
705.811	16552.5957
706.006	16645.70489
706.202	16506.04285
706.397	16674.04341
706.592	16467.58698
706.787	16872.42616
706.983	16453.41922
707.178	16635.58409
707.373	16453.41922
707.568	16412.94044
707.763	16327.93758
707.959	16412.94044
708.154	16518.18696
708.349	16700.35816
708.544	16704.40662
708.739	16249.00931
708.934	16161.98893
709.129	16202.46313
709.324	16220.67675
709.519	16388.65356
709.714	16299.60403
709.909	16576.8846
710.104	16230.79548
710.299	16467.58698
710.494	16040.57018
710.689	16293.53261
710.884	16143.77576
711.079	16372.46246
711.274	15856.42825
711.469	16313.77076
711.664	15820.00581
711.859	16034.49938
712.054	16028.4286
712.249	16050.6882
712.443	15907.01562
712.638	15955.58023
712.833	15597.43148
713.028	15921.18022
713.223	15817.98235
713.417	16095.20793
713.612	16052.71181
713.807	16202.46313
714.002	15943.439
714.196	16437.22761
714.391	16095.20793
714.586	16279.36601
714.78	16279.36601
714.975	16048.66459
715.17	16091.16065
715.364	15900.94509
715.559	16242.93801
715.754	15943.439
715.948	15696.57682
716.143	15595.40812
716.337	15969.74505
716.532	15987.95706
716.726	15696.57682
716.921	15856.42825
717.115	16121.51539
717.31	15904.99211
717.504	15735.02151
717.699	15769.41969
717.893	15650.03895
718.088	15951.53315
718.282	15571.12794
718.476	15708.71721
718.671	15474.00817
718.865	15728.95127
719.059	15389.02945
719.254	15579.22132
719.448	15425.4488
719.642	15530.66119
719.837	15334.40066
720.031	15085.53798
720.225	15126.00343
720.419	15314.16784
720.614	15445.68184
720.808	15844.2874
721.002	15186.70154
721.196	15380.93628
721.39	15376.88969
721.585	15605.5249
721.779	15494.24134
721.973	15652.06233
722.167	15093.63107
722.361	15154.32922
722.555	15158.37576
722.749	14943.90826
722.943	14703.13226
723.137	14887.25587
723.331	14676.82835
723.525	14964.14118
723.719	15028.88626
723.913	15018.76986
724.107	14929.7452
724.301	15160.39903
724.495	15000.56032
724.689	15271.679
724.883	15119.93361
725.077	15085.53798
725.271	15012.70002
725.465	14885.23257
725.659	15075.42161
725.853	14992.46719
726.046	15180.63173
726.24	15235.26006
726.434	14974.25762
726.628	15184.67827
726.822	14626.24343
727.015	15304.05144
727.209	14735.5061
727.403	15028.88626
727.596	14893.32579
727.79	15079.46816
727.984	14753.71629
728.177	15020.79314
728.371	14840.71967
728.565	14980.32748
728.758	15119.93361
728.952	14897.3724
729.146	14893.32579
729.339	15004.60689
729.533	15020.79314
729.726	14913.55882
729.92	14808.34647
730.113	14790.13647
730.307	14798.22981
730.5	14798.22981
730.694	14867.02278
730.887	14885.23257
731.081	14935.81509
731.274	14974.25762
731.468	15034.95609
731.661	15217.05061
731.854	14911.53552
732.048	14786.0898
732.241	14719.31921
732.435	14763.83303
732.628	14662.66463
732.821	14899.3957
733.014	14945.93156
733.208	14854.8829
733.401	14958.07131
733.594	14707.179
733.788	14684.92187
733.981	14527.095
734.174	14968.18775
734.367	14749.66958
734.56	15083.51471
734.754	14982.35076
734.947	14759.78633
735.14	14800.25315
735.333	14840.71967
735.526	15077.44489
735.719	14628.26684
735.912	14304.50495
736.105	14387.47251
736.298	14466.39041
736.491	14676.82835
736.684	14616.12637
736.877	14646.47747
737.07	14547.32961
737.263	14862.97616
737.456	14658.61785
737.649	14597.91559
737.842	14735.5061
738.035	14506.86027
738.228	14425.91998
738.421	14468.41391
738.614	14931.7685
738.807	14624.22002
739	14618.14979
739.192	14494.71937
739.385	14662.66463
739.578	14601.96244
739.771	14648.50087
739.964	14446.15526
740.156	14510.90723
740.349	14136.53682
740.542	14288.31583
740.735	14361.16603
740.927	14448.17878
741.12	14344.97729
741.313	14460.31988
741.505	14259.98457
741.698	14251.88986
741.891	14174.98857
742.083	14336.88287
742.276	14179.03608
742.468	14650.52427
742.661	14466.39041
742.854	14539.23578
743.046	14318.67035
743.239	14221.53443
743.431	14227.60555
743.624	13907.83302
743.816	13555.60003
744.009	13624.4348
744.201	14063.67874
744.393	14009.03321
744.586	14023.20074
744.778	14035.34424
744.971	14102.13198
745.163	14181.05983
745.355	13954.3859
745.548	14102.13198
745.74	14102.13198
745.932	14085.94124
746.125	14227.60555
746.317	14253.91354
746.509	14081.89353
746.702	14116.29876
746.894	14112.25111
747.086	13875.44757
747.278	13909.85709
747.471	14276.1739
747.663	13839.01309
747.855	14110.22729
748.047	13632.53274
748.239	13982.72177
748.431	13745.89849
748.623	14255.93722
748.815	14170.94105
749.008	13841.03725
749.2	14112.25111
749.392	13861.27871
749.584	13626.45929
749.776	13792.45657
749.968	13553.57542
750.16	13563.69845
750.352	13859.25458
750.544	13826.86806
750.736	13952.36189
750.928	13784.35963
751.12	13705.41188
751.311	13598.11609
751.503	13705.41188
751.695	13747.92279
751.887	13717.55799
752.079	13818.77132
752.271	13529.27978
752.463	13808.65032
752.654	13942.24181
752.846	13774.23838
753.038	13330.84508
753.23	13770.18986
753.421	13579.89511
753.613	13745.89849
753.805	13664.92399
753.997	13592.04247
754.188	13636.58169
754.38	13681.1193
754.572	13806.62611
754.763	13915.92927
754.955	13490.81062
755.146	13668.97284
755.338	13648.72847
755.53	13482.71168
755.721	13452.34011
755.913	13600.14063
756.104	13515.10709
756.296	13571.79681
756.487	13201.23392
756.679	13385.51962
756.87	12972.34349
757.062	12858.8874
757.253	13191.10729
757.445	13209.33514
757.636	13367.2951
757.827	13371.34502
758.019	13330.84508
758.21	12838.62563
758.401	12607.60126
758.593	12873.07032
758.784	12747.44077
758.975	12558.95468
759.167	12674.48455
759.358	12755.54656
759.549	12899.40933
759.74	13035.14259
759.932	13073.63001
760.123	12976.39519
760.314	13061.47628
760.505	12850.78276
760.696	12552.8736
760.888	12668.40452
761.079	12370.41429
761.27	12469.75983
761.461	12524.4945
761.652	12715.01672
761.843	12262.94044
762.034	12652.19085
762.225	12281.1921
762.416	11946.48235
762.607	12153.41811
762.798	12056.04666
762.989	12392.71776
763.18	12147.33291
763.371	12202.09734
763.562	12364.33139
763.753	12455.56859
763.944	12516.38596
764.135	12283.22003
764.326	12477.86897
764.517	12467.73253
764.708	12412.99292
764.899	12260.91244
765.089	12214.26648
765.28	12366.35903
765.471	12335.94368
765.662	12102.70601
765.853	12348.11001
766.043	12457.59593
766.234	12051.98914
766.425	11847.04244
766.615	12234.5478
766.806	12234.5478
766.997	12216.29464
767.187	11735.40212
767.378	11836.89439
767.569	11897.77956
767.759	11792.24044
767.95	11735.40212
768.141	11822.68676
768.331	11560.78373
768.522	11897.77956
768.712	12114.87735
768.903	12155.4465
769.093	11995.18046
769.284	11989.09345
769.474	11780.06137
769.665	11723.22159
769.855	11349.52495
770.046	11859.21983
770.236	11424.69632
770.426	11491.72979
770.617	11633.88795
770.807	11891.69138
770.998	11820.65706
771.188	11741.49226
771.378	11418.60185
771.569	11418.60185
771.759	11256.04957
771.949	11475.48022
772.139	11729.31189
772.33	11327.17409
772.52	11284.50087
772.71	11491.72979
772.9	11518.13406
773.09	11288.56518
773.281	11229.62869
773.471	11237.75838
773.661	11276.37213
773.851	11337.33372
774.041	11288.56518
774.231	11455.16738
774.421	11052.7663
774.611	11095.46464
774.802	11178.81439
774.992	11012.09673
775.182	11026.33158
775.372	11101.56401
775.562	10831.06274
775.752	11040.56589
775.942	10926.67617
776.131	11077.16593
776.321	10696.75344
776.511	10967.35509
776.701	10922.60803
776.891	11130.02647
777.081	10822.92424
777.271	10739.49384
777.461	10346.48289
777.651	10643.82936
777.84	10621.43591
778.03	10629.57916
778.22	10466.67626
778.41	10853.44263
778.599	10535.91984
778.789	10651.97206
778.979	10487.04355
779.169	10792.40323
779.358	10814.78556
779.548	11034.46554
779.738	10711.00083
779.927	10721.17718
780.117	10904.30083
780.307	10676.399
780.496	10165.08657
780.686	10346.48289
780.875	10260.89349
781.065	10546.10148
781.254	10436.12292
781.444	10338.33253
781.633	10452.4184
781.823	10205.85917
782.012	10230.32009
782.202	10377.04484
782.391	10091.68192
782.581	10279.23607
782.77	10482.9702
782.96	10317.95571
783.149	10014.17943
783.338	10075.36731
783.528	9718.25297
783.717	10179.35761
783.906	10140.62036
784.096	10171.20282
784.285	10146.7371
784.474	10018.25902
784.663	9744.79713
784.853	9708.04299
785.042	9859.112
785.231	9942.77725
785.42	9869.31641
785.61	9940.73693
785.799	9938.69659
785.988	10022.33855
786.177	9875.43887
786.366	9993.78061
786.555	9699.87474
786.744	9654.94491
786.933	9703.9589
787.122	10165.08657
787.312	9865.23469
787.501	9863.19381
787.69	9852.98918
787.879	10030.49745
788.068	9855.03014
788.257	10034.57681
788.445	9757.04741
788.634	9842.78418
788.823	9924.41382
789.012	9744.79713
789.201	9685.57969
789.39	9744.79713
789.579	9683.53748
789.768	9804.00178
789.957	9366.80456
790.145	9466.97451
790.334	9550.76045
790.523	9422.00507
790.712	9828.49656
790.9	9446.53482
791.089	9417.91655
791.278	9415.87227
791.467	9305.45662
791.655	9364.75987
791.844	9205.22277
792.033	9379.07237
792.221	9084.47907
792.41	9252.27633
792.599	9096.76082
792.787	9323.86257
792.976	9289.09466
793.164	9460.84277
793.353	9035.34584
793.541	9703.9589
793.73	9299.32101
793.918	9233.86513
794.107	8951.38661
794.295	8922.71082
794.484	8922.71082
794.672	9262.50418
794.861	8961.62713
795.049	9338.17737
795.238	9133.60234
795.426	8935.00087
795.614	9113.13552
795.803	9012.82309
795.991	8984.1547
796.179	9209.31474
796.368	8990.29822
796.556	8918.61399
796.744	8795.67588
796.932	8834.61329
797.121	8814.12073
797.309	8992.34602
797.497	8814.12073
797.685	8822.31797
797.874	8588.5817
798.062	8937.04915
798.25	8592.68442
798.438	8789.52727
798.626	8660.36838
798.814	8861.25092
799.002	8689.07667
799.19	8918.61399
799.378	8574.22162
799.566	8561.91224
799.755	8321.74221
799.943	8633.70742
800.131	8604.9921
800.318	8713.68089
800.506	8623.45237
800.694	8496.25073
800.882	8602.94087
801.07	8566.01544
801.258	8488.04168
801.446	8514.71999
801.634	8307.36468
801.822	8348.44079
802.01	8009.32614
802.197	8412.09342
802.385	8208.75
802.573	8488.04168
802.761	8212.85986
802.949	8580.37605
803.136	8426.46402
803.324	8604.9921
803.512	8422.35823
803.699	8502.40732
803.887	8545.49868
804.075	8529.08391
804.262	8405.9343
804.45	8670.62176
804.638	8321.74221
804.825	8957.53097
805.013	8641.91113
805.201	8986.20256
805.388	8529.08391
805.576	8912.46862
805.763	8787.47769
805.951	8545.49868
806.138	8358.70861
806.326	8531.13582
806.513	8231.35321
806.701	8467.51771
806.888	8553.70561
807.075	8637.80931
807.263	8709.58037
807.45	8721.88171
807.638	8527.03198
807.825	8713.68089
808.012	8231.35321
808.2	8371.02934
808.387	8502.40732
808.574	8327.90371
808.761	8522.92806
808.949	8395.66871
809.136	8479.83232
809.323	8682.9252
809.51	8280.66101
809.698	8381.29608
809.885	8253.95403
810.072	8338.1725
810.259	8161.48099
810.446	8342.27987
810.633	8253.95403
810.82	8551.65391
811.008	8559.86061
811.195	8758.78175
811.382	8416.1994
811.569	8693.17756
811.756	8379.24277
811.943	8769.03071
812.13	8500.35515
812.317	8867.39764
812.504	8762.88139
812.691	8619.35022
812.878	8639.86023
813.064	8664.46978
813.251	8410.0404
813.438	8783.37849
813.625	8397.72187
813.812	8551.65391
813.999	8272.44383
814.186	8405.9343
814.372	8290.93205
814.559	8393.61554
814.746	8075.13638
814.933	8362.8156
815.12	8389.50913
815.306	8758.78175
815.493	8467.51771
815.68	8689.07667
815.866	8348.44079
816.053	8563.96385
816.24	8598.83834
816.426	8607.04332
816.613	8093.64178
816.799	8430.56974
816.986	8512.66793
817.173	8594.73574
817.359	8317.63444
817.546	8637.80931
817.732	8414.14642
817.919	8670.62176
818.105	8543.4469
818.292	8543.4469
818.478	8498.30295
818.665	8533.18772
818.851	8549.60218
819.037	8319.68833
819.224	8492.14624
819.41	8247.79041
819.597	8128.59197
819.783	8060.74216
819.969	8091.5857
820.156	8118.31311
820.342	7927.03404
820.528	8056.62935
820.714	8007.26924
820.901	7982.5848
821.087	7982.5848
821.273	8311.47264
821.459	8332.01129
821.646	8518.82406
821.832	8147.09267
822.018	8463.41268
822.204	8058.68576
822.39	8251.89951
822.576	8179.97881
822.762	8163.53638
822.948	7820.00509
823.134	8179.97881
823.32	7906.45588
823.507	8249.84497
823.693	8165.59176
823.879	8258.06301
824.065	8085.41736
824.25	8157.37014
824.436	7774.70671
824.622	8034.00741
824.808	7682.01934
824.994	7618.14317
825.18	7442.89349
825.366	7657.2955
825.552	7480.01816
825.738	7527.44506
825.923	7486.20492
826.109	7548.06191
826.295	7675.83867
826.481	7603.71669
826.667	7539.81542
826.852	7859.11831
827.038	7733.51758
827.224	7957.89741
827.409	7787.06182
827.595	7632.5686
827.781	7325.2856
827.966	7358.30549
828.152	7058.85644
828.338	7374.81334
828.523	7133.24593
828.709	7374.81334
828.894	7213.80197
829.08	7440.8308
829.266	7222.06222
829.451	7488.26713
829.637	6903.7849
829.822	7255.09969
830.008	7189.01909
830.193	7436.70536
830.378	7290.19582
830.564	7714.97973
830.749	7108.45265
830.935	7176.62645
831.12	7168.36425
831.305	7653.17456
831.491	7176.62645
831.676	7246.84085
831.861	7151.83878
832.047	7135.31189
832.232	7065.05667
832.417	7182.82287
832.602	7013.38192
832.788	7164.23302
832.973	7197.2804
833.158	7387.19331
833.343	7191.08445
833.528	7168.36425
833.714	6972.032
833.899	6903.7849
834.084	6818.95867
834.269	7182.82287
834.454	6734.09413
834.639	7153.90454
834.824	7230.32212
835.009	7399.5725
835.194	7135.31189
835.379	7077.45653
835.564	6930.67306
835.749	7180.75742
835.934	6895.51085
836.119	7201.41093
836.304	6756.86644
836.489	7036.12054
836.674	6678.18671
836.859	6916.1953
837.044	6777.56613
837.228	6794.12424
837.413	6715.46018
837.598	6721.6717
837.783	6651.26235
837.968	7003.04528
838.152	6694.75361
838.337	6647.11979
838.522	6506.21802
838.707	6630.54865
838.891	6466.82927
839.076	6404.61943
839.261	6381.80391
839.445	6823.09742
839.63	6578.75433
839.815	6570.4659
839.999	6541.45348
840.184	6628.47716
840.368	6522.80025
840.553	6901.71642
840.737	6514.50932
840.922	6529.0182
841.106	6439.87424
841.291	6620.19094
841.475	6307.11518
841.66	6694.75361
841.844	6354.83647
842.029	6686.47034
842.213	6280.13682
842.397	6522.80025
842.582	6161.80032
842.766	6439.87424
842.951	6414.98919
843.135	6267.68393
843.319	5931.13645
843.504	6197.10163
843.688	6163.87705
843.872	6149.33941
844.056	6001.82107
844.241	6375.581
844.425	5922.81882
844.609	6105.71957
844.793	5831.29998
844.977	6030.91858
845.161	5899.94339
845.346	5968.56111
845.53	5841.70215
845.714	6043.38753
845.898	5835.46092
846.082	5739.73546
846.266	5639.79477
846.45	5864.58484
846.634	5847.94317
846.818	6072.47845
847.002	5916.58035
847.186	6068.32289
847.37	5914.50081
847.554	6032.9968
847.738	5787.60443
847.922	6101.56476
848.106	5985.19184
848.29	5995.58528
848.473	5775.11808
848.657	5702.26407
848.841	5795.9282
849.025	6035.07499
849.209	5652.29033
849.392	5664.78504
849.576	5385.53445
849.76	5606.46913
849.944	5373.02082
850.127	5885.38481
850.311	5431.41056
850.495	5598.13678
850.678	5637.7121
850.862	5775.11808
851.046	5345.90504
851.229	5506.45601
851.413	5304.18072
851.596	5585.63754
851.78	5375.10648
851.964	5625.21555
852.147	5041.10282
852.331	5295.83473
852.514	5446.00512
852.698	5510.6243
852.881	5235.31513
853.065	5527.29655
853.248	5320.87157
853.431	5485.61311
853.615	5208.17927
853.798	5493.95055
853.982	5105.86258
854.165	5289.57499
854.348	4947.0572
854.532	5241.57669
854.715	4880.15197
854.898	5137.18995
855.081	4913.60752
855.265	5013.93888
855.448	4790.21121
855.631	5053.6387
855.814	4821.59068
855.997	4936.6048
856.181	4965.87005
856.364	5383.44891
856.547	5030.65561
856.73	5003.49017
856.913	4758.82663
857.096	5181.03947
857.279	4827.86596
857.462	4915.6983
857.645	4863.422
857.828	4829.95767
858.011	4511.75798
858.194	4930.33309
858.377	4884.33424
858.56	5335.47484
858.743	5068.26285
858.926	5124.65963
859.109	4898.97144
859.292	4907.33505
859.475	4767.19635
859.658	4965.87005
859.841	4792.30333
860.023	4913.60752
860.206	4712.78669
860.389	4953.32836
860.572	4612.29807
860.755	4654.17461
860.937	4467.75565
861.12	4691.85583
861.303	4388.10776
861.486	4612.29807
861.668	4587.16785
861.851	4612.29807
862.034	4314.72005
862.216	4436.31947
862.399	4230.81608
862.581	4398.58955
862.764	4260.18636
862.947	4314.72005
863.129	4226.61998
863.312	4337.78762
863.494	4033.50844
863.677	4058.70692
863.859	4214.03118
864.042	4044.00817
864.224	3901.16808
864.406	4253.89308
864.589	4050.30775
864.771	4094.39965
864.954	3861.24016
865.136	4052.40758
865.318	3901.16808
865.501	4205.63822
865.683	3941.08874
865.865	4054.50738
866.048	3779.26041
866.23	3955.79451
866.412	3907.47182
866.594	4184.65434
866.777	3831.81499
866.959	3917.97767
867.141	3859.1385
867.323	4060.80665
867.505	3714.07577
867.687	4180.45731
867.869	4004.10647
868.052	4289.55246
868.234	4081.8029
868.416	4117.49175
868.598	3781.36283
868.78	3901.16808
868.962	3978.90158
869.144	3875.95129
869.326	3789.77231
869.508	3798.18148
869.69	3819.20302
869.872	3751.92719
870.054	3520.51672
870.236	3850.73162
870.417	3661.49401
870.599	3829.71305
870.781	3589.96377
870.963	3722.48773
871.145	3611.00433
871.327	3594.17203
871.508	3461.5763
871.69	3676.2181
871.872	3650.97622
872.054	3949.49216
872.235	3764.54293
872.417	3848.62985
872.599	3667.80445
872.78	3903.26935
872.962	3857.03681
873.144	3745.61905
873.325	3608.90036
873.507	3697.25091
873.689	3693.0445
873.87	3720.38477
874.052	3589.96377
874.233	3894.86415
874.415	3491.04829
874.596	3781.36283
874.778	3482.62809
874.959	3672.01131
875.141	3772.95304
875.322	3743.5163
875.503	3488.94327
875.685	3491.04829
875.866	3520.51672
876.048	3419.46735
876.229	3246.74736
876.41	3558.39943
876.592	3488.94327
876.773	3592.06791
876.954	3267.81695
877.136	3640.45796
877.317	3326.80277
877.498	3747.72178
877.679	3545.77252
877.86	3819.20302
878.042	3408.939
878.223	3842.32443
878.404	3579.44279
878.585	3642.56165
878.766	3465.78681
878.947	3535.24959
879.128	3413.15039
879.309	3720.38477
879.49	3389.98685
879.672	3760.33776
879.853	3592.06791
880.034	3766.64549
880.215	3429.99526
880.396	3682.52815
880.576	3354.18446
880.757	3962.09668
880.938	3571.02567
881.119	3770.85054
881.3	3613.10829
881.481	3505.78296
881.662	3531.04029
881.843	3657.28695
882.023	3632.04302
882.204	3682.52815
882.385	3655.18339
882.566	3724.59068
882.747	3413.15039
882.927	3549.98156
883.108	3326.80277
883.289	3621.52391
883.469	3406.83328
883.65	3564.71263
883.831	3503.67806
884.011	3722.48773
884.192	3385.77507
884.373	3461.5763
884.553	3352.07828
884.734	3592.06791
884.914	3278.35111
885.095	3354.18446
885.275	3488.94327
885.456	3575.23426
885.636	3413.15039
885.817	3676.2181
885.997	3516.30717
886.178	3408.939
886.358	3491.04829
886.538	3707.76659
886.719	3444.73358
886.899	3680.42482
887.08	3634.14678
887.26	3873.84976
887.44	3690.94127
887.621	3840.22258
887.801	3514.20236
887.981	3615.21222
888.161	3451.04974
888.342	3528.93562
888.522	3421.57297
888.702	3606.79637
888.882	3457.36573
889.062	3520.51672
889.242	3602.58833
889.423	3699.35408
889.603	3438.41727
889.783	4044.00817
889.963	3482.62809
890.143	3682.52815
890.323	3512.09754
890.503	3615.21222
890.683	3486.83823
890.863	3537.35422
891.043	3402.62178
891.223	3602.58833
891.403	3749.82449
891.583	3917.97767
891.763	3568.92134
891.943	3831.81499
892.122	3423.67857
892.302	3554.19053
892.482	3288.88485
892.662	3339.44084
892.842	3183.52859
893.022	3514.20236
893.201	3474.20759
893.381	3772.95304
893.561	3522.62147
893.741	3531.04029
893.92	3312.05757
894.1	3339.44084
894.28	3531.04029
894.459	3615.21222
894.639	3278.35111
894.819	3453.15509
894.998	3183.52859
895.178	3417.36172
895.357	3210.92522
895.537	3267.81695
895.716	3073.91468
895.896	3307.8445
896.075	3078.13139
896.255	3109.75475
896.434	3099.21403
896.614	3149.80586
896.793	3078.13139
896.973	2972.69496
897.152	3000.11211
897.331	3267.81695
897.511	3204.60317
897.69	3293.09823
897.87	3057.04719
898.049	3126.61908
898.228	3156.12919
898.407	3040.1787
898.587	2698.38971
898.766	2943.16596
898.945	2955.8216
899.124	2732.16288
899.304	2778.59545
899.483	3012.76531
899.662	2647.72378
899.841	2930.50979
900.02	2972.69496
900.199	3052.83016
900.378	2757.49054
900.557	2951.60312
900.737	2753.26939
900.916	2820.80118
901.095	2791.25774
901.274	2744.82695
901.453	2504.1319
901.632	2658.27978
901.811	2504.1319
901.989	2795.4784
902.168	2609.71958
902.347	2913.63408
902.526	2719.49833
902.705	2563.26463
902.884	2333.02082
903.063	2569.59974
903.242	2508.35597
903.42	2603.38516
903.599	2240.04403
903.778	2398.51592
903.957	2440.76557
904.135	2495.68364
904.314	2316.11731
904.493	2267.51632
904.672	2275.96902
904.85	2402.74108
905.029	2106.88859
905.207	2089.9777
905.386	2212.57023
905.565	2242.15733
905.743	1963.13168
905.922	2151.27734
906.1	2109.00242
906.279	2115.34386
906.457	1975.81735
906.636	2263.28991
906.814	2022.32951
906.993	2119.57144
907.171	1865.86801
907.35	1929.30218
907.528	1755.90515
907.707	2013.87298
907.885	1629.01258
908.063	1764.36423
908.242	1548.64279
908.42	1867.98256
908.598	1679.77088
908.777	1808.77338
908.955	1569.79297
909.133	1762.24947
909.311	1561.33292
909.49	1815.1174
909.668	1643.81723
909.846	1789.74111
910.024	1637.4724
910.202	1954.67445
910.38	1766.479
910.559	1958.90308
910.737	1523.26242
910.915	1813.00273
911.093	1578.253
911.271	1705.14944
911.449	1711.49401
911.627	1664.96653
911.805	1571.90798
911.983	1817.23206
912.161	1863.75345
912.339	1929.30218
912.517	1726.29789
912.695	1954.67445
912.872	1609.97787
913.05	2073.06634
913.228	1645.93217
913.406	1859.52433
913.584	1777.05275
913.762	1899.70017
913.939	1616.32279
914.117	1781.28222
914.295	1690.34533
914.473	1755.90515
914.65	1654.39191
914.828	1620.55273
915.006	1402.70467
915.184	1715.72371
915.361	1612.09285
915.539	1675.54108
915.716	1478.84648
915.894	1764.36423
916.072	1580.368
916.249	1747.446
916.427	1595.17298
916.604	1480.96153
916.782	1561.33292
916.959	1823.57602
917.137	1561.33292
917.314	1538.06766
917.492	1461.92607
917.669	1654.39191
917.847	1301.18379
918.024	1554.98786
918.201	1464.04112
918.379	1425.97019
918.556	1527.49249
918.733	1485.19163
918.911	1489.42173
919.088	1576.13799
919.265	1157.37131
919.442	1565.56294
919.62	1214.47162
919.797	1351.94384
919.974	1182.7489
920.151	1421.74009
920.328	1296.95383
920.506	1417.50999
920.683	1227.16091
920.86	1398.47458
921.037	1299.06881
921.214	1400.58962
921.391	1248.30998
921.568	1421.74009
921.745	1231.3907
921.922	1428.08524
922.099	1212.35674
922.276	1303.29877
922.453	1163.71566
922.63	1307.52874
922.807	1231.3907
922.984	1258.88462
923.161	1060.09644
923.338	1250.4249
923.514	935.34821
923.691	1282.14905
923.868	1123.53545
924.045	1074.89846
924.222	1148.91225
924.399	1157.37131
924.575	1129.87959
924.752	1108.73262
924.929	943.80498
925.105	1136.22377
925.282	916.3209
925.459	973.40458
925.635	808.51194
925.812	931.11986
925.989	903.63637
926.165	886.72411
926.342	783.14849
926.518	901.52231
926.695	740.87925
926.871	977.6332
927.048	859.24281
927.224	882.49613
927.401	833.87673
927.577	994.54797
927.754	859.24281
927.93	1047.4092
928.107	861.3567
928.283	929.0057
928.459	952.26187
928.636	859.24281
928.812	757.78646
928.988	764.12683
929.165	802.17095
929.341	842.33194
929.517	800.0573
929.693	738.76589
929.87	719.74618
930.046	802.17095
930.222	546.49901
930.398	876.15421
930.574	732.42589
930.751	766.24031
930.927	614.09776
931.103	734.53922
931.279	580.2967
931.455	669.03129
931.631	614.09776
931.807	643.67633
931.983	618.32312
932.159	709.18005
932.335	557.06041
932.511	548.61126
932.687	487.36163
932.863	641.5635
933.039	502.14492
933.215	561.28507
933.391	565.50978
933.566	614.09776
933.742	521.15305
933.918	489.47348
934.094	462.02054
934.27	495.80913
934.445	419.79031
934.621	400.78878
934.797	364.90064
934.973	462.02054
935.148	352.2354
935.324	447.23925
935.5	335.34939
935.675	390.23295
935.851	394.45523
936.027	419.79031
936.202	339.57079
936.378	348.0138
936.553	253.04654
936.729	286.80843
936.904	208.74152
937.08	183.42829
937.255	227.72833
937.431	221.39921
937.606	212.96067
937.782	174.9912
937.957	208.74152
938.133	202.41294
938.308	166.55444
938.483	236.16742
938.659	166.55444
938.834	191.86571
939.009	132.81075
939.185	156.00896
939.36	248.82665
939.535	128.59318
939.71	208.74152
939.886	126.48442
940.061	109.61514
940.236	151.79091
940.411	158.11802
940.586	134.91958
940.761	141.24617
940.937	166.55444
941.112	120.15828
941.287	96.96411
941.462	132.81075
941.637	149.68192
941.812	120.15828
941.987	90.63889
942.162	99.07256
942.337	75.88082
942.512	145.464
942.687	73.77262
942.862	126.48442
943.037	82.20557
943.212	67.44814
943.386	77.98905
943.561	63.23193
943.736	80.0973
943.911	107.50658
944.086	82.20557
944.26	149.68192
944.435	118.04961
944.61	92.74727
944.785	145.464
944.959	99.07256
945.134	126.48442
945.309	149.68192
945.483	27.39791
945.658	56.90779
945.833	107.50658
946.007	99.07256
946.182	84.31387
946.357	92.74727
946.531	99.07256
946.706	33.72107
946.88	92.74727
947.055	73.77262
947.229	107.50658
947.404	90.63889
947.578	71.66443
947.752	107.50658
947.927	124.37568
948.101	101.18103
948.276	42.15228
948.45	143.35507
948.624	141.24617
948.799	118.04961
948.973	92.74727
949.147	82.20557
949.321	40.04444
949.496	111.72373
949.67	143.35507
949.844	86.42218
950.018	69.55627
950.193	86.42218
950.367	86.42218
950.541	67.44814
950.715	109.61514
950.889	75.88082
951.063	96.96411
951.237	86.42218
951.411	120.15828
951.585	128.59318
951.759	77.98905
951.933	73.77262
952.107	84.31387
952.281	143.35507
952.455	86.42218
952.629	107.50658
952.803	120.15828
952.977	63.23193
953.151	153.89993
953.325	82.20557
953.499	73.77262
953.672	69.55627
953.846	82.20557
954.02	158.11802
954.194	50.58386
954.368	120.15828
954.541	130.70195
954.715	132.81075
954.889	92.74727
955.062	202.41294
955.236	99.07256
955.41	80.0973
955.583	73.77262
955.757	143.35507
955.93	115.94096
956.104	107.50658
956.278	16.85977
956.451	151.79091
956.625	132.81075
956.798	118.04961
956.972	48.47593
957.145	82.20557
957.319	67.44814
957.492	107.50658
957.665	183.42829
957.839	59.01582
958.012	82.20557
958.185	126.48442
958.359	67.44814
958.532	88.53052
958.705	158.11802
958.879	94.85568
959.052	105.39804
959.225	92.74727
959.398	92.74727
959.572	107.50658
959.745	204.52245
959.918	105.39804
960.091	105.39804
960.264	134.91958
960.438	134.91958
960.611	40.04444
960.784	101.18103
960.957	118.04961
961.13	101.18103
961.303	137.02842
961.476	107.50658
961.649	107.50658
961.822	67.44814
961.995	145.464
962.168	92.74727
962.341	6.32224
962.514	52.69182
962.686	84.31387
962.859	77.98905
963.032	29.5056
963.205	31.61332
963.378	82.20557
963.551	107.50658
963.723	75.88082
963.896	8.4297
964.069	134.91958
964.242	31.61332
964.414	54.79979
964.587	122.26697
964.76	52.69182
964.932	37.93663
965.105	90.63889
965.278	96.96411
965.45	86.42218
965.623	71.66443
965.795	124.37568
965.968	40.04444
966.14	120.15828
966.313	90.63889
966.485	48.47593
966.658	164.4453
966.83	42.15228
967.003	46.36803
967.175	44.26014
967.348	107.50658
967.52	-0
967.692	120.15828
967.865	75.88082
968.037	33.72107
968.209	52.69182
968.382	94.85568
968.554	73.77262
968.726	139.13728
968.898	86.42218
969.071	27.39791
969.243	59.01582
969.415	52.69182
969.587	103.28953
969.759	21.07496
969.932	29.5056
970.104	23.18258
970.276	46.36803
970.448	90.63889
970.62	2.10739
970.792	73.77262
970.964	31.61332
971.136	90.63889
971.308	65.34002
971.48	84.31387
971.652	50.58386
971.824	2.10739
971.996	84.31387
972.168	-44.2495
972.339	172.88198
972.511	77.98905
972.683	-6.32202
972.855	65.34002
973.027	65.34002
973.199	73.77262
973.37	12.64469
973.542	73.77262
973.714	94.85568
973.886	120.15828
974.057	128.59318
974.229	84.31387
974.401	59.01582
974.572	29.5056
974.744	42.15228
974.915	59.01582
975.087	46.36803
975.259	73.77262
975.43	111.72373
975.602	56.90779
975.773	75.88082
975.945	63.23193
976.116	31.61332
976.288	56.90779
976.459	124.37568
976.63	27.39791
976.802	71.66443
976.973	40.04444
977.145	75.88082
977.316	65.34002
977.487	50.58386
977.659	73.77262
977.83	86.42218
978.001	44.26014
978.172	88.53052
978.344	46.36803
978.515	14.75222
978.686	18.96735
978.857	44.26014
979.028	48.47593
979.2	137.02842
979.371	77.98905
979.542	44.26014
979.713	73.77262
979.884	-35.82187
980.055	23.18258
980.226	52.69182
980.397	166.55444
980.568	31.61332
980.739	82.20557
980.91	73.77262
981.081	21.07496
981.252	42.15228
981.423	84.31387
981.594	86.42218
981.765	65.34002
981.936	111.72373
982.106	107.50658
982.277	92.74727
982.448	50.58386
982.619	18.96735
982.79	40.04444
982.96	-52.67674
983.131	56.90779
983.302	-6.32202
983.472	48.47593
983.643	-10.53658
983.814	27.39791
983.984	31.61332
984.155	25.29023
984.326	14.75222
984.496	-27.39383
984.667	6.32224
984.837	69.55627
985.008	31.61332
985.178	42.15228
985.349	56.90779
985.519	6.32224
985.69	27.39791
985.86	14.75222
986.031	48.47593
986.201	65.34002
986.371	73.77262
986.542	12.64469
986.712	40.04444
986.882	75.88082
987.053	99.07256
987.223	35.82884
987.393	111.72373
987.563	-23.17966
987.734	42.15228
987.904	-4.2147
988.074	141.24617
988.244	42.15228
988.414	65.34002
988.585	59.01582
988.755	67.44814
988.925	25.29023
989.095	6.32224
989.265	33.72107
989.435	33.72107
989.605	-27.39383
989.775	61.12386
989.945	2.10739
990.115	-4.2147
990.285	14.75222
990.455	-16.85823
990.625	18.96735
990.795	-2.10736
990.965	44.26014
991.134	6.32224
991.304	18.96735
991.474	-18.9654
991.644	65.34002
991.814	107.50658
991.984	-23.17966
992.153	18.96735
992.323	56.90779
992.493	40.04444
992.662	10.53718
992.832	14.75222
993.002	23.18258
993.171	-0
993.341	61.12386
993.511	73.77262
993.68	6.32224
993.85	-33.71489
994.019	2.10739
994.189	77.98905
994.358	27.39791
994.528	-6.32202
994.697	-8.42931
994.867	23.18258
995.036	35.82884
995.206	61.12386
995.375	6.32224
995.544	48.47593
995.714	42.15228
995.883	-16.85823
996.052	63.23193
996.222	8.4297
996.391	48.47593
996.56	33.72107
996.73	56.90779
996.899	-18.9654
997.068	77.98905
997.237	42.15228
997.406	35.82884
997.576	59.01582
997.745	-18.9654
997.914	75.88082
998.083	128.59318
998.252	-21.07254
998.421	-0
998.59	6.32224
998.759	33.72107
998.928	29.5056
999.097	40.04444
999.266	52.69182
999.435	73.77262
999.604	67.44814
999.773	14.75222
999.942	109.61514
1000.111	-65.31684
1000.28	40.04444
1000.448	-6.32202
1000.617	-16.85823
1000.786	48.47593
1000.955	48.47593
1001.124	-18.9654
1001.292	40.04444
1001.461	-16.85823
1001.63	-4.2147
1001.798	27.39791
1001.967	84.31387
1002.136	61.12386
1002.304	-54.78349
1002.473	59.01582
1002.642	-8.42931
1002.81	14.75222
1002.979	92.74727
1003.147	6.32224
1003.316	16.85977
1003.484	-54.78349
1003.653	-0
1003.821	6.32224
1003.99	69.55627
1004.158	8.4297
1004.327	-0
1004.495	21.07496
1004.663	23.18258
1004.832	8.4297
1005	31.61332
1005.168	6.32224
1005.337	65.34002
1005.505	-35.82187
1005.673	6.32224
1005.842	69.55627
1006.01	82.20557
1006.178	-10.53658
1006.346	-25.28676
1006.514	94.85568
1006.683	-52.67674
1006.851	27.39791
1007.019	-4.2147
1007.187	75.88082
1007.355	44.26014
1007.523	8.4297
1007.691	75.88082
1007.859	40.04444
1008.027	40.04444
1008.195	61.12386
1008.363	48.47593
1008.531	40.04444
1008.699	-2.10736
1008.867	-33.71489
1009.035	16.85977
1009.203	37.93663
1009.37	37.93663
1009.538	33.72107
1009.706	61.12386
1009.874	6.32224
1010.042	31.61332
1010.209	52.69182
1010.377	23.18258
1010.545	-61.10358
1010.713	-40.03573
1010.88	69.55627
1011.048	-44.2495
1011.216	-10.53658
1011.383	-44.2495
1011.551	-2.10736
1011.718	-27.39383
1011.886	40.04444
1012.054	23.18258
1012.221	-35.82187
1012.389	37.93663
1012.556	35.82884
1012.724	18.96735
1012.891	-6.32202
1013.058	31.61332
1013.226	12.64469
1013.393	-18.9654
1013.561	12.64469
1013.728	-33.71489
1013.895	-6.32202
1014.063	107.50658
1014.23	23.18258
1014.397	31.61332
1014.565	77.98905
1014.732	-21.07254
1014.899	-33.71489
1015.066	-48.46317
1015.233	-27.39383
1015.401	35.82884
1015.568	35.82884
1015.735	2.10739
1015.902	-25.28676
1016.069	73.77262
1016.236	21.07496
1016.403	-27.39383
1016.57	33.72107
1016.737	31.61332
1016.904	2.10739
1017.071	-27.39383
1017.238	44.26014
1017.405	46.36803
1017.572	-56.89021
1017.739	44.26014
1017.906	-73.74306
1018.073	-61.10358
1018.24	2.10739
1018.407	-4.2147
1018.573	23.18258
1018.74	52.69182
1018.907	48.47593
1019.074	4.2148
1019.241	-56.89021
1019.407	99.07256
1019.574	31.61332
1019.741	6.32224
1019.907	37.93663
1020.074	31.61332
1020.241	12.64469
1020.407	25.29023
1020.574	46.36803
1020.74	-37.92881
1020.907	6.32224
1021.073	-52.67674
1021.24	42.15228
1021.406	-27.39383
1021.573	-63.21022
1021.739	65.34002
1021.906	10.53718
1022.072	14.75222
1022.239	75.88082
1022.405	59.01582
1022.571	-18.9654
1022.738	6.32224
1022.904	-2.10736
1023.07	-31.6079
1023.237	10.53718
1023.403	-35.82187
1023.569	71.66443
1023.735	18.96735
1023.902	-8.42931
1024.068	35.82884
1024.234	31.61332
1024.4	29.5056
1024.566	14.75222
1024.732	29.5056
1024.898	-14.75104
1025.065	73.77262
1025.231	50.58386
1025.397	27.39791
1025.563	23.18258
1025.729	59.01582
1025.895	23.18258
1026.061	40.04444
1026.227	25.29023
1026.392	2.10739
1026.558	14.75222
1026.724	-16.85823
1026.89	-33.71489
1027.056	54.79979
1027.222	16.85977
1027.388	67.44814
1027.553	21.07496
1027.719	40.04444
1027.885	25.29023
1028.051	18.96735
1028.216	84.31387
1028.382	94.85568
1028.548	8.4297
1028.713	40.04444
1028.879	-2.10736
1029.045	50.58386
1029.21	8.4297
1029.376	-23.17966
1029.541	-16.85823
1029.707	69.55627
1029.873	42.15228
1030.038	86.42218
1030.204	77.98905
1030.369	48.47593
1030.534	-8.42931
1030.7	16.85977
1030.865	-67.42343
1031.031	25.29023
1031.196	90.63889
1031.361	61.12386
1031.527	73.77262
1031.692	52.69182
1031.857	35.82884
1032.023	31.61332
1032.188	-14.75104
1032.353	-12.64382
1032.518	65.34002
1032.684	-35.82187
1032.849	31.61332
1033.014	-0
1033.179	48.47593
1033.344	40.04444
1033.509	-48.46317
1033.674	-65.31684
1033.839	-2.10736
1034.004	14.75222
1034.17	42.15228
1034.335	-77.95602
1034.5	31.61332
1034.664	-44.2495
1034.829	42.15228
1034.994	-6.32202
1035.159	10.53718
1035.324	14.75222
1035.489	59.01582
1035.654	14.75222
1035.819	-2.10736
1035.984	-4.2147
1036.148	-31.6079
1036.313	-33.71489
1036.478	6.32224
1036.643	27.39791
1036.807	-27.39383
1036.972	-23.17966
1037.137	-0
1037.301	56.90779
1037.466	-27.39383
1037.631	-21.07254
1037.795	-61.10358
1037.96	-18.9654
1038.124	-27.39383
1038.289	8.4297
1038.454	2.10739
1038.618	18.96735
1038.783	6.32224
1038.947	-23.17966
1039.111	-10.53658
1039.276	35.82884
1039.44	16.85977
1039.605	42.15228
1039.769	-6.32202
1039.933	-56.89021
1040.098	10.53718
1040.262	-44.2495
1040.426	-23.17966
1040.591	-6.32202
1040.755	25.29023
1040.919	86.42218
1041.083	-27.39383
1041.248	92.74727
1041.412	23.18258
1041.576	-35.82187
1041.74	-58.9969
1041.904	29.5056
1042.068	105.39804
1042.232	31.61332
1042.397	4.2148
1042.561	-82.16888
1042.725	-23.17966
1042.889	8.4297
1043.053	-16.85823
1043.217	56.90779
1043.381	-50.56997
1043.544	-6.32202
1043.708	10.53718
1043.872	-25.28676
1044.036	31.61332
1044.2	33.72107
1044.364	-48.46317
1044.528	12.64469
1044.691	29.5056
1044.855	10.53718
1045.019	-25.28676
1045.183	59.01582
1045.346	27.39791
1045.51	10.53718
1045.674	18.96735
1045.837	61.12386
1046.001	-23.17966
1046.165	-33.71489
1046.328	-4.2147
1046.492	-18.9654
1046.655	67.44814
1046.819	44.26014
1046.983	-16.85823
1047.146	-4.2147
1047.31	31.61332
1047.473	-27.39383
1047.636	12.64469
1047.8	42.15228
1047.963	48.47593
1048.127	50.58386
1048.29	-61.10358
