Data from absorb_only_2.23.25_USB4F045381__61__0166.txt Node

Date: Sun Feb 23 19:23:49 EST 2025
User: ssocol
Spectrometer: USB4F04538
Trigger mode: 4
Integration Time (sec): 2.600000E-3
Scans to average: 1
Electric dark correction enabled: true
Nonlinearity correction enabled: true
Boxcar width: 0
XAxis mode: Wavelengths
Number of Pixels in Spectrum: 3648
>>>>>Begin Spectral Data<<<<<
345.52	3.33671
345.736	3.33671
345.952	3.33671
346.168	3.33671
346.384	-9.30734
346.6	-53.55456
346.816	-45.12736
347.032	-21.95051
347.248	20.19678
347.464	-0.87807
347.68	-5.09275
347.896	-2.98542
348.112	-13.52183
348.328	26.51971
348.544	39.16618
348.76	24.41204
348.975	32.84284
349.191	22.3044
349.407	-38.8067
349.623	-5.09275
349.839	-13.52183
350.055	58.13747
350.27	125.60578
350.486	11.76656
350.702	-5.09275
350.918	-21.95051
351.133	-5.09275
351.349	37.05838
351.565	-80.94014
351.781	-28.27177
351.996	-5.09275
352.212	87.65205
352.428	28.62739
352.644	45.48974
352.859	-21.95051
353.075	47.59764
353.291	62.35357
353.506	11.76656
353.722	20.19678
353.938	15.98162
354.153	70.78603
354.369	-13.52183
354.584	-34.5928
354.8	58.13747
355.016	-21.95051
355.231	28.62739
355.447	24.41204
355.662	51.8135
355.878	64.46165
356.093	-5.09275
356.309	77.11062
356.524	81.32712
356.74	22.3044
356.955	-38.8067
357.171	58.13747
357.386	-40.91361
357.602	39.16618
357.817	-5.09275
358.033	15.98162
358.248	-11.4146
358.464	5.44413
358.679	81.32712
358.895	100.3025
359.11	-70.40773
359.325	-57.768
359.541	-21.95051
359.756	13.87408
359.972	-15.62904
360.187	-51.44779
360.402	34.9506
360.618	64.46165
360.833	-19.84338
361.048	53.92147
361.264	9.65906
361.479	98.19403
361.694	91.86877
361.909	45.48974
362.125	-17.73622
362.34	-38.8067
362.555	-21.95051
362.77	1.22931
362.986	28.62739
363.201	26.51971
363.416	-0.87807
363.631	3.33671
363.847	5.44413
364.062	-13.52183
364.277	-7.20006
364.492	20.19678
364.707	-2.98542
364.922	1.22931
365.138	30.7351
365.353	22.3044
365.568	-19.84338
365.783	20.19678
365.998	24.41204
366.213	-66.19459
366.428	45.48974
366.643	13.87408
366.858	-55.66129
367.073	37.05838
367.288	3.33671
367.503	112.95374
367.718	-9.30734
367.933	-0.87807
368.148	47.59764
368.363	20.19678
368.578	-9.30734
368.793	-13.52183
369.008	-28.27177
369.223	30.7351
369.438	3.33671
369.653	41.27401
369.868	-13.52183
370.083	15.98162
370.298	-5.09275
370.513	15.98162
370.728	-21.95051
370.943	-36.69976
371.157	-32.48582
371.372	3.33671
371.587	-11.4146
371.802	-5.09275
372.017	70.78603
372.232	-9.30734
372.446	-13.52183
372.661	56.02946
372.876	3.33671
373.091	70.78603
373.306	7.55158
373.52	-5.09275
373.735	11.76656
373.95	-30.3788
374.165	-13.52183
374.379	30.7351
374.594	-47.2342
374.809	28.62739
375.023	1.22931
375.238	56.02946
375.453	20.19678
375.667	47.59764
375.882	72.8942
376.097	-5.09275
376.311	-36.69976
376.526	15.98162
376.741	-11.4146
376.955	28.62739
377.17	83.43541
377.384	1.22931
377.599	11.76656
377.813	13.87408
378.028	-53.55456
378.242	41.27401
378.457	-21.95051
378.672	15.98162
378.886	70.78603
379.101	3.33671
379.315	5.44413
379.53	37.05838
379.744	-64.08798
379.958	-21.95051
380.173	-43.0205
380.387	-19.84338
380.602	37.05838
380.816	56.02946
381.031	51.8135
381.245	-70.40773
381.459	-11.4146
381.674	-5.09275
381.888	83.43541
382.103	47.59764
382.317	72.8942
382.531	-26.16471
382.746	39.16618
382.96	37.05838
383.174	58.13747
383.388	-5.09275
383.603	13.87408
383.817	11.76656
384.031	39.16618
384.246	43.38186
384.46	-47.2342
384.674	83.43541
384.888	-15.62904
385.103	1.22931
385.317	-9.30734
385.531	45.48974
385.745	11.76656
385.959	11.76656
386.174	32.84284
386.388	26.51971
386.602	-11.4146
386.816	-21.95051
387.03	32.84284
387.244	-13.52183
387.458	3.33671
387.672	-30.3788
387.887	-13.52183
388.101	39.16618
388.315	-34.5928
388.529	24.41204
388.743	11.76656
388.957	85.54372
389.171	-11.4146
389.385	3.33671
389.599	-2.98542
389.813	37.05838
390.027	28.62739
390.241	41.27401
390.455	-5.09275
390.669	121.38835
390.883	-34.5928
391.097	56.02946
391.311	39.16618
391.525	3.33671
391.738	-55.66129
391.952	-5.09275
392.166	-28.27177
392.38	28.62739
392.594	49.70556
392.808	7.55158
393.022	20.19678
393.236	3.33671
393.449	26.51971
393.663	47.59764
393.877	53.92147
394.091	41.27401
394.305	62.35357
394.518	47.59764
394.732	-30.3788
394.946	28.62739
395.16	22.3044
395.373	41.27401
395.587	-26.16471
395.801	-7.20006
396.015	45.48974
396.228	-9.30734
396.442	7.55158
396.656	26.51971
396.869	87.65205
397.083	13.87408
397.297	-55.66129
397.51	-26.16471
397.724	-21.95051
397.938	5.44413
398.151	56.02946
398.365	13.87408
398.578	-21.95051
398.792	24.41204
399.005	-28.27177
399.219	5.44413
399.433	39.16618
399.646	-28.27177
399.86	56.02946
400.073	41.27401
400.287	41.27401
400.5	3.33671
400.714	87.65205
400.927	-21.95051
401.141	-13.52183
401.354	47.59764
401.567	85.54372
401.781	28.62739
401.994	-2.98542
402.208	49.70556
402.421	45.48974
402.635	26.51971
402.848	37.05838
403.061	3.33671
403.275	41.27401
403.488	3.33671
403.701	70.78603
403.915	-11.4146
404.128	64.46165
404.341	-5.09275
404.555	32.84284
404.768	-28.27177
404.981	7.55158
405.195	-26.16471
405.408	3.33671
405.621	34.9506
405.834	39.16618
406.048	-36.69976
406.261	9.65906
406.474	-0.87807
406.687	58.13747
406.9	11.76656
407.114	45.48974
407.327	-57.768
407.54	5.44413
407.753	3.33671
407.966	49.70556
408.179	100.3025
408.392	39.16618
408.605	64.46165
408.819	75.0024
409.032	34.9506
409.245	20.19678
409.458	-17.73622
409.671	-2.98542
409.884	3.33671
410.097	34.9506
410.31	53.92147
410.523	20.19678
410.736	89.7604
410.949	28.62739
411.162	11.76656
411.375	66.56975
411.588	79.21886
411.801	-7.20006
412.014	15.98162
412.227	53.92147
412.44	-59.87469
412.653	37.05838
412.865	34.9506
413.078	58.13747
413.291	64.46165
413.504	-17.73622
413.717	62.35357
413.93	-0.87807
414.143	22.3044
414.356	9.65906
414.568	70.78603
414.781	62.35357
414.994	121.38835
415.207	37.05838
415.42	37.05838
415.632	20.19678
415.845	64.46165
416.058	-19.84338
416.271	104.51949
416.483	-17.73622
416.696	45.48974
416.909	11.76656
417.121	-13.52183
417.334	11.76656
417.547	-7.20006
417.759	91.86877
417.972	-2.98542
418.185	30.7351
418.397	75.0024
418.61	-30.3788
418.823	30.7351
419.035	-17.73622
419.248	-0.87807
419.46	-0.87807
419.673	77.11062
419.885	-5.09275
420.098	20.19678
420.311	-9.30734
420.523	-13.52183
420.736	-17.73622
420.948	34.9506
421.161	41.27401
421.373	79.21886
421.586	66.56975
421.798	5.44413
422.01	-7.20006
422.223	85.54372
422.435	15.98162
422.648	66.56975
422.86	45.48974
423.073	53.92147
423.285	51.8135
423.497	-2.98542
423.71	87.65205
423.922	56.02946
424.134	-0.87807
424.347	7.55158
424.559	51.8135
424.771	-21.95051
424.984	89.7604
425.196	56.02946
425.408	28.62739
425.621	7.55158
425.833	-11.4146
426.045	64.46165
426.257	24.41204
426.47	125.60578
426.682	28.62739
426.894	39.16618
427.106	3.33671
427.318	20.19678
427.531	-26.16471
427.743	37.05838
427.955	22.3044
428.167	79.21886
428.379	45.48974
428.591	87.65205
428.804	72.8942
429.016	45.48974
429.228	75.0024
429.44	87.65205
429.652	47.59764
429.864	20.19678
430.076	43.38186
430.288	96.08559
430.5	104.51949
430.712	37.05838
430.924	-13.52183
431.136	70.78603
431.348	-19.84338
431.56	-13.52183
431.772	32.84284
431.984	49.70556
432.196	-13.52183
432.408	91.86877
432.62	58.13747
432.832	22.3044
433.044	34.9506
433.256	32.84284
433.468	34.9506
433.679	49.70556
433.891	47.59764
434.103	45.48974
434.315	93.97717
434.527	89.7604
434.739	75.0024
434.95	39.16618
435.162	28.62739
435.374	45.48974
435.586	41.27401
435.798	32.84284
436.009	3.33671
436.221	70.78603
436.433	70.78603
436.645	20.19678
436.856	32.84284
437.068	66.56975
437.28	37.05838
437.491	45.48974
437.703	85.54372
437.915	72.8942
438.126	81.32712
438.338	41.27401
438.55	37.05838
438.761	45.48974
438.973	62.35357
439.184	53.92147
439.396	34.9506
439.608	87.65205
439.819	102.41098
440.031	43.38186
440.242	83.43541
440.454	-0.87807
440.665	115.06236
440.877	-47.2342
441.088	91.86877
441.3	98.19403
441.511	79.21886
441.723	68.67788
441.934	60.24551
442.146	-51.44779
442.357	53.92147
442.569	70.78603
442.78	-0.87807
442.991	26.51971
443.203	53.92147
443.414	85.54372
443.626	68.67788
443.837	79.21886
444.048	62.35357
444.26	56.02946
444.471	75.0024
444.682	104.51949
444.894	-5.09275
445.105	22.3044
445.316	125.60578
445.528	-7.20006
445.739	72.8942
445.95	53.92147
446.161	-7.20006
446.373	98.19403
446.584	-2.98542
446.795	53.92147
447.006	87.65205
447.217	72.8942
447.429	100.3025
447.64	70.78603
447.851	30.7351
448.062	70.78603
448.273	30.7351
448.484	62.35357
448.695	53.92147
448.907	112.95374
449.118	11.76656
449.329	70.78603
449.54	91.86877
449.751	41.27401
449.962	11.76656
450.173	96.08559
450.384	-2.98542
450.595	134.0409
450.806	64.46165
451.017	108.73657
451.228	30.7351
451.439	140.36746
451.65	62.35357
451.861	37.05838
452.072	72.8942
452.283	7.55158
452.494	49.70556
452.705	110.84515
452.915	87.65205
453.126	98.19403
453.337	138.25859
453.548	89.7604
453.759	47.59764
453.97	87.65205
454.181	106.62802
454.391	87.65205
454.602	79.21886
454.813	142.47636
455.024	91.86877
455.235	165.67563
455.445	131.93208
455.656	87.65205
455.867	77.11062
456.078	24.41204
456.288	79.21886
456.499	112.95374
456.71	79.21886
456.921	167.78478
457.131	28.62739
457.342	87.65205
457.553	28.62739
457.763	108.73657
457.974	129.82329
458.184	79.21886
458.395	30.7351
458.606	138.25859
458.816	79.21886
459.027	117.171
459.237	180.44012
459.448	112.95374
459.659	184.65873
459.869	30.7351
460.08	134.0409
460.29	123.49705
460.501	163.5665
460.711	83.43541
460.922	121.38835
461.132	96.08559
461.343	193.0962
461.553	138.25859
461.764	121.38835
461.974	138.25859
462.184	241.61784
462.395	167.78478
462.605	207.86254
462.816	146.69422
463.026	163.5665
463.236	214.19127
463.447	148.80318
463.657	131.93208
463.867	199.42451
464.078	186.76807
464.288	190.9868
464.498	222.62986
464.709	180.44012
464.919	266.93757
465.129	159.34831
465.339	262.71742
465.55	127.71452
465.76	138.25859
465.97	239.50798
466.18	239.50798
466.391	298.59104
466.601	197.31505
466.811	258.49735
467.021	216.30089
467.231	313.36408
467.441	207.86254
467.651	258.49735
467.862	231.06877
468.072	309.14312
468.282	340.80204
468.492	319.69565
468.702	296.48068
468.912	376.6869
469.122	281.70867
469.332	410.46532
469.542	357.68842
469.752	353.46672
469.962	389.35331
470.172	442.13636
470.382	332.35927
470.592	433.6904
470.802	336.58062
471.012	475.92268
471.222	469.58744
471.432	408.35405
471.642	435.80187
471.852	551.95569
472.062	547.73116
472.272	528.72142
472.482	518.16095
472.691	668.15088
472.901	564.62963
473.111	575.19162
473.321	606.87955
473.531	596.31658
473.741	649.13455
473.95	816.086
474.16	554.06798
474.37	822.42718
474.58	754.79243
474.79	847.79268
474.999	750.56559
475.209	773.81369
475.419	832.99598
475.628	892.18531
475.838	678.71592
476.048	928.12481
476.258	923.89651
476.467	985.20956
476.677	1004.23891
476.886	1101.50751
477.096	1160.71971
477.306	983.09522
477.515	1029.61216
477.725	1232.62439
477.935	1177.63809
478.144	1194.55671
478.354	1196.67155
478.563	1359.52268
478.773	1059.21537
478.982	1439.89428
479.192	1480.08026
479.401	1342.60252
479.611	1408.16853
479.82	1467.38996
480.03	1590.06175
480.239	1558.33664
480.449	1376.44292
480.658	1778.28634
480.868	1685.23436
481.077	1765.59785
481.287	1702.15338
481.496	1818.46561
481.705	1845.95577
481.915	2023.56274
482.124	1818.46561
482.333	1964.36502
482.543	1786.74526
482.752	2116.5769
482.961	2074.29947
483.171	2141.9419
483.38	2154.62397
483.589	2141.9419
483.799	2294.10661
484.008	2414.53608
484.217	2251.84321
484.426	2480.01867
484.636	2412.42356
484.845	2374.39655
485.054	2412.42356
485.263	2589.83617
485.472	2575.05489
485.682	2627.84245
485.891	2617.28555
486.1	2577.16653
486.309	2762.94277
486.518	2735.50483
486.727	2824.14223
486.936	3011.88664
487.146	2927.52145
487.355	3039.30011
487.564	3041.40873
487.773	3079.36126
487.982	2866.34197
488.191	3125.74076
488.4	3079.36126
488.609	3089.90273
488.818	3104.66012
489.027	3218.47637
489.236	3300.64702
489.445	3353.30689
489.654	3285.90033
489.863	3431.22349
490.072	3408.06162
490.281	3450.1725
490.49	3393.32113
490.698	3654.30691
490.907	3450.1725
491.116	3780.48682
491.325	3523.84924
491.534	3713.1995
491.743	3687.96165
491.952	3772.077
492.16	3814.12299
492.369	3858.26279
492.578	3793.10098
492.787	4089.32605
492.996	3957.01995
493.204	4160.69516
493.413	4101.92236
493.622	4259.31231
493.831	4089.32605
494.039	4297.06811
494.248	4116.6171
494.457	4221.54958
494.665	4190.07538
494.874	4357.88223
495.083	4318.04055
495.291	4246.7255
495.5	4303.36007
495.709	4278.19108
495.917	4395.61977
496.126	4626.08342
496.335	4626.08342
496.543	4745.39944
496.752	4711.91461
496.96	4600.95497
497.169	4494.12329
497.377	4720.28636
497.586	4764.23211
497.794	4877.18948
498.003	4575.8233
498.211	4937.82428
498.42	4783.06295
498.628	5127.96632
498.837	4898.10021
499.045	4896.00924
499.254	4870.91581
499.462	5038.14284
499.671	5048.58963
499.879	5104.9923
500.087	4839.54441
500.296	5357.5514
500.504	5221.92164
500.713	5192.69615
500.921	5048.58963
501.129	5313.74337
501.338	5165.55411
501.546	5572.26936
501.754	5232.3582
501.962	5359.63724
502.171	5374.23746
502.379	5482.66017
502.587	5288.70557
502.795	5636.84431
503.004	5463.89925
503.212	5674.32904
503.42	5561.85193
503.628	5703.47854
503.837	5603.51814
504.045	5805.46538
504.253	5915.71388
504.461	5618.09908
504.669	5641.00966
504.877	5888.67793
505.085	5884.5182
505.294	5903.23624
505.502	5973.93162
505.71	6036.28726
505.918	5903.23624
506.126	6088.23411
506.334	5738.86815
506.542	6152.62779
506.75	5811.70763
506.958	6366.41912
507.166	6061.22358
507.374	6241.91069
507.582	6027.9744
507.79	6231.53118
507.998	6023.81783
508.206	6237.75896
508.414	6216.99889
508.622	6260.59232
508.83	6387.16235
509.037	6418.27283
509.245	6277.19663
509.453	6401.68123
509.661	6362.27019
509.869	6461.8187
510.077	6391.31072
510.285	6403.75526
510.492	6349.82286
510.7	6716.66799
510.908	6347.74822
511.116	6565.45813
511.324	6530.22722
511.531	6524.00931
511.739	6497.06261
511.947	6789.12247
512.155	6633.82848
512.362	6834.65095
512.57	6691.82
512.778	6844.9968
512.985	6575.81889
513.193	6664.8976
513.401	6967.03494
513.608	6718.73851
513.816	6880.16842
514.024	6691.82
514.231	6700.10303
514.439	7097.26018
514.646	6687.67834
514.854	6911.19676
515.061	6851.20403
515.269	7060.06206
515.477	6987.71157
515.684	7150.97804
515.892	7206.74606
516.099	7233.59156
516.307	7159.24099
516.514	7361.57278
516.722	6973.23817
516.929	7250.11002
517.136	7101.39286
517.344	7324.42563
517.551	7266.62706
517.759	7256.30408
517.966	7260.43334
518.173	7485.34566
518.381	7472.97188
518.588	7431.72034
518.796	7291.39999
519.003	7324.42563
519.21	7202.61565
519.418	7650.25551
519.625	7413.15431
519.832	7594.61373
520.039	7625.52775
520.247	7757.37397
520.454	7590.4915
520.661	7868.55239
520.868	7421.4061
521.076	7714.12146
521.283	7584.30799
521.49	7932.34972
521.697	7644.07386
521.904	7732.65938
522.112	7835.61697
522.319	8057.82893
522.526	7627.58851
522.733	8281.85933
522.94	8121.56814
523.147	8000.24133
523.354	7852.08534
523.561	8066.05443
523.768	8090.729
523.975	8078.39208
524.183	7889.13434
524.39	8164.73535
524.597	8214.05855
524.804	8392.76004
525.011	8298.29265
525.218	8263.37033
525.425	8086.61677
525.632	8203.78383
525.838	8148.29174
526.045	8218.1683
526.252	7998.18433
526.459	8343.47785
526.666	8288.02197
526.873	8448.18922
527.08	8242.82514
527.287	8721.02747
527.494	8450.24188
527.701	8956.6776
527.907	8437.92561
528.114	8759.97749
528.321	8472.81991
528.528	8891.12927
528.735	8770.22639
528.941	8743.57829
529.148	8616.44449
529.355	8829.66109
529.562	8829.66109
529.768	8630.80187
529.975	8565.16061
530.182	8667.71668
530.388	8675.91915
530.595	9054.96621
530.802	8813.26683
531.008	9052.91894
531.215	9110.23591
531.422	9097.95484
531.628	9081.57912
531.835	8948.48505
532.042	9059.0607
532.248	9169.58569
532.455	9120.46966
532.661	9083.62615
532.868	9171.63198
533.074	9382.30961
533.281	9198.23217
533.487	9361.86319
533.694	9077.48502
533.9	9498.82314
534.107	9155.2612
534.313	9564.2114
534.52	9339.37024
534.726	9333.23545
534.933	9533.56268
535.139	9392.53221
535.345	9739.86283
535.552	9592.81366
535.758	9703.10803
535.965	9941.92712
536.171	9513.12821
536.377	9892.95519
536.584	9701.06596
536.79	9635.7113
536.996	9603.02801
537.203	9805.19255
537.409	9723.52798
537.615	9831.72834
537.821	9680.64432
538.028	10048.00431
538.234	9684.72877
538.44	9819.48137
538.646	9786.82013
538.853	10025.56814
539.059	9645.92401
539.265	9917.44221
539.471	10198.89424
539.677	10223.35573
539.883	10043.92513
540.09	10078.59631
540.296	10094.91074
540.502	10414.90361
540.708	10176.46948
540.914	10494.34152
541.12	10374.15856
541.326	10380.27065
541.532	9856.22069
541.738	10186.66276
541.944	10135.6929
542.15	10284.50086
542.356	10227.43245
542.562	10541.1804
542.768	10270.23475
542.974	10708.11748
543.18	10533.03499
543.386	10744.75122
543.592	10689.79914
543.798	10624.6593
544.004	10492.30489
544.21	10935.99882
544.415	10557.47061
544.621	10805.79889
544.827	10663.33759
545.033	10750.85647
545.239	10687.76371
545.445	11019.38369
545.651	10651.12387
545.856	11108.84924
546.062	10718.29391
546.268	10992.94661
546.474	10754.92658
546.679	10777.3113
546.885	10594.12067
547.091	10968.54149
547.297	10870.90476
547.502	10813.93777
547.708	10852.59493
547.914	10956.33833
548.119	10907.5216
548.325	11062.08579
548.531	10901.41905
548.736	11096.65063
548.942	10805.79889
549.147	10997.01398
549.353	11114.9484
549.559	11049.88568
549.764	11202.35916
549.97	11381.18661
550.175	11476.6651
550.381	11423.84987
550.586	11265.3642
550.792	11452.28965
550.997	11245.04108
551.203	11350.71019
551.408	11464.47755
551.614	11383.21829
551.819	11444.16419
552.025	11484.78994
552.23	11234.87913
552.435	11710.19484
552.641	11693.95319
552.846	11600.55255
553.052	11306.00738
553.257	11559.93755
553.462	11470.57137
553.668	11626.95032
553.873	11549.78322
554.078	12077.51723
554.283	11695.98343
554.489	11972.01561
554.694	11927.37383
554.899	12016.65351
555.105	11501.03917
555.31	11754.85647
555.515	12038.97103
555.72	12158.6581
555.925	11907.08081
556.131	12018.68242
556.336	11870.55129
556.541	12308.73752
556.746	11878.66919
556.951	12233.70276
557.156	11700.04387
557.361	12028.82682
557.567	11949.69521
557.772	12097.80359
557.977	11939.54925
558.182	11884.75753
558.387	11988.24802
558.592	12180.96972
558.797	12126.20321
559.002	11937.52003
559.207	12203.28046
559.412	12266.15142
559.617	11921.28601
559.822	12507.43265
560.027	12174.88482
560.232	12523.64987
560.437	12057.2301
560.642	12359.43123
560.847	12339.15426
561.051	12357.40356
561.256	12310.76535
561.461	12353.34821
561.666	12477.02427
561.871	12505.40547
562.076	12272.23534
562.281	12738.49053
562.485	12410.12065
562.69	12361.45888
562.895	12282.37506
563.1	12742.54348
563.305	12483.10607
563.509	12710.11921
563.714	12450.66916
563.919	12458.77854
564.123	12649.31964
564.328	12872.22611
564.533	12704.03949
564.737	12647.29289
564.942	12896.5391
565.147	12945.1628
565.351	12404.03814
565.556	12491.21503
565.761	12618.91784
565.965	12813.46649
566.17	12655.39984
566.374	13054.55532
566.579	12841.83378
566.784	12795.2298
566.988	12795.2298
567.193	13143.67941
567.397	13068.73477
567.602	13001.88668
567.806	12535.81251
568.011	13052.52967
568.215	12981.62861
568.42	13176.08592
568.624	12947.18872
568.828	13356.32648
569.033	12914.77334
569.237	13034.29855
569.442	12880.33052
569.646	12999.86089
569.85	13149.75572
570.055	13334.05138
570.259	13105.19514
570.463	13167.9844
570.668	13283.42429
570.872	13165.95901
571.076	13172.03517
571.281	13204.44066
571.485	13103.1696
571.689	13255.07195
571.893	13222.66824
572.098	13433.27308
572.302	12987.70608
572.506	13082.91399
572.71	12959.34414
572.914	13358.35147
573.119	13404.925
573.323	13817.9279
573.527	13295.57503
573.731	13554.75644
573.935	13504.14
574.139	13473.76903
574.343	13548.68259
574.547	13684.3246
574.751	13453.52125
574.955	13911.03779
575.159	13556.78106
575.364	13741.00642
575.568	13380.62603
575.772	13443.39721
575.976	13344.17649
576.18	13429.2234
576.383	13625.61575
576.587	13643.83604
576.791	13698.49529
576.995	13911.03779
577.199	13487.94225
577.403	13394.8005
577.607	13651.93385
577.811	14030.45311
578.015	13410.99965
578.219	13645.8605
578.422	13540.58407
578.626	13643.83604
578.83	13702.54403
579.034	13941.39846
579.238	13850.31462
579.442	14257.1177
579.645	13738.98212
579.849	13953.54257
580.053	13698.49529
580.257	14101.28871
580.46	13977.8305
580.664	14131.64598
580.868	13589.17435
581.071	14010.21384
581.275	13935.32638
581.479	14206.52519
581.682	13710.64147
581.886	13963.66258
582.09	14390.67649
582.293	14378.53508
582.497	14518.15801
582.7	14226.76234
582.904	14186.28784
583.107	14473.6413
583.311	14129.62218
583.515	14030.45311
583.718	13979.85448
583.922	14291.51993
584.125	14279.37803
584.329	14273.30705
584.532	14267.23606
584.735	14269.25972
584.939	14123.55075
585.142	14459.47675
585.346	14394.72361
585.549	14876.29629
585.753	14574.81475
585.956	14765.01331
586.159	14463.52377
586.363	14655.75137
586.566	14611.23645
586.769	14566.72099
586.973	14419.00622
587.176	14645.63439
587.379	14410.91204
587.582	14943.06523
587.786	14809.52675
587.989	14843.92326
588.192	14607.18961
588.395	14953.18169
588.599	14821.66672
588.802	14706.33593
589.005	14591.00222
589.208	15019.95011
589.411	14858.08648
589.615	14568.74443
589.818	14775.13004
590.021	14750.84987
590.224	14580.88506
590.427	14979.48444
590.63	14809.52675
590.833	15038.15962
591.036	15040.18289
591.239	15301.18513
591.442	15171.69562
591.645	15173.71889
591.848	15030.0665
592.051	14858.08648
592.254	14874.27298
592.457	15325.46449
592.66	15074.57858
592.863	15058.39238
593.066	14920.80897
593.269	15313.32481
593.472	15102.90441
593.675	15724.06136
593.878	15210.13777
594.081	15345.69733
594.284	15254.64977
594.486	15365.93021
594.689	15473.16513
594.892	15493.39829
595.095	15459.00195
595.298	15511.60819
595.5	15469.1185
595.703	15612.77527
595.906	15552.07481
596.109	15616.82199
596.311	15467.09519
596.514	15408.41936
596.717	15422.58245
596.92	15598.61177
597.122	15475.18844
597.325	15790.8344
597.528	15505.53822
597.73	15881.89046
597.933	15550.05147
598.136	16023.53826
598.338	15410.44266
598.541	15987.11391
598.743	15770.60003
598.946	15345.69733
599.148	15786.78752
599.351	15653.24263
599.554	15875.81998
599.756	15596.58841
599.959	15847.49123
600.161	15786.78752
600.363	15934.50174
600.566	16025.56185
600.768	15936.52527
600.971	16086.2702
601.173	15811.06888
601.376	15823.20962
601.578	15657.28939
601.78	16037.70341
601.983	16114.60122
602.185	16013.42034
602.388	16013.42034
602.59	16023.53826
602.792	16426.26462
602.995	16231.976
603.197	16183.40645
603.399	16183.40645
603.601	16110.55391
603.804	15677.52321
604.006	15983.06679
604.208	15932.47822
604.41	15823.20962
604.613	15968.9019
604.815	15916.29005
605.017	16094.36474
605.219	16090.31747
605.421	16134.83786
605.623	15991.16104
605.826	16588.1858
606.028	16134.83786
606.23	16179.35903
606.432	15960.80771
606.634	16426.26462
606.836	16292.68935
607.038	16424.24069
607.24	16266.38004
607.442	16159.12204
607.644	16102.45932
607.846	16280.54655
608.048	16304.83222
608.25	16074.12842
608.452	16304.83222
608.654	16327.09431
608.856	16213.7623
609.058	16142.93256
609.26	16229.95225
609.462	16551.75234
609.664	15989.13747
609.866	16078.17567
610.067	16104.48296
610.269	16527.46377
610.471	16092.3411
610.673	16064.01031
610.875	16120.6722
611.077	16300.78459
611.278	15892.00795
611.48	16001.27888
611.682	16124.71952
611.884	16628.66825
612.085	16304.83222
612.287	16304.83222
612.489	16414.12106
612.69	16351.38049
612.892	16304.83222
613.094	16426.26462
613.295	16167.21681
613.497	16353.40435
613.699	16321.02281
613.9	16373.64306
614.102	16051.86864
614.304	16041.75061
614.505	16130.79052
614.707	16225.90475
614.908	16155.07466
615.11	16693.44207
615.311	16397.92977
615.513	16404.00149
615.714	16173.28791
615.916	16438.40824
616.117	16207.6911
616.319	16667.12742
616.52	16345.30892
616.722	16383.76249
616.923	16272.45139
617.124	16624.61997
617.326	16569.96898
617.527	16592.234
617.729	16474.83956
617.93	16377.69082
618.131	16296.73697
618.333	16541.63207
618.534	16130.79052
618.735	16446.50404
618.937	15966.87835
619.138	16171.26421
619.339	16284.59415
619.54	16648.90982
619.742	16521.39167
619.943	16822.99696
620.144	16191.50131
620.345	16051.86864
620.546	16037.70341
620.748	16632.71655
620.949	16517.34362
621.15	16750.12112
621.351	16580.08941
621.552	16586.1617
621.753	16531.51184
621.954	16537.58397
622.155	16169.24051
622.356	16557.82454
622.558	16689.39363
622.759	16377.69082
622.96	16523.4157
623.161	16632.71655
623.362	16223.88101
623.563	16717.73286
623.764	16754.16969
623.965	16598.30633
624.166	16262.33248
624.366	16391.85806
624.567	16450.55194
624.768	16531.51184
624.969	16128.76685
625.17	16061.9867
625.371	16337.21352
625.572	16555.80047
625.773	16503.1755
625.973	16517.34362
626.174	16450.55194
626.375	16673.2
626.576	16719.75711
626.777	16744.04827
626.977	16571.99306
627.178	16592.234
627.379	16440.43219
627.58	16446.50404
627.78	16250.18984
627.981	16009.37318
628.182	16571.99306
628.382	16871.58265
628.583	16661.05486
628.784	16731.90265
628.984	16480.91151
629.185	16847.28962
629.386	16452.5759
629.586	16750.12112
629.787	16543.65612
629.987	16891.82711
630.188	16375.66694
630.388	16788.58297
630.589	16316.97515
630.79	16748.09683
630.99	16681.2968
631.191	16920.16979
631.391	16669.15161
631.591	16414.12106
631.792	16503.1755
631.992	17043.66894
632.193	17114.53367
632.393	16691.41785
632.594	16833.11886
632.794	16995.07793
632.994	17035.57033
633.195	16908.02287
633.395	16663.07905
633.595	16912.07183
633.796	16806.80206
633.996	17155.02933
634.196	17181.35212
634.397	17296.77324
634.597	16778.46135
634.797	17327.14881
634.997	16810.85077
635.198	16681.2968
635.398	16758.21828
635.598	16962.68478
635.798	16705.58742
635.998	16742.024
636.199	16960.66023
636.399	16916.12081
636.599	16699.51473
636.799	16620.57169
636.999	16650.93399
637.199	16865.50936
637.399	16632.71655
637.599	17059.86629
637.799	16497.10348
637.999	17161.10378
638.199	16744.04827
638.399	17404.10331
638.599	16620.57169
638.799	16914.09632
638.999	16829.07009
639.199	17086.18737
639.399	16932.31681
639.599	17114.53367
639.799	16976.8567
639.999	16995.07793
640.199	16910.04735
640.399	16861.46051
640.599	16365.54755
640.799	17327.14881
640.998	17153.00452
641.198	17142.88051
641.398	16657.00651
641.598	17155.02933
641.798	17100.36045
641.997	17055.81694
642.197	16814.89949
642.397	17341.32431
642.597	16954.5866
642.796	17130.7318
642.996	16995.07793
643.196	17067.96504
643.395	16833.11886
643.595	16855.38726
643.795	16954.5866
643.994	17094.28625
644.194	16851.33843
644.394	17021.39787
644.593	16869.55821
644.793	17148.95491
644.992	16993.05333
645.192	17298.79825
645.392	16932.31681
645.591	17454.7337
645.791	17327.14881
645.99	17665.3774
646.19	17252.22361
646.389	17365.62551
646.589	17118.58318
646.788	17043.66894
646.987	17130.7318
647.187	17256.27351
647.386	17231.97425
647.586	17436.50654
647.785	17161.10378
647.984	17072.01442
648.184	17312.97346
648.383	17282.5982
648.582	17213.75008
648.782	17724.12089
648.981	17288.6732
649.18	17454.7337
649.38	17312.97346
649.579	17817.306
649.778	17592.45832
649.977	18036.11717
650.177	17734.24936
650.376	17171.22792
650.575	17140.85572
650.774	17337.27415
650.973	17377.77628
651.173	17094.28625
651.372	17233.99917
651.571	17408.15367
651.77	17497.26473
651.969	17430.43087
652.168	17517.5181
652.367	17238.04903
652.566	17189.45154
652.765	17341.32431
652.964	17142.88051
653.163	17343.34939
653.362	17535.7464
653.561	17511.44205
653.76	17185.40183
653.959	17396.00263
654.158	17622.84076
654.357	17179.32728
654.556	17005.20093
654.755	17474.9864
654.954	17448.65795
655.153	17179.32728
655.352	17327.14881
655.551	17556.00037
655.749	17294.74822
655.948	17485.11287
656.147	17353.47486
656.346	17136.80614
656.545	17422.33003
656.743	17369.67575
656.942	17252.22361
657.141	17483.08757
657.34	17560.0512
657.538	17829.46112
657.737	17811.2285
657.936	17985.46279
658.135	17483.08757
658.333	17450.6832
658.532	17584.35646
658.731	17746.40363
658.929	17385.87685
659.128	17314.9985
659.326	17513.4674
659.525	17454.7337
659.724	17306.89835
659.922	17448.65795
660.121	17641.07057
660.319	17671.45419
660.518	17393.97747
660.716	17404.10331
660.915	17649.1728
661.113	17778.81563
661.312	17596.50927
661.51	17786.91876
661.709	17653.22393
661.907	17503.34071
662.105	17470.93583
662.304	17657.27507
662.502	17373.72601
662.701	17513.4674
662.899	17438.53176
663.097	17797.04776
663.296	17604.61121
663.494	17746.40363
663.692	17223.87459
663.891	17537.77178
664.089	17112.50891
664.287	17294.74822
664.485	17669.42859
664.684	17878.0828
664.882	17560.0512
665.08	17639.04502
665.278	17369.67575
665.476	17442.58223
665.675	17402.07814
665.873	17436.50654
666.071	17321.07364
666.269	17213.75008
666.467	17272.47326
666.665	17728.17227
666.863	17505.36604
667.061	17515.49275
667.259	17604.61121
667.457	17669.42859
667.655	17205.65052
667.853	17456.75895
668.051	17592.45832
668.249	17535.7464
668.447	17416.25443
668.645	17669.42859
668.843	17501.31538
669.041	17776.78985
669.239	17450.6832
669.437	17021.39787
669.635	17199.57588
669.833	17562.07662
670.031	17564.10204
670.229	17391.95231
670.426	17416.25443
670.624	17300.82327
670.822	17351.44976
671.02	17501.31538
671.218	17574.22921
671.415	17183.37698
671.613	17090.23681
671.811	17074.03912
672.009	17256.27351
672.206	17499.29006
672.404	17142.88051
672.602	17185.40183
672.799	17367.65063
672.997	17314.9985
673.195	17114.53367
673.392	17543.84794
673.59	17256.27351
673.788	17341.32431
673.985	16960.66023
674.183	17339.29923
674.38	17197.55101
674.578	16962.68478
674.775	17456.75895
674.973	17588.40739
675.17	17065.94035
675.368	17041.64428
675.565	17420.30483
675.763	17274.49824
675.96	17179.32728
676.158	17035.57033
676.355	17128.70702
676.553	17148.95491
676.75	16976.8567
676.947	16912.07183
677.145	16699.51473
677.342	16847.28962
677.539	16999.12712
677.737	17199.57588
677.934	17106.43467
678.131	17525.61953
678.329	17122.63271
678.526	17499.29006
678.723	17300.82327
678.92	17268.42331
679.118	16942.4394
679.315	16859.43609
679.512	16699.51473
679.709	17045.6936
679.906	16663.07905
680.104	17074.03912
680.301	16754.16969
680.498	17053.79227
680.695	16897.9005
680.892	17165.15343
681.089	16924.21879
681.286	16932.31681
681.483	16764.29117
681.68	17013.29937
681.877	16547.70423
682.075	16685.34521
682.272	16357.45208
682.469	16889.80265
682.665	16725.82987
682.862	16863.48493
683.059	16752.1454
683.256	16827.04571
683.453	16584.1376
683.65	16533.53588
683.847	16482.9355
684.044	16349.35663
684.241	16539.60802
684.438	16363.52368
684.635	16262.33248
684.831	16474.83956
685.028	16464.71969
685.225	16555.80047
685.422	16616.52342
685.619	16762.26687
685.815	16701.53896
686.012	16822.99696
686.209	16466.74366
686.405	16507.22352
686.602	16296.73697
686.799	16448.52799
686.996	16367.57143
687.192	16663.07905
687.389	16312.9275
687.586	16543.65612
687.782	16622.59583
687.979	16739.99972
688.175	16715.70862
688.372	16744.04827
688.568	16482.9355
688.765	16438.40824
688.962	16410.07323
689.158	16351.38049
689.355	16155.07466
689.551	16588.1858
689.748	16300.78459
689.944	16314.95132
690.14	16361.49981
690.337	16296.73697
690.533	16102.45932
690.73	16019.49109
690.926	16213.7623
691.123	16197.57247
691.319	15987.11391
691.515	16146.97992
691.712	15774.64689
691.908	16262.33248
692.104	15831.30347
692.301	15983.06679
692.497	15382.11653
692.693	16373.64306
692.889	16231.976
693.086	16321.02281
693.282	16211.73857
693.478	16321.02281
693.674	16179.35903
693.87	16140.90888
694.067	16078.17567
694.263	16053.89224
694.459	15972.94901
694.655	16155.07466
694.851	16037.70341
695.047	16223.88101
695.243	16104.48296
695.439	16300.78459
695.635	15851.53818
695.831	15960.80771
696.027	15883.91396
696.224	15946.64293
696.42	15760.48288
696.615	15976.99611
696.811	15582.42496
697.007	15681.56999
697.203	15517.67816
697.399	15738.22525
697.595	15772.62346
697.791	15600.63512
697.987	15748.34234
698.183	15987.11391
698.379	15513.63151
698.575	15827.25654
698.77	15541.95813
698.966	15278.92907
699.162	15369.97678
699.358	15529.81813
699.554	15252.62649
699.749	15349.74391
699.945	15483.2817
700.141	15351.76719
700.337	15424.60576
700.532	15422.58245
700.728	15675.49983
700.924	15823.20962
701.119	15635.03228
701.315	15436.74557
701.511	15084.69495
701.706	15630.98554
701.902	15321.41793
702.097	15584.4483
702.293	15766.55316
702.489	15529.81813
702.684	15307.25497
702.88	15167.64908
703.075	15349.74391
703.271	15446.8621
703.466	15584.4483
703.662	15341.65076
703.857	15717.99114
704.053	15475.18844
704.248	15430.67566
704.443	15434.72227
704.639	15386.16311
704.834	15121.11385
705.03	15519.70149
705.225	15657.28939
705.42	15572.30822
705.616	15323.44121
705.811	15104.92768
706.006	15396.27958
706.202	15329.51106
706.397	15054.34583
706.592	15094.81132
706.787	15280.95235
706.983	15133.25348
707.178	15471.14181
707.373	15212.16104
707.568	15337.60419
707.763	15212.16104
707.959	15339.62748
708.154	15193.9516
708.349	14678.00865
708.544	14835.82998
708.739	14945.08852
708.934	15098.85786
709.129	15268.81269
709.324	14981.50773
709.519	15483.2817
709.714	15272.85924
709.909	15102.90441
710.104	14825.71337
710.299	14789.29341
710.494	14506.01716
710.689	14852.01653
710.884	14783.2234
711.079	15321.41793
711.274	14714.4294
711.469	15297.13857
711.664	14939.01864
711.859	15204.06795
712.054	15102.90441
712.249	14706.33593
712.443	14667.89172
712.638	14864.15642
712.833	14657.77477
713.028	14694.19569
713.223	14307.70904
713.417	14744.77981
713.612	14655.75137
713.807	14985.5543
714.002	14864.15642
714.196	14902.59927
714.391	14615.28328
714.586	14831.78334
714.78	15115.04404
714.975	14843.92326
715.17	14516.13454
715.364	14849.99322
715.559	14423.0533
715.754	14487.80578
715.948	14198.43028
716.143	14236.88084
716.337	14629.44716
716.532	14900.57596
716.726	14528.27536
716.921	14754.89657
717.115	14724.54623
717.31	14588.97879
717.504	14554.58031
717.699	14554.58031
717.893	14728.59295
718.088	15032.08978
718.282	14781.20006
718.476	14506.01716
718.671	14443.28861
718.865	14544.46305
719.059	14236.88084
719.254	14362.34645
719.448	14297.59086
719.642	14416.98268
719.837	13779.4677
720.031	14103.31255
720.225	14040.57266
720.419	14117.47932
720.614	14214.62007
720.808	14097.24104
721.002	13951.51856
721.196	14192.35907
721.39	14107.3602
721.585	14360.32287
721.779	14166.05029
721.973	14315.80355
722.167	14251.04666
722.361	14030.45311
722.555	13738.98212
722.749	13791.61315
722.943	13854.36291
723.137	13872.58007
723.331	14074.97868
723.525	13985.92639
723.719	13749.10363
723.913	14042.59656
724.107	13775.4192
724.301	14042.59656
724.495	13759.22506
724.689	13998.07016
724.883	13542.6087
725.077	13674.20258
725.271	13481.86804
725.465	13585.12524
725.659	13698.49529
725.853	14346.15772
726.046	14168.07406
726.24	13593.22345
726.434	13544.63334
726.628	13967.71057
726.822	13429.2234
727.015	13943.42249
727.209	13649.9094
727.403	13435.29792
727.596	13548.68259
727.79	13813.87951
727.984	13686.34899
728.177	13977.8305
728.371	13599.29707
728.565	13793.63738
728.758	13817.9279
728.952	13838.16969
729.146	13789.58891
729.339	14127.59837
729.533	13886.74882
729.726	13996.04621
729.92	13617.51776
730.113	14022.35743
730.307	14056.76381
730.5	13686.34899
730.694	13678.2514
730.887	13846.26632
731.081	13767.32216
731.274	13577.02697
731.468	13615.49325
731.661	13668.12933
731.854	13617.51776
732.048	14192.35907
732.241	13601.32161
732.435	13915.08592
732.628	13896.86927
732.821	13911.03779
733.014	13872.58007
733.208	13773.39494
733.401	13819.95209
733.594	13560.83027
733.788	13753.15221
733.981	13860.43532
734.174	13728.86053
734.367	13597.27254
734.56	13743.03073
734.754	13548.68259
734.947	13532.48549
735.14	13421.124
735.333	13593.22345
735.526	13378.60109
735.719	13400.87521
735.912	13370.50129
736.105	13145.70485
736.298	13198.36472
736.491	13504.14
736.684	13309.7507
736.877	13095.06741
737.07	13465.66996
737.263	13216.59242
737.456	13609.41971
737.649	13415.0494
737.842	13639.78711
738.035	13579.05154
738.228	13141.65397
738.421	13510.21409
738.614	13651.93385
738.807	13556.78106
739	13431.24824
739.192	13034.29855
739.385	13415.0494
739.578	13684.3246
739.771	13297.60014
739.964	13206.46597
740.156	13431.24824
740.349	13109.24619
740.542	13062.6579
740.735	13285.44942
740.927	13360.37645
741.12	13234.81977
741.313	12957.31825
741.505	13044.427
741.698	13076.83721
741.891	12993.78351
742.083	13070.76039
742.276	13182.16201
742.468	13093.04186
742.661	12835.75516
742.854	12835.75516
743.046	12779.01904
743.239	12920.85133
743.431	12827.65027
743.624	12807.38765
743.816	12815.49276
744.009	12880.33052
744.201	12764.83432
744.393	12665.53338
744.586	12535.81251
744.778	12736.46404
744.971	12920.85133
745.163	13093.04186
745.355	12904.64326
745.548	12839.80758
745.74	12866.14774
745.932	12722.27849
746.125	12752.67577
746.317	12890.46092
746.509	12645.26614
746.702	12774.96629
746.894	12466.88782
747.086	12791.17715
747.278	12685.80002
747.471	12695.93312
747.663	12515.54131
747.855	12547.97492
748.047	12811.44021
748.239	12904.64326
748.431	12673.64011
748.623	12744.56995
748.815	12629.05192
749.008	12884.3827
749.2	12734.43755
749.392	12730.38455
749.584	12689.85328
749.776	13016.06703
749.968	12770.91352
750.16	12758.75507
750.352	12677.69344
750.544	12716.19887
750.736	12720.25195
750.928	12515.54131
751.12	12466.88782
751.311	12458.77854
751.503	12501.35109
751.695	12665.53338
751.887	12460.80587
752.079	12353.34821
752.271	12446.61443
752.463	12602.70298
752.654	12444.58705
752.846	12841.83378
753.038	12458.77854
753.23	12487.16056
753.421	12523.64987
753.613	12527.7041
753.805	12576.353
753.997	12572.29906
754.188	12618.91784
754.38	12324.95998
754.572	12487.16056
754.763	12456.75121
754.955	12436.47748
755.146	12326.98775
755.338	12290.48671
755.53	12349.29283
755.721	12310.76535
755.913	12393.90049
756.104	12075.48855
756.296	11921.28601
756.487	11838.07834
756.679	11846.19678
756.87	11364.9328
757.062	11909.11015
757.253	11892.8752
757.445	11704.10429
757.636	11663.49856
757.827	11501.03917
758.019	11842.13757
758.21	11592.42984
758.401	11622.88923
758.593	11834.01907
758.784	11740.64641
758.975	11984.18997
759.167	11769.06611
759.358	11779.21559
759.549	11649.2857
759.74	11545.72142
759.932	11411.66081
760.123	11787.33502
760.314	11659.43778
760.505	11639.13339
760.696	11403.53457
760.888	11580.24551
761.079	11234.87913
761.27	11744.70648
761.461	11720.34558
761.652	12061.28759
761.843	11488.85231
762.034	11961.8701
762.225	11143.40987
762.416	11450.2583
762.607	11145.44276
762.798	11419.78689
762.989	11462.44626
763.18	11476.6651
763.371	11639.13339
763.562	11641.16387
763.753	11383.21829
763.944	11594.46053
764.135	11334.45518
764.326	11687.86242
764.517	11271.46094
764.708	11265.3642
764.899	11090.55118
765.089	11031.58478
765.28	10968.54149
765.471	10903.45325
765.662	11058.01913
765.853	11149.50849
766.043	10791.55538
766.234	11228.78184
766.425	10970.57531
766.615	10997.01398
766.806	10999.04764
766.997	10974.64292
767.187	10964.47382
767.378	11104.78308
767.569	10862.76717
767.759	11247.07344
767.95	11007.18219
768.141	11208.45686
768.331	10997.01398
768.522	11009.2158
768.712	11027.51779
768.903	10885.14508
769.093	10722.3644
769.284	10807.83363
769.474	10565.61542
769.665	10606.33646
769.855	10659.2664
770.046	10378.2333
770.236	10374.15856
770.426	10463.79079
770.617	10528.96221
770.807	10504.52446
770.998	10520.81649
771.188	10372.12117
771.378	10286.53883
771.569	10590.04864
771.759	10276.34888
771.949	10488.23161
772.139	10852.59493
772.33	10231.50912
772.52	10465.8276
772.71	10559.50683
772.9	10313.03111
773.09	10726.43484
773.281	10469.90117
773.471	10632.80247
773.661	10573.76003
773.851	10622.62348
774.041	9997.01052
774.231	10182.58549
774.421	10068.39933
774.611	10111.22428
774.802	10029.64757
774.992	10196.8557
775.182	10149.96533
775.372	10064.32044
775.562	10135.6929
775.752	10400.64344
775.942	10111.22428
776.131	9901.11777
776.321	9868.46605
776.511	10170.35335
776.701	9964.36978
776.891	9729.65366
777.081	9756.19672
777.271	10074.51756
777.461	9815.39892
777.651	9911.32066
777.84	9701.06596
778.03	9660.22115
778.22	9363.90791
778.41	9652.05145
778.599	9613.24197
778.789	9760.28003
778.979	9892.95519
779.169	9882.75164
779.358	9866.4252
779.548	10056.16249
779.738	10060.24149
779.927	10056.16249
780.117	9933.76572
780.307	9970.4902
780.496	9923.56364
780.686	9948.04802
780.875	9807.23385
781.065	9701.06596
781.254	9506.99756
781.444	9729.65366
781.633	9598.94232
781.823	9790.903
782.012	9647.9665
782.202	9643.8815
782.391	9619.37015
782.581	9480.42975
782.77	9425.24177
782.96	9707.19215
783.149	9153.21477
783.338	9529.47591
783.528	9308.6948
783.717	9233.01272
783.906	9261.65188
784.096	9202.32426
784.285	9392.53221
784.474	9075.43794
784.663	9167.53938
784.853	9007.87462
785.042	9243.24137
785.231	9494.73583
785.42	9095.90794
785.61	9333.23545
785.799	9136.84276
785.988	9149.12187
786.177	8835.80864
786.366	8938.24397
786.555	9192.09392
786.744	9036.54017
786.933	8792.77239
787.122	9157.3076
787.312	8835.80864
787.501	9038.58757
787.69	8710.77636
787.879	9020.16028
788.068	8966.91789
788.257	8907.51806
788.445	8932.09911
788.634	9079.53208
788.823	9026.30287
789.012	8753.82792
789.201	8837.85778
789.39	8889.08059
789.579	8745.62825
789.768	9022.20782
789.957	8680.02028
790.145	8698.47443
790.334	8520.02107
790.523	8435.87284
790.712	8526.177
790.9	8846.05419
791.089	8505.65657
791.278	8772.27612
791.467	8476.92476
791.655	8632.85285
791.844	8653.36164
792.033	8766.12689
792.221	8517.96906
792.41	8768.17665
792.599	8240.77051
792.787	8191.4535
792.976	8201.72882
793.164	8117.45651
793.353	8150.34726
793.541	8207.89377
793.73	8341.42418
793.918	8355.79944
794.107	8072.22334
794.295	8148.29174
794.484	8115.40067
794.672	8415.34399
794.861	8205.83881
795.049	8368.12034
795.238	8292.1303
795.426	8520.02107
795.614	8216.11343
795.803	8251.04345
795.991	8055.7725
796.179	8131.84685
796.368	8218.1683
796.556	8216.11343
796.744	7810.91191
796.932	8123.62392
797.121	7872.66895
797.309	8033.15047
797.497	7862.3774
797.685	8238.71586
797.874	8068.11075
798.062	7734.71905
798.25	7806.7941
798.438	7707.94177
798.626	7808.85302
798.814	7790.32207
799.002	7751.19561
799.19	7716.18131
799.378	7559.57204
799.566	7569.87906
799.755	7658.49742
799.943	7891.19242
800.131	7794.4402
800.318	8098.95321
800.506	7497.71866
800.694	7600.79692
800.882	7454.40976
801.07	7802.67622
801.258	7670.85965
801.446	7924.11892
801.634	7452.34719
801.822	7786.20385
802.01	7547.20291
802.197	8096.89719
802.385	7627.58851
802.573	7800.61725
802.761	7720.30096
802.949	7889.13434
803.136	7582.24678
803.324	7876.78542
803.512	7864.43575
803.699	7901.48252
803.887	7773.84869
804.075	7771.78942
804.262	7703.82187
804.45	7724.42052
804.638	7580.18555
804.825	7810.91191
805.013	7571.9404
805.201	7843.85132
805.388	7466.7847
805.576	7635.83135
805.763	7679.10071
805.951	7827.38228
806.138	7878.84363
806.326	7837.67559
806.513	7726.48026
806.701	7850.02687
806.888	7677.04048
807.075	7679.10071
807.263	7604.91894
807.45	7804.73517
807.638	7567.8177
807.825	7856.20223
808.012	7567.8177
808.2	7874.72719
808.387	7716.18131
808.574	7670.85965
808.761	7505.9669
808.949	7922.06117
809.136	7520.40048
809.323	7747.0766
809.51	7817.08845
809.698	7689.40156
809.885	7442.03404
810.072	7569.87906
810.259	7596.67482
810.446	7738.83832
810.633	7516.27671
810.82	7724.42052
811.008	7769.73014
811.195	7683.22112
811.382	7786.20385
811.569	7973.49881
811.756	7606.97991
811.943	7839.73418
812.13	7567.8177
812.317	7642.01326
812.504	7687.34144
812.691	7658.49742
812.878	7613.16272
813.064	7815.02962
813.251	7674.98022
813.438	7837.67559
813.625	7798.55825
813.812	7856.20223
813.999	7745.01706
814.186	7642.01326
814.372	7720.30096
814.559	7740.89792
814.746	7660.55785
814.933	7825.32355
815.12	7448.222
815.306	7481.22115
815.493	7642.01326
815.68	7835.61697
815.866	7534.83301
816.053	7530.70954
816.24	7400.77599
816.426	7716.18131
816.613	7609.04087
816.799	7629.64925
816.986	7720.30096
817.173	7889.13434
817.359	7683.22112
817.546	7543.0797
817.732	7345.06381
817.919	7771.78942
818.105	7609.04087
818.292	7520.40048
818.478	7592.55263
818.665	7590.4915
818.851	7458.53483
819.037	7815.02962
819.224	7419.34318
819.41	7745.01706
819.597	7305.8494
819.783	7380.1437
819.969	7376.01698
820.156	7454.40976
820.342	7518.3386
820.528	7444.09671
820.714	7276.9495
820.901	7625.52775
821.087	7444.09671
821.273	7567.8177
821.459	7413.15431
821.646	7355.38208
821.832	7345.06381
822.018	7299.65693
822.204	7212.9415
822.39	7499.78075
822.576	7237.72131
822.762	7555.44909
822.948	7559.57204
823.134	7431.72034
823.32	7334.745
823.507	7413.15431
823.693	7215.00661
823.879	7320.29774
824.065	7146.84643
824.25	7565.75632
824.436	7097.26018
824.622	7235.65645
824.808	7064.19554
824.994	7270.7561
825.18	6884.30583
825.366	7074.52886
825.552	6904.9915
825.738	7142.71473
825.923	6737.37213
826.109	6969.1027
826.295	6768.42405
826.481	6869.82451
826.667	7022.85667
826.852	7132.3851
827.038	6687.67834
827.224	6894.64895
827.409	6869.82451
827.595	6855.34208
827.781	6538.51745
827.966	6987.71157
828.152	6925.67491
828.338	7206.74606
828.523	6960.83151
828.709	6826.37387
828.894	6681.46569
829.08	7060.06206
829.266	6714.59745
829.451	6830.51246
829.637	6675.25283
829.822	6832.58172
830.008	6577.89097
830.193	6967.03494
830.378	6669.03976
830.564	7022.85667
830.749	6629.68553
830.935	6799.47082
831.12	6553.02446
831.305	6675.25283
831.491	6447.30455
831.676	6727.02035
831.861	6553.02446
832.047	6490.84358
832.232	6571.67466
832.417	6758.07398
832.602	6418.27283
832.788	6418.27283
832.973	6273.04569
833.158	6637.97132
833.343	6389.23655
833.528	6521.93663
833.714	6534.37238
833.899	6455.59848
834.084	6032.13088
834.269	6434.86294
834.454	6214.92276
834.639	6501.20851
834.824	6422.42049
835.009	6455.59848
835.194	6351.89747
835.379	6666.9687
835.564	6268.89466
835.749	6445.231
835.934	6154.70463
836.119	6048.75585
836.304	5921.95238
836.489	5992.64054
836.674	5926.11126
836.859	6144.32019
837.044	6046.67781
837.228	5863.71813
837.413	5584.76951
837.598	5853.31721
837.783	5545.18281
837.968	5913.63433
838.152	5928.19066
838.337	6206.61798
838.522	6119.39516
838.707	6092.38922
838.891	5994.71919
839.076	6090.31168
839.261	5909.47516
839.445	6119.39516
839.63	5948.98342
839.815	5969.77382
839.999	5630.59611
840.184	6127.70388
840.368	5753.43836
840.553	6075.76821
840.737	5874.11846
840.922	6133.93517
841.106	5770.08861
841.291	5855.39744
841.475	5678.49354
841.66	5957.29986
841.844	5770.08861
842.029	5701.39659
842.213	5857.47765
842.397	5857.47765
842.582	5553.51756
842.766	5661.83498
842.951	5611.85024
843.135	5844.99605
843.319	5547.26653
843.504	5484.7446
843.688	5578.51954
843.872	5595.18565
844.056	5330.43336
844.241	5616.01616
844.425	5320.00229
844.609	5520.1763
844.793	5409.69033
844.977	5374.23746
845.161	5336.69172
845.346	5292.87877
845.53	5107.08097
845.714	5315.8297
845.898	5063.21417
846.082	5297.05188
846.266	5056.94665
846.45	5372.15178
846.634	5084.10439
846.818	5238.61986
847.002	5119.61246
847.186	5365.89462
847.37	5173.90592
847.554	5196.8715
847.738	4862.55061
847.922	5067.3924
848.106	5002.61942
848.29	5301.22489
848.473	5142.58469
848.657	5175.99382
848.841	5201.04676
849.025	5267.83816
849.209	5059.03584
849.392	5019.33716
849.576	4977.54006
849.76	4856.27646
849.944	4808.16786
850.127	5253.22959
850.311	4831.17783
850.495	5059.03584
850.678	4665.86355
850.862	5038.14284
851.046	4996.34989
851.229	4831.17783
851.413	4609.33148
851.596	4862.55061
851.78	4699.35631
851.964	4954.54772
852.147	4452.21282
852.331	4531.83518
852.514	4492.02798
852.698	4785.15515
852.881	4533.93007
853.065	4820.7191
853.248	4617.70763
853.431	4975.44996
853.615	4611.42555
853.798	4778.87848
853.982	4349.49516
854.165	4690.98366
854.348	4494.12329
854.532	4621.89557
854.715	4477.36016
854.898	4661.67655
855.081	4236.23591
855.265	4638.64644
855.448	4341.10774
855.631	4441.73383
855.814	4110.31948
855.997	4229.9419
856.181	4181.68145
856.364	4364.17231
856.547	4286.58108
856.73	4458.49995
856.913	4299.16545
857.096	4408.19738
857.279	4160.69516
857.462	4318.04055
857.645	4068.33055
857.828	4169.08993
858.011	4122.91453
858.194	4236.23591
858.377	4043.13321
858.56	4368.36559
858.743	4108.22023
858.926	4548.59371
859.109	4143.90461
859.292	4404.00493
859.475	3967.52341
859.658	4215.25512
859.841	4007.43189
860.023	4179.58292
860.206	4030.53342
860.389	4232.03992
860.572	3980.12688
860.755	4051.53265
860.937	3992.72962
861.12	3904.49508
861.303	3950.71763
861.486	4190.07538
861.668	3797.30554
861.851	4043.13321
862.034	3635.37397
862.216	3807.81659
862.399	3717.40554
862.581	3910.79873
862.764	3441.7509
862.947	3687.96165
863.129	3445.96174
863.312	3666.92801
863.494	3462.80438
863.677	3669.03146
863.859	3458.59382
864.042	3711.09645
864.224	3534.37266
864.406	3603.81568
864.589	3250.08349
864.771	3378.57978
864.954	3309.07332
865.136	3761.56428
865.318	3458.59382
865.501	3462.80438
865.683	3467.01485
865.865	3525.95396
866.048	3671.13489
866.23	3677.44507
866.412	3450.1725
866.594	3601.71165
866.777	3471.22526
866.959	3488.06617
867.141	3229.01249
867.323	3525.95396
867.505	3306.96677
867.687	3576.46176
867.869	3502.80101
868.052	3433.329
868.234	3319.60581
868.416	3536.47729
868.598	3163.68186
868.78	3443.85633
868.962	3125.74076
869.144	3317.49935
869.326	3127.84873
869.508	3264.8322
869.69	3218.47637
869.872	3298.5404
870.054	3136.28048
870.236	3153.14319
870.417	3216.36909
870.599	3433.329
870.781	3180.54289
870.963	3424.90683
871.145	3054.06013
871.327	3172.11251
871.508	3285.90033
871.69	3281.68684
871.872	3020.32183
872.054	3281.68684
872.235	3011.88664
872.417	3222.69087
872.599	2999.23339
872.78	3292.22044
872.962	3140.49625
873.144	3336.45691
873.325	3222.69087
873.507	3325.9251
873.689	3115.20064
873.87	3235.33397
874.052	3039.30011
874.233	3155.25096
874.415	3054.06013
874.596	3260.61837
874.778	3024.53933
874.959	3125.74076
875.141	2881.11054
875.322	3193.18798
875.503	3028.75677
875.685	3231.11967
875.866	2978.14344
876.048	3210.04717
876.229	2957.05198
876.41	3045.62593
876.592	2921.19311
876.773	3342.77578
876.954	2868.45181
877.136	3247.97647
877.317	3087.79446
877.498	3163.68186
877.679	3041.40873
877.86	3047.7345
878.042	2864.23212
878.223	3140.49625
878.404	2891.65909
878.585	3096.22742
878.766	2893.76876
878.947	3138.38837
879.128	2889.54941
879.309	3136.28048
879.49	2838.91278
879.672	3229.01249
879.853	3188.97301
880.034	2995.01552
880.215	2931.74028
880.396	3138.38837
880.576	3079.36126
880.757	3323.81869
880.938	3003.4512
881.119	3157.35871
881.3	3022.43059
881.481	3340.66951
881.662	2940.17775
881.843	3060.38563
882.023	3100.4438
882.204	3231.11967
882.385	3129.95669
882.566	3045.62593
882.747	2851.5727
882.927	3018.21305
883.108	2876.89102
883.289	3104.66012
883.469	2929.63087
883.65	3113.09257
883.831	2904.31687
884.011	3144.71196
884.192	2967.5979
884.373	3264.8322
884.553	2895.87841
884.734	3349.0945
884.914	3054.06013
885.095	3134.17257
885.275	2910.64557
885.456	2887.43971
885.636	3009.7778
885.817	3205.83247
885.997	2931.74028
886.178	3104.66012
886.358	2988.6886
886.538	3151.03541
886.719	2997.12446
886.899	3140.49625
887.08	3062.49409
887.26	3081.46958
887.44	2902.20728
887.621	2935.95904
887.801	3005.56008
887.981	3032.97415
888.161	2788.26808
888.342	3201.61771
888.522	3117.30869
888.702	3241.65529
888.882	3022.43059
889.062	3182.65045
889.242	3007.66895
889.423	3174.22013
889.603	2860.01237
889.783	3106.76825
889.963	2684.84433
890.143	3070.9278
890.323	2885.33
890.503	3157.35871
890.683	2957.05198
890.863	3037.19147
891.043	2860.01237
891.223	3182.65045
891.403	2957.05198
891.583	3045.62593
891.763	3005.56008
891.943	3092.01097
892.122	2879.00079
892.302	3241.65529
892.482	2948.61498
892.662	3212.15449
892.842	2997.12446
893.022	2971.81616
893.201	2800.93
893.381	3013.99546
893.561	2800.93
893.741	2855.79256
893.92	2659.5113
894.1	3011.88664
894.28	2954.94276
894.459	2879.00079
894.639	2792.48877
894.819	3138.38837
894.998	3022.43059
895.178	2992.90656
895.357	2756.61114
895.537	2625.7311
895.716	2665.84473
895.896	2931.74028
896.075	2809.371
896.255	2815.70161
896.434	2765.05328
896.614	2809.371
896.793	2319.46285
896.973	2893.76876
897.152	2568.71987
897.331	2695.39922
897.511	2539.15507
897.69	2653.17775
897.87	2463.12093
898.049	2547.60239
898.228	2253.95647
898.407	2507.47596
898.587	2220.14328
898.766	2547.60239
898.945	2422.98602
899.124	2486.35513
899.304	2463.12093
899.483	2384.95994
899.662	2332.14045
899.841	2431.4358
900.02	2253.95647
900.199	2370.17112
900.378	2330.02754
900.557	2452.55949
900.737	2338.47912
900.916	2420.87355
901.095	2327.91462
901.274	2488.46727
901.453	2251.84321
901.632	2294.10661
901.811	2234.93683
901.989	2287.76733
902.168	2095.43856
902.347	2311.01092
902.526	1974.9364
902.705	2260.29618
902.884	1938.99308
903.063	2086.98301
903.242	1850.18495
903.42	2182.10079
903.599	2089.09691
903.778	2076.41341
903.957	2097.55243
904.135	2262.4094
904.314	1915.73473
904.493	2114.4631
904.672	1826.9242
904.85	2008.76378
905.029	1761.36832
905.207	1934.76434
905.386	1858.64326
905.565	1807.89227
905.743	1755.02399
905.922	1962.25072
906.1	1799.43352
906.279	1738.10563
906.457	1535.07136
906.636	1848.07036
906.814	1719.07221
906.993	1655.62562
907.171	1560.45166
907.35	1541.41645
907.528	1619.67149
907.707	1670.43006
907.885	1530.8413
908.063	1532.95633
908.242	1425.08892
908.42	1471.62006
908.598	1179.7529
908.777	1564.68169
908.955	1516.03604
909.133	1560.45166
909.311	1355.29263
909.49	1499.1157
909.668	1253.77354
909.846	1482.19531
910.024	1298.18757
910.202	1473.73511
910.38	1418.74377
910.559	1575.25674
910.737	1389.13314
910.915	1547.76153
911.093	1410.28358
911.271	1473.73511
911.449	1416.62872
911.627	1490.65551
911.805	1258.0034
911.983	1583.71675
912.161	1367.98279
912.339	1524.49619
912.517	1203.0161
912.695	1535.07136
912.872	1234.73929
913.05	1490.65551
913.228	1382.78803
913.406	1615.44155
913.584	1355.29263
913.762	1621.78646
913.939	1321.45245
914.117	1427.20397
914.295	1215.70529
914.473	1442.00933
914.65	1355.29263
914.828	1401.8234
915.006	1228.3946
915.184	1427.20397
915.361	1357.40765
915.539	1389.13314
915.716	1268.5781
915.894	1300.30255
916.072	1262.23327
916.249	1325.68245
916.427	1319.33745
916.604	1541.41645
916.782	1499.1157
916.959	1458.92975
917.137	1344.71753
917.314	1463.15985
917.492	1255.88846
917.669	1393.36322
917.847	1338.37249
918.024	1296.07259
918.201	1194.55671
918.379	1192.44187
918.556	1065.55906
918.733	1304.53251
918.911	1080.36118
919.088	1340.4875
919.265	1196.67155
919.442	1253.77354
919.62	1093.04892
919.797	1346.83255
919.974	1131.11318
920.151	1141.68685
920.328	1139.5721
920.506	1249.54368
920.683	1126.88374
920.86	1156.49016
921.037	968.29503
921.214	1215.70529
921.391	1033.84112
921.568	1103.62217
921.745	1038.07011
921.922	1253.77354
922.099	1016.92543
922.276	1063.44449
922.453	780.15429
922.63	1021.15431
922.807	917.55413
922.984	1008.46772
923.161	934.4673
923.338	1103.62217
923.514	911.21182
923.691	894.29933
923.868	849.90653
924.045	1031.72664
924.222	923.89651
924.399	953.49517
924.575	786.49498
924.752	966.18074
924.929	873.15945
925.105	951.38093
925.282	725.20545
925.459	991.55261
925.635	714.63918
925.812	835.10977
925.989	754.79243
926.165	873.15945
926.342	695.62058
926.518	803.40391
926.695	746.3388
926.871	828.76843
927.048	682.94202
927.224	748.45219
927.401	687.16816
927.577	640.68315
927.754	680.82896
927.93	682.94202
928.107	587.86644
928.283	701.96001
928.459	716.75241
928.636	663.92495
928.812	678.71592
928.988	689.28125
929.165	577.30405
929.341	756.90586
929.517	558.2926
929.693	735.77199
929.87	680.82896
930.046	666.03791
930.222	516.0489
930.398	596.31658
930.574	421.02194
930.751	649.13455
930.927	427.3561
931.103	573.07919
931.279	516.0489
931.455	581.52897
931.631	509.71283
931.807	602.65432
931.983	509.71283
932.159	395.68674
932.335	459.02903
932.511	556.18028
932.687	368.24296
932.863	475.92268
933.039	416.79924
933.215	509.71283
933.391	309.14312
933.566	340.80204
933.742	402.02032
933.918	399.90911
934.094	387.2422
934.27	397.79792
934.445	307.03267
934.621	319.69565
934.797	357.68842
934.973	330.24862
935.148	366.13202
935.324	353.46672
935.5	216.30089
935.675	311.25359
935.851	302.81182
936.027	319.69565
936.202	231.06877
936.378	247.94751
936.553	188.87742
936.729	190.9868
936.904	205.753
937.08	256.38735
937.255	169.89395
937.431	176.22159
937.606	115.06236
937.782	239.50798
937.957	96.08559
938.133	233.17854
938.308	104.51949
938.483	129.82329
938.659	159.34831
938.834	142.47636
939.009	117.171
939.185	115.06236
939.36	140.36746
939.535	153.02117
939.71	96.08559
939.886	157.23924
940.061	96.08559
940.236	110.84515
940.411	123.49705
940.586	108.73657
940.761	108.73657
940.937	112.95374
941.112	138.25859
941.287	129.82329
941.462	47.59764
941.637	131.93208
941.812	123.49705
941.987	53.92147
942.162	104.51949
942.337	45.48974
942.512	138.25859
942.687	110.84515
942.862	131.93208
943.037	79.21886
943.212	115.06236
943.386	34.9506
943.561	43.38186
943.736	34.9506
943.911	20.19678
944.086	115.06236
944.26	129.82329
944.435	155.13019
944.61	70.78603
944.785	131.93208
944.959	79.21886
945.134	30.7351
945.309	49.70556
945.483	20.19678
945.658	142.47636
945.833	47.59764
946.007	129.82329
946.182	37.05838
946.357	72.8942
946.531	75.0024
946.706	138.25859
946.88	91.86877
947.055	28.62739
947.229	53.92147
947.404	91.86877
947.578	91.86877
947.752	85.54372
947.927	112.95374
948.101	131.93208
948.276	56.02946
948.45	91.86877
948.624	79.21886
948.799	60.24551
948.973	-61.98135
949.147	131.93208
949.321	96.08559
949.496	37.05838
949.67	70.78603
949.844	49.70556
950.018	3.33671
950.193	58.13747
950.367	64.46165
950.541	125.60578
950.715	209.9721
950.889	106.62802
951.063	112.95374
951.237	15.98162
951.411	104.51949
951.585	125.60578
951.759	110.84515
951.933	77.11062
952.107	-5.09275
952.281	100.3025
952.455	112.95374
952.629	93.97717
952.803	64.46165
952.977	83.43541
953.151	106.62802
953.325	72.8942
953.499	108.73657
953.672	62.35357
953.846	79.21886
954.02	24.41204
954.194	112.95374
954.368	104.51949
954.541	45.48974
954.715	125.60578
954.889	117.171
955.062	155.13019
955.236	79.21886
955.41	96.08559
955.583	56.02946
955.757	115.06236
955.93	104.51949
956.104	3.33671
956.278	106.62802
956.451	39.16618
956.625	129.82329
956.798	70.78603
956.972	15.98162
957.145	110.84515
957.319	138.25859
957.492	49.70556
957.665	18.08919
957.839	106.62802
958.012	62.35357
958.185	104.51949
958.359	89.7604
958.532	96.08559
958.705	115.06236
958.879	75.0024
959.052	140.36746
959.225	148.80318
959.398	28.62739
959.572	41.27401
959.745	85.54372
959.918	148.80318
960.091	129.82329
960.264	85.54372
960.438	89.7604
960.611	62.35357
960.784	91.86877
960.957	39.16618
961.13	163.5665
961.303	104.51949
961.476	108.73657
961.649	60.24551
961.822	62.35357
961.995	96.08559
962.168	104.51949
962.341	72.8942
962.514	108.73657
962.686	37.05838
962.859	47.59764
963.032	53.92147
963.205	72.8942
963.378	49.70556
963.551	39.16618
963.723	64.46165
963.896	3.33671
964.069	28.62739
964.242	70.78603
964.414	106.62802
964.587	43.38186
964.76	96.08559
964.932	91.86877
965.105	-5.09275
965.278	112.95374
965.45	53.92147
965.623	56.02946
965.795	41.27401
965.968	89.7604
966.14	98.19403
966.313	121.38835
966.485	-5.09275
966.658	72.8942
966.83	83.43541
967.003	70.78603
967.175	96.08559
967.348	39.16618
967.52	28.62739
967.692	121.38835
967.865	53.92147
968.037	45.48974
968.209	13.87408
968.382	49.70556
968.554	28.62739
968.726	89.7604
968.898	70.78603
969.071	39.16618
969.243	79.21886
969.415	39.16618
969.587	72.8942
969.759	49.70556
969.932	96.08559
970.104	28.62739
970.276	100.3025
970.448	56.02946
970.62	134.0409
970.792	91.86877
970.964	15.98162
971.136	32.84284
971.308	5.44413
971.48	62.35357
971.652	83.43541
971.824	70.78603
971.996	91.86877
972.168	87.65205
972.339	-34.5928
972.511	102.41098
972.683	62.35357
972.855	104.51949
973.027	83.43541
973.199	45.48974
973.37	-17.73622
973.542	64.46165
973.714	28.62739
973.886	87.65205
974.057	96.08559
974.229	58.13747
974.401	58.13747
974.572	49.70556
974.744	102.41098
974.915	51.8135
975.087	83.43541
975.259	53.92147
975.43	100.3025
975.602	-17.73622
975.773	125.60578
975.945	45.48974
976.116	125.60578
976.288	3.33671
976.459	24.41204
976.63	28.62739
976.802	129.82329
976.973	87.65205
977.145	58.13747
977.316	32.84284
977.487	72.8942
977.659	104.51949
977.83	108.73657
978.001	138.25859
978.172	117.171
978.344	37.05838
978.515	26.51971
978.686	58.13747
978.857	45.48974
979.028	51.8135
979.2	125.60578
979.371	64.46165
979.542	26.51971
979.713	28.62739
979.884	24.41204
980.055	70.78603
980.226	79.21886
980.397	70.78603
980.568	20.19678
980.739	37.05838
980.91	-9.30734
981.081	100.3025
981.252	22.3044
981.423	37.05838
981.594	22.3044
981.765	20.19678
981.936	100.3025
982.106	70.78603
982.277	37.05838
982.448	81.32712
982.619	47.59764
982.79	-9.30734
982.96	3.33671
983.131	56.02946
983.302	-72.51427
983.472	53.92147
983.643	-0.87807
983.814	119.27966
983.984	-13.52183
984.155	112.95374
984.326	49.70556
984.496	106.62802
984.667	20.19678
984.837	66.56975
985.008	98.19403
985.178	53.92147
985.349	26.51971
985.519	53.92147
985.69	79.21886
985.86	-0.87807
986.031	-24.05762
986.201	127.71452
986.371	62.35357
986.542	47.59764
986.712	62.35357
986.882	-28.27177
987.053	37.05838
987.223	-19.84338
987.393	51.8135
987.563	-24.05762
987.734	72.8942
987.904	7.55158
988.074	13.87408
988.244	66.56975
988.414	81.32712
988.585	-64.08798
988.755	37.05838
988.925	56.02946
989.095	-2.98542
989.265	13.87408
989.435	-9.30734
989.605	87.65205
989.775	30.7351
989.945	28.62739
990.115	30.7351
990.285	56.02946
990.455	60.24551
990.625	11.76656
990.795	15.98162
990.965	3.33671
991.134	79.21886
991.304	81.32712
991.474	96.08559
991.644	7.55158
991.814	45.48974
991.984	72.8942
992.153	20.19678
992.323	-13.52183
992.493	13.87408
992.662	5.44413
992.832	43.38186
993.002	11.76656
993.171	66.56975
993.341	43.38186
993.511	70.78603
993.68	24.41204
993.85	-28.27177
994.019	28.62739
994.189	58.13747
994.358	-9.30734
994.528	-17.73622
994.697	-5.09275
994.867	45.48974
995.036	-9.30734
995.206	-89.3656
995.375	91.86877
995.544	66.56975
995.714	37.05838
995.883	37.05838
996.052	-21.95051
996.222	51.8135
996.391	22.3044
996.56	-59.87469
996.73	47.59764
996.899	-7.20006
997.068	13.87408
997.237	-11.4146
997.406	96.08559
997.576	56.02946
997.745	18.08919
997.914	89.7604
998.083	-47.2342
998.252	53.92147
998.421	11.76656
998.59	-9.30734
998.759	112.95374
998.928	26.51971
999.097	24.41204
999.266	-55.66129
999.435	58.13747
999.604	-5.09275
999.773	85.54372
999.942	62.35357
1000.111	-68.30117
1000.28	-11.4146
1000.448	20.19678
1000.617	24.41204
1000.786	-17.73622
1000.955	20.19678
1001.124	18.08919
1001.292	37.05838
1001.461	11.76656
1001.63	20.19678
1001.798	-21.95051
1001.967	11.76656
1002.136	-38.8067
1002.304	39.16618
1002.473	24.41204
1002.642	39.16618
1002.81	-11.4146
1002.979	-13.52183
1003.147	-0.87807
1003.316	62.35357
1003.484	9.65906
1003.653	104.51949
1003.821	-11.4146
1003.99	96.08559
1004.158	7.55158
1004.327	-19.84338
1004.495	-17.73622
1004.663	-5.09275
1004.832	34.9506
1005	34.9506
1005.168	45.48974
1005.337	72.8942
1005.505	62.35357
1005.673	13.87408
1005.842	24.41204
1006.01	56.02946
1006.178	37.05838
1006.346	13.87408
1006.514	-5.09275
1006.683	45.48974
1006.851	-11.4146
1007.019	45.48974
1007.187	-34.5928
1007.355	24.41204
1007.523	24.41204
1007.691	53.92147
1007.859	53.92147
1008.027	-5.09275
1008.195	-28.27177
1008.363	-13.52183
1008.531	13.87408
1008.699	37.05838
1008.867	7.55158
1009.035	1.22931
1009.203	18.08919
1009.37	81.32712
1009.538	3.33671
1009.706	56.02946
1009.874	106.62802
1010.042	24.41204
1010.209	47.59764
1010.377	13.87408
1010.545	5.44413
1010.713	20.19678
1010.88	20.19678
1011.048	45.48974
1011.216	-34.5928
1011.383	-7.20006
1011.551	75.0024
1011.718	70.78603
1011.886	53.92147
1012.054	32.84284
1012.221	-64.08798
1012.389	7.55158
1012.556	11.76656
1012.724	98.19403
1012.891	5.44413
1013.058	15.98162
1013.226	-5.09275
1013.393	-2.98542
1013.561	41.27401
1013.728	20.19678
1013.895	24.41204
1014.063	-21.95051
1014.23	7.55158
1014.397	9.65906
1014.565	56.02946
1014.732	66.56975
1014.899	3.33671
1015.066	77.11062
1015.233	3.33671
1015.401	75.0024
1015.568	24.41204
1015.735	45.48974
1015.902	24.41204
1016.069	47.59764
1016.236	-43.0205
1016.403	20.19678
1016.57	58.13747
1016.737	-7.20006
1016.904	-24.05762
1017.071	53.92147
1017.238	18.08919
1017.405	45.48974
1017.572	13.87408
1017.739	56.02946
1017.906	13.87408
1018.073	20.19678
1018.24	28.62739
1018.407	-30.3788
1018.573	15.98162
1018.74	-38.8067
1018.907	-36.69976
1019.074	-24.05762
1019.241	70.78603
1019.407	22.3044
1019.574	28.62739
1019.741	98.19403
1019.907	-2.98542
1020.074	28.62739
1020.241	24.41204
1020.407	62.35357
1020.574	-26.16471
1020.74	-36.69976
1020.907	39.16618
1021.073	37.05838
1021.24	-2.98542
1021.406	43.38186
1021.573	-17.73622
1021.739	37.05838
1021.906	53.92147
1022.072	3.33671
1022.239	89.7604
1022.405	51.8135
1022.571	-47.2342
1022.738	3.33671
1022.904	37.05838
1023.07	39.16618
1023.237	56.02946
1023.403	-0.87807
1023.569	26.51971
1023.735	-21.95051
1023.902	15.98162
1024.068	-9.30734
1024.234	-17.73622
1024.4	28.62739
1024.566	30.7351
1024.732	15.98162
1024.898	-76.72725
1025.065	-13.52183
1025.231	96.08559
1025.397	96.08559
1025.563	11.76656
1025.729	121.38835
1025.895	11.76656
1026.061	34.9506
1026.227	-19.84338
1026.392	41.27401
1026.558	47.59764
1026.724	66.56975
1026.89	-30.3788
1027.056	24.41204
1027.222	7.55158
1027.388	20.19678
1027.553	15.98162
1027.719	-5.09275
1027.885	-2.98542
1028.051	9.65906
1028.216	28.62739
1028.382	-55.66129
1028.548	-13.52183
1028.713	26.51971
1028.879	72.8942
1029.045	45.48974
1029.21	5.44413
1029.376	5.44413
1029.541	-9.30734
1029.707	62.35357
1029.873	-0.87807
1030.038	51.8135
1030.204	-24.05762
1030.369	9.65906
1030.534	24.41204
1030.7	-21.95051
1030.865	20.19678
1031.031	-2.98542
1031.196	-13.52183
1031.361	-24.05762
1031.527	64.46165
1031.692	-30.3788
1031.857	22.3044
1032.023	20.19678
1032.188	30.7351
1032.353	-106.21527
1032.518	96.08559
1032.684	11.76656
1032.849	-17.73622
1033.014	70.78603
1033.179	66.56975
1033.344	41.27401
1033.509	-28.27177
1033.674	-26.16471
1033.839	20.19678
1034.004	89.7604
1034.17	-9.30734
1034.335	24.41204
1034.5	-13.52183
1034.664	-26.16471
1034.829	11.76656
1034.994	22.3044
1035.159	53.92147
1035.324	-0.87807
1035.489	13.87408
1035.654	24.41204
1035.819	7.55158
1035.984	47.59764
1036.148	37.05838
1036.313	83.43541
1036.478	-47.2342
1036.643	41.27401
1036.807	20.19678
1036.972	-7.20006
1037.137	70.78603
1037.301	20.19678
1037.466	11.76656
1037.631	72.8942
1037.795	-11.4146
1037.96	34.9506
1038.124	-51.44779
1038.289	-2.98542
1038.454	3.33671
1038.618	24.41204
1038.783	30.7351
1038.947	51.8135
1039.111	-38.8067
1039.276	75.0024
1039.44	104.51949
1039.605	13.87408
1039.769	28.62739
1039.933	45.48974
1040.098	26.51971
1040.262	26.51971
1040.426	-21.95051
1040.591	3.33671
1040.755	91.86877
1040.919	-11.4146
1041.083	28.62739
1041.248	37.05838
1041.412	1.22931
1041.576	-17.73622
1041.74	22.3044
1041.904	45.48974
1042.068	9.65906
1042.232	15.98162
1042.397	30.7351
1042.561	37.05838
1042.725	104.51949
1042.889	-36.69976
1043.053	-45.12736
1043.217	72.8942
1043.381	70.78603
1043.544	45.48974
1043.708	28.62739
1043.872	37.05838
1044.036	-30.3788
1044.2	3.33671
1044.364	56.02946
1044.528	9.65906
1044.691	11.76656
1044.855	-0.87807
1045.019	-17.73622
1045.183	15.98162
1045.346	-13.52183
1045.51	3.33671
1045.674	13.87408
1045.837	37.05838
1046.001	43.38186
1046.165	60.24551
1046.328	45.48974
1046.492	9.65906
1046.655	-5.09275
1046.819	-72.51427
1046.983	62.35357
1047.146	13.87408
1047.31	79.21886
1047.473	9.65906
1047.636	24.41204
1047.8	11.76656
1047.963	11.76656
1048.127	26.51971
1048.29	-26.16471
