Data from absorb_only_2.23.25_USB4F045381__33__0138.txt Node

Date: Sun Feb 23 19:17:59 EST 2025
User: ssocol
Spectrometer: USB4F04538
Trigger mode: 4
Integration Time (sec): 2.600000E-3
Scans to average: 1
Electric dark correction enabled: true
Nonlinearity correction enabled: true
Boxcar width: 0
XAxis mode: Wavelengths
Number of Pixels in Spectrum: 3648
>>>>>Begin Spectral Data<<<<<
345.52	-43.54722
345.736	-43.54722
345.952	-43.54722
346.168	32.3159
346.384	19.66988
346.6	-9.83416
346.816	4.91728
347.032	-7.72688
347.248	42.8549
347.464	42.8549
347.68	-43.54722
347.896	-28.79853
348.112	-39.33343
348.328	15.45473
348.544	-7.72688
348.76	-26.69148
348.975	57.61047
349.191	15.45473
349.407	38.63923
349.623	19.66988
349.839	36.53143
350.055	-41.44034
350.27	15.45473
350.486	-77.25387
350.702	57.61047
350.918	-39.33343
351.133	57.61047
351.349	-35.11954
351.565	-60.40135
351.781	-73.04089
351.996	9.13219
352.212	-110.95394
352.428	-7.72688
352.644	-22.47729
352.859	25.99279
353.075	-43.54722
353.291	-28.79853
353.506	-7.72688
353.722	36.53143
353.938	-14.04863
354.153	-28.79853
354.369	-41.44034
354.584	-1.40491
354.8	21.7775
355.016	4.91728
355.231	-51.97449
355.447	13.34719
355.662	-28.79853
355.878	9.13219
356.093	-28.79853
356.309	34.42366
356.524	-14.04863
356.74	23.88513
356.955	-85.67951
357.171	42.8549
357.386	-41.44034
357.602	-9.83416
357.817	-5.61958
358.033	0.70246
358.248	-35.11954
358.464	-1.40491
358.679	-64.61464
358.895	-26.69148
359.11	-41.44034
359.325	-9.83416
359.541	23.88513
359.756	-64.61464
359.972	-11.94141
360.187	36.53143
360.402	0.70246
360.618	-18.26301
360.833	40.74705
361.048	7.02472
361.264	-70.93437
361.479	42.8549
361.694	-7.72688
361.909	-35.11954
362.125	44.96277
362.34	55.50246
362.555	-83.57314
362.77	-24.5844
362.986	7.02472
363.201	17.5623
363.416	-11.94141
363.631	93.45007
363.847	-22.47729
364.062	-28.79853
364.277	-30.90556
364.492	40.74705
364.707	-89.89218
364.922	-39.33343
365.138	40.74705
365.353	-35.11954
365.568	28.10047
365.783	-7.72688
365.998	-30.90556
366.213	-22.47729
366.428	-91.99847
366.643	49.17857
366.858	-11.94141
367.073	-26.69148
367.288	-16.15583
367.503	-30.90556
367.718	-9.83416
367.933	-89.89218
368.148	57.61047
368.363	-58.29468
368.578	-7.72688
368.793	-24.5844
369.008	34.42366
369.223	57.61047
369.438	-9.83416
369.653	32.3159
369.868	-43.54722
370.083	-5.61958
370.298	-49.86771
370.513	34.42366
370.728	-22.47729
370.943	-35.11954
371.157	-9.83416
371.372	-56.18797
371.587	-51.97449
371.802	-18.26301
372.017	-9.83416
372.232	28.10047
372.446	25.99279
372.661	-35.11954
372.876	19.66988
373.091	-7.72688
373.306	-35.11954
373.52	-26.69148
373.735	9.13219
373.95	-47.7609
374.165	-33.01256
374.379	-62.50801
374.594	13.34719
374.809	-14.04863
375.023	11.23968
375.238	-26.69148
375.453	25.99279
375.667	-113.05997
375.882	74.47535
376.097	0.70246
376.311	2.80986
376.526	19.66988
376.741	34.42366
376.955	38.63923
377.17	-75.1474
377.384	-16.15583
377.599	-43.54722
377.813	4.91728
378.028	-3.51226
378.242	15.45473
378.457	53.39447
378.672	-22.47729
378.886	-35.11954
379.101	-14.04863
379.315	-66.72124
379.53	7.02472
379.744	-66.72124
379.958	-35.11954
380.173	-39.33343
380.387	-43.54722
380.602	-41.44034
380.816	0.70246
381.031	-123.58973
381.245	-1.40491
381.459	57.61047
381.674	9.13219
381.888	19.66988
382.103	47.07066
382.317	-43.54722
382.531	-79.36032
382.746	-30.90556
382.96	-79.36032
383.174	-66.72124
383.388	19.66988
383.603	-35.11954
383.817	-35.11954
384.031	-20.37016
384.246	2.80986
384.46	0.70246
384.674	-26.69148
384.888	-9.83416
385.103	-9.83416
385.317	-37.2265
385.531	25.99279
385.745	-22.47729
385.959	42.8549
386.174	11.23968
386.388	-5.61958
386.602	-41.44034
386.816	-43.54722
387.03	-26.69148
387.244	0.70246
387.458	-16.15583
387.672	-9.83416
387.887	19.66988
388.101	-20.37016
388.315	-75.1474
388.529	-75.1474
388.743	-43.54722
388.957	17.5623
389.171	-11.94141
389.385	-89.89218
389.599	-79.36032
389.813	-22.47729
390.027	-1.40491
390.241	-58.29468
390.455	-5.61958
390.669	-26.69148
390.883	-89.89218
391.097	-22.47729
391.311	-7.72688
391.525	66.04272
391.738	74.47535
391.952	7.02472
392.166	-11.94141
392.38	7.02472
392.594	-1.40491
392.808	-7.72688
393.022	40.74705
393.236	-77.25387
393.449	-62.50801
393.663	-35.11954
393.877	-7.72688
394.091	-7.72688
394.305	-39.33343
394.518	-24.5844
394.732	-9.83416
394.946	-20.37016
395.16	-43.54722
395.373	59.7185
395.587	-18.26301
395.801	2.80986
396.015	51.28651
396.228	7.02472
396.442	49.17857
396.656	28.10047
396.869	-64.61464
397.083	0.70246
397.297	-43.54722
397.51	7.02472
397.724	59.7185
397.938	32.3159
398.151	-81.46674
398.365	-33.01256
398.578	23.88513
398.792	51.28651
399.005	-18.26301
399.219	-16.15583
399.433	-49.86771
399.646	-24.5844
399.86	-58.29468
400.073	17.5623
400.287	-7.72688
400.5	-26.69148
400.714	-3.51226
400.927	68.15085
401.141	-7.72688
401.354	32.3159
401.567	-28.79853
401.781	23.88513
401.994	0.70246
402.208	-1.40491
402.421	-3.51226
402.635	-43.54722
402.848	7.02472
403.061	-96.21098
403.275	-43.54722
403.488	-9.83416
403.701	19.66988
403.915	0.70246
404.128	-47.7609
404.341	-5.61958
404.555	9.13219
404.768	0.70246
404.981	-43.54722
405.195	-33.01256
405.408	-77.25387
405.621	-3.51226
405.834	38.63923
406.048	-5.61958
406.261	-5.61958
406.474	-68.82782
406.687	17.5623
406.9	-26.69148
407.114	-26.69148
407.327	55.50246
407.54	-33.01256
407.753	-66.72124
407.966	2.80986
408.179	-18.26301
408.392	2.80986
408.605	-9.83416
408.819	19.66988
409.032	36.53143
409.245	-47.7609
409.458	70.25899
409.671	-43.54722
409.884	-58.29468
410.097	-49.86771
410.31	-28.79853
410.523	-18.26301
410.736	-22.47729
410.949	-24.5844
411.162	36.53143
411.375	21.7775
411.588	66.04272
411.801	-51.97449
412.014	51.28651
412.227	28.10047
412.44	-35.11954
412.653	11.23968
412.865	-33.01256
413.078	25.99279
413.291	-11.94141
413.504	19.66988
413.717	25.99279
413.93	-51.97449
414.143	-18.26301
414.356	38.63923
414.568	57.61047
414.781	25.99279
414.994	-58.29468
415.207	-14.04863
415.42	-51.97449
415.632	57.61047
415.845	28.10047
416.058	-18.26301
416.271	40.74705
416.483	-1.40491
416.696	0.70246
416.909	-24.5844
417.121	87.12496
417.334	36.53143
417.547	-7.72688
417.759	0.70246
417.972	-24.5844
418.185	38.63923
418.397	15.45473
418.61	70.25899
418.823	17.5623
419.035	-51.97449
419.248	51.28651
419.46	-7.72688
419.673	-37.2265
419.885	49.17857
420.098	32.3159
420.311	-35.11954
420.523	-26.69148
420.736	-33.01256
420.948	-18.26301
421.161	-58.29468
421.373	42.8549
421.586	57.61047
421.798	17.5623
422.01	-35.11954
422.223	4.91728
422.435	44.96277
422.648	-24.5844
422.86	2.80986
423.073	57.61047
423.285	-20.37016
423.497	9.13219
423.71	-9.83416
423.922	2.80986
424.134	23.88513
424.347	23.88513
424.559	-66.72124
424.771	-1.40491
424.984	-26.69148
425.196	34.42366
425.408	82.90833
425.621	47.07066
425.833	-26.69148
426.045	68.15085
426.257	85.01664
426.47	0.70246
426.682	40.74705
426.894	61.82655
427.106	36.53143
427.318	23.88513
427.531	30.20817
427.743	34.42366
427.955	23.88513
428.167	66.04272
428.379	32.3159
428.591	74.47535
428.804	40.74705
429.016	66.04272
429.228	-87.78586
429.44	-35.11954
429.652	36.53143
429.864	-1.40491
430.076	25.99279
430.288	15.45473
430.5	-81.46674
430.712	19.66988
430.924	7.02472
431.136	28.10047
431.348	23.88513
431.56	44.96277
431.772	-22.47729
431.984	66.04272
432.196	23.88513
432.408	-18.26301
432.62	36.53143
432.832	53.39447
433.044	36.53143
433.256	59.7185
433.468	-35.11954
433.679	-75.1474
433.891	57.61047
434.103	74.47535
434.315	57.61047
434.527	-20.37016
434.739	57.61047
434.95	-35.11954
435.162	70.25899
435.374	66.04272
435.586	-26.69148
435.798	23.88513
436.009	32.3159
436.221	-3.51226
436.433	28.10047
436.645	95.55848
436.856	32.3159
437.068	36.53143
437.28	-33.01256
437.491	55.50246
437.703	9.13219
437.915	-14.04863
438.126	32.3159
438.338	44.96277
438.55	15.45473
438.761	103.99236
438.973	66.04272
439.184	76.58356
439.396	-5.61958
439.608	74.47535
439.819	-7.72688
440.031	25.99279
440.242	2.80986
440.454	36.53143
440.665	87.12496
440.877	74.47535
441.088	59.7185
441.3	93.45007
441.511	91.34168
441.723	82.90833
441.934	17.5623
442.146	23.88513
442.357	87.12496
442.569	36.53143
442.78	59.7185
442.991	57.61047
443.203	99.77538
443.414	36.53143
443.626	17.5623
443.837	7.02472
444.048	103.99236
444.26	57.61047
444.471	74.47535
444.682	34.42366
444.894	57.61047
445.105	-18.26301
445.316	28.10047
445.528	116.64384
445.739	74.47535
445.95	112.42659
446.161	72.36716
446.373	0.70246
446.584	160.93012
446.795	57.61047
447.006	44.96277
447.217	61.82655
447.429	28.10047
447.64	91.34168
447.851	53.39447
448.062	95.55848
448.273	66.04272
448.484	127.18734
448.695	47.07066
448.907	72.36716
449.118	80.80005
449.329	125.07859
449.54	87.12496
449.751	59.7185
449.962	15.45473
450.173	63.93463
450.384	40.74705
450.595	68.15085
450.806	59.7185
451.017	68.15085
451.228	51.28651
451.439	70.25899
451.65	91.34168
451.861	106.10089
452.072	114.5352
452.283	167.25749
452.494	57.61047
452.705	61.82655
452.915	66.04272
453.126	80.80005
453.337	112.42659
453.548	118.75249
453.759	173.58505
453.97	76.58356
454.181	95.55848
454.391	116.64384
454.602	82.90833
454.813	154.60294
455.024	91.34168
455.235	146.16698
455.445	93.45007
455.656	61.82655
455.867	125.07859
456.078	103.99236
456.288	144.05805
456.499	99.77538
456.71	120.86117
456.921	127.18734
457.131	120.86117
457.342	116.64384
457.553	213.66387
457.763	57.61047
457.974	150.38492
458.184	150.38492
458.395	89.23331
458.606	160.93012
458.816	175.69428
459.027	201.00661
459.237	131.40488
459.448	234.76089
459.659	156.71198
459.869	192.56884
460.08	186.24073
460.29	158.82104
460.501	163.03922
460.711	310.72597
460.922	230.54133
461.132	268.52014
461.343	188.35008
461.553	234.76089
461.764	253.74986
461.974	298.06345
462.184	209.44471
462.395	236.87069
462.605	340.27436
462.816	171.47585
463.026	302.28422
463.236	342.38509
463.447	175.69428
463.657	247.42003
463.867	327.61034
464.078	257.96985
464.288	325.49973
464.498	344.49584
464.709	393.0478
464.919	268.52014
465.129	365.60428
465.339	329.72097
465.55	302.28422
465.76	289.62213
465.97	338.16365
466.18	371.93715
466.391	376.15915
466.601	407.82623
466.811	547.20309
467.021	395.15895
467.231	424.71685
467.441	426.82825
467.651	443.72001
467.862	521.85708
468.072	547.20309
468.282	587.33831
468.492	475.39473
468.702	559.87685
468.912	627.47824
469.122	540.8664
469.332	633.81654
469.542	608.46402
469.752	735.24366
469.962	741.5837
470.172	817.67129
470.382	699.31857
470.592	826.12623
470.802	783.85301
471.012	927.59627
471.222	843.03655
471.432	961.42362
471.642	819.78501
471.852	1035.42699
472.062	963.53789
472.272	978.33798
472.482	904.34106
472.691	1094.6349
472.901	1054.45764
473.111	1039.65598
473.321	1094.6349
473.531	1208.83197
473.741	1143.2729
473.95	1356.8789
474.16	1215.17657
474.37	1433.02036
474.58	1261.70453
474.79	1464.74614
474.999	1371.68409
475.209	1519.73736
475.419	1418.21501
475.628	1551.46282
475.838	1528.19751
476.048	1773.52817
476.258	1574.72799
476.467	1786.21658
476.677	1843.31252
476.886	1923.66379
477.096	1858.11462
477.306	1946.9219
477.515	1765.06916
477.725	1976.5221
477.935	1991.32175
478.144	2166.77735
478.354	2056.85918
478.563	2365.41746
478.773	2255.5414
478.982	2249.20163
479.192	2238.63515
479.401	2236.52183
479.611	2433.02012
479.82	2559.74508
480.03	2392.88232
480.239	2705.42607
480.449	2494.27557
480.658	2770.85714
480.868	2701.20427
481.077	2926.9941
481.287	2789.85085
481.496	2931.21293
481.705	2937.54106
481.915	3064.07543
482.124	2882.69285
482.333	3116.78168
482.543	3057.75002
482.752	3085.15911
482.961	3327.5049
483.171	3388.58293
483.38	3302.22697
483.589	3405.42945
483.799	3413.85229
484.008	3710.57069
484.217	3512.79915
484.426	3767.34633
484.636	3514.90397
484.845	3744.21722
485.054	3714.77678
485.263	3723.18872
485.472	3920.77914
485.682	4118.19147
485.891	3956.49476
486.1	4078.30367
486.309	4065.70596
486.518	4179.05828
486.727	4227.31933
486.936	4208.43591
487.146	4208.43591
487.355	4403.48086
487.564	4311.22474
487.773	4416.05798
487.982	4355.26131
488.191	4390.90296
488.4	4495.69476
488.609	4589.96026
488.818	4604.61974
489.027	4625.55995
489.236	4866.21043
489.445	5000.00714
489.654	5000.00714
489.863	4824.37972
490.072	4876.66668
490.281	5114.91325
490.49	5068.95921
490.698	5219.31241
490.907	4905.94114
491.116	5425.85042
491.325	5198.43723
491.534	5298.61677
491.743	5248.53373
491.952	5450.86971
492.16	5225.5745
492.369	5423.76533
492.578	5365.37318
492.787	5446.70007
492.996	5617.57835
493.204	5786.2171
493.413	5838.23483
493.622	5923.51197
493.831	5771.64949
494.039	5723.77636
494.248	5698.79411
494.457	6071.09328
494.665	6027.45483
494.874	6083.5595
495.083	6183.25879
495.291	5906.87564
495.5	6098.10235
495.709	6210.25137
495.917	5992.12087
496.126	6473.74018
496.335	6405.31077
496.543	6521.41845
496.752	6199.87007
496.96	6399.08865
497.169	6463.37372
497.377	6562.86785
497.586	6606.37977
497.794	6600.1644
498.003	6465.44705
498.211	6774.11634
498.42	6805.16217
498.628	6705.7974
498.837	6579.44502
499.045	7030.60839
499.254	6840.34124
499.462	6780.32592
499.671	6763.76659
499.879	7040.94353
500.087	7003.73441
500.296	7138.06647
500.504	7183.51135
500.713	7200.0341
500.921	7237.2051
501.129	7280.56222
501.338	7001.66702
501.546	7536.37929
501.754	7264.04637
501.962	7330.10135
502.171	7348.67527
502.379	7602.34268
502.587	7392.00753
502.795	7484.8301
503.004	7375.50114
503.212	7620.89095
503.42	7519.88501
503.628	7585.85389
503.837	7501.32731
504.045	7717.72619
504.253	7583.79269
504.461	7703.30688
504.669	7633.2555
504.877	7690.94665
505.085	7913.3155
505.294	7868.03782
505.502	7793.92544
505.71	8010.01177
505.918	7983.27051
506.126	7841.27812
506.334	7680.64587
506.542	8232.03812
506.75	8053.20194
506.958	8106.66312
507.166	8067.59667
507.374	8102.5512
507.582	8106.66312
507.79	8246.42069
507.998	8192.99483
508.206	8316.26517
508.414	8061.42762
508.622	8451.78137
508.83	8550.28609
509.037	8529.76788
509.245	8429.20117
509.453	8624.13606
509.661	8734.86573
509.869	8642.59476
510.077	8730.76559
510.285	8831.19799
510.492	8656.95048
510.7	8925.44199
510.908	8681.55818
511.116	8652.84894
511.324	8533.87168
511.531	9040.12312
511.739	8829.14879
511.947	8882.42226
512.155	8624.13606
512.362	8884.471
512.57	8732.81567
512.778	8798.40854
512.985	8968.45389
513.193	8863.98282
513.401	9218.18044
513.608	9205.90477
513.816	9181.35161
514.024	8984.83732
514.231	8982.78946
514.439	9273.41344
514.646	9074.92617
514.854	9246.8213
515.061	9142.47077
515.269	9183.3978
515.477	9240.68425
515.684	9214.08862
515.892	9156.796
516.099	9516.70436
516.307	9547.35504
516.514	9584.13116
516.722	9575.95913
516.929	9690.34479
517.136	9549.39829
517.344	9692.38695
517.551	9714.84969
517.759	9606.60294
517.966	9727.10131
518.173	9804.68222
518.381	9639.28579
518.588	9733.22692
518.796	9631.11545
519.003	10129.06618
519.21	9814.88861
519.418	9867.95584
519.625	9918.97258
519.832	9937.33636
520.039	9814.88861
520.247	10088.28311
520.454	9949.57823
520.661	10298.25685
520.868	10035.2567
521.076	10300.29472
521.283	10033.21703
521.49	10141.30001
521.697	10343.08693
521.904	10422.54272
522.112	10049.53398
522.319	10208.57715
522.526	10076.0471
522.733	10609.89931
522.94	10424.57979
523.147	10408.28289
523.354	10343.08693
523.561	10438.83889
523.768	10546.78025
523.975	10646.54362
524.183	10538.63498
524.39	10457.17109
524.597	10770.69778
524.804	10959.89763
525.011	10650.61496
525.218	10711.67926
525.425	10587.5036
525.632	10825.63709
525.838	10662.8287
526.045	10935.49032
526.252	10915.14965
526.459	11183.55733
526.666	11140.86876
526.873	11073.77719
527.08	10998.53923
527.287	11295.33894
527.494	10882.60221
527.701	11187.62267
527.907	11195.75322
528.114	11329.88335
528.321	11248.5977
528.528	11677.20339
528.735	11549.2755
528.941	11382.71037
529.148	11411.15292
529.355	11581.76857
529.562	11146.96741
529.768	11425.37348
529.975	11165.2628
530.182	11167.29557
530.388	11370.52012
530.595	11632.53427
530.802	11466.00101
531.008	11614.25928
531.215	11796.97666
531.422	11821.33363
531.628	11589.89147
531.835	11859.89634
532.042	11833.51166
532.248	12192.63226
532.455	11833.51166
532.661	12052.66539
532.868	12141.92378
533.074	12064.83787
533.281	12083.09606
533.487	12170.32111
533.694	12030.34846
533.9	12298.09128
534.107	12087.15335
534.313	12036.43499
534.52	12052.66539
534.726	12437.99803
534.933	12221.027
535.139	12152.06585
535.345	12314.31404
535.552	12340.67506
535.758	12525.17021
535.965	12500.8443
536.171	12555.57631
536.377	12537.33282
536.584	12411.64126
536.79	12302.14702
536.996	12381.2282
537.203	12652.86643
537.409	12200.74519
537.615	12642.7327
537.821	12588.00793
538.028	13177.60495
538.234	12908.1888
538.44	12934.52662
538.646	12669.08009
538.853	12634.6256
539.059	12735.95742
539.265	12993.27706
539.471	12995.30286
539.677	12981.12215
539.883	12871.71958
540.09	12719.74532
540.296	12977.07047
540.502	13380.1198
540.708	13090.5099
540.914	13236.33869
541.12	13657.50107
541.326	13600.81547
541.532	13151.27479
541.738	13276.84257
541.944	13602.84001
542.15	13578.5454
542.356	13465.16377
542.562	13374.04496
542.768	13420.61778
542.974	13880.17049
543.18	13584.6191
543.386	13523.88068
543.592	13687.86729
543.798	13655.47663
544.004	13697.9892
544.21	13930.7723
544.415	13762.76755
544.621	14262.6828
544.827	13659.52551
545.033	14023.87538
545.239	13841.71197
545.445	14558.12135
545.651	13697.9892
545.856	13892.31508
546.062	13969.22856
546.268	14066.37724
546.474	13673.69648
546.679	13657.50107
546.885	13728.35445
547.091	14048.16228
547.297	13969.22856
547.502	14092.6874
547.708	13596.7664
547.914	14102.80659
548.119	14118.99718
548.325	13936.8444
548.531	14019.82753
548.736	14060.3056
548.942	13983.39643
549.147	14088.6397
549.353	14216.13786
549.559	14369.93489
549.764	14424.57095
549.97	14382.07633
550.175	14278.87211
550.381	14800.92759
550.586	14525.74603
550.792	14809.02092
550.997	14734.15719
551.203	14507.53477
551.408	14378.02919
551.614	14653.22213
551.819	14604.66034
552.025	14928.39634
552.23	14849.48739
552.435	14675.47942
552.641	14894.00023
552.846	14667.38588
553.052	14867.69722
553.257	14987.07176
553.462	15120.60804
553.668	15001.23475
553.873	14934.46622
554.078	15268.30687
554.283	15070.02622
554.489	15078.11931
554.694	15268.30687
554.899	15061.93312
555.105	15464.56605
555.31	15148.93383
555.515	15055.86329
555.72	15290.56292
555.925	15345.19151
556.131	15223.79485
556.336	15312.81899
556.541	15569.77904
556.746	15221.77158
556.951	15646.66666
557.156	15310.79571
557.361	15573.82573
557.567	15596.08257
557.772	15537.40563
557.977	15401.84365
558.182	15579.89577
558.387	15438.26305
558.592	15840.91494
558.797	15592.03587
559.002	15739.74281
559.207	15426.12323
559.412	15470.63599
559.617	15511.10236
559.822	15747.83648
560.027	15620.36287
560.232	16075.64614
560.437	15600.12928
560.642	15903.6431
560.847	15863.17319
561.051	15905.66661
561.256	15699.27468
561.461	15994.70228
561.666	15838.89147
561.871	15794.37542
562.076	15628.45633
562.281	15911.73714
562.485	15838.89147
562.69	16271.94544
562.895	16002.79656
563.1	16018.98519
563.305	15907.69012
563.509	16245.63636
563.714	16071.59889
563.919	15960.30183
564.123	16041.24471
564.328	15808.53956
564.533	15859.12622
564.737	15802.46921
564.942	16150.52136
565.147	16537.07796
565.351	16077.66976
565.556	16154.56874
565.761	15891.50208
565.965	16207.18517
566.17	16021.00878
566.374	16188.97166
566.579	16263.85031
566.784	16225.39882
566.988	16605.89676
567.193	16528.98179
567.397	16448.022
567.602	16917.63918
567.806	16219.32758
568.011	16701.0329
568.215	16786.05256
568.42	16616.01739
568.624	16810.34468
568.828	16628.16221
569.033	16628.16221
569.237	16968.2523
569.442	16907.51675
569.646	16654.47629
569.85	16553.27039
570.055	16765.8094
570.259	16630.18636
570.463	16725.3238
570.668	16492.54947
570.872	16650.42794
571.076	16865.00325
571.281	16945.98232
571.485	16889.29654
571.689	17000.64557
571.893	16941.93327
572.098	17192.99505
572.302	17028.99024
572.506	16921.68817
572.71	16751.63933
572.914	16980.3997
573.119	17077.58235
573.323	17195.01992
573.527	16877.14985
573.731	17107.95323
573.935	17014.81784
574.139	17154.52313
574.343	16871.07654
574.547	17160.59757
574.751	17120.10175
574.955	17197.04479
575.159	17302.34204
575.364	17423.84893
575.568	17288.16695
575.772	17492.70777
575.976	17543.3416
576.18	17514.98641
576.383	17105.92848
576.587	17363.09412
576.791	17239.56772
576.995	17192.99505
577.199	17231.46802
577.403	17203.11942
577.607	17425.87414
577.811	17450.17688
578.015	17350.94348
578.219	17527.13856
578.422	17646.64084
578.626	17837.05812
578.83	17891.75801
579.034	17644.61529
579.238	17476.50536
579.442	17745.8972
579.645	17889.73204
579.849	17814.77371
580.053	17792.4897
580.257	17863.39479
580.46	17741.84577
580.664	17788.43811
580.868	17602.07935
581.071	17984.95626
581.275	17845.16165
581.479	17733.74293
581.682	17610.18132
581.886	17711.46042
582.09	18068.03058
582.293	18136.92606
582.497	18128.8205
582.7	18438.90065
582.904	18086.26721
583.107	18063.97804
583.311	18098.42513
583.515	18199.7462
583.718	17928.22601
583.922	18637.56069
584.125	18234.19745
584.329	18398.36231
584.532	18092.34616
584.735	18256.49001
584.939	18301.07647
585.142	18665.94374
585.346	18213.93188
585.549	18169.34892
585.753	18597.01481
585.956	18651.75212
586.159	18386.2011
586.363	18807.87054
586.566	18451.06245
586.769	18862.61893
586.973	18410.52365
587.176	18947.78888
587.379	18714.60218
587.582	18742.98732
587.786	18406.46985
587.989	19020.79735
588.192	18844.36914
588.395	19101.92402
588.599	18961.98456
588.802	18822.06429
589.005	18672.02592
589.208	18996.46061
589.411	18943.73301
589.615	18925.48178
589.818	19075.55714
590.021	18976.18044
590.224	18884.92466
590.427	19055.27539
590.63	18901.14732
590.833	19197.25619
591.036	18933.5934
591.239	19542.15063
591.442	19091.78283
591.645	19043.10654
591.848	19339.25707
592.051	19351.42952
592.254	18901.14732
592.457	19379.83247
592.66	19144.51813
592.863	19483.30722
593.066	19341.28581
593.269	19720.73142
593.472	19083.66995
593.675	19479.24919
593.878	19452.87235
594.081	19613.1732
594.284	19619.26109
594.486	19850.62873
594.689	19935.88318
594.892	19412.29397
595.095	19617.23179
595.298	19635.49564
595.5	19901.37453
595.703	20017.0848
595.906	19978.51319
596.109	19793.79654
596.311	19901.37453
596.514	19785.67793
596.717	19588.82203
596.92	19958.21296
597.122	20047.53714
597.325	19887.16544
597.528	20250.57693
597.73	20128.74801
597.933	19684.2009
598.136	19982.57329
598.338	19789.73722
598.541	20114.53562
598.743	20205.90457
598.946	20191.69106
599.148	20185.59962
599.351	19877.01622
599.554	19921.67359
599.756	20124.6873
599.959	20325.71231
600.161	20380.54445
600.363	19996.78376
600.566	20116.56595
600.768	20256.66877
600.971	20307.4356
601.173	20045.50695
601.376	20122.65696
601.578	20090.172
601.78	20366.32842
601.983	20313.5278
602.185	20051.59752
602.388	20008.96433
602.59	20226.20993
602.792	20161.23424
602.995	20041.44659
603.197	20151.08218
603.399	20368.35927
603.601	20299.31273
603.804	20051.59752
604.006	20021.14505
604.208	20252.60754
604.41	20335.86618
604.613	20161.23424
604.815	20356.17423
605.017	20573.49666
605.219	20013.02456
605.421	20015.05468
605.623	20437.41065
605.826	20589.74699
606.028	20534.9032
606.23	20500.37348
606.432	20346.02015
606.634	20898.55383
606.836	20573.49666
607.038	20831.5021
607.24	20563.34034
607.442	20792.8986
607.644	20853.85218
607.846	21120.05956
608.048	20890.42611
608.25	20738.04357
608.452	20918.87343
608.654	20957.48179
608.856	20467.87604
609.058	20419.13187
609.26	20754.2966
609.462	20632.40538
609.664	20569.43412
609.866	20522.7161
610.067	20480.06245
610.269	20309.46633
610.471	20191.69106
610.673	20748.20168
610.875	20335.86618
611.077	20922.9374
611.278	20610.06028
611.48	20510.52916
611.682	20608.02893
611.884	21142.41605
612.085	20849.78849
612.287	20868.07522
612.489	21018.44538
612.69	20543.02801
612.892	21101.76825
613.094	20920.90541
613.295	20587.71569
613.497	20534.9032
613.699	20695.38064
613.9	20687.25458
614.102	20705.53831
614.304	20473.96923
614.505	20469.90709
614.707	21010.31669
614.908	20721.79081
615.11	20861.97961
615.311	21120.05956
615.513	20996.09164
615.714	21221.68392
615.916	20941.22546
616.117	20973.73839
616.319	20605.99759
616.52	20965.61006
616.722	21115.9948
616.923	20819.31136
617.124	20780.70834
617.326	20366.32842
617.527	20878.23465
617.729	20731.94876
617.93	20809.15253
618.131	20931.06538
618.333	20721.79081
618.534	20947.32155
618.735	20778.67664
618.937	20530.84082
619.138	20577.55922
619.339	20476.0003
619.54	20916.84145
619.742	21012.34886
619.943	21152.57825
620.144	21014.38103
620.345	20933.09739
620.546	20941.22546
620.748	21002.18806
620.949	20567.40286
621.15	20794.93033
621.351	20530.84082
621.552	20752.26496
621.753	20827.43851
621.954	21040.79962
622.155	20581.62179
622.356	20731.94876
622.558	20811.18429
622.759	21176.96795
622.96	20768.51822
623.161	20809.15253
623.362	20823.37493
623.563	21036.73518
623.764	20719.75923
623.965	21103.8006
624.166	21105.83296
624.366	20571.46539
624.567	20965.61006
624.768	20947.32155
624.969	20713.66453
625.17	21079.41266
625.371	21038.7674
625.572	20853.85218
625.773	20776.64495
625.973	21008.28453
626.174	20833.53391
626.375	21052.99306
626.576	20996.09164
626.777	21018.44538
626.977	20764.45488
627.178	21555.0825
627.379	20939.19343
627.58	20969.67421
627.78	21294.85973
627.981	21181.03296
628.182	21046.89632
628.382	20967.64213
628.583	21095.67122
628.784	21083.47728
628.984	20821.34314
629.185	21010.31669
629.386	20955.44973
629.586	21162.74055
629.787	21396.50146
629.987	21262.3365
630.188	20957.48179
630.388	20809.15253
630.589	20760.39155
630.79	21378.20521
630.99	21429.02893
631.191	21290.79427
631.391	21250.14056
631.591	21187.1305
631.792	21052.99306
631.992	21435.12795
632.193	21455.45825
632.393	21016.4132
632.594	21091.60656
632.794	20996.09164
632.994	21087.54191
633.195	21284.69611
633.395	21065.18663
633.595	21252.17321
633.796	21063.15436
633.996	21394.46853
634.196	21164.77303
634.397	21093.63889
634.597	20711.63297
634.797	21052.99306
634.997	21010.31669
635.198	21233.87953
635.398	21268.43453
635.598	21740.12408
635.798	21976.04787
635.998	21605.91486
636.199	21325.3512
636.399	21573.38187
636.599	21435.12795
636.799	21607.94821
636.999	21317.22005
637.199	21512.38523
637.399	21233.87953
637.599	21429.02893
637.799	21109.89768
637.999	21551.01602
638.199	21670.98387
638.399	21601.84818
638.599	21544.91633
638.799	21327.38399
638.999	21479.85515
639.199	21776.72954
639.399	21384.30393
639.599	21540.84988
639.799	20861.97961
639.999	21536.78346
640.199	21681.15126
640.399	21795.03275
640.599	21187.1305
640.799	22205.9194
640.998	21935.36767
641.198	21963.84365
641.398	21664.88348
641.598	21658.78312
641.798	21612.01491
641.997	21858.07951
642.197	21894.689
642.397	21725.88896
642.597	21587.61493
642.796	22022.83199
642.996	21626.24849
643.196	21864.181
643.395	21437.16096
643.595	21762.49394
643.795	21725.88896
643.994	21540.84988
644.194	21563.21551
644.394	21770.62854
644.593	21457.49131
644.793	21687.25175
644.992	21337.54804
645.192	21374.13942
645.392	21652.6828
645.591	21528.65065
645.791	21754.35939
645.99	21866.21484
646.19	21984.1841
646.389	22033.00271
646.589	21654.71624
646.788	21727.92254
646.987	21555.0825
647.187	21679.11778
647.386	21573.38187
647.586	21866.21484
647.785	22155.05874
647.984	22091.99477
648.184	22094.02903
648.383	22537.5871
648.582	22163.19629
648.782	21978.08192
648.981	22232.36785
649.18	22161.1619
649.38	22063.51545
649.579	21921.12996
649.778	22153.02436
649.977	22380.89767
650.177	22299.50905
650.376	22474.50178
650.575	22407.35023
650.774	21711.65404
650.973	21835.70765
651.173	22177.43714
651.372	22114.3719
651.571	22468.39693
651.77	22199.81599
651.969	22476.53674
652.168	22014.69547
652.367	22096.0633
652.566	22262.88608
652.765	22179.47156
652.964	22094.02903
653.163	22334.0985
653.362	22159.12751
653.561	22205.9194
653.76	22195.74708
653.959	22370.72378
654.158	22366.65424
654.357	22091.99477
654.556	22234.40238
654.755	22439.90807
654.954	22240.50597
655.153	21990.2863
655.352	22063.51545
655.551	21849.94423
655.749	22124.54347
655.948	21668.9504
656.147	21516.45156
656.346	22026.90026
656.545	21976.04787
656.743	22161.1619
656.942	22055.37863
657.141	22301.54369
657.34	21957.7416
657.538	22171.3339
657.737	21919.09602
657.936	22486.71157
658.135	22195.74708
658.333	22281.19742
658.532	21978.08192
658.731	22212.02283
658.929	21839.77523
659.128	21910.96029
659.326	21992.32038
659.525	21825.53878
659.724	21921.12996
659.922	22175.40272
660.121	21504.25261
660.319	22179.47156
660.518	21896.7229
660.716	22319.85566
660.915	22118.44051
661.113	22490.78153
661.312	22730.93431
661.51	22586.42971
661.709	22441.94296
661.907	22252.71325
662.105	22360.54997
662.304	22344.27207
662.502	22488.74655
662.701	22570.14861
662.899	22073.68655
663.097	22134.71513
663.296	22246.60959
663.494	22395.14128
663.692	22059.44703
663.891	22230.33333
664.089	21910.96029
664.287	22323.92502
664.485	21943.50359
664.684	22041.13936
664.882	22043.17353
665.08	22376.8281
665.278	22757.39481
665.476	22338.16792
665.675	22173.36831
665.873	22110.30329
666.071	21443.26002
666.269	21900.7907
666.467	21904.85853
666.665	22222.1953
666.863	21982.15004
667.061	22692.26233
667.259	22279.16281
667.457	22419.55931
667.655	22061.48124
667.853	22081.8235
668.051	21821.47126
668.249	21951.63957
668.447	22061.48124
668.645	22218.1263
668.843	22653.59162
669.041	22608.81658
669.239	22096.0633
669.437	22271.02442
669.635	22608.81658
669.833	22305.61299
670.031	21746.2249
670.229	21766.56123
670.426	21856.04568
670.624	21986.21816
670.822	21701.48635
671.02	21827.57255
671.218	21772.66221
671.415	22136.74948
671.613	21854.01186
671.811	21886.55345
672.009	22100.13185
672.206	22358.51522
672.404	22330.0291
672.602	22098.09758
672.799	22039.10519
672.997	22153.02436
673.195	21902.82461
673.392	21662.85002
673.59	21593.71487
673.788	21368.04077
673.985	21536.78346
674.183	21766.56123
674.38	21807.23505
674.578	21969.94575
674.775	21782.83058
674.973	21829.60632
675.17	21870.28253
675.368	21774.69587
675.565	21555.0825
675.763	21406.66619
675.96	21288.76155
676.158	21477.82205
676.355	21055.02531
676.553	21786.89795
676.75	21302.9907
676.947	21890.62122
677.145	21847.91042
677.342	22026.90026
677.539	21553.04926
677.737	22047.24188
677.934	21825.53878
678.131	21927.23182
678.329	22100.13185
678.526	21776.72954
678.723	21341.61368
678.92	21817.40375
679.118	21559.149
679.315	21768.59489
679.512	21725.88896
679.709	21809.26879
679.906	21266.40185
680.104	21300.95795
680.301	21201.35824
680.498	21034.70296
680.695	21156.64316
680.892	21591.68155
681.089	21366.00789
681.286	21673.01734
681.483	21012.34886
681.68	21166.8055
681.877	20922.9374
682.075	21201.35824
682.272	20733.98036
682.469	21130.22154
682.665	20920.90541
682.862	20801.02553
683.059	21205.42334
683.256	21343.64651
683.453	21329.41679
683.65	20987.96312
683.847	21203.39079
684.044	21203.39079
684.241	20845.72482
684.438	21300.95795
684.635	21059.08983
684.831	21302.9907
685.028	21073.31577
685.225	20833.53391
685.422	20423.19379
685.619	20922.9374
685.815	21055.02531
686.012	21213.5536
686.209	20616.15435
686.405	20912.77751
686.602	20912.77751
686.799	20549.12167
686.996	20878.23465
687.192	20740.07519
687.389	21061.12209
687.586	21156.64316
687.782	20545.05923
687.979	20892.45804
688.175	20906.68162
688.372	20742.1068
688.568	20605.99759
688.765	21201.35824
688.962	20634.43678
689.158	20601.93491
689.355	20736.01196
689.551	20835.56572
689.748	20638.49958
689.944	20612.09163
690.14	20729.91716
690.337	20685.22307
690.533	20776.64495
690.73	20242.45453
690.926	20589.74699
691.123	20500.37348
691.319	20348.05096
691.515	20429.28671
691.712	20443.50365
691.908	20341.95855
692.104	20053.62772
692.301	20766.48655
692.497	20199.81304
692.693	20719.75923
692.889	20792.8986
693.086	20648.65668
693.282	20207.93508
693.478	20581.62179
693.674	20559.27784
693.87	20427.25573
694.067	20400.85343
694.263	20681.16007
694.459	20084.0812
694.655	20088.14173
694.851	19929.79333
695.047	20098.29314
695.243	20500.37348
695.439	20327.74307
695.635	20528.80963
695.831	20252.60754
696.027	20163.26466
696.224	20144.99099
696.42	20382.57533
696.615	20388.66799
696.811	20094.23257
697.007	20144.99099
697.203	20075.96018
697.399	19816.12308
697.595	19980.54324
697.791	19964.30298
697.987	19972.42308
698.183	20244.48512
698.379	19550.26724
698.575	20004.90413
698.77	19824.24195
698.966	20082.05093
699.162	19700.43652
699.358	19398.09193
699.554	19318.97
699.749	19519.8303
699.945	19436.6408
700.141	19641.58367
700.337	19718.70191
700.532	19667.96554
700.728	20167.32553
700.924	20343.98935
701.119	20159.20382
701.315	19810.03397
701.511	19674.05377
701.706	19728.8495
701.902	19223.62626
702.097	19680.14203
702.293	19641.58367
702.489	19852.65851
702.684	19779.58901
702.88	19753.20414
703.075	19469.10417
703.271	19400.12079
703.466	19168.85843
703.662	19517.80121
703.857	19371.71726
704.053	19836.42037
704.248	19375.77485
704.443	19582.73433
704.639	19639.55432
704.834	19239.85434
705.03	19442.7276
705.225	19428.52513
705.42	19292.59742
705.616	19430.55404
705.811	19260.13981
706.006	19661.87735
706.202	19406.20736
706.397	19225.65476
706.592	19254.05413
706.787	19436.6408
706.983	19199.28463
707.178	19408.23623
707.373	19363.60211
707.568	19351.42952
707.763	18998.48865
707.959	19588.82203
708.154	19274.33988
708.349	19414.32285
708.544	19436.6408
708.739	19420.40952
708.934	18937.64923
709.129	19008.62891
709.324	19047.1628
709.519	19110.03705
709.714	18757.18018
709.909	19108.00878
710.104	18718.65715
710.299	18840.31368
710.494	18970.09647
710.689	18886.95248
710.884	18836.25823
711.079	18822.06429
711.274	18811.92588
711.469	19061.35987
711.664	18980.23644
711.859	19339.25707
712.054	19310.85528
712.249	18941.70508
712.443	18655.80685
712.638	19187.11404
712.833	18669.99852
713.028	19073.52895
713.223	18519.98191
713.417	18625.39676
713.612	18384.17425
713.807	19043.10654
714.002	18327.42386
714.196	18730.82216
714.391	18552.41613
714.586	18878.84123
714.78	18763.26289
714.975	18769.34564
715.17	18497.68395
715.364	18757.18018
715.559	18690.27268
715.754	18317.29017
715.948	18708.51975
716.143	18337.55764
716.337	18278.78301
716.532	18597.01481
716.726	18284.863
716.921	18471.33241
717.115	18633.50603
717.31	18692.30011
717.504	18882.89685
717.699	18732.84968
717.893	18440.9276
718.088	18751.0975
718.282	18836.25823
718.476	18874.78563
718.671	18215.95842
718.865	18594.98755
719.059	18353.77189
719.254	18455.11641
719.448	18254.46339
719.642	18544.30748
719.837	17591.95195
720.031	18009.27008
720.225	17693.22957
720.419	17989.00853
720.614	17751.97438
720.808	18248.38357
721.002	17766.15459
721.196	17786.41232
721.39	18205.82575
721.585	17754.00012
721.779	18057.89924
721.973	17934.30412
722.167	17816.79954
722.361	18102.4778
722.555	17916.06988
722.749	18078.16201
722.943	18169.34892
723.137	18037.63684
723.331	17334.74281
723.525	17642.58973
723.719	17598.02838
723.913	17707.40909
724.107	17674.99899
724.301	18057.89924
724.495	17683.10144
724.689	18122.74136
724.883	17729.69154
725.077	18090.31984
725.271	17745.8972
725.465	17549.41779
725.659	17579.79919
725.853	17968.74733
726.046	17867.44664
726.24	17920.12191
726.434	17646.64084
726.628	17650.69197
726.822	17543.3416
727.015	17798.56712
727.209	17492.70777
727.403	17081.63176
727.596	17170.72171
727.79	17587.90102
727.984	17650.69197
728.177	17995.08695
728.371	17916.06988
728.565	17591.95195
728.758	18009.27008
728.952	17567.64654
729.146	17624.3599
729.339	18051.82049
729.533	17656.76868
729.726	18094.37248
729.92	18015.34861
730.113	17966.72123
730.307	17871.4985
730.5	17966.72123
730.694	17612.20682
730.887	17936.33016
731.081	17948.48649
731.274	18140.97887
731.468	17741.84577
731.661	17835.03225
731.854	17691.20393
732.048	17504.85971
732.241	17490.68246
732.435	17549.41779
732.628	17624.3599
732.821	17502.83438
733.014	17610.18132
733.208	17186.92047
733.401	17363.09412
733.594	17288.16695
733.788	17249.69242
733.981	17284.11695
734.174	17257.79223
734.367	17541.31621
734.56	17679.05021
734.754	17294.24197
734.947	17162.6224
735.14	17223.36836
735.333	17466.37896
735.526	17429.92457
735.719	17075.55765
735.912	17371.1946
736.105	16885.24763
736.298	17178.82107
736.491	17049.23676
736.684	17116.05223
736.877	17128.20083
737.07	17288.16695
737.263	17069.48356
737.456	17454.22739
737.649	17320.56738
737.842	17146.42391
738.035	17373.21973
738.228	17182.87076
738.421	17620.30886
738.614	17318.54233
738.807	17282.09195
739	16952.05592
739.192	16658.52464
739.385	16782.00391
739.578	16832.61276
739.771	16788.07689
739.964	16607.92088
740.156	16715.20255
740.349	16668.64556
740.542	17045.18744
740.735	16771.88232
740.927	16943.9578
741.12	16820.4665
741.313	16755.68791
741.505	17010.7686
741.698	16684.83916
741.891	16733.42085
742.083	16543.1501
742.276	16458.14179
742.468	16490.52548
742.661	16316.46919
742.854	16504.6935
743.046	16648.40377
743.239	16470.28561
743.431	16498.62148
743.624	16255.75521
743.816	16466.23766
744.009	16777.95527
744.201	16484.45349
744.393	16543.1501
744.586	16445.99805
744.778	16385.2804
744.971	16166.71089
745.163	16692.93601
745.355	16672.69395
745.548	16454.09387
745.74	16470.28561
745.932	16719.25105
746.125	16613.99326
746.317	16678.76654
746.509	16065.52803
746.702	16043.26831
746.894	16197.06654
747.086	16290.1596
747.278	16172.78199
747.471	16421.71078
747.663	16292.1834
747.855	16494.57347
748.047	16490.52548
748.239	16725.3238
748.431	16616.01739
748.623	16798.19858
748.815	16526.95776
749.008	16280.04061
749.2	16316.46919
749.392	16535.05391
749.584	15984.58446
749.776	16322.54068
749.968	16182.90052
750.16	16577.5593
750.352	16559.34259
750.544	16757.7122
750.736	16632.21051
750.928	16686.86337
751.12	16221.35133
751.311	16365.04158
751.503	16419.68685
751.695	16407.54333
751.887	16431.83044
752.079	16510.76555
752.271	15964.34892
752.463	16146.474
752.654	15806.51611
752.846	16057.43356
753.038	15960.30183
753.23	15946.13705
753.421	16000.77299
753.613	16097.90612
753.805	16365.04158
753.997	16166.71089
754.188	15982.5609
754.38	16069.57527
754.572	16008.86729
754.763	16638.28297
754.955	15899.59609
755.146	15980.53734
755.338	15855.07927
755.53	15772.1176
755.721	15743.78964
755.913	15788.3051
756.104	15729.62574
756.296	16055.40995
756.487	15768.07074
756.679	15616.31615
756.87	15294.60947
757.062	15383.634
757.253	15405.89024
757.445	15403.86694
757.636	15424.09993
757.827	15515.14901
758.019	15547.5223
758.21	15478.72924
758.401	15391.72717
758.593	15628.45633
758.784	15606.19935
758.975	15339.12166
759.167	15480.75256
759.358	15600.12928
759.549	15468.61267
759.74	15256.16722
759.932	15233.91121
760.123	15159.05018
760.314	14916.25655
760.505	14815.0909
760.696	14744.27397
760.888	14707.85346
761.079	14806.99759
761.27	14784.7409
761.461	14837.34747
761.652	14754.39074
761.843	14717.9703
762.034	14722.01702
762.225	14819.13756
762.416	14916.25655
762.607	14511.58172
762.798	14697.7366
762.989	14756.41409
763.18	14813.06758
763.371	14651.19873
763.562	14995.1649
763.753	14523.72256
763.944	14604.66034
764.135	14062.32948
764.326	14632.98812
764.517	14420.52387
764.708	14580.3792
764.899	14054.23395
765.089	14331.48658
765.28	14242.446
765.471	14495.39386
765.662	14519.67562
765.853	14756.41409
766.043	14345.65182
766.234	14525.74603
766.425	14236.37492
766.615	14418.50033
766.806	14179.71066
766.997	14280.89577
767.187	14042.09059
767.378	14473.13542
767.569	13928.74826
767.759	14048.16228
767.95	14373.98204
768.141	14483.25292
768.331	14131.14003
768.522	14098.75892
768.712	13906.48364
768.903	14212.09043
769.093	13874.09816
769.284	13758.71899
769.474	13916.60396
769.665	13934.82037
769.855	14038.04278
770.046	14033.99496
770.236	13720.25711
770.426	13900.41141
770.617	13744.54896
770.807	14001.61208
770.998	13892.31508
771.188	13677.7453
771.378	13815.39766
771.569	13604.86453
771.759	13596.7664
771.949	13612.96261
772.139	13639.28099
772.33	13262.66641
772.52	13477.31235
772.71	13679.7697
772.9	13693.94044
773.09	13673.69648
773.281	13562.34872
773.471	13590.69277
773.661	13372.02001
773.851	13475.2876
774.041	13426.69235
774.231	13453.01505
774.421	13173.5542
774.611	13297.09386
774.802	13003.40601
774.992	13453.01505
775.182	13280.89286
775.372	13092.53547
775.562	12770.40692
775.752	13086.45876
775.942	13210.01024
776.131	12940.60445
776.321	12731.90443
776.511	12997.32866
776.701	12624.4916
776.891	12798.77586
777.081	12946.68224
777.271	13007.45756
777.461	12950.73407
777.651	12707.586
777.84	12973.01877
778.03	12877.7979
778.22	12693.39986
778.41	12924.3968
778.599	12833.22239
778.789	12679.21343
778.979	12583.95406
779.169	12646.78621
779.358	12711.63913
779.548	12817.01246
779.738	12843.35342
779.927	12821.06498
780.117	12679.21343
780.307	12563.68436
780.496	12563.68436
780.686	12600.16937
780.875	12561.65736
781.065	12557.60333
781.254	12160.17937
781.444	12808.90736
781.633	12328.50858
781.823	12310.25839
782.012	12081.0674
782.202	12486.65375
782.391	12176.40606
782.581	11939.04195
782.77	12016.14629
782.96	11890.33844
783.149	11937.01273
783.338	12208.858
783.528	12275.78426
783.717	12519.08882
783.906	12239.28
784.096	12308.23056
784.285	11943.10036
784.474	12373.11779
784.663	11896.42664
784.853	12032.37731
785.042	11894.39725
785.231	12227.1114
785.42	11727.9585
785.61	11776.67824
785.799	11701.56653
785.988	11880.19128
786.177	11699.53632
786.366	11790.88722
786.555	12056.72292
786.744	11870.04391
786.933	11632.53427
787.122	11821.33363
787.312	11707.65712
787.501	11559.42984
787.69	11772.61845
787.879	11941.07116
788.068	11805.09578
788.257	11819.30393
788.445	11729.98859
788.634	11983.68271
788.823	11713.74763
789.012	11675.17307
789.201	11533.02807
789.39	11740.1389
789.579	11565.52233
789.768	11455.84449
789.957	11644.71719
790.145	11669.08206
790.334	11492.40685
790.523	11786.82755
790.712	11447.7191
790.9	11683.2943
791.089	10931.42227
791.278	11214.04633
791.467	11083.94333
791.655	11037.17682
791.844	10990.40449
792.033	11232.33861
792.221	11008.7074
792.41	11354.26589
792.599	10933.4563
792.787	11354.26589
792.976	10972.10067
793.164	10841.91377
793.353	10685.21941
793.541	10902.9447
793.73	10825.63709
793.918	11333.94721
794.107	10835.8101
794.295	11146.96741
794.484	10886.6708
794.672	11047.34394
794.861	10957.86375
795.049	11254.69469
795.238	10742.20734
795.426	10825.63709
795.614	10839.87923
795.803	11106.3079
795.991	10858.1897
796.179	10961.9315
796.368	10919.21787
796.556	10410.32005
796.744	10538.63498
796.932	10699.46728
797.121	10530.4895
797.309	10758.48788
797.497	10618.04283
797.685	10715.74983
797.874	10673.00647
798.062	10573.25099
798.25	10436.80192
798.438	10336.97412
798.626	10251.38209
798.814	10695.39652
799.002	10363.46212
799.19	10180.03717
799.378	10391.98516
799.566	10402.17134
799.755	10206.53867
799.943	10361.42466
800.131	10616.00697
800.318	10597.68365
800.506	10349.19963
800.694	10269.72524
800.882	10206.53867
801.07	10418.46855
801.258	10202.46166
801.446	10554.92532
801.634	10165.76616
801.822	10398.09691
802.01	10112.75363
802.197	10463.28159
802.385	10137.22212
802.573	10190.23033
802.761	10186.1531
802.949	10153.53334
803.136	10237.11445
803.324	10033.21703
803.512	10129.06618
803.699	10259.53474
803.887	10204.50017
804.075	10271.7633
804.262	10224.8845
804.45	10442.9128
804.638	10155.57217
804.825	10235.07616
805.013	10002.62027
805.201	10237.11445
805.388	10114.79274
805.576	10265.64908
805.763	10286.02934
805.951	10377.72396
806.138	10122.94908
806.326	10251.38209
806.513	10257.4966
806.701	10010.77972
806.888	10071.96831
807.075	10239.15272
807.263	9847.54656
807.45	10487.72244
807.638	9998.54046
807.825	10281.95339
808.012	10198.38461
808.2	9892.44502
808.387	10312.52166
808.574	10357.3497
808.761	10161.68861
808.949	10251.38209
809.136	10059.73162
809.323	10320.67269
809.51	10349.19963
809.698	10267.68717
809.885	10014.85936
810.072	10457.17109
810.259	10177.99849
810.446	10324.74813
810.633	10137.22212
810.82	10516.23444
811.008	10316.59721
811.195	10516.23444
811.382	10088.28311
811.569	10408.28289
811.756	10157.611
811.943	10332.89884
812.13	10245.26747
812.317	10184.11447
812.504	10281.95339
812.691	10361.42466
812.878	10267.68717
813.064	10226.92286
813.251	10041.37562
813.438	10214.69251
813.625	10018.93894
813.812	10479.5757
813.999	10074.00771
814.186	10145.37784
814.372	10259.53474
814.559	10571.21486
814.746	10065.85003
814.933	10414.39433
815.12	10697.4319
815.306	10459.20794
815.493	10465.3184
815.68	10491.79574
815.866	10237.11445
816.053	10373.64921
816.24	9851.62853
816.426	10096.44018
816.613	10198.38461
816.799	10161.68861
816.986	10084.2045
817.173	10279.9154
817.359	10243.22923
817.546	10355.3122
817.732	10057.69212
817.919	10043.41523
818.105	9994.46059
818.292	10014.85936
818.478	9959.77938
818.665	10159.64981
818.851	9818.97107
819.037	10033.21703
819.224	9939.37671
819.41	9927.13441
819.597	9614.77403
819.783	9639.28579
819.969	9688.30262
820.156	9720.97557
820.342	9780.18535
820.528	9904.68882
820.714	9469.69968
820.901	10245.26747
821.087	9916.93209
821.273	10014.85936
821.459	9841.42349
821.646	9872.03752
821.832	9702.59752
822.018	10098.47941
822.204	9500.35587
822.39	10045.45483
822.576	10098.47941
822.762	10216.73094
822.948	9751.60291
823.134	9845.50555
823.32	9627.03019
823.507	9786.30977
823.693	9633.15806
823.879	9533.05183
824.065	9320.45416
824.25	9353.17297
824.436	9132.23794
824.622	9496.26858
824.808	9273.41344
824.994	9332.72421
825.18	9001.21963
825.366	9512.61733
825.552	9197.72066
825.738	9627.03019
825.923	9434.95162
826.109	9377.70931
826.295	9046.2652
826.481	9451.30423
826.667	9126.09804
826.852	9394.06556
827.038	9122.00468
827.224	9302.04797
827.409	9300.00275
827.595	9402.24329
827.781	9357.26252
827.966	9361.35201
828.152	9342.94879
828.338	9381.79847
828.523	8870.12946
828.709	9216.13454
828.894	8693.86103
829.08	9193.6285
829.266	8968.45389
829.451	9107.67741
829.637	9074.92617
829.822	8995.0764
830.008	9060.59611
830.193	8945.92482
830.378	9132.23794
830.564	9207.95076
830.749	9287.73111
830.935	9295.91227
831.12	8829.14879
831.305	8886.51972
831.491	8640.54387
831.676	8812.7545
831.861	8593.36819
832.047	8722.56509
832.232	8656.95048
832.417	8517.45605
832.602	8535.92354
832.788	8661.05195
832.973	8812.7545
833.158	8820.95179
833.343	8484.62115
833.528	8702.06256
833.714	8114.88671
833.899	8712.31406
834.084	8330.6421
834.269	8607.72705
834.454	8386.08707
834.639	8560.54449
834.824	8591.31685
835.009	8609.77825
835.194	8353.2325
835.379	8642.59476
835.564	8427.14831
835.749	8566.6993
835.934	8246.42069
836.119	8517.45605
836.304	7855.68762
836.489	8345.01808
836.674	8108.71905
836.859	8361.44661
837.044	8030.57964
837.228	8322.42683
837.413	8116.94255
837.598	8112.83084
837.783	7853.62918
837.968	8349.12533
838.152	7997.67008
838.337	8024.40949
838.522	8098.43921
838.707	8225.87387
838.891	8121.05419
839.076	8369.6604
839.261	7999.72708
839.445	8595.41952
839.63	8180.66389
839.815	8090.21498
839.999	7752.74022
840.184	7927.71994
840.368	7894.79402
840.553	8057.31482
840.737	8110.77495
840.922	7730.08477
841.106	7736.26378
841.291	7966.81264
841.475	8024.40949
841.66	8100.49522
841.844	7847.45375
842.029	7905.08393
842.213	7972.9845
842.397	7664.16354
842.582	7647.67985
842.766	7989.44188
842.951	7441.51836
843.135	7777.45235
843.319	7460.08171
843.504	7738.32341
843.688	7538.44098
843.872	7532.25585
844.056	7606.46467
844.241	7604.40369
844.425	7356.92978
844.609	7532.25585
844.793	7297.07667
844.977	7392.00753
845.161	7212.42522
845.346	7422.95327
845.53	7113.27381
845.714	7257.85256
845.898	7030.60839
846.082	7404.38641
846.266	6954.1109
846.45	7352.80257
846.634	7026.47418
846.818	7462.14419
847.002	7208.29494
847.186	7218.62049
847.37	7069.87893
847.554	7290.88392
847.738	6993.39725
847.922	7206.22976
848.106	7142.19827
848.29	7233.07534
848.473	7383.75451
848.657	7127.73659
848.841	7053.34495
849.025	7268.17546
849.209	7034.74252
849.392	6968.58577
849.576	6763.76659
849.76	6976.85662
849.944	6714.07981
850.127	6947.90705
850.311	6606.37977
850.495	7121.53839
850.678	6863.10066
850.862	7022.33988
851.046	6670.59305
851.229	6825.85654
851.413	6372.12374
851.596	6600.1644
851.78	6569.08446
851.964	6695.44387
852.147	6753.41626
852.331	6772.04643
852.514	6662.30871
852.698	6527.63645
852.881	6577.37295
853.065	6654.024
853.248	6455.08012
853.431	6564.94008
853.615	6260.07341
853.798	6575.30087
853.982	6291.20534
854.165	6625.02461
854.348	6388.718
854.532	6374.1981
854.715	6297.4311
854.898	6282.90401
855.081	6214.40372
855.265	6426.04963
855.448	5906.87564
855.631	6206.09892
855.814	5996.27816
855.997	6189.4882
856.181	5942.22603
856.364	5973.4119
856.547	5892.31761
856.73	6042.00213
856.913	5883.99822
857.096	6012.90638
857.279	5852.79714
857.462	6168.72268
857.645	5759.16205
857.828	5856.9576
858.011	5775.81178
858.194	6064.85985
858.377	5967.17515
858.56	6206.09892
858.743	6089.79229
858.926	6231.01219
859.109	6019.14157
859.292	6222.70814
859.475	5859.03779
859.658	6127.1846
859.841	5871.51843
860.023	5948.46363
860.206	5790.37906
860.389	5894.3974
860.572	5609.2465
860.755	5854.87738
860.937	5973.4119
861.12	5854.87738
861.303	5561.33104
861.486	5844.47596
861.668	5490.47666
861.851	5811.18745
862.034	5636.32363
862.216	5667.56153
862.399	5315.30812
862.581	5527.99119
862.764	5281.92392
862.947	5484.2235
863.129	5484.2235
863.312	5311.13542
863.494	5327.82565
863.677	5400.82775
863.859	5018.81475
864.042	5392.48611
864.224	5171.29602
864.406	5183.82322
864.589	4903.85026
864.771	5319.48072
864.954	5016.72511
865.136	5490.47666
865.318	5056.42434
865.501	5390.40064
865.683	5037.62048
865.865	5215.13756
866.048	4897.57747
866.23	5039.70989
866.412	4897.57747
866.594	4939.39216
866.777	4916.39522
866.959	5119.09033
867.141	4993.73753
867.323	5208.87511
867.505	4790.90858
867.687	5181.73541
867.869	4954.02514
868.052	5156.67989
868.234	4857.84502
868.416	5160.85605
868.598	4889.21343
868.78	4822.28794
868.962	4751.15406
869.144	4912.21366
869.326	4830.65491
869.508	4964.47657
869.69	5022.99396
869.872	5165.03211
870.054	4882.94016
870.236	4795.09279
870.417	4767.89381
870.599	4912.21366
870.781	4682.08732
870.963	4887.12236
871.145	4805.55292
871.327	4659.05963
871.508	4769.98617
871.69	4730.22734
871.872	4709.29837
872.054	5037.62048
872.235	4489.4088
872.417	4592.05454
872.599	4656.96606
872.78	4629.74772
872.962	4336.38966
873.144	4813.92061
873.325	4483.12265
873.507	4671.62053
873.689	4474.74079
873.87	4709.29837
874.052	4575.29969
874.233	4713.48434
874.415	4780.44766
874.596	4740.69099
874.778	4506.17092
874.959	4646.49792
875.141	4604.61974
875.322	4862.02777
875.503	4470.54973
875.685	4713.48434
875.866	4569.01626
876.048	4673.71393
876.229	4692.55356
876.41	4594.14879
876.592	4470.54973
876.773	4698.83303
876.954	4405.57711
877.136	4420.25018
877.317	4388.80657
877.498	4562.73262
877.679	4405.57711
877.86	4707.20535
878.042	4579.48854
878.223	4726.04173
878.404	4508.26609
878.585	4738.5983
878.766	4589.96026
878.947	4960.29607
879.128	4671.62053
879.309	4885.03127
879.49	4721.85602
879.672	4895.48649
879.853	4769.98617
880.034	4755.33913
880.215	4656.96606
880.396	4784.6321
880.576	4380.42077
880.757	4772.07852
880.938	4353.16454
881.119	4698.83303
881.3	4439.11399
881.481	4746.9689
881.662	4470.54973
881.843	4411.8657
882.023	4369.93804
882.204	4772.07852
882.385	4424.44229
882.566	4612.99609
882.747	4411.8657
882.927	4600.43143
883.108	4403.48086
883.289	4682.08732
883.469	4592.05454
883.65	4677.90067
883.831	4575.29969
884.011	4887.12236
884.192	4772.07852
884.373	4656.96606
884.553	4476.83629
884.734	4690.46036
884.914	4520.83662
885.095	4767.89381
885.275	4457.97603
885.456	4688.36713
885.636	4780.44766
885.817	4801.36894
885.997	4615.09012
886.178	4977.01753
886.358	4797.18487
886.538	4956.11547
886.719	4663.24668
886.899	4753.24661
887.08	4853.66218
887.26	4922.66739
887.44	4504.07574
887.621	4876.66668
887.801	4763.70901
887.981	4813.92061
888.161	4698.83303
888.342	4809.73681
888.522	4759.52412
888.702	4767.89381
888.882	4797.18487
889.062	5060.60272
889.242	4698.83303
889.423	4772.07852
889.603	4788.81645
889.783	4903.85026
889.963	4420.25018
890.143	4813.92061
890.323	4644.40422
890.503	4598.33724
890.683	4466.35859
890.863	4548.07003
891.043	4462.16735
891.223	4525.02662
891.403	4633.9354
891.583	4916.39522
891.763	4636.02921
891.943	4713.48434
892.122	4615.09012
892.302	4679.99401
892.482	4499.88529
892.662	4571.11076
892.842	4571.11076
893.022	4826.47147
893.201	4428.63432
893.381	4665.34018
893.561	4579.48854
893.741	4730.22734
893.92	4514.55145
894.1	4908.032
894.28	4822.28794
894.459	4633.9354
894.639	4386.71015
894.819	4457.97603
894.998	4179.05828
895.178	4424.44229
895.357	4353.16454
895.537	4522.93163
895.716	4286.05672
895.896	4510.36123
896.075	4453.78462
896.255	4388.80657
896.434	4235.71141
896.614	4378.32427
896.793	4065.70596
896.973	4309.12752
897.152	3977.50122
897.331	4279.76423
897.511	3943.88992
897.69	3874.55027
897.87	3765.24378
898.049	3994.30491
898.228	3706.36452
898.407	4021.60812
898.587	3803.08668
898.766	4019.508
898.945	3498.06491
899.124	3977.50122
899.304	3752.62808
899.483	4034.20844
899.662	3786.2684
899.841	3935.48628
900.02	3668.5056
900.199	3893.46325
900.378	3737.90887
900.557	3845.12686
900.737	3779.96122
900.916	3803.08668
901.095	3691.64235
901.274	3882.95624
901.453	3529.63718
901.632	3655.88458
901.811	3464.38331
901.989	3514.90397
902.168	3367.5232
902.347	3697.95197
902.526	3382.26519
902.705	3573.83141
902.884	3186.33863
903.063	3613.8096
903.242	3281.16015
903.42	3517.00876
903.599	3243.2356
903.778	3407.53519
903.957	3329.61128
904.135	3470.69897
904.314	3186.33863
904.493	3363.31104
904.672	3061.96698
904.85	3163.15494
905.029	3095.70037
905.207	3344.35547
905.386	2981.83429
905.565	3083.05082
905.743	2931.21293
905.922	2931.21293
906.1	2741.3092
906.279	2920.66574
906.457	2741.3092
906.636	2762.41514
906.814	2665.31695
906.993	2922.7752
907.171	2648.42752
907.35	2825.72482
907.528	2344.28948
907.707	2551.29803
907.885	2289.35216
908.063	2673.76136
908.242	2356.96639
908.42	2542.85079
908.598	2449.91909
908.777	2690.64956
908.955	2375.98107
909.133	2692.76053
909.311	2287.23906
909.49	2502.72387
909.668	2261.8811
909.846	2445.69441
910.024	2504.83592
910.202	2483.71495
910.38	2483.71495
910.559	2416.12046
910.737	2416.12046
910.915	2597.75447
911.093	2335.83801
911.271	2458.36832
911.449	2553.40981
911.627	2378.09376
911.805	2132.95859
911.983	2483.71495
912.161	2073.77098
912.339	2409.78291
912.517	2173.11814
912.695	2528.06767
912.872	2513.28399
913.05	2568.19195
913.228	2439.35731
913.406	2447.80676
913.584	2335.83801
913.762	2620.9805
913.939	2340.06377
914.117	2585.08511
914.295	2394.99493
914.473	2663.20581
914.65	2500.61181
914.828	2496.38767
915.006	2342.17663
915.184	2331.61222
915.361	2192.14005
915.539	2299.91753
915.716	2164.66374
915.894	2293.57834
916.072	2255.5414
916.249	2314.70866
916.427	2080.11279
916.604	2382.31912
916.782	2316.82164
916.959	2483.71495
917.137	2058.97318
917.314	2409.78291
917.492	2065.31514
917.669	2365.41746
917.847	2223.84171
918.024	2261.8811
918.201	2149.86823
918.379	2266.10752
918.556	2029.37653
918.733	2230.18181
918.911	1866.57286
919.088	2314.70866
919.265	2025.14832
919.442	2122.38982
919.62	2171.00455
919.797	2268.22071
919.974	1942.6932
920.151	2001.89273
920.328	1989.20753
920.506	2086.45454
920.683	2006.12108
920.86	2111.82084
921.037	1826.39554
921.214	1942.6932
921.391	1716.42865
921.568	2023.03421
921.745	1762.95439
921.922	1820.0516
922.099	1532.42757
922.276	1832.73944
922.453	1731.23248
922.63	1883.48909
922.807	1682.59074
922.984	1741.80654
923.161	1777.75766
923.338	1830.62481
923.514	1699.5098
923.691	1832.73944
923.868	1557.80789
924.045	1809.47828
924.222	1608.56788
924.399	1883.48909
924.575	1562.03792
924.752	1633.94748
924.929	1574.72799
925.105	1798.90484
925.282	1511.2772
925.459	1676.24605
925.635	1445.71067
925.812	1437.25046
925.989	1164.42059
926.165	1342.07376
926.342	1270.16431
926.518	1481.66655
926.695	1378.0292
926.871	1502.81702
927.048	1454.17088
927.224	1437.25046
927.401	1158.07624
927.577	1378.0292
927.754	1079.83253
927.93	1363.22397
928.107	1130.5845
928.283	1371.68409
928.459	1185.56866
928.636	1384.37431
928.812	1100.97885
928.988	1375.91416
929.165	1223.6361
929.341	1276.50916
929.517	1029.08355
929.693	1210.94683
929.87	929.71042
930.046	1115.78156
930.222	912.79739
930.398	1149.61717
930.574	1024.85461
930.751	993.13839
930.927	929.71042
931.103	1079.83253
931.279	1058.68673
931.455	1107.32284
931.631	878.97283
931.807	988.90967
931.983	946.62393
932.159	1162.3058
932.335	834.58132
932.511	1139.04342
932.687	813.44387
932.863	933.93875
933.039	766.94481
933.215	798.64821
933.391	853.60579
933.566	838.80892
933.742	758.49094
933.918	876.85887
934.094	724.67713
934.27	843.03655
934.445	616.91466
934.621	775.39883
934.797	625.3655
934.973	583.11332
935.148	581.00085
935.324	515.52089
935.5	538.7542
935.675	568.32629
935.851	456.38949
936.027	519.745
936.202	363.49336
936.378	485.95373
936.553	371.93715
936.729	412.04879
936.904	333.94227
937.08	369.82618
937.255	310.72597
937.431	352.93901
937.606	276.96072
937.782	344.49584
937.957	171.47585
938.133	251.6399
938.308	298.06345
938.483	323.38914
938.659	167.25749
938.834	137.73137
939.009	205.22562
939.185	171.47585
939.36	146.16698
939.535	217.88312
939.71	152.49392
939.886	114.5352
940.061	196.78769
940.236	112.42659
940.411	219.99277
940.586	192.56884
940.761	141.94913
940.937	85.01664
941.112	133.51369
941.287	177.80353
941.462	93.45007
941.637	247.42003
941.812	112.42659
941.987	108.20943
942.162	137.73137
942.337	146.16698
942.512	51.28651
942.687	108.20943
942.862	80.80005
943.037	106.10089
943.212	160.93012
943.386	87.12496
943.561	103.99236
943.736	110.318
943.911	82.90833
944.086	135.62252
944.26	127.18734
944.435	25.99279
944.61	154.60294
944.785	93.45007
944.959	110.318
945.134	129.2961
945.309	108.20943
945.483	61.82655
945.658	82.90833
945.833	110.318
946.007	95.55848
946.182	133.51369
946.357	97.66692
946.531	42.8549
946.706	108.20943
946.88	141.94913
947.055	125.07859
947.229	87.12496
947.404	125.07859
947.578	175.69428
947.752	108.20943
947.927	32.3159
948.101	127.18734
948.276	82.90833
948.45	23.88513
948.624	103.99236
948.799	106.10089
948.973	108.20943
949.147	51.28651
949.321	57.61047
949.496	28.10047
949.67	150.38492
949.844	133.51369
950.018	57.61047
950.193	137.73137
950.367	57.61047
950.541	76.58356
950.715	110.318
950.889	137.73137
951.063	59.7185
951.237	156.71198
951.411	101.88386
951.585	76.58356
951.759	103.99236
951.933	137.73137
952.107	95.55848
952.281	116.64384
952.455	158.82104
952.629	213.66387
952.803	129.2961
952.977	135.62252
953.151	171.47585
953.325	59.7185
953.499	110.318
953.672	163.03922
953.846	158.82104
954.02	70.25899
954.194	78.6918
954.368	99.77538
954.541	89.23331
954.715	144.05805
954.889	171.47585
955.062	182.02209
955.236	150.38492
955.41	36.53143
955.583	91.34168
955.757	141.94913
955.93	59.7185
956.104	175.69428
956.278	158.82104
956.451	141.94913
956.625	103.99236
956.798	51.28651
956.972	150.38492
957.145	108.20943
957.319	169.36666
957.492	103.99236
957.665	133.51369
957.839	95.55848
958.012	95.55848
958.185	99.77538
958.359	116.64384
958.532	95.55848
958.705	141.94913
958.879	139.84024
959.052	110.318
959.225	127.18734
959.398	173.58505
959.572	23.88513
959.745	122.96987
959.918	110.318
960.091	141.94913
960.264	57.61047
960.438	135.62252
960.611	93.45007
960.784	160.93012
960.957	99.77538
961.13	38.63923
961.303	160.93012
961.476	93.45007
961.649	146.16698
961.822	32.3159
961.995	129.2961
962.168	87.12496
962.341	114.5352
962.514	11.23968
962.686	101.88386
962.859	95.55848
963.032	116.64384
963.205	135.62252
963.378	112.42659
963.551	91.34168
963.723	99.77538
963.896	118.75249
964.069	25.99279
964.242	66.04272
964.414	82.90833
964.587	125.07859
964.76	36.53143
964.932	2.80986
965.105	108.20943
965.278	108.20943
965.45	66.04272
965.623	120.86117
965.795	110.318
965.968	70.25899
966.14	89.23331
966.313	82.90833
966.485	74.47535
966.658	66.04272
966.83	116.64384
967.003	89.23331
967.175	101.88386
967.348	101.88386
967.52	101.88386
967.692	47.07066
967.865	61.82655
968.037	120.86117
968.209	44.96277
968.382	148.27594
968.554	91.34168
968.726	70.25899
968.898	118.75249
969.071	116.64384
969.243	57.61047
969.415	44.96277
969.587	133.51369
969.759	42.8549
969.932	9.13219
970.104	74.47535
970.276	103.99236
970.448	125.07859
970.62	116.64384
970.792	40.74705
970.964	95.55848
971.136	110.318
971.308	61.82655
971.48	19.66988
971.652	103.99236
971.824	116.64384
971.996	118.75249
972.168	87.12496
972.339	110.318
972.511	120.86117
972.683	68.15085
972.855	42.8549
973.027	127.18734
973.199	61.82655
973.37	34.42366
973.542	49.17857
973.714	17.5623
973.886	85.01664
974.057	120.86117
974.229	34.42366
974.401	53.39447
974.572	87.12496
974.744	70.25899
974.915	47.07066
975.087	66.04272
975.259	28.10047
975.43	42.8549
975.602	66.04272
975.773	36.53143
975.945	93.45007
976.116	68.15085
976.288	44.96277
976.459	82.90833
976.63	40.74705
976.802	36.53143
976.973	49.17857
977.145	70.25899
977.316	42.8549
977.487	95.55848
977.659	2.80986
977.83	-1.40491
978.001	55.50246
978.172	2.80986
978.344	-24.5844
978.515	70.25899
978.686	-5.61958
978.857	47.07066
979.028	89.23331
979.2	57.61047
979.371	30.20817
979.542	74.47535
979.713	2.80986
979.884	40.74705
980.055	-18.26301
980.226	-35.11954
980.397	-70.93437
980.568	78.6918
980.739	13.34719
980.91	40.74705
981.081	42.8549
981.252	59.7185
981.423	-14.04863
981.594	21.7775
981.765	30.20817
981.936	55.50246
982.106	23.88513
982.277	42.8549
982.448	40.74705
982.619	53.39447
982.79	78.6918
982.96	61.82655
983.131	40.74705
983.302	-9.83416
983.472	59.7185
983.643	44.96277
983.814	-26.69148
983.984	53.39447
984.155	25.99279
984.326	-35.11954
984.496	57.61047
984.667	78.6918
984.837	51.28651
985.008	7.02472
985.178	19.66988
985.349	44.96277
985.519	-3.51226
985.69	7.02472
985.86	51.28651
986.031	19.66988
986.201	-30.90556
986.371	68.15085
986.542	25.99279
986.712	-9.83416
986.882	-5.61958
987.053	15.45473
987.223	11.23968
987.393	-18.26301
987.563	-26.69148
987.734	32.3159
987.904	40.74705
988.074	-26.69148
988.244	66.04272
988.414	-24.5844
988.585	57.61047
988.755	49.17857
988.925	23.88513
989.095	-60.40135
989.265	40.74705
989.435	44.96277
989.605	0.70246
989.775	61.82655
989.945	23.88513
990.115	61.82655
990.285	51.28651
990.455	-7.72688
990.625	0.70246
990.795	34.42366
990.965	40.74705
991.134	70.25899
991.304	-28.79853
991.474	36.53143
991.644	34.42366
991.814	34.42366
991.984	-22.47729
992.153	19.66988
992.323	-18.26301
992.493	9.13219
992.662	7.02472
992.832	-18.26301
993.002	-28.79853
993.171	0.70246
993.341	2.80986
993.511	44.96277
993.68	47.07066
993.85	-41.44034
994.019	-35.11954
994.189	44.96277
994.358	32.3159
994.528	-30.90556
994.697	-14.04863
994.867	-16.15583
995.036	0.70246
995.206	-16.15583
995.375	7.02472
995.544	-24.5844
995.714	108.20943
995.883	19.66988
996.052	34.42366
996.222	7.02472
996.391	-11.94141
996.56	0.70246
996.73	9.13219
996.899	-81.46674
997.068	-41.44034
997.237	36.53143
997.406	-66.72124
997.576	-49.86771
997.745	-20.37016
997.914	110.318
998.083	23.88513
998.252	47.07066
998.421	13.34719
998.59	-7.72688
998.759	-30.90556
998.928	17.5623
999.097	-37.2265
999.266	19.66988
999.435	-64.61464
999.604	38.63923
999.773	34.42366
999.942	15.45473
1000.111	28.10047
1000.28	36.53143
1000.448	-24.5844
1000.617	-49.86771
1000.786	2.80986
1000.955	30.20817
1001.124	-1.40491
1001.292	11.23968
1001.461	-39.33343
1001.63	-33.01256
1001.798	23.88513
1001.967	9.13219
1002.136	-26.69148
1002.304	15.45473
1002.473	-3.51226
1002.642	-33.01256
1002.81	-9.83416
1002.979	28.10047
1003.147	74.47535
1003.316	-24.5844
1003.484	15.45473
1003.653	-18.26301
1003.821	-1.40491
1003.99	25.99279
1004.158	53.39447
1004.327	34.42366
1004.495	-68.82782
1004.663	28.10047
1004.832	-1.40491
1005	25.99279
1005.168	4.91728
1005.337	-1.40491
1005.505	2.80986
1005.673	-30.90556
1005.842	42.8549
1006.01	28.10047
1006.178	36.53143
1006.346	17.5623
1006.514	7.02472
1006.683	-1.40491
1006.851	-20.37016
1007.019	34.42366
1007.187	-35.11954
1007.355	57.61047
1007.523	9.13219
1007.691	-35.11954
1007.859	40.74705
1008.027	-45.65407
1008.195	91.34168
1008.363	2.80986
1008.531	40.74705
1008.699	23.88513
1008.867	32.3159
1009.035	59.7185
1009.203	36.53143
1009.37	-5.61958
1009.538	-51.97449
1009.706	7.02472
1009.874	53.39447
1010.042	7.02472
1010.209	-1.40491
1010.377	9.13219
1010.545	-7.72688
1010.713	21.7775
1010.88	11.23968
1011.048	-49.86771
1011.216	25.99279
1011.383	30.20817
1011.551	-26.69148
1011.718	-83.57314
1011.886	23.88513
1012.054	17.5623
1012.221	-14.04863
1012.389	40.74705
1012.556	-16.15583
1012.724	57.61047
1012.891	-1.40491
1013.058	40.74705
1013.226	40.74705
1013.393	76.58356
1013.561	-51.97449
1013.728	13.34719
1013.895	49.17857
1014.063	-39.33343
1014.23	7.02472
1014.397	-51.97449
1014.565	32.3159
1014.732	-104.63569
1014.899	-45.65407
1015.066	-9.83416
1015.233	32.3159
1015.401	-26.69148
1015.568	-5.61958
1015.735	-30.90556
1015.902	36.53143
1016.069	-26.69148
1016.236	-51.97449
1016.403	-56.18797
1016.57	2.80986
1016.737	-64.61464
1016.904	42.8549
1017.071	-81.46674
1017.238	11.23968
1017.405	-26.69148
1017.572	-14.04863
1017.739	-1.40491
1017.906	-35.11954
1018.073	34.42366
1018.24	-16.15583
1018.407	-22.47729
1018.573	49.17857
1018.74	57.61047
1018.907	9.13219
1019.074	23.88513
1019.241	-24.5844
1019.407	9.13219
1019.574	-85.67951
1019.741	11.23968
1019.907	-66.72124
1020.074	-66.72124
1020.241	-41.44034
1020.407	-39.33343
1020.574	21.7775
1020.74	-64.61464
1020.907	-47.7609
1021.073	34.42366
1021.24	23.88513
1021.406	-24.5844
1021.573	19.66988
1021.739	11.23968
1021.906	-9.83416
1022.072	-16.15583
1022.239	32.3159
1022.405	-18.26301
1022.571	-28.79853
1022.738	-9.83416
1022.904	66.04272
1023.07	-16.15583
1023.237	7.02472
1023.403	-56.18797
1023.569	0.70246
1023.735	-18.26301
1023.902	-41.44034
1024.068	-60.40135
1024.234	25.99279
1024.4	-39.33343
1024.566	30.20817
1024.732	-43.54722
1024.898	19.66988
1025.065	23.88513
1025.231	-18.26301
1025.397	-9.83416
1025.563	-43.54722
1025.729	23.88513
1025.895	-24.5844
1026.061	-14.04863
1026.227	-49.86771
1026.392	32.3159
1026.558	-16.15583
1026.724	-41.44034
1026.89	28.10047
1027.056	-20.37016
1027.222	-1.40491
1027.388	-24.5844
1027.553	23.88513
1027.719	-33.01256
1027.885	-51.97449
1028.051	-1.40491
1028.216	-18.26301
1028.382	-11.94141
1028.548	-11.94141
1028.713	-26.69148
1028.879	76.58356
1029.045	-18.26301
1029.21	-35.11954
1029.376	36.53143
1029.541	-77.25387
1029.707	-35.11954
1029.873	-16.15583
1030.038	-64.61464
1030.204	-9.83416
1030.369	-83.57314
1030.534	-49.86771
1030.7	-1.40491
1030.865	-26.69148
1031.031	76.58356
1031.196	-39.33343
1031.361	-43.54722
1031.527	15.45473
1031.692	9.13219
1031.857	-66.72124
1032.023	-28.79853
1032.188	-5.61958
1032.353	-41.44034
1032.518	-49.86771
1032.684	66.04272
1032.849	-43.54722
1033.014	15.45473
1033.179	-77.25387
1033.344	-62.50801
1033.509	7.02472
1033.674	-1.40491
1033.839	-7.72688
1034.004	15.45473
1034.17	25.99279
1034.335	0.70246
1034.5	-18.26301
1034.664	66.04272
1034.829	25.99279
1034.994	-9.83416
1035.159	-26.69148
1035.324	-9.83416
1035.489	-18.26301
1035.654	-14.04863
1035.819	-77.25387
1035.984	-56.18797
1036.148	-51.97449
1036.313	15.45473
1036.478	11.23968
1036.643	4.91728
1036.807	-30.90556
1036.972	-30.90556
1037.137	47.07066
1037.301	-26.69148
1037.466	-7.72688
1037.631	-22.47729
1037.795	-26.69148
1037.96	-24.5844
1038.124	2.80986
1038.289	-24.5844
1038.454	0.70246
1038.618	-85.67951
1038.783	-43.54722
1038.947	-26.69148
1039.111	-35.11954
1039.276	-56.18797
1039.44	9.13219
1039.605	38.63923
1039.769	15.45473
1039.933	-62.50801
1040.098	7.02472
1040.262	-39.33343
1040.426	36.53143
1040.591	-94.10474
1040.755	4.91728
1040.919	32.3159
1041.083	15.45473
1041.248	-43.54722
1041.412	-77.25387
1041.576	0.70246
1041.74	-26.69148
1041.904	-49.86771
1042.068	-56.18797
1042.232	-60.40135
1042.397	-14.04863
1042.561	15.45473
1042.725	-18.26301
1042.889	-41.44034
1043.053	2.80986
1043.217	-24.5844
1043.381	-26.69148
1043.544	-3.51226
1043.708	-18.26301
1043.872	49.17857
1044.036	-43.54722
1044.2	4.91728
1044.364	-16.15583
1044.528	15.45473
1044.691	-35.11954
1044.855	-62.50801
1045.019	4.91728
1045.183	-49.86771
1045.346	-85.67951
1045.51	38.63923
1045.674	-14.04863
1045.837	-22.47729
1046.001	-11.94141
1046.165	-39.33343
1046.328	-20.37016
1046.492	49.17857
1046.655	-33.01256
1046.819	19.66988
1046.983	19.66988
1047.146	32.3159
1047.31	-58.29468
1047.473	49.17857
1047.636	-5.61958
1047.8	-35.11954
1047.963	-87.78586
1048.127	-83.57314
1048.29	66.04272
