Data from absorb_only_2.23.25_USB4F045381__73__0178.txt Node

Date: Sun Feb 23 19:27:11 EST 2025
User: ssocol
Spectrometer: USB4F04538
Trigger mode: 4
Integration Time (sec): 2.600000E-3
Scans to average: 1
Electric dark correction enabled: true
Nonlinearity correction enabled: true
Boxcar width: 0
XAxis mode: Wavelengths
Number of Pixels in Spectrum: 3648
>>>>>Begin Spectral Data<<<<<
345.52	-4.2147
345.736	-4.2147
345.952	-4.2147
346.168	109.61514
346.384	0
346.6	-21.07254
346.816	4.2148
347.032	-2.10736
347.248	-16.85823
347.464	50.58386
347.68	46.36803
347.896	-2.10736
348.112	-21.07254
348.328	40.04444
348.544	-58.9969
348.76	-35.82187
348.975	16.85977
349.191	46.36803
349.407	4.2148
349.623	21.07496
349.839	59.01582
350.055	-12.64382
350.27	16.85977
350.486	-21.07254
350.702	16.85977
350.918	-56.89021
351.133	-33.71489
351.349	4.2148
351.565	-37.92881
351.781	-2.10736
351.996	46.36803
352.212	-4.2147
352.428	-12.64382
352.644	-8.42931
352.859	50.58386
353.075	-46.35635
353.291	29.5056
353.506	16.85977
353.722	-8.42931
353.938	-12.64382
354.153	31.61332
354.369	-12.64382
354.584	-88.48797
354.8	16.85977
355.016	-37.92881
355.231	25.29023
355.447	-25.28676
355.662	4.2148
355.878	-18.9654
356.093	-44.2495
356.309	-2.10736
356.524	4.2148
356.74	37.93663
356.955	-35.82187
357.171	-4.2147
357.386	12.64469
357.602	8.4297
357.817	-29.50088
358.033	-8.42931
358.248	21.07496
358.464	37.93663
358.679	50.58386
358.895	-44.2495
359.11	25.29023
359.325	84.31387
359.541	-21.07254
359.756	4.2148
359.972	-16.85823
360.187	-8.42931
360.402	-27.39383
360.618	-54.78349
360.833	-46.35635
361.048	-4.2147
361.264	-29.50088
361.479	4.2148
361.694	-37.92881
361.909	48.47593
362.125	16.85977
362.34	-21.07254
362.555	25.29023
362.77	-21.07254
362.986	-145.34911
363.201	2.10739
363.416	90.63889
363.631	23.18258
363.847	-71.63655
364.062	37.93663
364.277	-71.63655
364.492	29.5056
364.707	46.36803
364.922	113.83233
365.138	-21.07254
365.353	21.07496
365.568	31.61332
365.783	-25.28676
365.998	-54.78349
366.213	48.47593
366.428	-58.9969
366.643	-21.07254
366.858	12.64469
367.073	14.75222
367.288	4.2148
367.503	-29.50088
367.718	-27.39383
367.933	12.64469
368.148	-77.95602
368.363	31.61332
368.578	-29.50088
368.793	6.32224
369.008	37.93663
369.223	16.85977
369.438	46.36803
369.653	-29.50088
369.868	2.10739
370.083	-46.35635
370.298	46.36803
370.513	-12.64382
370.728	-67.42343
370.943	-96.91306
371.157	-52.67674
371.372	25.29023
371.587	12.64469
371.802	23.18258
372.017	-35.82187
372.232	25.29023
372.446	12.64469
372.661	12.64469
372.876	12.64469
373.091	4.2148
373.306	59.01582
373.52	-35.82187
373.735	-8.42931
373.95	-21.07254
374.165	4.2148
374.379	12.64469
374.594	63.23193
374.809	8.4297
375.023	46.36803
375.238	35.82884
375.453	-12.64382
375.667	-25.28676
375.882	16.85977
376.097	-12.64382
376.311	54.79979
376.526	-14.75104
376.741	-16.85823
376.955	-71.63655
377.17	-10.53658
377.384	-50.56997
377.599	-50.56997
377.813	109.61514
378.028	-48.46317
378.242	-21.07254
378.457	12.64469
378.672	42.15228
378.886	-21.07254
379.101	-61.10358
379.315	-50.56997
379.53	92.74727
379.744	56.90779
379.958	-12.64382
380.173	61.12386
380.387	-52.67674
380.602	21.07496
380.816	16.85977
381.031	33.72107
381.245	12.64469
381.459	27.39791
381.674	6.32224
381.888	23.18258
382.103	10.53718
382.317	-58.9969
382.531	18.96735
382.746	-27.39383
382.96	10.53718
383.174	0
383.388	-44.2495
383.603	27.39791
383.817	27.39791
384.031	25.29023
384.246	29.5056
384.46	12.64469
384.674	33.72107
384.888	-33.71489
385.103	-63.21022
385.317	29.5056
385.531	12.64469
385.745	-8.42931
385.959	12.64469
386.174	-35.82187
386.388	-31.6079
386.602	21.07496
386.816	-2.10736
387.03	2.10739
387.244	25.29023
387.458	-21.07254
387.672	-94.80682
387.887	67.44814
388.101	2.10739
388.315	88.53052
388.529	-2.10736
388.743	-37.92881
388.957	37.93663
389.171	27.39791
389.385	8.4297
389.599	25.29023
389.813	42.15228
390.027	-12.64382
390.241	-18.9654
390.455	42.15228
390.669	-46.35635
390.883	48.47593
391.097	-54.78349
391.311	-67.42343
391.525	29.5056
391.738	10.53718
391.952	-69.53
392.166	6.32224
392.38	2.10739
392.594	33.72107
392.808	12.64469
393.022	-25.28676
393.236	-80.06246
393.449	-4.2147
393.663	8.4297
393.877	-33.71489
394.091	54.79979
394.305	14.75222
394.518	23.18258
394.732	42.15228
394.946	-25.28676
395.16	-8.42931
395.373	-33.71489
395.587	-23.17966
395.801	52.69182
396.015	-4.2147
396.228	29.5056
396.442	-10.53658
396.656	29.5056
396.869	23.18258
397.083	-14.75104
397.297	-21.07254
397.51	-10.53658
397.724	23.18258
397.938	84.31387
398.151	-12.64382
398.365	12.64469
398.578	-12.64382
398.792	23.18258
399.005	23.18258
399.219	37.93663
399.433	-63.21022
399.646	-16.85823
399.86	46.36803
400.073	31.61332
400.287	2.10739
400.5	40.04444
400.714	63.23193
400.927	82.20557
401.141	23.18258
401.354	12.64469
401.567	-63.21022
401.781	8.4297
401.994	10.53718
402.208	16.85977
402.421	-21.07254
402.635	-4.2147
402.848	48.47593
403.061	-10.53658
403.275	-8.42931
403.488	16.85977
403.701	44.26014
403.915	6.32224
404.128	-33.71489
404.341	21.07496
404.555	21.07496
404.768	71.66443
404.981	-33.71489
405.195	33.72107
405.408	48.47593
405.621	-14.75104
405.834	61.12386
406.048	-31.6079
406.261	8.4297
406.474	33.72107
406.687	-77.95602
406.9	12.64469
407.114	0
407.327	-27.39383
407.54	-33.71489
407.753	31.61332
407.966	67.44814
408.179	-35.82187
408.392	48.47593
408.605	42.15228
408.819	-63.21022
409.032	105.39804
409.245	4.2148
409.458	-10.53658
409.671	50.58386
409.884	14.75222
410.097	56.90779
410.31	37.93663
410.523	73.77262
410.736	12.64469
410.949	54.79979
411.162	92.74727
411.375	-23.17966
411.588	12.64469
411.801	86.42218
412.014	8.4297
412.227	44.26014
412.44	12.64469
412.653	-12.64382
412.865	-42.14263
413.078	-8.42931
413.291	4.2148
413.504	99.07256
413.717	10.53718
413.93	-14.75104
414.143	-44.2495
414.356	-21.07254
414.568	37.93663
414.781	-46.35635
414.994	-4.2147
415.207	40.04444
415.42	33.72107
415.632	86.42218
415.845	42.15228
416.058	40.04444
416.271	14.75222
416.483	10.53718
416.696	69.55627
416.909	71.66443
417.121	-6.32202
417.334	-8.42931
417.547	6.32224
417.759	-37.92881
417.972	56.90779
418.185	-12.64382
418.397	-12.64382
418.61	-21.07254
418.823	80.0973
419.035	-46.35635
419.248	-16.85823
419.46	37.93663
419.673	75.88082
419.885	-21.07254
420.098	29.5056
420.311	-42.14263
420.523	21.07496
420.736	12.64469
420.948	33.72107
421.161	42.15228
421.373	56.90779
421.586	27.39791
421.798	4.2148
422.01	4.2148
422.223	40.04444
422.435	29.5056
422.648	-37.92881
422.86	37.93663
423.073	33.72107
423.285	-27.39383
423.497	-67.42343
423.71	54.79979
423.922	50.58386
424.134	50.58386
424.347	54.79979
424.559	4.2148
424.771	10.53718
424.984	21.07496
425.196	56.90779
425.408	6.32224
425.621	-37.92881
425.833	0
426.045	61.12386
426.257	25.29023
426.47	-18.9654
426.682	-18.9654
426.894	21.07496
427.106	-2.10736
427.318	-33.71489
427.531	2.10739
427.743	-25.28676
427.955	71.66443
428.167	50.58386
428.379	4.2148
428.591	37.93663
428.804	-40.03573
429.016	-44.2495
429.228	25.29023
429.44	14.75222
429.652	-12.64382
429.864	40.04444
430.076	12.64469
430.288	56.90779
430.5	-29.50088
430.712	16.85977
430.924	40.04444
431.136	14.75222
431.348	65.34002
431.56	-21.07254
431.772	-50.56997
431.984	-12.64382
432.196	40.04444
432.408	21.07496
432.62	-10.53658
432.832	18.96735
433.044	54.79979
433.256	0
433.468	56.90779
433.679	31.61332
433.891	4.2148
434.103	88.53052
434.315	-8.42931
434.527	71.66443
434.739	-12.64382
434.95	8.4297
435.162	2.10739
435.374	-2.10736
435.586	141.24617
435.798	21.07496
436.009	59.01582
436.221	37.93663
436.433	2.10739
436.645	31.61332
436.856	42.15228
437.068	115.94096
437.28	-18.9654
437.491	63.23193
437.703	25.29023
437.915	23.18258
438.126	65.34002
438.338	90.63889
438.55	-29.50088
438.761	-2.10736
438.973	-46.35635
439.184	-14.75104
439.396	14.75222
439.608	-8.42931
439.819	2.10739
440.031	-10.53658
440.242	6.32224
440.454	56.90779
440.665	8.4297
440.877	65.34002
441.088	12.64469
441.3	61.12386
441.511	-18.9654
441.723	80.0973
441.934	-4.2147
442.146	-14.75104
442.357	2.10739
442.569	71.66443
442.78	14.75222
442.991	42.15228
443.203	48.47593
443.414	23.18258
443.626	50.58386
443.837	31.61332
444.048	-21.07254
444.26	56.90779
444.471	-6.32202
444.682	120.15828
444.894	96.96411
445.105	103.28953
445.316	23.18258
445.528	42.15228
445.739	6.32224
445.95	21.07496
446.161	42.15228
446.373	4.2148
446.584	-6.32202
446.795	46.36803
447.006	46.36803
447.217	71.66443
447.429	46.36803
447.64	-4.2147
447.851	4.2148
448.062	-12.64382
448.273	8.4297
448.484	12.64469
448.695	-21.07254
448.907	71.66443
449.118	-4.2147
449.329	4.2148
449.54	50.58386
449.751	37.93663
449.962	12.64469
450.173	84.31387
450.384	59.01582
450.595	80.0973
450.806	82.20557
451.017	46.36803
451.228	67.44814
451.439	71.66443
451.65	77.98905
451.861	4.2148
452.072	-12.64382
452.283	37.93663
452.494	107.50658
452.705	73.77262
452.915	-21.07254
453.126	88.53052
453.337	-8.42931
453.548	59.01582
453.759	29.5056
453.97	-18.9654
454.181	-2.10736
454.391	-4.2147
454.602	96.96411
454.813	25.29023
455.024	-10.53658
455.235	6.32224
455.445	71.66443
455.656	37.93663
455.867	14.75222
456.078	82.20557
456.288	75.88082
456.499	50.58386
456.71	44.26014
456.921	59.01582
457.131	-2.10736
457.342	-29.50088
457.553	96.96411
457.763	101.18103
457.974	65.34002
458.184	59.01582
458.395	29.5056
458.606	96.96411
458.816	67.44814
459.027	63.23193
459.237	63.23193
459.448	14.75222
459.659	73.77262
459.869	-8.42931
460.08	4.2148
460.29	16.85977
460.501	37.93663
460.711	77.98905
460.922	14.75222
461.132	86.42218
461.343	96.96411
461.553	92.74727
461.764	16.85977
461.974	67.44814
462.184	56.90779
462.395	46.36803
462.605	31.61332
462.816	61.12386
463.026	37.93663
463.236	105.39804
463.447	54.79979
463.657	172.88198
463.867	99.07256
464.078	56.90779
464.288	46.36803
464.498	84.31387
464.709	92.74727
464.919	-37.92881
465.129	42.15228
465.339	54.79979
465.55	88.53052
465.76	77.98905
465.97	46.36803
466.18	134.91958
466.391	92.74727
466.601	29.5056
466.811	88.53052
467.021	48.47593
467.231	88.53052
467.441	99.07256
467.651	35.82884
467.862	166.55444
468.072	124.37568
468.282	132.81075
468.492	96.96411
468.702	141.24617
468.912	82.20557
469.122	71.66443
469.332	126.48442
469.542	149.68192
469.752	132.81075
469.962	90.63889
470.172	103.28953
470.382	101.18103
470.592	147.57295
470.802	164.4453
471.012	126.48442
471.222	156.00896
471.432	132.81075
471.642	50.58386
471.852	210.85109
472.062	88.53052
472.272	143.35507
472.482	151.79091
472.691	128.59318
472.901	141.24617
473.111	164.4453
473.321	147.57295
473.531	147.57295
473.741	189.75633
473.95	257.26651
474.16	189.75633
474.37	191.86571
474.58	229.83807
474.79	156.00896
474.999	181.31899
475.209	166.55444
475.419	269.92688
475.628	282.58793
475.838	250.93658
476.048	307.91202
476.258	219.28955
476.467	307.91202
476.677	225.6186
476.886	265.70668
477.096	335.34939
477.306	392.34408
477.515	299.47036
477.725	383.89964
477.935	320.57505
478.144	371.23349
478.354	335.34939
478.563	379.67753
478.773	426.12445
478.982	436.68165
479.192	345.90302
479.401	400.78878
479.611	394.45523
479.82	489.47348
480.03	413.45632
480.239	421.90167
480.449	493.69724
480.658	485.24979
480.868	538.05013
481.077	523.26513
481.287	542.27454
481.496	565.50978
481.705	590.85917
481.915	540.16233
482.124	586.63414
482.333	624.66125
482.543	542.27454
482.752	662.69239
482.961	704.95367
483.171	768.3538
483.38	643.67633
483.589	903.63637
483.799	694.38792
484.008	806.39826
484.217	734.53922
484.426	903.63637
484.636	810.62562
484.845	950.14763
485.054	810.62562
485.263	964.94741
485.472	901.52231
485.682	964.94741
485.891	943.80498
486.1	909.9786
486.309	950.14763
486.518	994.54797
486.727	1000.89111
486.936	1189.09338
487.146	1060.09644
487.355	1106.61795
487.564	1093.93002
487.773	1146.79749
487.982	1051.63825
488.191	1138.33851
488.4	1180.63408
488.609	1383.66929
488.818	1165.83045
489.027	1280.03409
489.236	1233.5056
489.445	1383.66929
489.654	1275.80418
489.863	1474.61638
490.072	1434.43039
490.281	1472.50133
490.49	1425.97019
490.698	1432.31534
490.907	1392.12945
491.116	1603.63293
491.325	1390.01441
491.534	1565.56294
491.743	1620.55273
491.952	1474.61638
492.16	1493.65183
492.369	1669.19636
492.578	1808.77338
492.787	1698.80484
492.996	1593.05799
493.204	1899.70017
493.413	1700.91971
493.622	1755.90515
493.831	1741.10161
494.039	1963.13168
494.248	1855.29519
494.457	1986.38856
494.665	1817.23206
494.874	1937.7597
495.083	2115.34386
495.291	2199.88952
495.5	1914.50131
495.709	2003.30218
495.917	1876.4407
496.126	2250.61047
496.335	2117.45765
496.543	2180.86789
496.752	2007.53052
496.96	2140.70891
497.169	2087.86381
497.377	2254.83699
497.586	2147.04999
497.794	2163.9592
498.003	2284.42157
498.211	2337.2466
498.42	2330.90792
498.628	2548.48231
498.837	2379.50222
499.045	2535.81128
499.254	2136.48148
499.462	2449.21498
499.671	2354.14933
499.879	2569.59974
500.087	2523.13984
500.296	2404.85364
500.504	2499.90779
500.713	2525.25178
500.921	2421.75375
501.129	2687.83492
501.338	2464.00104
501.546	2742.7163
501.754	2565.37635
501.962	2556.92942
502.171	2719.49833
502.379	2913.63408
502.587	2719.49833
502.795	2839.79196
503.004	2578.04638
503.212	2854.56178
503.42	2670.94658
503.628	2818.69103
503.837	2835.57188
504.045	2896.75743
504.253	2983.24032
504.461	2983.24032
504.669	2837.68193
504.877	3004.3299
505.085	2789.14739
505.294	3135.05086
505.502	2987.45835
505.71	3094.99763
505.918	2928.40038
506.126	3046.5045
506.334	2987.45835
506.542	3181.42104
506.75	2848.23194
506.958	3105.53851
507.166	3023.30923
507.374	3109.75475
507.582	3113.97093
507.79	3276.24431
507.998	3288.88485
508.206	3400.516
508.414	3316.27057
508.622	3282.56466
508.83	3240.42616
509.037	3459.47103
509.245	3225.6761
509.453	3528.93562
509.661	3274.1375
509.869	3514.20236
510.077	3147.69805
510.285	3307.8445
510.492	3354.18446
510.7	3459.47103
510.908	3436.31179
511.116	3451.04974
511.324	3440.52272
511.531	3400.516
511.739	3194.06609
511.947	3518.41195
512.155	3400.516
512.362	3560.50385
512.57	3552.08606
512.778	3596.27613
512.985	3661.49401
513.193	3653.07982
513.401	3672.01131
513.608	3596.27613
513.816	3608.90036
514.024	3552.08606
514.231	3558.39943
514.439	3663.59751
514.646	3484.73317
514.854	3745.61905
515.061	3627.83543
515.269	3806.59033
515.477	3621.52391
515.684	3766.64549
515.892	3596.27613
516.099	3905.3706
516.307	3617.31614
516.514	3836.01883
516.722	3814.99887
516.929	3928.483
517.136	3762.44036
517.344	4054.50738
517.551	3972.59989
517.759	4056.60716
517.966	3968.39867
518.173	4134.28441
518.381	4010.40723
518.588	4056.60716
518.796	3905.3706
519.003	4132.1854
519.21	4065.00607
519.418	4270.67474
519.625	3966.29803
519.832	4251.79528
520.039	4016.7078
520.247	4245.50174
520.454	4046.10805
520.661	4463.56444
520.868	3943.18963
521.076	4461.46881
521.283	4333.59371
521.49	4249.69746
521.697	4505.47253
521.904	4469.85122
522.112	4228.71804
522.319	4509.66285
522.526	4373.43235
522.733	4622.76805
522.94	4430.03164
523.147	4509.66285
523.354	4526.42326
523.561	4562.03443
523.768	4226.61998
523.975	4643.70632
524.183	4400.68584
524.39	4404.87836
524.597	4528.51821
524.804	4915.6983
525.011	4614.39211
525.218	4861.33065
525.425	4771.38107
525.632	4838.3243
525.838	4756.73414
526.045	4654.17461
526.252	4693.94902
526.459	4629.04976
526.666	4698.13532
526.873	4844.59904
527.08	4765.10395
527.287	5020.20783
527.494	4706.50767
527.701	4865.51333
527.907	4702.32154
528.114	5061.9955
528.321	4886.42533
528.528	5168.51209
528.735	4997.22067
528.941	4982.59103
529.148	4988.86102
529.355	5126.74807
529.562	4974.23073
529.768	5293.74818
529.975	4804.8556
530.182	5105.86258
530.388	4844.59904
530.595	5147.63124
530.802	4905.24418
531.008	5279.14163
531.215	5082.88586
531.422	5443.92025
531.628	5170.60004
531.835	5122.57116
532.042	5120.48267
532.248	5446.00512
532.455	5189.3906
532.661	5475.19077
532.868	5216.52918
533.074	5612.71815
533.281	5187.30285
533.487	5641.87743
533.694	5289.57499
533.9	5637.7121
534.107	5329.21643
534.313	5556.46936
534.52	5441.83536
534.726	5493.95055
534.933	5543.96729
535.139	5602.303
535.345	5621.04984
535.552	5879.14507
535.758	5425.1554
535.965	5822.97782
536.171	5741.81698
536.377	5891.62435
536.584	5662.70265
536.79	5770.95577
536.996	5814.65528
537.203	5806.33237
537.409	5770.95577
537.615	5949.84973
537.821	5698.10011
538.028	6114.02891
538.234	5775.11808
538.44	6141.03167
538.646	5945.69139
538.853	5978.9555
539.059	5754.3056
539.265	6014.292
539.471	5835.46092
539.677	5906.18243
539.883	5881.22501
540.09	6105.71957
540.296	5964.40319
540.502	6259.38153
540.708	6001.82107
540.914	6253.15449
541.12	6114.02891
541.326	6246.92724
541.532	5924.89826
541.738	6149.33941
541.944	5972.71894
542.15	6149.33941
542.356	6076.63392
542.562	6423.28458
542.768	6230.3202
542.974	6288.43827
543.18	6286.36294
543.386	6466.82927
543.592	6195.02527
543.798	6676.11574
544.004	6454.38898
544.21	6711.31905
544.415	6155.56997
544.621	6495.85337
544.827	6400.47136
545.033	6611.90436
545.239	6234.4721
545.445	6661.61833
545.651	6475.12233
545.856	6725.8126
546.062	6541.45348
546.268	6522.80025
546.474	6417.06307
546.679	6284.28759
546.885	6369.35789
547.091	6651.26235
547.297	6408.7674
547.502	6464.75594
547.708	6506.21802
547.914	6734.09413
548.119	6783.77559
548.325	6862.41102
548.531	6576.68226
548.736	6883.0991
548.942	6729.95341
549.147	6721.6717
549.353	6773.42637
549.559	6732.02378
549.764	6752.72622
549.97	6655.40481
550.175	6814.81982
550.381	7044.38845
550.586	6597.40195
550.792	7158.036
550.997	6624.3341
551.203	7046.45537
551.408	7073.32333
551.614	6965.82873
551.819	6930.67306
552.025	7131.17994
552.23	6798.26354
552.435	7180.75742
552.641	7215.86706
552.846	7205.54136
553.052	6986.50549
553.257	7182.82287
553.462	7118.78357
553.668	7207.60655
553.873	6874.82414
554.078	7407.82485
554.283	7160.10169
554.489	7327.34951
554.694	7284.00285
554.899	7122.91578
555.105	7182.82287
555.31	7308.77356
555.515	7331.47726
555.72	7414.01389
555.925	7244.77609
556.131	7741.75608
556.336	7286.0672
556.541	7546.00032
556.746	7347.98738
556.951	7399.5725
557.156	7273.68079
557.361	7502.70201
557.567	7424.32852
557.772	7531.5686
557.977	7300.517
558.182	7436.70536
558.387	7496.51576
558.592	7721.1592
558.797	7673.7784
559.002	7589.28917
559.207	7420.20273
559.412	7700.56023
559.617	7494.45364
559.822	7589.28917
560.027	7469.70645
560.232	7558.36952
560.437	7626.3864
560.642	7902.34001
560.847	7712.91987
561.051	7749.99424
561.256	7566.61523
561.461	7778.82516
561.666	7628.44716
561.871	7609.89959
562.076	7661.41635
562.281	7793.23909
562.485	7638.75061
562.69	7859.11831
562.895	7667.59747
563.1	7743.81565
563.305	7785.00268
563.509	7982.5848
563.714	7717.03958
563.919	7842.6505
564.123	7749.99424
564.328	7980.52763
564.533	7881.75938
564.737	7832.35744
564.942	7815.88747
565.147	7865.29339
565.351	7964.06953
565.556	8036.06405
565.761	7900.28204
565.965	8058.68576
566.17	7978.47044
566.374	7887.93379
566.579	7857.0599
566.784	7914.68739
566.988	7873.52655
567.193	8231.35321
567.397	8155.31469
567.602	8159.42557
567.806	7966.12687
568.011	8054.57291
568.215	8066.91123
568.42	8243.68123
568.624	8066.91123
568.828	8182.03403
569.033	8221.07932
569.237	8332.01129
569.442	8202.58508
569.646	7945.55262
569.85	8128.59197
570.055	8256.00853
570.259	8085.41736
570.463	8134.75905
570.668	8122.42471
570.872	8235.46263
571.076	8071.02385
571.281	8173.81305
571.485	8371.02934
571.689	8393.61554
571.893	8303.25664
572.098	8301.20259
572.302	8321.74221
572.506	8461.36014
572.71	8295.04032
572.914	8621.40131
573.119	8208.75
573.323	8485.98937
573.527	8541.3951
573.731	8602.94087
573.935	8572.1701
574.139	8760.83158
574.343	8321.74221
574.547	8771.08045
574.751	8490.09397
574.955	8650.11454
575.159	8598.83834
575.364	8465.4652
575.568	8578.32459
575.772	8717.78133
575.976	8527.03198
576.18	8643.96201
576.383	8485.98937
576.587	8832.56412
576.791	8697.27837
576.995	8771.08045
577.199	8568.06701
577.403	8613.19686
577.607	8637.80931
577.811	8572.1701
578.015	8375.1361
578.219	8764.93118
578.422	8656.2669
578.626	8822.31797
578.83	8668.57112
579.034	8920.66241
579.238	8801.82432
579.442	8961.62713
579.645	8713.68089
579.849	8801.82432
580.053	8672.67237
580.257	8955.48287
580.46	8992.34602
580.664	9090.62002
580.868	9018.96587
581.071	8928.85592
581.275	8828.46571
581.479	8928.85592
581.682	8959.57906
581.886	8760.83158
582.09	8840.76071
582.293	9115.18228
582.497	8775.17987
582.7	9160.20665
582.904	9010.77546
583.107	9106.99513
583.311	8816.17007
583.515	9172.48459
583.718	8957.53097
583.922	9197.03863
584.125	9287.04933
584.329	9227.72776
584.532	9068.10244
584.735	9156.11387
584.939	8988.2504
585.142	9201.13074
585.346	9035.34584
585.549	9149.97457
585.753	9442.44669
585.956	9278.86788
586.159	9250.23071
586.363	9415.87227
586.566	9225.68194
586.769	9276.82248
586.973	9139.74205
587.176	9419.96082
587.379	9287.04933
587.582	9542.58739
587.786	9336.13245
587.989	9511.93615
588.192	9266.59521
588.395	9383.16151
588.599	9426.09353
588.802	9483.3251
589.005	9162.25302
589.208	9505.80548
589.411	9272.73162
589.615	9229.77357
589.818	9344.31204
590.021	9648.81754
590.224	9280.91327
590.427	9522.15363
590.63	9413.82797
590.833	9644.73254
591.036	9434.27024
591.239	9638.60494
591.442	9697.83263
591.645	9712.12703
591.848	9744.79713
592.051	10012.13961
592.254	9669.24157
592.457	9481.28133
592.66	9552.80368
592.863	9642.69002
593.066	9540.54409
593.269	9736.62997
593.472	9722.33686
593.675	9769.29715
593.878	9648.81754
594.081	9946.85786
594.284	9599.79351
594.486	9834.61991
594.689	9673.3262
594.892	9699.87474
595.095	9703.9589
595.298	9889.72411
595.5	9587.53609
595.703	10110.03478
595.906	10036.61647
596.109	10211.97459
596.311	9932.57549
596.514	9869.31641
596.717	9795.83638
596.92	9769.29715
597.122	9771.33872
597.325	10054.97277
597.528	9987.66068
597.73	10234.39672
597.933	10042.73536
598.136	10281.27406
598.338	9920.3329
598.541	9993.78061
598.743	9979.50058
598.946	10091.68192
599.148	9997.86049
599.351	10181.39627
599.554	10220.12828
599.756	10028.45774
599.959	10158.97021
600.161	10140.62036
600.363	10101.87809
600.566	10472.78659
600.768	10240.51157
600.971	10531.8471
601.173	10354.63303
601.376	10434.08593
601.578	10232.35842
601.78	10309.80461
601.983	10224.20505
602.185	10230.32009
602.388	10179.35761
602.59	10509.44609
602.792	10283.31205
602.995	10690.64724
603.197	10385.1942
603.399	10346.48289
603.601	10118.19124
603.804	9924.41382
604.006	10158.97021
604.208	10218.08988
604.41	10197.70509
604.613	10254.77906
604.815	10207.89766
605.017	10385.1942
605.219	10383.15688
605.421	10260.89349
605.623	10242.54982
605.826	10444.27076
606.028	10482.9702
606.23	10413.71528
606.432	10283.31205
606.634	10753.73947
606.836	10350.55799
607.038	10554.24657
607.24	10234.39672
607.442	10692.68265
607.644	10313.88018
607.846	10574.60841
608.048	10525.73788
608.25	10700.82418
608.452	10403.52948
608.654	10546.10148
608.856	10315.91795
609.058	10578.68063
609.26	10423.90077
609.462	10599.04097
609.664	10523.70146
609.866	10753.73947
610.067	10472.78659
610.269	10248.6645
610.471	10395.38059
610.673	10370.93269
610.875	10132.46452
611.077	10576.64453
611.278	10344.44532
611.48	10560.35526
611.682	10372.97009
611.884	10778.15918
612.085	10389.26879
612.287	10755.77451
612.489	10366.85785
612.69	10704.89488
612.892	10485.00688
613.094	10717.10667
613.295	10379.0822
613.497	10432.04892
613.699	10358.70802
613.9	10533.88348
614.102	10564.42765
614.304	10466.67626
614.505	10303.69114
614.707	10607.18476
614.908	10250.7027
615.11	10432.04892
615.311	10350.55799
615.513	10570.53614
615.714	10501.29989
615.916	10370.93269
616.117	10377.04484
616.319	10879.88979
616.52	10605.14883
616.722	10619.40007
616.923	10778.15918
617.124	10590.89698
617.326	10513.51912
617.527	10818.85493
617.729	10782.22897
617.93	10599.04097
618.131	10558.31904
618.333	10682.50546
618.534	10690.64724
618.735	10898.19822
618.937	10438.1599
619.138	10739.49384
619.339	10599.04097
619.54	10733.38839
619.742	10478.89679
619.943	10672.32796
620.144	10786.29871
620.345	10865.64925
620.546	10366.85785
620.748	10662.15017
620.949	10649.9364
621.15	10794.43804
621.351	10656.04334
621.552	10676.399
621.753	10574.60841
621.954	10780.19408
622.155	10205.85917
622.356	10717.10667
622.558	10776.12427
622.759	10706.93021
622.96	10537.9562
623.161	10749.66935
623.362	10356.67053
623.563	10873.78677
623.764	10568.49999
623.965	10739.49384
624.166	10647.90074
624.366	10647.90074
624.567	10611.25658
624.768	10796.47285
624.969	10476.86007
625.17	10749.66935
625.371	10509.44609
625.572	10708.96553
625.773	10395.38059
625.973	10778.15918
626.174	10651.97206
626.375	10637.7222
626.576	10590.89698
626.777	11026.33158
626.977	10635.68646
627.178	10910.40333
627.379	10643.82936
627.58	10961.25354
627.78	10649.9364
627.981	10959.21967
628.182	10658.07896
628.382	10770.01947
628.583	10843.27013
628.784	10729.31804
628.984	10489.08021
629.185	10951.08406
629.386	10704.89488
629.586	10867.68365
629.787	10448.34461
629.987	10639.75793
630.188	10554.24657
630.388	10535.91984
630.589	10617.36422
630.79	10885.9927
630.99	10875.82112
631.191	10949.05013
631.391	10580.71672
631.591	10672.32796
631.792	10806.6467
631.992	10751.70441
632.193	10949.05013
632.393	11046.66614
632.594	10601.07694
632.794	10843.27013
632.994	10668.25688
633.195	10900.23244
633.395	10829.02813
633.595	10786.29871
633.796	11012.09673
633.996	11132.05942
634.196	10790.3684
634.397	11069.0329
634.597	10802.57719
634.797	11054.79966
634.997	11119.86154
635.198	11170.68349
635.398	11127.9935
635.598	10953.11798
635.798	10949.05013
635.998	10867.68365
636.199	10662.15017
636.399	10940.9143
636.599	10983.6254
636.799	10997.86134
636.999	10875.82112
637.199	10835.13191
637.399	10537.9562
637.599	10930.74426
637.799	10686.57637
637.999	11134.09236
638.199	10926.67617
638.399	11034.46554
638.599	10702.85954
638.799	10932.77829
638.999	10800.54242
639.199	11038.53245
639.399	10794.43804
639.599	10924.6421
639.799	10753.73947
639.999	10877.85546
640.199	10822.92424
640.399	11046.66614
640.599	10491.11686
640.799	11211.3363
640.998	10967.35509
641.198	11219.46635
641.398	10973.45654
641.598	11359.68404
641.798	10910.40333
641.997	11062.933
642.197	10987.69287
642.397	11130.02647
642.597	10999.895
642.796	11172.71623
642.996	11064.96631
643.196	11479.54267
643.395	11050.73292
643.595	11363.7476
643.795	11127.9935
643.994	11089.36517
644.194	10942.94828
644.394	11201.17349
644.593	11127.9935
644.793	10910.40333
644.992	11062.933
645.192	11127.9935
645.392	11050.73292
645.591	11365.77937
645.791	11251.98493
645.99	11422.66484
646.19	11058.86635
646.389	11138.15821
646.589	11071.06617
646.788	11052.7663
646.987	11044.63274
647.187	11392.19144
647.386	11101.56401
647.586	11262.14644
647.785	11225.56379
647.984	11369.84287
648.184	11079.19917
648.383	11351.55679
648.582	11066.99961
648.782	11432.82215
648.981	11351.55679
649.18	11312.95018
649.38	11312.95018
649.579	11603.4293
649.778	11209.30376
649.977	11526.25812
650.177	11312.95018
650.376	11300.75786
650.575	11274.33992
650.774	11489.69863
650.973	11359.68404
651.173	11355.62043
651.372	11221.49884
651.571	11442.97922
651.77	11225.56379
651.969	11536.413
652.168	11587.18385
652.367	11445.0106
652.566	11162.55243
652.765	11237.75838
652.964	11262.14644
653.163	11473.44898
653.362	11438.91642
653.561	11520.16509
653.76	11347.49311
653.959	11471.41773
654.158	11282.4687
654.357	11262.14644
654.556	11152.38836
654.755	11534.38204
654.954	11298.72577
655.153	11363.7476
655.352	11233.69356
655.551	11449.07334
655.749	11375.93805
655.948	11449.07334
656.147	11197.10829
656.346	11461.26133
656.545	11314.98219
656.743	11229.62869
656.942	11294.66157
657.141	11749.61234
657.34	11317.0142
657.538	11615.61301
657.737	11461.26133
657.936	11719.16134
658.135	11386.09649
658.333	11416.57033
658.532	11629.82691
658.731	11522.19611
658.929	11394.22307
659.128	11449.07334
659.326	11426.72779
659.525	11711.04074
659.724	11676.52662
659.922	11733.37205
660.121	11406.41263
660.319	11420.63335
660.518	11201.17349
660.716	11503.91658
660.915	11233.69356
661.113	11711.04074
661.312	11304.82201
661.51	11314.98219
661.709	11195.07568
661.907	11526.25812
662.105	11327.17409
662.304	11635.91845
662.502	11119.86154
662.701	11493.76095
662.899	11558.75289
663.097	11461.26133
663.296	11442.97922
663.494	11668.40527
663.692	11524.22712
663.891	11390.1598
664.089	11363.7476
664.287	11607.49058
664.485	11209.30376
664.684	11542.50581
664.882	11424.69632
665.08	11469.38647
665.278	11327.17409
665.476	11473.44898
665.675	11062.933
665.873	11499.85435
666.071	11266.21098
666.269	11306.85406
666.467	11321.07819
666.665	11528.28912
666.863	11408.44419
667.061	11579.06091
667.259	11392.19144
667.457	11629.82691
667.655	11412.50728
667.853	11467.3552
668.051	11339.36562
668.249	11453.13605
668.447	11487.66746
668.645	11532.35108
668.843	11440.94782
669.041	11447.04198
669.239	11054.79966
669.437	11371.87461
669.635	11445.0106
669.833	11501.88547
670.031	11371.87461
670.229	11349.52495
670.426	11501.88547
670.624	11463.29263
670.822	11073.09944
671.02	11239.79077
671.218	11570.93781
671.415	11530.3201
671.613	11138.15821
671.811	11314.98219
672.009	11205.23864
672.206	11440.94782
672.404	11308.88611
672.602	11510.00984
672.799	11168.65074
672.997	11457.19871
673.195	11178.81439
673.392	11373.90634
673.59	11184.91245
673.788	11308.88611
673.985	11237.75838
674.183	11648.10128
674.38	10989.72659
674.578	11249.9526
674.775	11071.06617
674.973	11221.49884
675.17	11127.9935
675.368	11140.19112
675.565	11160.51963
675.763	11339.36562
675.96	10883.95841
676.158	11268.24323
676.355	11014.13031
676.553	11367.81112
676.75	10989.72659
676.947	11026.33158
677.145	10833.09733
677.342	11243.85553
677.539	11156.45402
677.737	11404.38106
677.934	11302.78994
678.131	11457.19871
678.329	11087.33199
678.526	11272.3077
678.723	11164.58521
678.92	11319.0462
679.118	11081.23239
679.315	11140.19112
679.512	10853.44263
679.709	11020.231
679.906	10863.61485
680.104	11384.06483
680.301	10989.72659
680.498	11087.33199
680.695	10965.32125
680.892	11034.46554
681.089	11249.9526
681.286	11168.65074
681.483	11091.39833
681.68	11087.33199
681.877	10698.78882
682.075	10810.71615
682.272	10696.75344
682.469	10969.38892
682.665	10615.32835
682.862	11005.99592
683.059	11005.99592
683.256	10997.86134
683.453	10934.81231
683.65	10879.88979
683.847	10786.29871
684.044	11056.83301
684.241	10700.82418
684.438	11064.96631
684.635	10749.66935
684.831	10975.49034
685.028	10869.71804
685.225	11008.02953
685.422	10617.36422
685.619	10788.33356
685.815	10509.44609
686.012	10763.91456
686.209	10531.8471
686.405	11056.83301
686.602	10969.38892
686.799	10723.21241
686.996	10790.3684
687.192	10816.82025
687.389	10688.61181
687.586	10794.43804
687.782	10566.46383
687.979	10892.09551
688.175	10487.04355
688.372	10503.33646
688.568	10576.64453
688.765	10853.44263
688.962	10409.641
689.158	10782.22897
689.355	10546.10148
689.551	10755.77451
689.748	10560.35526
689.944	10812.75086
690.14	10680.46998
690.337	10666.22132
690.533	10464.63947
690.73	10535.91984
690.926	10837.16648
691.123	10635.68646
691.319	10478.89679
691.515	10727.28284
691.712	10224.20505
691.908	10558.31904
692.104	10552.21032
692.301	10733.38839
692.497	10594.969
692.693	10631.61494
692.889	10301.65329
693.086	10487.04355
693.282	10599.04097
693.478	10617.36422
693.674	10450.38151
693.87	10674.36349
694.067	10403.52948
694.263	10460.56583
694.459	10220.12828
694.655	10664.18575
694.851	10554.24657
695.047	10517.59209
695.243	10368.89528
695.439	10181.39627
695.635	10044.77497
695.831	10244.58806
696.027	10430.0119
696.224	10413.71528
696.42	10126.34748
696.615	10305.72898
696.811	10193.62797
697.007	10328.14429
697.203	10281.27406
697.399	10260.89349
697.595	10242.54982
697.791	10550.17405
697.987	10107.99563
698.183	10393.34334
698.379	9987.66068
698.575	10264.96971
698.77	9995.82056
698.966	10142.65929
699.162	10044.77497
699.358	10089.64264
699.554	9873.39807
699.749	10057.01228
699.945	9869.31641
700.141	10171.20282
700.337	10095.76043
700.532	10295.53966
700.728	10372.97009
700.924	10330.18196
701.119	10046.81456
701.315	10185.47356
701.511	9938.69659
701.706	10161.00901
701.902	9940.73693
702.097	10199.74363
702.293	9822.37306
702.489	10020.29879
702.684	9891.7648
702.88	10203.82067
703.075	10152.85372
703.271	9859.112
703.466	9873.39807
703.662	10018.25902
703.857	9781.54634
704.053	10158.97021
704.248	9850.94821
704.443	10220.12828
704.639	10024.3783
704.834	10256.81721
705.03	10120.23032
705.225	9993.78061
705.42	9857.07108
705.616	9946.85786
705.811	9675.36848
706.006	9861.15291
706.202	9789.71217
706.397	10044.77497
706.592	9855.03014
706.787	10120.23032
706.983	9944.81756
707.178	9991.74065
707.373	9952.97865
707.568	10077.40668
707.763	9881.56121
707.959	10134.5035
708.154	9840.74314
708.349	9669.24157
708.544	9464.93061
708.739	9763.17235
708.934	9581.40717
709.129	9724.37878
709.324	9948.89814
709.519	10114.11304
709.714	9618.17857
709.909	10026.41803
710.104	9513.97968
710.299	9763.17235
710.494	9687.62189
710.689	9830.53769
710.884	9638.60494
711.079	10065.17021
711.274	9669.24157
711.469	9873.39807
711.664	9624.30665
711.859	9950.9384
712.054	9546.67395
712.249	9681.49525
712.443	9415.87227
712.638	9779.50485
712.833	9436.31438
713.028	9667.19924
713.223	9442.44669
713.417	9626.34931
713.612	9518.06669
713.807	9485.36885
714.002	9483.3251
714.196	9799.91911
714.391	9691.70623
714.586	9599.79351
714.78	9460.84277
714.975	9816.24944
715.17	9354.53616
715.364	9565.0627
715.559	9646.77505
715.754	9495.58736
715.948	9203.17676
716.143	9213.40664
716.337	9383.16151
716.532	9620.22128
716.726	9444.49077
716.921	9595.70777
717.115	9440.40261
717.31	9585.49314
717.504	9368.84924
717.699	9305.45662
717.893	9162.25302
718.088	9466.97451
718.282	9387.25058
718.476	9654.94491
718.671	9252.27633
718.865	9407.69497
719.059	9268.6407
719.254	9446.53482
719.448	9242.04805
719.642	9397.47298
719.837	9186.80808
720.031	9372.93854
720.225	9244.09374
720.419	9436.31438
720.614	9207.26877
720.808	9194.99256
721.002	9113.13552
721.196	9147.9281
721.39	9012.82309
721.585	9344.31204
721.779	9119.27574
721.973	9383.16151
722.167	8963.67518
722.361	9313.63721
722.555	9117.22902
722.749	9074.2438
722.943	9031.25095
723.137	9049.6774
723.331	8674.72298
723.525	8986.20256
723.719	9064.0081
723.913	8783.37849
724.107	8896.08017
724.301	9276.82248
724.495	8582.42749
724.689	8867.39764
724.883	8762.88139
725.077	8990.29822
725.271	8725.982
725.465	8576.27312
725.659	8719.83153
725.853	9248.18507
726.046	8920.66241
726.24	9285.004
726.434	8832.56412
726.628	9012.82309
726.822	8898.12879
727.015	9072.1967
727.209	8805.9232
727.403	8789.52727
727.596	8709.58037
727.79	8920.66241
727.984	8752.63216
728.177	9096.76082
728.371	8906.32308
728.565	8822.31797
728.758	8848.95701
728.952	8939.09741
729.146	8658.31765
729.339	9127.46247
729.533	8836.66245
729.726	9008.72781
729.92	8973.91516
730.113	9041.48804
730.307	8935.00087
730.5	9450.62289
730.694	9043.53541
730.887	9070.14958
731.081	9166.3457
731.274	8973.91516
731.468	8961.62713
731.661	9188.85423
731.854	8953.43475
732.048	8891.98288
732.241	8625.50342
732.435	8828.46571
732.628	9137.6955
732.821	8990.29822
733.014	8939.09741
733.208	8699.32875
733.401	8828.46571
733.594	8805.9232
733.788	8643.96201
733.981	8777.22955
734.174	8613.19686
734.367	8412.09342
734.56	8740.33247
734.754	8730.08223
734.947	8666.52046
735.14	8791.57682
735.333	8643.96201
735.526	8721.88171
735.719	8658.31765
735.912	8613.19686
736.105	8512.66793
736.298	8701.37911
736.491	8541.3951
736.684	8613.19686
736.877	8779.27922
737.07	8670.62176
737.263	8742.38246
737.456	8906.32308
737.649	8678.82412
737.842	8756.7319
738.035	8621.40131
738.228	8625.50342
738.421	8867.39764
738.614	8631.65645
738.807	8617.29912
739	8463.41268
739.192	8401.82812
739.385	8506.51162
739.578	8323.79606
739.771	8389.50913
739.964	8432.62256
740.156	8377.18944
740.349	8346.38717
740.542	8325.8499
740.735	8297.09443
740.927	8580.37605
741.12	8670.62176
741.313	8574.22162
741.505	8455.2024
741.698	8473.6751
741.891	8276.55246
742.083	8430.56974
742.276	8352.54798
742.468	8557.80896
742.661	8494.1985
742.854	8527.03198
743.046	8297.09443
743.239	8284.76949
743.431	8325.8499
743.624	8204.64007
743.816	8229.29847
744.009	8295.04032
744.201	8239.57197
744.393	8266.28074
744.586	7931.14942
744.778	8303.25664
744.971	8093.64178
745.163	8171.75776
745.355	8169.70244
745.548	8286.82369
745.74	8262.17192
745.932	8297.09443
746.125	8186.1444
746.317	8457.255
746.509	8219.02449
746.702	8282.71526
746.894	7951.72511
747.086	8128.59197
747.278	8179.97881
747.471	8161.48099
747.663	7844.70905
747.855	8346.38717
748.047	8147.09267
748.239	8223.13414
748.431	8116.25727
748.623	8364.86906
748.815	8202.58508
749.008	8292.98619
749.2	8229.29847
749.392	8288.87788
749.584	8278.60675
749.776	8459.30758
749.968	8280.66101
750.16	8563.96385
750.352	8424.41114
750.544	8229.29847
750.736	8083.3612
750.928	8105.9778
751.12	8017.55356
751.311	7951.72511
751.503	8046.34695
751.695	8091.5857
751.887	7634.62929
752.079	7976.41323
752.271	7807.65199
752.463	8048.40347
752.654	7980.52763
752.846	8038.12068
753.038	7850.88457
753.23	7859.11831
753.421	8031.95075
753.613	7968.18418
753.805	8075.13638
753.997	7875.58479
754.188	7902.34001
754.38	7714.97973
754.572	7949.66763
754.763	7924.97631
754.955	7976.41323
755.146	7988.75618
755.338	7836.47473
755.53	7974.35599
755.721	8120.36892
755.913	7787.06182
756.104	7484.14269
756.296	7904.39796
756.487	7721.1592
756.679	7848.82608
756.87	7799.41617
757.062	7807.65199
757.253	7815.88747
757.445	7690.25995
757.636	7717.03958
757.827	7560.43098
758.019	7248.9056
758.21	7552.18502
758.401	7444.95615
758.593	7469.70645
758.784	7762.35085
758.975	7531.5686
759.167	7587.22801
759.358	7510.95004
759.549	7550.12347
759.74	7609.89959
759.932	7323.22167
760.123	7469.70645
760.314	7275.74525
760.505	7420.20273
760.696	7189.01909
760.888	7362.43259
761.079	7302.58118
761.27	7449.08142
761.461	7356.24192
761.652	7535.69206
761.843	7281.93848
762.034	7350.05105
762.225	7321.15772
762.416	7166.29864
762.607	6974.09971
762.798	7255.09969
762.989	7067.12337
763.18	7323.22167
763.371	6949.2857
763.562	7034.0535
763.753	7093.98842
763.944	6924.46844
764.135	6849.99709
764.326	7073.32333
764.517	6825.16676
764.708	7083.65615
764.899	7050.58915
765.089	7050.58915
765.28	6750.65608
765.471	7003.04528
765.662	6835.51313
765.853	7000.97789
766.043	6924.46844
766.234	6932.74122
766.425	7009.24733
766.615	6949.2857
766.806	6866.54882
766.997	7015.44918
767.187	6767.21657
767.378	7050.58915
767.569	6912.05859
767.759	6831.37465
767.95	7017.51641
768.141	6893.44228
768.331	6618.11933
768.522	6506.21802
768.712	6618.11933
768.903	6887.23644
769.093	6705.10718
769.284	6609.83266
769.474	6564.24934
769.665	6754.79634
769.855	6564.24934
770.046	6611.90436
770.236	6435.72697
770.426	6454.38898
770.617	6566.32155
770.807	6655.40481
770.998	6541.45348
771.188	6640.90579
771.378	6402.54541
771.569	6613.97604
771.759	6692.68283
771.949	6618.11933
772.139	6462.6826
772.33	6298.81457
772.52	6475.12233
772.71	6545.59839
772.9	6522.80025
773.09	6601.54561
773.281	6479.26873
773.471	6466.82927
773.661	6385.95239
773.851	6452.31551
774.041	6332.01479
774.231	6265.60836
774.421	6190.87248
774.611	6385.95239
774.802	6433.65329
774.992	6578.75433
775.182	6361.06007
775.372	6246.92724
775.562	6377.65533
775.752	6483.41503
775.942	6224.09218
776.131	6222.01612
776.321	6049.62169
776.511	6224.09218
776.701	6095.33237
776.891	6207.48308
777.081	6124.41506
777.271	6149.33941
777.461	5856.26419
777.651	6099.48732
777.84	5866.66495
778.03	5941.53295
778.22	6136.87766
778.41	6078.71162
778.599	6014.292
778.789	6222.01612
778.979	5997.6639
779.169	6082.86695
779.358	6184.64312
779.548	6531.09081
779.738	6053.77768
779.927	6082.86695
780.117	5945.69139
780.307	5945.69139
780.496	5781.36136
780.686	6008.05664
780.875	5677.2789
781.065	5766.79337
781.254	5787.60443
781.444	5879.14507
781.633	5608.55216
781.823	5978.9555
782.012	5737.65391
782.202	5775.11808
782.391	5462.6832
782.581	5737.65391
782.77	5604.38608
782.96	5758.46828
783.149	5539.79975
783.338	5895.78391
783.528	5679.36113
783.717	5766.79337
783.906	5754.3056
784.096	5673.11438
784.285	5437.66551
784.474	5391.79096
784.663	5391.79096
784.853	5370.93513
785.042	5393.87641
785.231	5662.70265
785.42	5473.10624
785.61	5614.80111
785.799	5454.34435
785.988	5312.52633
786.177	5289.57499
786.366	5543.96729
786.555	5464.76785
786.744	5304.18072
786.933	5095.41897
787.122	5466.85249
787.312	5416.81485
787.501	5145.54303
787.69	5391.79096
787.879	5596.05363
788.068	5285.40172
788.257	5335.47484
788.445	5300.00777
788.634	5629.38116
788.823	5575.22086
789.012	5483.52869
789.201	5153.89574
789.39	5560.63652
789.579	5204.00417
789.768	5199.82898
789.957	5322.95782
790.145	5398.04725
790.334	5295.83473
790.523	5320.87157
790.712	5241.57669
790.9	5379.27774
791.089	5168.51209
791.278	5162.24808
791.467	5122.57116
791.655	5429.32553
791.844	5128.8365
792.033	5258.27315
792.221	4978.41092
792.41	5032.7451
792.599	4886.42533
792.787	5181.03947
792.976	4846.69057
793.164	4917.78905
793.353	5016.02855
793.541	5408.47393
793.73	4905.24418
793.918	5128.8365
794.107	4846.69057
794.295	4861.33065
794.484	4794.39543
794.672	4867.60463
794.861	4806.94756
795.049	4995.13079
795.238	4802.76361
795.426	4863.422
795.614	4842.50748
795.803	4944.96676
795.991	4913.60752
796.179	5074.52999
796.368	4783.9347
796.556	4786.02689
796.744	4815.31519
796.932	5009.75947
797.121	4450.9903
797.309	4719.0655
797.497	4614.39211
797.685	4476.13779
797.874	4608.10993
798.062	5024.38701
798.25	4612.29807
798.438	4800.6716
798.626	4505.47253
798.814	4658.36178
799.002	4643.70632
799.19	4488.71035
799.378	4457.27747
799.566	4677.20289
799.755	4522.23329
799.943	4750.45654
800.131	4698.13532
800.318	4800.6716
800.506	4474.04229
800.694	4520.13828
800.882	4501.28212
801.07	4593.45071
801.258	4660.45532
801.446	4788.11906
801.634	4501.28212
801.822	4582.97917
802.01	4564.129
802.197	4760.91909
802.385	4335.69068
802.573	4654.17461
802.761	4392.30054
802.949	4576.69598
803.136	4465.66006
803.324	4610.20401
803.512	4710.6937
803.699	4601.82754
803.887	4421.64756
804.075	4570.41259
804.262	4419.55149
804.45	4794.39543
804.638	4557.84521
804.825	4873.8784
805.013	4618.58012
805.201	4940.78583
805.388	4308.42845
805.576	4641.61259
805.763	4670.92272
805.951	5011.84919
806.138	4760.91909
806.326	4733.71529
806.513	4344.07832
806.701	4689.76262
806.888	4360.85257
807.075	4610.20401
807.263	4467.75565
807.45	4480.32873
807.638	4568.31808
807.825	4742.0861
808.012	4643.70632
808.2	4777.65799
808.387	4564.129
808.574	4520.13828
808.761	4513.85309
808.949	4553.65591
809.136	4545.27703
809.323	4354.56239
809.51	4235.01209
809.698	4520.13828
809.885	4356.65914
810.072	4446.79874
810.259	4297.942
810.446	4742.0861
810.633	4501.28212
810.82	4704.41461
811.008	4503.37733
811.195	4719.0655
811.382	4626.95588
811.569	4622.76805
811.756	4358.75587
811.943	4668.82929
812.13	4545.27703
812.317	4850.87356
812.504	4603.92169
812.691	4693.94902
812.878	4367.14256
813.064	4719.0655
813.251	4434.22355
813.438	4894.7895
813.625	4668.82929
813.812	4620.6741
813.999	4606.01582
814.186	4848.78208
814.372	4486.61498
814.559	4921.97049
814.746	4771.38107
814.933	4802.76361
815.12	4434.22355
815.306	4631.14362
815.493	4480.32873
815.68	4404.87836
815.866	4411.16698
816.053	4555.75057
816.24	4379.72194
816.426	4480.32873
816.613	4360.85257
816.799	4652.081
816.986	4436.31947
817.173	4264.38178
817.359	4291.64988
817.546	4626.95588
817.732	4287.45502
817.919	4622.76805
818.105	4559.93983
818.292	4461.46881
818.478	4279.06505
818.665	4660.45532
818.851	4300.03934
819.037	4589.26216
819.224	4193.04815
819.41	4471.94676
819.597	4287.45502
819.783	4295.84465
819.969	4190.94973
820.156	4230.81608
820.342	4251.79528
820.528	4383.9149
820.714	4090.20082
820.901	4534.80294
821.087	4310.52567
821.273	4316.81721
821.459	4123.78916
821.646	4216.12936
821.832	4214.03118
822.018	4358.75587
822.204	4060.80665
822.39	4409.07079
822.576	4134.28441
822.762	4237.11006
822.948	4207.73649
823.134	4337.78762
823.32	4232.91409
823.507	4230.81608
823.693	4268.57711
823.879	4518.04323
824.065	4354.56239
824.25	4169.96436
824.436	3917.97767
824.622	4260.18636
824.808	4104.89638
824.994	4266.47945
825.18	4050.30775
825.366	4174.16161
825.552	3976.80104
825.738	4050.30775
825.923	3863.34181
826.109	4144.77915
826.295	3646.76898
826.481	4071.30504
826.667	3922.17986
826.852	4039.80834
827.038	3896.96548
827.224	3999.90585
827.409	3796.07921
827.595	3976.80104
827.781	3714.07577
827.966	4109.09492
828.152	3728.79651
828.338	4169.96436
828.523	3976.80104
828.709	4117.49175
828.894	3791.87463
829.08	3974.70048
829.266	3770.85054
829.451	3859.1385
829.637	3762.44036
829.822	3976.80104
830.008	3678.32147
830.193	3917.97767
830.378	3926.38198
830.564	4008.30699
830.749	3756.13251
830.935	3955.79451
831.12	3461.5763
831.305	3831.81499
831.491	3421.57297
831.676	3678.32147
831.861	3516.30717
832.047	3623.62777
832.232	3646.76898
832.417	3566.81699
832.602	3503.67806
832.788	3705.66349
832.973	3413.15039
833.158	3507.88783
833.343	3415.25606
833.528	3545.77252
833.714	3655.18339
833.899	3737.20794
834.084	3482.62809
834.269	3499.46821
834.454	3501.57314
834.639	3747.72178
834.824	3482.62809
835.009	3777.15797
835.194	3505.78296
835.379	3739.31074
835.564	3484.73317
835.749	3653.07982
835.934	3349.97208
836.119	3537.35422
836.304	3299.41816
836.489	3552.08606
836.674	3234.10481
836.859	3526.83092
837.044	3328.90916
837.228	3417.36172
837.413	3301.52477
837.598	3461.5763
837.783	3255.1754
837.968	3495.25829
838.152	3316.27057
838.337	3392.09272
838.522	3206.71054
838.707	3495.25829
838.891	3387.88097
839.076	3396.30439
839.261	3004.3299
839.445	3238.31906
839.63	3118.18705
839.815	3290.99155
839.999	3255.1754
840.184	3360.5029
840.368	3048.61307
840.553	3335.22822
840.737	3118.18705
840.922	3269.92382
841.106	3029.6354
841.291	3250.96142
841.475	3177.2059
841.66	3265.71007
841.844	3073.91468
842.029	3312.05757
842.213	2953.71237
842.397	3076.02304
842.582	2985.34934
842.766	3288.88485
842.951	3050.72162
843.135	3139.26666
843.319	2987.45835
843.504	2879.87985
843.688	3029.6354
843.872	2915.74359
844.056	3071.8063
844.241	3290.99155
844.425	2890.42844
844.609	2911.52454
844.793	2955.8216
844.977	3090.78116
845.161	2753.26939
845.346	2928.40038
845.53	2810.25026
845.714	3132.94294
845.898	2540.035
846.082	3054.93868
846.266	2685.72392
846.45	2915.74359
846.634	2660.39095
846.818	2903.08628
847.002	2687.83492
847.186	2782.81627
847.37	2664.61324
847.554	2784.92666
847.738	2687.83492
847.922	2753.26939
848.106	2793.36808
848.29	2774.37457
848.473	2618.1653
848.657	2497.79572
848.841	2609.71958
849.025	2924.18151
849.209	2692.05687
849.392	2806.0298
849.576	2497.79572
849.76	2645.61254
849.944	2459.77651
850.127	2535.81128
850.311	2480.89874
850.495	2402.74108
850.678	2404.85364
850.862	2542.14685
851.046	2394.29073
851.229	2455.55193
851.413	2508.35597
851.596	2582.26963
851.78	2578.04638
851.964	2590.71599
852.147	2259.06347
852.331	2552.70589
852.514	2275.96902
852.698	2474.56218
852.881	2278.08217
853.065	2406.96619
853.248	2265.40312
853.431	2406.96619
853.615	2092.09159
853.798	2432.31598
853.982	2193.54905
854.165	2512.57999
854.348	2339.35948
854.532	2491.45944
854.715	2404.85364
854.898	2601.27366
855.081	2278.08217
855.265	2476.67438
855.448	2328.795
855.631	2297.10012
855.814	2335.13372
855.997	2252.72373
856.181	2125.91276
856.364	2362.60046
856.547	2049.81245
856.73	2366.82596
856.913	2075.18028
857.096	2256.95023
857.279	2081.52208
857.462	2263.28991
857.645	2060.38251
857.828	2318.23028
858.011	1984.27433
858.194	2347.81088
858.377	2121.68522
858.56	2049.81245
858.743	1994.84542
858.926	2195.66255
859.109	2024.44362
859.292	2032.90001
859.475	2037.12816
859.658	2073.06634
859.841	1982.1601
860.023	2005.41636
860.206	1933.53095
860.389	1990.61701
860.572	1825.69066
860.755	2068.83842
860.937	1738.9868
861.12	1933.53095
861.303	1791.85583
861.486	2015.98712
861.668	1588.828
861.851	1950.44579
862.034	1719.95339
862.216	1992.73122
862.399	1677.65598
862.581	1971.58881
862.764	1724.18306
862.947	1863.75345
863.129	1622.6677
863.312	1715.72371
863.494	1688.23045
863.677	1823.57602
863.859	1717.83855
864.042	1829.91994
864.224	1785.51167
864.406	1751.67558
864.589	1593.05799
864.771	1726.29789
864.954	1542.29771
865.136	1677.65598
865.318	1652.27698
865.501	1787.6264
865.683	1516.91731
865.865	1713.60886
866.048	1351.94384
866.23	1686.11556
866.412	1493.65183
866.594	1736.87199
866.777	1440.77555
866.959	1669.19636
867.141	1468.27123
867.323	1681.88578
867.505	1459.81102
867.687	1620.55273
867.869	1544.41274
868.052	1620.55273
868.234	1609.97787
868.416	1715.72371
868.598	1512.68723
868.78	1652.27698
868.962	1584.598
869.144	1599.40296
869.326	1430.20029
869.508	1576.13799
869.69	1569.79297
869.872	1527.49249
870.054	1554.98786
870.236	1660.73669
870.417	1516.91731
870.599	1635.35745
870.781	1499.99696
870.963	1540.18269
871.145	1485.19163
871.327	1523.26242
871.508	1375.20915
871.69	1552.87284
871.872	1309.64373
872.054	1385.78433
872.235	1271.57427
872.417	1603.63293
872.599	1385.78433
872.78	1605.74791
872.962	1470.38628
873.144	1510.57218
873.325	1250.4249
873.507	1514.80227
873.689	1398.47458
873.87	1459.81102
874.052	1309.64373
874.233	1584.598
874.415	1301.18379
874.596	1557.10288
874.778	1406.93476
874.959	1358.28891
875.141	1332.90871
875.322	1633.24249
875.503	1229.27581
875.685	1586.713
875.866	1366.74902
876.048	1457.69597
876.229	1364.63399
876.41	1328.6787
876.592	1375.20915
876.773	1402.70467
876.954	1267.34438
877.136	1540.18269
877.317	1271.57427
877.498	1493.65183
877.679	1288.49394
877.86	1629.01258
878.042	1561.33292
878.223	1510.57218
878.404	1288.49394
878.585	1390.01441
878.766	1360.40394
878.947	1474.61638
879.128	1153.14177
879.309	1381.55426
879.49	1313.87371
879.672	1432.31534
879.853	1263.11449
880.034	1315.9887
880.215	1161.60087
880.396	1332.90871
880.576	1233.5056
880.757	1366.74902
880.938	1229.27581
881.119	1461.92607
881.3	1222.93113
881.481	1468.27123
881.662	1366.74902
881.843	1470.38628
882.023	1239.85032
882.204	1453.46586
882.385	1239.85032
882.566	1453.46586
882.747	1301.18379
882.927	1476.73143
883.108	1239.85032
883.289	1425.97019
883.469	1182.7489
883.65	1519.03235
883.831	1381.55426
884.011	1415.39495
884.192	1368.86405
884.373	1375.20915
884.553	1222.93113
884.734	1459.81102
884.914	1208.12701
885.095	1273.68922
885.275	1019.92089
885.456	1263.11449
885.636	1121.42075
885.817	1381.55426
885.997	1212.35674
886.178	1172.17484
886.358	1163.71566
886.538	1127.76487
886.719	1123.53545
886.899	1326.5637
887.08	1229.27581
887.26	1425.97019
887.44	1296.95383
887.621	1271.57427
887.801	1263.11449
887.981	1345.59879
888.161	1303.29877
888.342	1432.31534
888.522	1406.93476
888.702	1474.61638
888.882	1229.27581
889.062	1434.43039
889.242	1381.55426
889.423	1366.74902
889.603	1296.95383
889.783	1483.07658
889.963	1275.80418
890.143	1445.00565
890.323	1199.66758
890.503	1529.60753
890.683	1193.32305
890.863	1286.37898
891.043	1119.30605
891.223	1432.31534
891.403	1273.68922
891.583	1381.55426
891.763	1189.09338
891.943	1324.4487
892.122	1180.63408
892.302	1320.2187
892.482	1136.22377
892.662	1301.18379
892.842	1131.99431
893.022	1254.65476
893.201	1148.91225
893.381	1284.26401
893.561	1163.71566
893.741	1303.29877
893.92	1098.15931
894.1	1360.40394
894.28	1322.33369
894.459	1400.58962
894.639	1119.30605
894.819	1396.35953
894.998	1170.06004
895.178	1313.87371
895.357	1125.65016
895.537	1315.9887
895.716	1140.45325
895.896	1254.65476
896.075	1146.79749
896.255	1148.91225
896.434	1161.60087
896.614	1332.90871
896.793	1115.07666
896.973	1307.52874
897.152	1161.60087
897.331	1197.55274
897.511	1074.89846
897.69	1180.63408
897.87	941.69077
898.049	1085.4715
898.228	1028.37872
898.407	1134.10904
898.587	1053.75279
898.766	1233.5056
898.945	907.86452
899.124	1022.03534
899.304	1015.692
899.483	1153.14177
899.662	1157.37131
899.841	1104.50328
900.02	952.26187
900.199	1093.93002
900.378	1017.80644
900.557	1072.78387
900.737	935.34821
900.916	1028.37872
901.095	749.33277
901.274	1077.01306
901.453	821.19417
901.632	996.66234
901.811	785.26206
901.989	888.83812
902.168	861.3567
902.347	846.55961
902.526	747.21937
902.705	986.09053
902.884	681.7094
903.063	842.33194
903.242	848.67345
903.42	747.21937
903.599	713.40647
903.778	857.12892
903.957	675.37029
904.135	882.49613
904.314	781.03494
904.493	886.72411
904.672	683.82246
904.85	730.31258
905.029	738.76589
905.207	700.72734
905.386	673.25728
905.565	717.63293
905.743	595.08425
905.922	721.85944
906.1	590.85917
906.279	751.44618
906.457	550.72353
906.636	688.04861
906.814	510.59283
906.993	595.08425
907.171	531.71362
907.35	622.54853
907.528	601.42197
907.707	595.08425
907.885	504.25687
908.063	614.09776
908.242	402.9
908.42	588.74665
908.598	453.574
908.777	590.85917
908.955	430.34728
909.133	565.50978
909.311	497.92105
909.49	557.06041
909.668	455.68561
909.846	438.79314
910.024	565.50978
910.202	630.9995
910.38	544.38677
910.559	493.69724
910.737	445.1277
910.915	493.69724
911.093	489.47348
911.271	538.05013
911.449	548.61126
911.627	607.75981
911.805	445.1277
911.983	645.78918
912.161	472.57906
912.339	723.97271
912.517	428.23586
912.695	601.42197
912.872	487.36163
913.05	464.13222
913.228	497.92105
913.406	455.68561
913.584	519.04098
913.762	502.14492
913.939	500.03297
914.117	573.95937
914.295	360.67883
914.473	493.69724
914.65	459.90888
914.828	529.60148
915.006	451.4624
915.184	500.03297
915.361	464.13222
915.539	424.01305
915.716	440.90465
915.894	497.92105
916.072	367.01157
916.249	535.93795
916.427	428.23586
916.604	538.05013
916.782	434.57018
916.959	529.60148
917.137	508.48083
917.314	614.09776
917.492	527.48935
917.669	525.37723
917.847	383.89964
918.024	502.14492
918.201	307.91202
918.379	493.69724
918.556	379.67753
918.733	438.79314
918.911	358.56795
919.088	459.90888
919.265	371.23349
919.442	453.574
919.62	375.45547
919.797	413.45632
919.974	409.23374
920.151	493.69724
920.328	320.57505
920.506	417.67897
920.683	371.23349
920.86	400.78878
921.037	476.80258
921.214	413.45632
921.391	358.56795
921.568	396.5664
921.745	481.02615
921.922	360.67883
922.099	341.68151
922.276	419.79031
922.453	358.56795
922.63	407.12248
922.807	324.7962
922.984	394.45523
923.161	278.36751
923.338	335.34939
923.514	282.58793
923.691	331.12806
923.868	316.35397
924.045	411.34503
924.222	331.12806
924.399	316.35397
924.575	261.48656
924.752	362.78973
924.929	291.029
925.105	274.14716
925.282	320.57505
925.459	362.78973
925.635	297.36
925.812	250.93658
925.989	225.6186
926.165	274.14716
926.342	257.26651
926.518	337.46008
926.695	263.59661
926.871	219.28955
927.048	263.59661
927.224	206.63197
927.401	227.72833
927.577	291.029
927.754	223.5089
927.93	170.77278
928.107	219.28955
928.283	282.58793
928.459	248.82665
928.636	234.05762
928.812	206.63197
928.988	223.5089
929.165	223.5089
929.341	278.36751
929.517	118.04961
929.693	134.91958
929.87	126.48442
930.046	77.98905
930.222	166.55444
930.398	208.74152
930.574	198.19399
930.751	198.19399
930.927	124.37568
931.103	337.46008
931.279	160.22709
931.455	219.28955
931.631	145.464
931.807	156.00896
931.983	177.10045
932.159	172.88198
932.335	174.9912
932.511	162.33619
932.687	168.6636
932.863	158.11802
933.039	137.02842
933.215	147.57295
933.391	177.10045
933.566	156.00896
933.742	248.82665
933.918	75.88082
934.094	158.11802
934.27	172.88198
934.445	82.20557
934.621	105.39804
934.797	96.96411
934.973	115.94096
935.148	149.68192
935.324	198.19399
935.5	71.66443
935.675	130.70195
935.851	88.53052
936.027	73.77262
936.202	177.10045
936.378	82.20557
936.553	67.44814
936.729	29.5056
936.904	90.63889
937.08	29.5056
937.255	113.83233
937.431	56.90779
937.606	82.20557
937.782	71.66443
937.957	42.15228
938.133	52.69182
938.308	71.66443
938.483	42.15228
938.659	99.07256
938.834	80.0973
939.009	107.50658
939.185	16.85977
939.36	29.5056
939.535	42.15228
939.71	-2.10736
939.886	59.01582
940.061	96.96411
940.236	84.31387
940.411	31.61332
940.586	14.75222
940.761	6.32224
940.937	109.61514
941.112	-4.2147
941.287	23.18258
941.462	86.42218
941.637	67.44814
941.812	77.98905
941.987	0
942.162	21.07496
942.337	46.36803
942.512	-8.42931
942.687	31.61332
942.862	101.18103
943.037	-14.75104
943.212	31.61332
943.386	29.5056
943.561	-10.53658
943.736	59.01582
943.911	88.53052
944.086	-56.89021
944.26	107.50658
944.435	-2.10736
944.61	8.4297
944.785	40.04444
944.959	-2.10736
945.134	21.07496
945.309	18.96735
945.483	40.04444
945.658	-10.53658
945.833	8.4297
946.007	6.32224
946.182	71.66443
946.357	0
946.531	21.07496
946.706	48.47593
946.88	99.07256
947.055	77.98905
947.229	82.20557
947.404	46.36803
947.578	46.36803
947.752	63.23193
947.927	37.93663
948.101	101.18103
948.276	84.31387
948.45	14.75222
948.624	46.36803
948.799	71.66443
948.973	-33.71489
949.147	31.61332
949.321	71.66443
949.496	59.01582
949.67	-67.42343
949.844	-12.64382
950.018	67.44814
950.193	101.18103
950.367	77.98905
950.541	37.93663
950.715	67.44814
950.889	56.90779
951.063	48.47593
951.237	103.28953
951.411	-6.32202
951.585	-16.85823
951.759	46.36803
951.933	-21.07254
952.107	16.85977
952.281	59.01582
952.455	18.96735
952.629	54.79979
952.803	63.23193
952.977	33.72107
953.151	27.39791
953.325	50.58386
953.499	44.26014
953.672	-16.85823
953.846	71.66443
954.02	31.61332
954.194	86.42218
954.368	59.01582
954.541	50.58386
954.715	10.53718
954.889	8.4297
955.062	86.42218
955.236	8.4297
955.41	2.10739
955.583	-44.2495
955.757	40.04444
955.93	84.31387
956.104	90.63889
956.278	46.36803
956.451	103.28953
956.625	-10.53658
956.798	88.53052
956.972	113.83233
957.145	56.90779
957.319	12.64469
957.492	-4.2147
957.665	75.88082
957.839	54.79979
958.012	73.77262
958.185	107.50658
958.359	82.20557
958.532	-16.85823
958.705	12.64469
958.879	88.53052
959.052	29.5056
959.225	101.18103
959.398	59.01582
959.572	73.77262
959.745	25.29023
959.918	105.39804
960.091	-8.42931
960.264	29.5056
960.438	2.10739
960.611	111.72373
960.784	37.93663
960.957	92.74727
961.13	37.93663
961.303	96.96411
961.476	42.15228
961.649	122.26697
961.822	88.53052
961.995	84.31387
962.168	54.79979
962.341	12.64469
962.514	2.10739
962.686	6.32224
962.859	80.0973
963.032	63.23193
963.205	-4.2147
963.378	40.04444
963.551	126.48442
963.723	8.4297
963.896	99.07256
964.069	109.61514
964.242	42.15228
964.414	14.75222
964.587	-6.32202
964.76	46.36803
964.932	2.10739
965.105	46.36803
965.278	27.39791
965.45	48.47593
965.623	82.20557
965.795	71.66443
965.968	33.72107
966.14	52.69182
966.313	-35.82187
966.485	141.24617
966.658	-12.64382
966.83	52.69182
967.003	73.77262
967.175	42.15228
967.348	94.85568
967.52	40.04444
967.692	56.90779
967.865	96.96411
968.037	25.29023
968.209	-16.85823
968.382	96.96411
968.554	67.44814
968.726	31.61332
968.898	37.93663
969.071	61.12386
969.243	29.5056
969.415	16.85977
969.587	12.64469
969.759	109.61514
969.932	-33.71489
970.104	90.63889
970.276	42.15228
970.448	27.39791
970.62	75.88082
970.792	-33.71489
970.964	29.5056
971.136	42.15228
971.308	84.31387
971.48	48.47593
971.652	61.12386
971.824	67.44814
971.996	44.26014
972.168	75.88082
972.339	42.15228
972.511	107.50658
972.683	107.50658
972.855	56.90779
973.027	-4.2147
973.199	27.39791
973.37	-14.75104
973.542	-12.64382
973.714	40.04444
973.886	-12.64382
974.057	23.18258
974.229	18.96735
974.401	37.93663
974.572	-18.9654
974.744	54.79979
974.915	8.4297
975.087	42.15228
975.259	-27.39383
975.43	67.44814
975.602	-12.64382
975.773	-33.71489
975.945	31.61332
976.116	33.72107
976.288	6.32224
976.459	37.93663
976.63	-46.35635
976.802	71.66443
976.973	-6.32202
977.145	63.23193
977.316	31.61332
977.487	40.04444
977.659	12.64469
977.83	40.04444
978.001	-16.85823
978.172	21.07496
978.344	54.79979
978.515	99.07256
978.686	84.31387
978.857	40.04444
979.028	-29.50088
979.2	-4.2147
979.371	59.01582
979.542	21.07496
979.713	2.10739
979.884	54.79979
980.055	29.5056
980.226	-35.82187
980.397	-29.50088
980.568	-8.42931
980.739	86.42218
980.91	-35.82187
981.081	-10.53658
981.252	71.66443
981.423	37.93663
981.594	29.5056
981.765	59.01582
981.936	46.36803
982.106	-8.42931
982.277	40.04444
982.448	-10.53658
982.619	46.36803
982.79	0
982.96	27.39791
983.131	50.58386
983.302	37.93663
983.472	105.39804
983.643	56.90779
983.814	96.96411
983.984	145.464
984.155	52.69182
984.326	4.2148
984.496	18.96735
984.667	40.04444
984.837	31.61332
985.008	71.66443
985.178	65.34002
985.349	-12.64382
985.519	63.23193
985.69	56.90779
985.86	-18.9654
986.031	46.36803
986.201	54.79979
986.371	50.58386
986.542	96.96411
986.712	50.58386
986.882	29.5056
987.053	-27.39383
987.223	65.34002
987.393	23.18258
987.563	40.04444
987.734	8.4297
987.904	109.61514
988.074	54.79979
988.244	-4.2147
988.414	-12.64382
988.585	65.34002
988.755	6.32224
988.925	14.75222
989.095	63.23193
989.265	80.0973
989.435	-40.03573
989.605	-21.07254
989.775	-29.50088
989.945	54.79979
990.115	46.36803
990.285	18.96735
990.455	31.61332
990.625	-12.64382
990.795	44.26014
990.965	65.34002
991.134	35.82884
991.304	33.72107
991.474	21.07496
991.644	29.5056
991.814	21.07496
991.984	27.39791
992.153	52.69182
992.323	-16.85823
992.493	-8.42931
992.662	-2.10736
992.832	56.90779
993.002	-6.32202
993.171	-4.2147
993.341	-6.32202
993.511	-50.56997
993.68	-16.85823
993.85	50.58386
994.019	50.58386
994.189	-2.10736
994.358	59.01582
994.528	33.72107
994.697	29.5056
994.867	-42.14263
995.036	23.18258
995.206	65.34002
995.375	61.12386
995.544	77.98905
995.714	35.82884
995.883	0
996.052	75.88082
996.222	12.64469
996.391	-4.2147
996.56	75.88082
996.73	124.37568
996.899	-2.10736
997.068	42.15228
997.237	115.94096
997.406	35.82884
997.576	-14.75104
997.745	23.18258
997.914	8.4297
998.083	21.07496
998.252	-18.9654
998.421	-4.2147
998.59	-37.92881
998.759	21.07496
998.928	63.23193
999.097	-12.64382
999.266	25.29023
999.435	-8.42931
999.604	-27.39383
999.773	-37.92881
999.942	-80.06246
1000.111	-4.2147
1000.28	65.34002
1000.448	44.26014
1000.617	18.96735
1000.786	63.23193
1000.955	23.18258
1001.124	-12.64382
1001.292	37.93663
1001.461	-12.64382
1001.63	54.79979
1001.798	8.4297
1001.967	16.85977
1002.136	12.64469
1002.304	46.36803
1002.473	14.75222
1002.642	12.64469
1002.81	23.18258
1002.979	50.58386
1003.147	-2.10736
1003.316	63.23193
1003.484	-23.17966
1003.653	50.58386
1003.821	-21.07254
1003.99	-50.56997
1004.158	23.18258
1004.327	-10.53658
1004.495	29.5056
1004.663	-18.9654
1004.832	-2.10736
1005	71.66443
1005.168	-2.10736
1005.337	-18.9654
1005.505	-10.53658
1005.673	10.53718
1005.842	21.07496
1006.01	71.66443
1006.178	59.01582
1006.346	42.15228
1006.514	14.75222
1006.683	25.29023
1006.851	12.64469
1007.019	-40.03573
1007.187	6.32224
1007.355	50.58386
1007.523	-8.42931
1007.691	4.2148
1007.859	-63.21022
1008.027	31.61332
1008.195	16.85977
1008.363	-16.85823
1008.531	-8.42931
1008.699	73.77262
1008.867	29.5056
1009.035	21.07496
1009.203	44.26014
1009.37	-35.82187
1009.538	8.4297
1009.706	46.36803
1009.874	25.29023
1010.042	29.5056
1010.209	-29.50088
1010.377	21.07496
1010.545	-33.71489
1010.713	31.61332
1010.88	35.82884
1011.048	-8.42931
1011.216	6.32224
1011.383	63.23193
1011.551	52.69182
1011.718	4.2148
1011.886	10.53718
1012.054	82.20557
1012.221	4.2148
1012.389	29.5056
1012.556	54.79979
1012.724	21.07496
1012.891	88.53052
1013.058	-27.39383
1013.226	16.85977
1013.393	4.2148
1013.561	-6.32202
1013.728	-54.78349
1013.895	82.20557
1014.063	-16.85823
1014.23	37.93663
1014.397	-29.50088
1014.565	-46.35635
1014.732	37.93663
1014.899	-8.42931
1015.066	54.79979
1015.233	25.29023
1015.401	40.04444
1015.568	29.5056
1015.735	59.01582
1015.902	10.53718
1016.069	14.75222
1016.236	-18.9654
1016.403	8.4297
1016.57	-21.07254
1016.737	-16.85823
1016.904	54.79979
1017.071	-8.42931
1017.238	-29.50088
1017.405	29.5056
1017.572	44.26014
1017.739	23.18258
1017.906	59.01582
1018.073	-46.35635
1018.24	-54.78349
1018.407	71.66443
1018.573	8.4297
1018.74	67.44814
1018.907	54.79979
1019.074	-27.39383
1019.241	21.07496
1019.407	50.58386
1019.574	-18.9654
1019.741	37.93663
1019.907	54.79979
1020.074	103.28953
1020.241	8.4297
1020.407	37.93663
1020.574	-42.14263
1020.74	14.75222
1020.907	50.58386
1021.073	25.29023
1021.24	-50.56997
1021.406	-14.75104
1021.573	29.5056
1021.739	12.64469
1021.906	-61.10358
1022.072	88.53052
1022.239	-54.78349
1022.405	46.36803
1022.571	-4.2147
1022.738	80.0973
1022.904	-73.74306
1023.07	-8.42931
1023.237	29.5056
1023.403	37.93663
1023.569	31.61332
1023.735	54.79979
1023.902	33.72107
1024.068	73.77262
1024.234	12.64469
1024.4	44.26014
1024.566	-40.03573
1024.732	31.61332
1024.898	35.82884
1025.065	-67.42343
1025.231	6.32224
1025.397	29.5056
1025.563	-52.67674
1025.729	-29.50088
1025.895	-8.42931
1026.061	-42.14263
1026.227	8.4297
1026.392	-21.07254
1026.558	25.29023
1026.724	-12.64382
1026.89	-2.10736
1027.056	-18.9654
1027.222	-12.64382
1027.388	40.04444
1027.553	44.26014
1027.719	-58.9969
1027.885	21.07496
1028.051	25.29023
1028.216	-37.92881
1028.382	-27.39383
1028.548	-71.63655
1028.713	-2.10736
1028.879	48.47593
1029.045	-46.35635
1029.21	48.47593
1029.376	12.64469
1029.541	8.4297
1029.707	-21.07254
1029.873	-21.07254
1030.038	56.90779
1030.204	0
1030.369	14.75222
1030.534	14.75222
1030.7	29.5056
1030.865	40.04444
1031.031	-63.21022
1031.196	29.5056
1031.361	12.64469
1031.527	46.36803
1031.692	6.32224
1031.857	16.85977
1032.023	-16.85823
1032.188	14.75222
1032.353	-4.2147
1032.518	65.34002
1032.684	4.2148
1032.849	23.18258
1033.014	-21.07254
1033.179	80.0973
1033.344	-50.56997
1033.509	33.72107
1033.674	-35.82187
1033.839	-56.89021
1034.004	-21.07254
1034.17	-21.07254
1034.335	-48.46317
1034.5	-46.35635
1034.664	-37.92881
1034.829	4.2148
1034.994	69.55627
1035.159	-37.92881
1035.324	4.2148
1035.489	12.64469
1035.654	-8.42931
1035.819	42.15228
1035.984	4.2148
1036.148	18.96735
1036.313	-71.63655
1036.478	4.2148
1036.643	103.28953
1036.807	-29.50088
1036.972	-18.9654
1037.137	-18.9654
1037.301	59.01582
1037.466	-25.28676
1037.631	21.07496
1037.795	-96.91306
1037.96	-4.2147
1038.124	-71.63655
1038.289	63.23193
1038.454	18.96735
1038.618	-16.85823
1038.783	-31.6079
1038.947	-8.42931
1039.111	2.10739
1039.276	40.04444
1039.44	8.4297
1039.605	0
1039.769	-31.6079
1039.933	16.85977
1040.098	-4.2147
1040.262	-18.9654
1040.426	-12.64382
1040.591	-27.39383
1040.755	-54.78349
1040.919	16.85977
1041.083	21.07496
1041.248	23.18258
1041.412	-12.64382
1041.576	-10.53658
1041.74	0
1041.904	84.31387
1042.068	-33.71489
1042.232	25.29023
1042.397	67.44814
1042.561	16.85977
1042.725	-4.2147
1042.889	-16.85823
1043.053	-12.64382
1043.217	-4.2147
1043.381	67.44814
1043.544	29.5056
1043.708	8.4297
1043.872	4.2148
1044.036	29.5056
1044.2	-44.2495
1044.364	31.61332
1044.528	42.15228
1044.691	-8.42931
1044.855	12.64469
1045.019	21.07496
1045.183	48.47593
1045.346	-10.53658
1045.51	-14.75104
1045.674	46.36803
1045.837	23.18258
1046.001	-54.78349
1046.165	-42.14263
1046.328	-12.64382
1046.492	44.26014
1046.655	-29.50088
1046.819	-16.85823
1046.983	42.15228
1047.146	-4.2147
1047.31	-12.64382
1047.473	50.58386
1047.636	33.72107
1047.8	-46.35635
1047.963	-54.78349
1048.127	-21.07254
1048.29	-12.64382
