Data from absorb_only_2.23.25_USB4F045381__13__0118.txt Node

Date: Sun Feb 23 19:14:15 EST 2025
User: ssocol
Spectrometer: USB4F04538
Trigger mode: 4
Integration Time (sec): 2.600000E-3
Scans to average: 1
Electric dark correction enabled: true
Nonlinearity correction enabled: true
Boxcar width: 0
XAxis mode: Wavelengths
Number of Pixels in Spectrum: 3648
>>>>>Begin Spectral Data<<<<<
345.52	104.6952
345.736	104.6952
345.952	104.6952
346.168	51.98916
346.384	49.88122
346.6	7.72721
346.816	37.23403
347.032	-21.77492
347.248	5.61975
347.464	-42.84492
347.68	-0.70246
347.896	-2.80981
348.112	11.94218
348.328	18.26482
348.544	-36.52418
348.76	18.26482
348.975	5.61975
349.191	35.12624
349.407	-23.88203
349.623	9.83468
349.839	41.44967
350.055	14.04971
350.27	-2.80981
350.486	-15.45344
350.702	-2.80981
350.918	51.98916
351.133	-17.56062
351.349	-17.56062
351.565	-7.02445
351.781	106.80373
351.996	58.31314
352.212	26.69535
352.428	43.55752
352.644	24.58768
352.859	9.83468
353.075	-23.88203
353.291	30.91075
353.506	-0.70246
353.722	-53.37899
353.938	-38.63112
354.153	47.77329
354.369	-89.19007
354.584	51.98916
354.8	47.77329
355.016	64.63732
355.231	70.96171
355.447	-2.80981
355.662	18.26482
355.878	94.15287
356.093	-4.91714
356.309	20.37242
356.524	35.12624
356.74	-51.27223
356.955	-40.73804
357.171	28.80304
357.386	24.58768
357.602	-0.70246
357.817	1.40492
358.033	-19.66778
358.248	-17.56062
358.464	54.09713
358.679	-68.12563
358.895	7.72721
359.11	5.61975
359.325	47.77329
359.541	37.23403
359.756	-7.02445
359.972	58.31314
360.187	26.69535
360.402	37.23403
360.618	-25.98912
360.833	-2.80981
361.048	75.17808
361.264	7.72721
361.479	64.63732
361.694	24.58768
361.909	73.06989
362.125	11.94218
362.34	7.72721
362.555	41.44967
362.77	56.20513
362.986	37.23403
363.201	-17.56062
363.416	16.15725
363.631	14.04971
363.847	-91.29638
364.062	60.42118
364.277	26.69535
364.492	9.83468
364.707	-17.56062
364.922	39.34183
365.138	-28.09618
365.353	89.9361
365.568	11.94218
365.783	22.48004
365.998	-11.23899
366.213	-2.80981
366.428	41.44967
366.643	14.04971
366.858	30.91075
367.073	35.12624
367.288	7.72721
367.503	83.6111
367.718	73.06989
367.933	37.23403
368.148	30.91075
368.363	47.77329
368.578	5.61975
368.793	16.15725
369.008	-42.84492
369.223	83.6111
369.438	11.94218
369.653	47.77329
369.868	18.26482
370.083	39.34183
370.298	14.04971
370.513	5.61975
370.728	-47.05863
370.943	5.61975
371.157	-0.70246
371.372	64.63732
371.587	22.48004
371.802	64.63732
372.017	20.37242
372.232	-7.02445
372.446	16.15725
372.661	51.98916
372.876	39.34183
373.091	24.58768
373.306	43.55752
373.52	39.34183
373.735	-42.84492
373.95	-17.56062
374.165	-2.80981
374.379	16.15725
374.594	100.4782
374.809	-9.13173
375.023	56.20513
375.238	20.37242
375.453	-32.31023
375.667	22.48004
375.882	5.61975
376.097	56.20513
376.311	30.91075
376.526	18.26482
376.741	20.37242
376.955	14.04971
377.17	43.55752
377.384	-51.27223
377.599	41.44967
377.813	75.17808
378.028	7.72721
378.242	43.55752
378.457	56.20513
378.672	9.83468
378.886	3.51233
379.101	5.61975
379.315	-7.02445
379.53	30.91075
379.744	58.31314
379.958	30.91075
380.173	64.63732
380.387	3.51233
380.602	-38.63112
380.816	-17.56062
381.031	-11.23899
381.245	-28.09618
381.459	14.04971
381.674	5.61975
381.888	-11.23899
382.103	70.96171
382.317	16.15725
382.531	7.72721
382.746	7.72721
382.96	-2.80981
383.174	7.72721
383.388	-11.23899
383.603	-25.98912
383.817	30.91075
384.031	-23.88203
384.246	33.01848
384.46	-34.41722
384.674	30.91075
384.888	56.20513
385.103	56.20513
385.317	22.48004
385.531	-0.70246
385.745	77.2863
385.959	9.83468
386.174	-15.45344
386.388	-30.20322
386.602	39.34183
386.816	43.55752
387.03	-2.80981
387.244	28.80304
387.458	24.58768
387.672	-42.84492
387.887	68.85356
388.101	41.44967
388.315	-9.13173
388.529	-11.23899
388.743	1.40492
388.957	47.77329
389.171	-0.70246
389.385	64.63732
389.599	1.40492
389.813	51.98916
390.027	5.61975
390.241	-19.66778
390.455	-23.88203
390.669	102.58669
390.883	-0.70246
391.097	-2.80981
391.311	39.34183
391.525	-44.95179
391.738	56.20513
391.952	14.04971
392.166	64.63732
392.38	35.12624
392.594	-36.52418
392.808	28.80304
393.022	26.69535
393.236	56.20513
393.449	33.01848
393.663	58.31314
393.877	81.50281
394.091	58.31314
394.305	73.06989
394.518	77.2863
394.732	7.72721
394.946	56.20513
395.16	51.98916
395.373	108.91229
395.587	106.80373
395.801	56.20513
396.015	70.96171
396.228	18.26482
396.442	22.48004
396.656	3.51233
396.869	58.31314
397.083	-25.98912
397.297	33.01848
397.51	30.91075
397.724	-49.16544
397.938	68.85356
398.151	75.17808
398.365	104.6952
398.578	85.71941
398.792	47.77329
399.005	111.02086
399.219	24.58768
399.433	-11.23899
399.646	9.83468
399.86	16.15725
400.073	39.34183
400.287	134.21663
400.5	60.42118
400.714	22.48004
400.927	-2.80981
401.141	81.50281
401.354	1.40492
401.567	-25.98912
401.781	30.91075
401.994	16.15725
402.208	14.04971
402.421	75.17808
402.635	16.15725
402.848	83.6111
403.061	92.04447
403.275	22.48004
403.488	16.15725
403.701	51.98916
403.915	66.74543
404.128	1.40492
404.341	41.44967
404.555	-2.80981
404.768	47.77329
404.981	-0.70246
405.195	35.12624
405.408	14.04971
405.621	56.20513
405.834	7.72721
406.048	81.50281
406.261	-42.84492
406.474	81.50281
406.687	49.88122
406.9	68.85356
407.114	24.58768
407.327	119.45538
407.54	64.63732
407.753	-11.23899
407.966	7.72721
408.179	94.15287
408.392	33.01848
408.605	33.01848
408.819	16.15725
409.032	92.04447
409.245	43.55752
409.458	85.71941
409.671	-9.13173
409.884	98.36974
410.097	56.20513
410.31	79.39455
410.523	9.83468
410.736	94.15287
410.949	58.31314
411.162	24.58768
411.375	56.20513
411.588	51.98916
411.801	9.83468
412.014	30.91075
412.227	30.91075
412.44	89.9361
412.653	24.58768
412.865	83.6111
413.078	47.77329
413.291	108.91229
413.504	1.40492
413.717	70.96171
413.93	14.04971
414.143	68.85356
414.356	26.69535
414.568	68.85356
414.781	127.89025
414.994	41.44967
415.207	33.01848
415.42	123.67278
415.632	94.15287
415.845	85.71941
416.058	75.17808
416.271	56.20513
416.483	51.98916
416.696	-7.02445
416.909	64.63732
417.121	85.71941
417.334	39.34183
417.547	51.98916
417.759	18.26482
417.972	33.01848
418.185	49.88122
418.397	94.15287
418.61	26.69535
418.823	64.63732
419.035	39.34183
419.248	75.17808
419.46	22.48004
419.673	85.71941
419.885	22.48004
420.098	151.08791
420.311	92.04447
420.523	58.31314
420.736	66.74543
420.948	49.88122
421.161	66.74543
421.373	89.9361
421.586	106.80373
421.798	41.44967
422.01	18.26482
422.223	77.2863
422.435	47.77329
422.648	94.15287
422.86	-44.95179
423.073	30.91075
423.285	-11.23899
423.497	92.04447
423.71	54.09713
423.922	81.50281
424.134	73.06989
424.347	47.77329
424.559	16.15725
424.771	64.63732
424.984	30.91075
425.196	182.72519
425.408	39.34183
425.621	70.96171
425.833	54.09713
426.045	73.06989
426.257	123.67278
426.47	92.04447
426.682	24.58768
426.894	92.04447
427.106	121.56407
427.318	62.52924
427.531	62.52924
427.743	125.7815
427.955	56.20513
428.167	136.32547
428.379	98.36974
428.591	56.20513
428.804	111.02086
429.016	81.50281
429.228	83.6111
429.44	142.6521
429.652	153.19692
429.864	129.99903
430.076	75.17808
430.288	144.76102
430.5	140.5432
430.712	68.85356
430.924	115.23808
431.136	146.86997
431.348	89.9361
431.56	106.80373
431.772	163.74226
431.984	157.41499
432.196	83.6111
432.408	155.30595
432.62	60.42118
432.832	68.85356
433.044	129.99903
433.256	123.67278
433.468	201.70978
433.679	125.7815
433.891	218.58633
434.103	106.80373
434.315	79.39455
434.527	115.23808
434.739	119.45538
434.95	119.45538
435.162	83.6111
435.374	201.70978
435.586	216.47669
435.798	182.72519
436.009	148.97893
436.221	85.71941
436.433	132.10782
436.645	208.03833
436.856	212.25747
437.068	165.85139
437.28	134.21663
437.491	193.27198
437.703	49.88122
437.915	140.5432
438.126	167.96055
438.338	163.74226
438.55	174.28813
438.761	203.81928
438.973	176.39736
439.184	176.39736
439.396	140.5432
439.608	172.17891
439.819	201.70978
440.031	172.17891
440.242	119.45538
440.454	260.78321
440.665	184.83451
440.877	119.45538
441.088	132.10782
441.3	199.6003
441.511	220.69599
441.723	176.39736
441.934	203.81928
442.146	193.27198
442.357	252.34322
442.569	237.57397
442.78	176.39736
442.991	269.22351
443.203	218.58633
443.414	258.67319
443.626	241.79366
443.837	267.11341
444.048	305.0981
444.26	326.20327
444.471	189.0532
444.682	317.76099
444.894	218.58633
445.105	205.9288
445.316	305.0981
445.528	233.35436
445.739	210.14789
445.95	246.01343
446.161	229.13482
446.373	246.01343
446.584	294.5462
446.795	241.79366
447.006	324.09267
447.217	203.81928
447.429	241.79366
447.64	292.43587
447.851	279.77431
448.062	351.5318
448.273	330.42451
448.484	326.20327
448.695	258.67319
448.907	309.31899
449.118	343.08867
449.329	256.56318
449.54	269.22351
449.751	258.67319
449.962	252.34322
450.173	254.45319
450.384	277.66411
450.595	387.41813
450.806	307.20854
451.017	385.30703
451.228	311.42946
451.439	324.09267
451.65	410.64126
451.861	262.89326
452.072	376.86282
452.283	419.08653
452.494	446.5354
452.705	313.53995
452.915	393.75151
453.126	473.9869
453.337	435.97783
453.548	349.42099
453.759	503.55289
453.97	454.98174
454.181	503.55289
454.391	395.86267
454.602	545.79493
454.813	465.54001
455.024	609.16823
455.235	419.08653
455.445	482.43403
455.656	385.30703
455.867	518.33696
456.078	495.10517
456.288	547.90718
456.499	478.21043
456.71	621.84429
456.921	550.01944
457.131	588.04248
457.342	564.80566
457.553	672.55294
457.763	560.58096
457.974	672.55294
458.184	575.36765
458.395	632.40802
458.606	659.87514
458.816	744.40153
459.027	805.69371
459.237	708.47565
459.448	683.11811
459.659	735.9481
459.869	659.87514
460.08	585.92998
460.29	886.01945
460.501	871.22166
460.711	784.55754
460.922	807.80738
461.132	892.36148
461.343	824.71707
461.553	845.85499
461.764	972.69981
461.974	841.62734
462.184	866.9938
462.395	951.55712
462.605	1095.33978
462.816	945.21445
463.026	1091.1105
463.236	985.38575
463.447	1251.83485
463.657	972.69981
463.867	1196.84779
464.078	1298.36382
464.288	1114.37177
464.498	1302.59378
464.709	1256.06471
464.919	1192.6181
465.129	1465.45116
465.339	1366.04401
465.55	1349.12382
465.76	1188.38843
465.97	1552.16783
466.18	1376.61917
466.391	1556.39787
466.601	1387.19436
466.811	1484.48662
467.021	1552.16783
467.231	1560.62791
467.441	1418.92003
467.651	1712.90391
467.862	1674.83611
468.072	1915.91093
468.282	1873.62133
468.492	1932.82616
468.702	2036.42347
468.912	2068.13377
469.122	1886.30843
469.332	2135.7769
469.542	2078.70351
469.752	2044.8797
469.962	2163.25466
470.172	2486.53114
470.382	2192.84455
470.592	2406.26201
470.802	2304.84796
471.012	2507.65196
471.222	2575.23086
471.432	2499.20377
471.642	2494.97961
471.852	2858.0783
472.062	2621.6843
472.272	2830.64839
472.482	2830.64839
472.691	3087.97015
472.901	2820.0978
473.111	2984.64633
473.321	3043.69305
473.531	3216.5447
473.741	3102.72765
473.95	3492.45163
474.16	3231.29527
474.37	3561.90678
474.58	3408.23709
474.79	3747.02088
474.999	3477.71617
475.209	3572.42854
475.419	3768.04718
475.628	3858.43793
475.838	3725.99263
476.048	3892.06235
476.258	3952.99349
476.467	4108.39517
476.677	4217.52814
476.886	4402.08336
477.096	4353.86347
477.306	4414.66057
477.515	4385.31253
477.725	4552.95768
477.935	4517.34488
478.144	4728.83215
478.354	4479.63025
478.563	4977.71423
478.773	4745.57383
478.982	5040.40636
479.192	5063.38826
479.401	5146.93517
479.611	5182.43135
479.82	5046.67443
480.03	5374.41126
480.239	5299.31227
480.449	5370.23989
480.658	5532.85363
480.868	5768.18085
481.077	5940.83987
481.287	5747.36758
481.496	5868.05167
481.705	5857.65099
481.915	6019.83436
482.124	5996.97103
482.333	6044.77292
482.543	6109.18184
482.752	6611.21379
482.961	6478.57767
483.171	6594.63946
483.38	6229.62821
483.589	6495.16237
483.799	6596.71133
484.008	6785.15545
484.217	6764.45659
484.426	7025.09609
484.636	6698.20487
484.845	7316.34175
485.054	7151.15019
485.263	7260.60539
485.472	7190.396
485.682	7297.76474
485.891	7471.08138
486.1	7328.72544
486.309	7483.45527
486.518	7570.05084
486.727	7559.74383
486.936	7852.25688
487.146	7697.81354
487.355	7951.03928
487.564	7825.49512
487.773	7911.94359
487.982	8064.16945
488.191	8321.05759
488.4	7889.30585
488.609	8242.99636
488.818	8464.78103
489.027	8450.41294
489.236	8542.76297
489.445	8624.81974
489.654	8618.66652
489.863	8928.17314
490.072	8831.88105
490.281	8985.51994
490.49	8747.84902
490.698	8829.83186
490.907	8864.66579
491.116	9384.52454
491.325	9018.28334
491.534	9210.67871
491.743	9235.22897
491.952	9425.41212
492.16	9321.13584
492.369	9454.02956
492.578	9521.47248
492.787	9635.88151
492.996	9874.75861
493.204	9654.2641
493.413	10040.01587
493.622	9907.40959
493.831	9925.77412
494.039	10109.35506
494.248	10270.40459
494.457	10390.62698
494.665	10523.02264
494.874	10213.33355
495.083	10070.60871
495.291	10488.40133
495.5	10166.44575
495.709	10551.53157
495.917	10461.92371
496.126	10461.92371
496.335	10596.32633
496.543	10783.58555
496.752	10753.06112
496.96	10787.65528
497.169	10738.81546
497.377	10995.14977
497.586	10893.45168
497.794	11342.75209
498.003	10997.18345
498.211	11186.26756
498.42	10938.20232
498.628	11456.5216
498.837	11363.07034
499.045	11359.00677
499.254	11269.59806
499.462	11511.36389
499.671	11308.20876
499.879	11614.93614
500.087	11462.61553
500.296	11888.9855
500.504	11677.88016
500.713	11878.83831
500.921	11884.92665
501.129	11663.66775
501.338	11937.68914
501.546	12201.42126
501.754	11913.33791
501.962	12250.09632
502.171	11992.47513
502.379	12298.76724
502.587	12033.0536
502.795	12355.54486
503.004	12181.13875
503.212	12469.08407
503.42	12248.06828
503.628	12367.71079
503.837	12292.6836
504.045	12446.78337
504.253	12379.87647
504.461	12568.41402
504.669	12754.87108
504.877	12906.83812
505.085	12712.31465
505.294	12769.05599
505.502	12617.0599
505.71	13196.50817
505.918	12888.60369
506.126	13160.0516
506.334	12839.97643
506.542	12967.61648
506.75	13006.10704
506.958	13218.78647
507.166	13160.0516
507.374	13202.58413
507.582	13105.36393
507.79	13166.1278
507.998	13012.18434
508.206	13542.77742
508.414	13413.19327
508.622	13390.91941
508.83	13401.04395
509.037	13668.29803
509.245	13751.29661
509.453	13737.1265
509.661	13678.4201
509.869	13826.19333
510.077	13599.46579
510.285	13890.96568
510.492	13759.39375
510.7	14475.83342
510.908	13939.54311
511.116	13830.24169
511.324	13805.95138
511.531	13892.98977
511.739	13890.96568
511.947	13965.85524
512.155	14160.14764
512.362	14198.59892
512.57	14230.97839
512.778	14093.36201
512.985	13998.23883
513.193	14178.36149
513.401	14295.73586
513.608	14291.68857
513.816	14317.99581
514.024	14433.3396
514.231	14479.88042
514.439	14815.76535
514.646	14799.5787
514.854	14639.7328
515.061	14210.74128
515.269	14591.17084
515.477	14522.37358
515.684	14570.93649
515.892	14854.20846
516.099	15030.23511
516.307	15107.11956
516.514	15169.84096
516.722	14844.09187
516.929	15005.95574
517.136	14856.23178
517.344	15177.93404
517.551	14884.55813
517.759	15412.63457
517.966	15465.24049
518.173	15256.84165
518.381	15303.37701
518.588	15353.95909
518.796	15384.30843
519.003	15722.20657
519.21	15540.10341
519.418	15536.05674
519.625	15497.61354
519.832	15693.87896
520.039	15758.62807
520.247	15805.16714
520.454	15807.1906
520.661	16080.36794
520.868	15708.04274
521.076	16173.45656
521.283	15918.48219
521.49	15977.16474
521.697	15975.14119
521.904	16060.13172
522.112	15954.90571
522.319	16387.97893
522.526	15942.76449
522.733	16367.74008
522.94	16307.02469
523.147	16448.69665
523.354	16311.07233
523.561	16230.12089
523.768	16315.11998
523.975	16837.33634
524.183	16458.81645
524.39	16796.84901
524.597	16557.99321
524.804	16723.9743
525.011	16580.25809
525.218	16632.88522
525.425	16798.87336
525.632	16796.84901
525.838	17015.49271
526.045	16612.64384
526.252	16709.80458
526.459	17242.26764
526.666	16934.51004
526.873	17288.84195
527.08	17055.98566
527.287	17047.88698
527.494	17228.09315
527.701	17398.19656
527.907	17556.16915
528.114	17669.59739
528.321	17313.14221
528.528	17645.29047
528.735	17625.03507
528.941	17639.21382
529.148	17244.29257
529.355	17898.51126
529.562	17408.32244
529.768	17691.87915
529.975	17643.26492
530.182	17687.82789
530.388	17691.87915
530.595	17886.35544
530.802	17841.78517
531.008	18206.50126
531.215	17930.92738
531.422	18249.0591
531.628	18129.49596
531.835	18283.51189
532.042	18277.43191
532.248	18660.53739
532.455	18330.12619
532.661	18340.26
532.868	18307.83215
533.074	18634.18181
533.281	18429.44156
533.487	18634.18181
533.694	18632.15448
533.9	18995.10859
534.107	18857.21155
534.313	19029.58576
534.52	18808.54643
534.726	19027.55766
534.933	18680.81136
535.139	18830.85099
535.345	18786.24235
535.552	19078.2614
535.758	19301.3882
535.965	19341.96205
536.171	19654.43629
536.377	19374.42232
536.584	19522.53577
536.79	19354.13453
536.996	19601.67396
537.203	19396.73937
537.409	19153.30762
537.615	19684.87737
537.821	19421.08581
538.028	19755.91024
538.234	19660.52443
538.44	19654.43629
538.646	19212.13153
538.853	19804.62147
539.059	19660.52443
539.265	19796.50276
539.471	19583.41074
539.677	19806.65115
539.883	19918.29039
540.09	19794.47309
540.296	19920.32031
540.502	20436.05665
540.708	19822.8888
540.914	20488.86385
541.12	20200.48987
541.326	20438.08765
541.532	20054.30445
541.738	20462.4599
541.944	20472.61518
542.15	20750.91053
542.356	20702.15241
542.562	20714.34172
542.768	20954.09503
542.974	20677.77425
543.18	20314.20471
543.386	20704.18395
543.592	20889.0715
543.798	21098.38101
544.004	20793.57585
544.21	21010.99408
544.415	20793.57585
544.621	21563.89327
544.827	21019.12278
545.033	21600.49263
545.239	21370.75128
545.445	21582.19279
545.651	21263.01406
545.856	21397.17911
546.062	21700.13066
546.268	21336.19282
546.474	21104.47806
546.679	20832.17937
546.885	20903.29504
547.091	21391.08032
547.297	21076.02549
547.502	21490.6984
547.708	21216.2637
547.914	21039.44481
548.119	21521.19564
548.325	21332.1272
548.531	21202.03575
548.736	21620.82615
548.942	21088.21935
549.147	21096.34867
549.353	21620.82615
549.559	21602.52596
549.764	21563.89327
549.97	21793.67694
550.175	21934.01169
550.381	22316.46453
550.586	21708.26479
550.792	22094.70712
550.997	22029.61246
551.203	22119.11862
551.408	22361.22822
551.614	22532.16027
551.819	22483.31995
552.025	22465.00536
552.23	22414.13304
552.435	22471.11019
552.641	22749.93153
552.846	22668.51701
553.052	22705.15285
553.257	22631.8823
553.462	22670.5523
553.668	22483.31995
553.873	22737.719
554.078	23022.71025
554.283	22796.7474
554.489	22922.95574
554.694	22937.20589
554.899	22703.1175
555.105	23181.51961
555.31	22863.92117
555.515	23085.82439
555.72	23083.7884
555.925	23265.0043
556.131	23541.96736
556.336	23032.88974
556.541	23497.1606
556.746	23570.48153
556.951	23063.42869
557.156	23303.69416
557.361	23303.69416
557.567	23574.55503
557.772	23456.42847
557.977	23118.40068
558.182	23134.68913
558.387	23324.05771
558.592	23794.54202
558.797	23662.13826
559.002	23519.56379
559.207	23425.88019
559.412	23438.09942
559.617	23317.94861
559.822	24041.04948
560.027	24193.86407
560.232	24091.98595
560.437	23829.17275
560.642	24012.52582
560.847	24204.05225
561.051	24267.22053
561.256	23845.46985
561.461	24195.9017
561.666	23996.22683
561.871	24051.23663
562.076	23574.55503
562.281	23774.17139
562.485	23633.62217
562.69	23739.54201
562.895	24140.88659
563.1	24065.49877
563.305	24228.50418
563.509	24224.42883
563.714	23996.22683
563.919	24295.74898
564.123	24367.07239
564.328	24252.9565
564.533	24212.20285
564.737	24128.66128
564.942	24222.39116
565.147	24909.23196
565.351	24521.95708
565.556	24350.76961
565.761	24513.80488
565.965	24627.9393
566.17	24273.33372
566.374	24595.32866
566.579	24634.05387
566.784	24538.26159
566.988	24324.27796
567.193	24819.53948
567.397	24509.7288
567.602	24907.19344
567.806	24707.43038
568.011	24670.74173
568.215	25119.2114
568.42	25123.28891
568.624	24766.54155
568.828	24825.65473
569.033	24505.65273
569.237	24974.4657
569.442	25196.68557
569.646	24754.31148
569.85	25198.72441
570.055	25416.89233
570.259	24978.54288
570.463	25223.19062
570.668	24807.30905
570.872	24823.61632
571.076	24966.31135
571.281	25592.25951
571.485	25296.59111
571.689	25857.37712
571.893	25645.28042
572.098	25469.90873
572.302	25420.97047
572.506	24941.84853
572.71	25104.9402
572.914	25851.25866
573.119	25410.77514
573.323	25186.49142
573.527	25665.67343
573.731	25985.86863
573.935	25763.56257
574.139	25626.92688
574.343	25180.37496
574.547	25543.31833
574.751	25824.74552
574.955	25484.18261
575.159	25661.59481
575.364	25824.74552
575.568	26130.68506
575.772	26147.00296
575.976	25871.65359
576.18	25806.39046
576.383	26157.20171
576.587	26026.66108
576.791	25849.21918
576.995	25898.16729
577.199	25869.61409
577.403	25643.24113
577.607	26512.14405
577.811	26028.70073
578.015	26124.56588
578.219	26102.12901
578.422	26316.30761
578.626	26601.90731
578.83	26695.7539
579.034	26552.94516
579.238	26322.42727
579.442	26689.63338
579.645	26465.22355
579.849	26665.1514
580.053	26907.94043
580.257	26155.16195
580.46	26222.47468
580.664	27120.14238
580.868	27273.18177
581.071	26685.55303
581.275	26789.60368
581.479	27022.20115
581.682	26930.38415
581.886	26769.20129
582.09	27099.7377
582.293	27220.12727
582.497	27005.87792
582.7	27060.96917
582.904	27105.85909
583.107	27389.49665
583.311	27295.62818
583.515	27063.00961
583.718	26838.57002
583.922	27299.70936
584.125	27250.73553
584.329	27407.86253
584.532	27007.91832
584.735	27471.1236
584.939	27107.89955
585.142	27218.08673
585.346	27269.10063
585.549	27613.97556
585.753	27493.57136
585.956	27428.2692
586.159	27356.84644
586.363	27616.01634
586.566	27781.32399
586.769	27307.87174
586.973	27456.83874
587.176	27722.13887
587.379	27316.03413
587.582	27397.65925
587.786	27305.83114
587.989	27656.83232
588.192	27634.38347
588.395	28360.98069
588.599	28101.75686
588.802	28109.92112
589.005	27922.1477
589.208	28377.31033
589.411	28381.39276
589.615	27895.61527
589.818	28136.45509
590.021	28130.33185
590.224	28448.75335
590.427	28222.18148
590.63	28620.22189
590.833	28375.26913
591.036	28491.61978
591.239	28377.31033
591.442	28618.18056
591.645	28552.85836
591.848	28605.93256
592.051	28871.3142
592.254	28395.68127
592.457	28428.34092
592.66	28211.97586
592.863	28644.71801
593.066	28944.80762
593.269	28448.75335
593.472	28779.44933
593.675	29930.97567
593.878	29304.12811
594.081	29175.50401
594.284	29216.33661
594.486	28965.22269
594.689	29087.71532
594.892	28938.68311
595.095	28930.51713
595.298	28936.64162
595.5	29050.96714
595.703	29638.97868
595.906	29148.96304
596.109	29187.75374
596.311	29500.13474
596.514	29485.84226
596.717	29349.04544
596.92	29402.13021
597.122	29496.05117
597.325	29798.24698
597.528	29641.02054
597.73	29984.06847
597.933	29447.04865
598.136	29636.93682
598.338	29338.83691
598.541	29875.84165
598.743	29783.9534
598.946	29285.75298
599.148	29440.92338
599.351	29406.21369
599.554	29804.37282
599.756	29671.64856
599.959	30028.99374
600.161	29783.9534
600.363	29912.59757
600.566	29822.75039
600.768	29802.33087
600.971	29839.08608
601.173	30006.53104
601.376	30141.30935
601.578	29930.97567
601.78	30486.447
601.983	29798.24698
602.185	30098.4248
602.388	29728.82152
602.59	29902.38756
602.792	29988.15256
602.995	30057.58284
603.197	29861.54777
603.399	30300.59937
603.601	29894.21957
603.804	29718.612
604.006	29636.93682
604.208	29569.55609
604.41	29990.19461
604.613	29900.34556
604.815	29598.14171
605.017	30455.81207
605.219	29485.84226
605.421	29681.85796
605.623	29912.59757
605.826	30372.07802
606.028	29998.36282
606.23	30658.0079
606.432	30453.76976
606.634	31025.67011
606.836	30339.40188
607.038	30484.40467
607.24	30439.47356
607.442	30374.12029
607.644	30253.62848
607.846	30653.92301
608.048	30686.60227
608.25	30276.09274
608.452	30218.91128
608.654	30314.89498
608.856	30090.25637
609.058	30449.68512
609.26	30378.20484
609.462	30662.09279
609.664	30674.34751
609.866	30382.28938
610.067	30455.81207
610.269	30392.50077
610.471	29922.80762
610.673	30645.75325
610.875	30384.33166
611.077	30798.93983
611.278	29875.84165
611.48	30363.90896
611.682	30643.71081
611.884	31054.26796
612.085	30466.02369
612.287	30880.64244
612.489	30813.23763
612.69	30529.33638
612.892	30819.36527
613.094	30463.98136
613.295	30274.05053
613.497	30890.85543
613.699	30531.37875
613.9	30437.43125
614.102	30600.81993
614.304	30562.01438
614.505	30137.22508
614.707	30888.81283
614.908	30257.71288
615.11	30155.60431
615.311	30596.73511
615.513	30447.64281
615.714	30455.81207
615.916	30327.14841
616.117	30278.13495
616.319	30766.25939
616.52	30868.38691
616.722	30823.45038
616.923	30890.85543
617.124	30813.23763
617.326	30382.28938
617.527	30960.30464
617.729	30231.16437
617.93	30598.77752
618.131	30562.01438
618.333	30484.40467
618.534	30798.93983
618.735	30770.34443
618.937	30337.35963
619.138	30733.5793
619.339	30658.0079
619.54	30533.42111
619.742	30647.79569
619.943	30564.05676
620.144	30856.13143
620.345	30886.77023
620.546	30225.03782
620.748	30856.13143
620.949	30602.86234
621.15	30950.09142
621.351	31197.26159
621.552	30988.90185
621.753	31125.76386
621.954	31046.09712
622.155	30715.1969
622.356	30970.5179
622.558	30982.77385
622.759	30894.94063
622.96	30412.92364
623.161	30617.15924
623.362	30439.47356
623.563	31048.13983
623.764	30378.20484
623.965	30529.33638
624.166	30739.70679
624.366	30623.28651
624.567	30819.36527
624.768	31005.24324
624.969	29920.76561
625.17	30515.03986
625.371	30566.09915
625.572	30803.02491
625.773	30615.11682
625.973	30641.66837
626.174	30872.47208
626.375	31107.37903
626.576	30764.21688
626.777	31456.71216
626.977	30927.62246
627.178	31166.61948
627.379	30445.60049
627.58	30404.75448
627.78	30596.73511
627.981	30974.60321
628.182	31395.42231
628.382	31197.26159
628.583	31037.9263
628.784	31101.25078
628.984	30923.53721
629.185	31262.63257
629.386	30517.08222
629.586	31350.47734
629.787	30988.90185
629.987	30733.5793
630.188	30837.7483
630.388	31117.59281
630.589	30854.08885
630.79	30960.30464
630.99	31417.89508
631.191	31816.31009
631.391	31873.52394
631.591	31250.37539
631.792	30978.68853
631.992	31830.61341
632.193	31415.85209
632.393	31336.17683
632.594	31795.87692
632.794	31381.12155
632.994	31199.30441
633.195	31330.04806
633.395	31270.80406
633.595	30962.34729
633.796	31266.71831
633.996	31440.36806
634.196	31432.19604
634.397	31910.30505
634.597	31879.65408
634.797	31093.0798
634.997	31493.48678
635.198	31138.02049
635.398	31166.61948
635.598	31665.10892
635.798	31454.66914
635.998	31421.98106
636.199	31258.54684
636.399	32159.61578
636.599	31485.3146
636.799	31428.11005
636.999	31276.93269
637.199	31039.969
637.399	31203.39005
637.599	31434.23904
637.799	31409.72314
637.999	31705.97313
638.199	31752.96786
638.399	31456.71216
638.599	31503.70205
638.799	31912.34846
638.999	31867.39381
639.199	31579.29634
639.399	31556.82212
639.599	31520.04657
639.799	31015.45666
639.999	31452.62612
640.199	31460.7982
640.399	31714.14606
640.599	30874.51467
640.799	32245.451
640.998	31462.84123
641.198	31795.87692
641.398	31528.21887
641.598	31904.17482
641.798	31953.21712
641.997	31951.17367
642.197	31834.70009
642.397	32229.10115
642.597	31989.99957
642.796	32251.58222
642.996	31552.73592
643.196	31391.33637
643.395	31379.07859
643.595	31730.492
643.795	32212.75143
643.994	32157.57212
644.194	31752.96786
644.394	31656.93616
644.593	31677.36811
644.793	32096.26353
644.992	31918.47871
645.192	31667.15211
645.392	31849.00354
645.591	31900.08801
645.791	32202.53293
645.99	32063.56636
646.19	31456.71216
646.389	31898.04461
646.589	31703.9299
646.788	31940.95644
646.987	31808.1368
647.187	32055.39214
647.386	31744.79479
647.586	32198.44554
647.785	32889.34073
647.984	32231.14487
648.184	32122.83036
648.383	31824.4834
648.582	31665.10892
648.782	32308.80794
648.981	31806.09348
649.18	32368.07921
649.38	32586.78592
649.579	32439.61595
649.778	32650.15448
649.977	32858.67392
650.177	32564.30085
650.376	32625.62445
650.575	32357.85989
650.774	32562.25676
650.973	32417.13268
651.173	32202.53293
651.372	32580.6536
651.571	32443.70384
651.77	32359.90375
651.969	32357.85989
652.168	32061.5228
652.367	32648.1103
652.566	32231.14487
652.765	32549.99231
652.964	32453.92362
653.163	32341.5091
653.362	32280.19487
653.561	32758.49961
653.76	33091.75648
653.959	32605.18301
654.158	32666.50803
654.357	31906.21823
654.556	31814.26676
654.755	32110.56871
654.954	31581.33946
655.153	32006.34752
655.352	32296.54515
655.551	32282.23865
655.749	32351.72833
655.948	32466.18743
656.147	32135.09209
656.346	32468.23141
656.545	32353.77218
656.743	32276.10733
656.942	32519.33154
657.141	32646.06612
657.34	32304.72033
657.538	32639.93359
657.737	32521.37558
657.936	32631.75692
658.135	31783.6171
658.333	32220.92627
658.532	32733.96804
658.731	32703.30407
658.929	32388.518
659.128	32402.82528
659.326	32386.47411
659.525	32682.86173
659.724	32370.12308
659.922	32556.12453
660.121	32102.39431
660.319	32490.71529
660.518	32300.63274
660.716	32521.37558
660.915	32351.72833
661.113	32208.66402
661.312	32167.7904
661.51	32290.41378
661.709	32617.44784
661.907	32361.94761
662.105	32192.31448
662.304	32695.1271
662.502	32519.33154
662.701	32903.65211
662.899	32637.88942
663.097	32615.4037
663.296	32263.84474
663.494	32780.9872
663.692	32707.39257
663.891	32772.80986
664.089	32186.18343
664.287	32742.14519
664.485	32815.74133
664.684	32462.09948
664.882	32145.31026
665.08	31793.83361
665.278	31701.88668
665.476	31755.01113
665.675	32149.39754
665.873	32084.00203
666.071	32323.11463
666.269	32308.80794
666.467	32282.23865
666.665	32742.14519
666.863	32353.77218
667.061	32570.43311
667.259	32635.84525
667.457	32889.34073
667.655	32210.70773
667.853	32347.64063
668.051	32022.6956
668.249	32392.60578
668.447	32171.87773
668.645	32049.2615
668.843	32601.09475
669.041	32474.36335
669.239	31859.22034
669.437	32415.08876
669.635	32449.8357
669.833	32045.17442
670.031	32012.47804
670.229	32208.66402
670.426	32717.61385
670.624	32257.71347
670.822	31961.39094
671.02	32355.81604
671.218	32302.67653
671.415	31873.52394
671.613	31303.49024
671.811	31250.37539
672.009	31485.3146
672.206	31896.00121
672.404	31730.492
672.602	31479.18548
672.799	31832.65675
672.997	32472.31936
673.195	31640.59073
673.392	32202.53293
673.59	32190.27079
673.788	31614.02964
673.985	31832.65675
674.183	31814.26676
674.38	31965.47786
674.578	32468.23141
674.775	32337.42143
674.973	32159.61578
675.17	32167.7904
675.368	31824.4834
675.565	31781.57381
675.763	32043.13088
675.96	31497.57289
676.158	31814.26676
676.355	31258.54684
676.553	31769.31407
676.75	30988.90185
676.947	31381.12155
677.145	31240.16112
677.342	31761.14095
677.539	31900.08801
677.737	31769.31407
677.934	31799.96354
678.131	31945.04333
678.329	31987.95608
678.526	31638.54756
678.723	31011.37129
678.92	31640.59073
679.118	31442.41106
679.315	31160.4911
679.512	31037.9263
679.709	31379.07859
679.906	30819.36527
680.104	31383.16451
680.301	31479.18548
680.498	30943.9635
680.695	31299.40445
680.892	31767.27079
681.089	31266.71831
681.286	31042.01171
681.483	30860.21658
681.68	31607.9002
681.877	31144.14882
682.075	31330.04806
682.272	30760.13185
682.469	31189.09033
682.665	31648.76343
682.862	31503.70205
683.059	31097.16529
683.256	31426.06705
683.453	30837.7483
683.65	30776.47199
683.847	30733.5793
684.044	30678.43242
684.241	30754.00432
684.438	31054.26796
684.635	30827.53549
684.831	31656.93616
685.028	31413.80911
685.225	31213.60419
685.422	30899.02584
685.619	30992.98719
685.815	30800.98236
686.012	31009.3286
686.209	30378.20484
686.405	30829.57805
686.602	30698.85708
686.799	30649.83813
686.996	30404.75448
687.192	30600.81993
687.389	30735.6218
687.586	30621.24409
687.782	31033.8409
687.979	30745.83429
688.175	30329.19065
688.372	30341.44413
688.568	30617.15924
688.765	30586.52309
688.962	30909.23888
689.158	31042.01171
689.355	30803.02491
689.551	30282.21938
689.748	30474.193
689.944	30033.07789
690.14	30425.17742
690.337	30282.21938
690.533	30312.85275
690.73	30274.05053
690.926	30611.03199
691.123	30372.07802
691.319	30122.93019
691.515	30521.16693
691.712	29818.66648
691.908	29904.42956
692.104	30071.87747
692.301	30051.45659
692.497	29953.43792
692.693	29822.75039
692.889	29945.26981
693.086	30041.24618
693.282	30173.98364
693.478	30073.91957
693.674	30227.08
693.87	29694.10927
694.067	29916.68159
694.263	30004.48898
694.459	29481.75871
694.655	29894.21957
694.851	29759.45025
695.047	29767.61795
695.243	29667.56481
695.439	29592.01621
695.635	29614.47645
695.831	29587.93254
696.027	29514.42727
696.224	29579.76522
696.42	29369.46258
696.615	29645.10426
696.811	29330.67011
697.007	29022.38545
697.203	29144.87983
697.399	29053.0087
697.595	29159.17108
697.791	29040.75937
697.987	28877.4386
698.183	29843.17001
698.379	29298.00306
698.575	29518.51086
698.77	29102.00637
698.966	29081.5906
699.162	29516.46907
699.358	29489.92582
699.554	29071.38276
699.749	29012.17776
699.945	29232.66976
700.141	29024.427
700.337	29046.88403
700.532	29344.96203
700.728	29408.25542
700.924	29440.92338
701.119	28558.98227
701.315	28616.13922
701.511	28469.16588
701.706	29175.50401
701.902	29153.04625
702.097	29161.21269
702.293	28538.56927
702.489	28450.7946
702.684	28226.26374
702.88	28232.38714
703.075	28238.51054
703.271	28644.71801
703.466	28826.40223
703.662	28699.83482
703.857	28991.76244
704.053	28718.20726
704.248	28389.55762
704.443	28785.57359
704.639	28350.77469
704.834	28189.52358
705.03	28509.99126
705.225	28397.72249
705.42	27924.18866
705.616	28665.13155
705.811	27713.97548
706.006	27952.76228
706.202	28179.31804
706.397	28032.36138
706.592	28473.2484
706.787	28475.28966
706.983	28542.65186
707.178	28681.46246
707.373	28379.35155
707.568	28456.91835
707.763	28610.01522
707.959	28587.56064
708.154	28548.77576
708.349	28573.27143
708.544	27969.09016
708.739	27936.43447
708.934	27962.96719
709.129	27960.92621
709.324	27697.64877
709.519	27838.46917
709.714	27520.10073
709.909	28073.18209
710.104	27805.81467
710.299	27505.81566
710.494	27452.75736
710.689	27926.22963
710.884	28324.23923
711.079	28205.8525
711.274	28144.61942
711.469	28558.98227
711.664	28471.20714
711.859	28363.02189
712.054	28207.89362
712.249	28271.16886
712.443	27652.7507
712.638	27867.04211
712.833	27513.97855
713.028	28077.26419
713.223	27465.00151
713.417	27650.70989
713.612	27309.91233
713.807	27834.38734
714.002	27518.06
714.196	28209.93474
714.391	28028.27933
714.586	28150.74268
714.78	28156.86596
714.975	27979.29512
715.17	27536.4266
715.364	27297.66877
715.559	27720.09802
715.754	27469.0829
715.948	27526.22292
716.143	27385.41535
716.337	26979.35286
716.532	27048.72659
716.726	27018.12033
716.921	27126.26381
717.115	27085.4545
717.31	27416.02518
717.504	27456.83874
717.699	27477.2457
717.893	27007.91832
718.088	27260.93835
718.282	27122.18285
718.476	27109.94002
718.671	26630.46898
718.865	26759.00015
719.059	26675.3522
719.254	26875.29532
719.448	26475.42359
719.642	26387.70459
719.837	26336.70654
720.031	26550.90509
720.225	26230.63392
720.419	26805.9257
720.614	26591.70679
720.808	26873.25501
721.002	26836.52974
721.196	27160.95215
721.39	26442.78361
721.585	26669.23172
721.779	26318.3475
721.973	26603.94742
722.167	26346.90607
722.361	26726.35675
722.555	26803.88544
722.749	26599.8672
722.943	26638.62951
723.137	26316.30761
723.331	26371.3851
723.525	26096.0099
723.719	25983.82902
723.913	26220.43487
724.107	25551.47511
724.301	25894.08824
724.495	25681.98798
724.689	25955.27475
724.883	25524.96568
725.077	25816.5877
725.271	25698.30265
725.465	26177.59932
725.659	25688.10596
725.853	26128.64533
726.046	26006.26477
726.24	26248.99232
726.434	26016.4629
726.628	26018.50254
726.822	25502.53489
727.015	26004.22514
727.209	25647.31971
727.403	25690.1453
727.596	25759.48377
727.79	25940.99775
727.984	25959.35391
728.177	25983.82902
728.371	25934.87906
728.565	25730.93237
728.758	25698.30265
728.952	25614.69127
729.146	25616.73053
729.339	25555.55352
729.533	25433.20492
729.726	25565.74956
729.92	25282.31858
730.113	25510.69152
730.307	25871.65359
730.5	25887.96967
730.694	25861.4561
730.887	25649.359
731.081	25930.79995
731.274	25737.05049
731.468	25488.26088
731.661	25471.94785
731.854	25855.33763
732.048	25539.23995
732.241	25363.87733
732.435	25755.40497
732.628	26077.65266
732.821	26008.30439
733.014	25580.02411
733.208	25710.53873
733.401	25994.02706
733.594	25429.12676
733.788	25696.26331
733.981	25608.5735
734.174	25981.78942
734.367	25883.89064
734.56	25498.45659
734.754	25058.04986
734.947	25000.96758
735.14	25121.25016
735.333	25400.57987
735.526	25596.338
735.719	24831.77001
735.912	25139.59903
736.105	25143.67659
736.298	25284.3575
736.491	25504.57405
736.684	25551.47511
736.877	25508.65236
737.07	25210.95747
737.263	25039.70179
737.456	25445.43945
737.649	25824.74552
737.842	25812.5088
738.035	25631.00543
738.228	25217.07403
738.421	25645.28042
738.614	25492.33916
738.807	25567.78878
739	25653.4376
739.192	25033.5858
739.385	24964.27277
739.578	24978.54288
739.771	25060.08854
739.964	24795.0787
740.156	24776.73333
740.349	24519.91903
740.542	24872.53903
740.735	24937.77143
740.927	24907.19344
741.12	24666.66526
741.313	24682.97119
741.505	24104.21096
741.698	24326.31576
741.891	24096.06094
742.083	24442.47492
742.276	24226.46651
742.468	24175.5255
742.661	24128.66128
742.854	24091.98595
743.046	24691.12421
743.239	24605.51942
743.431	24886.80841
743.624	24206.0899
743.816	24008.45106
744.009	24077.72356
744.201	23908.62289
744.393	24403.75425
744.586	24151.07442
744.778	24222.39116
744.971	24108.28598
745.163	24409.86798
745.355	24436.36106
745.548	24210.1652
745.74	24328.35357
745.932	24110.3235
746.125	23988.07741
746.317	23994.18947
746.509	23886.21343
746.702	24177.56311
746.894	24081.79851
747.086	24257.03192
747.278	23816.95004
747.471	23871.95305
747.663	23645.84328
747.855	23841.39556
748.047	24030.86239
748.239	24034.93722
748.431	24073.64862
748.623	24179.60072
748.815	23967.70404
749.008	24142.92415
749.2	23831.20988
749.392	23951.40556
749.584	23969.74137
749.776	24377.26171
749.968	24224.42883
750.16	23937.14453
750.352	23464.5748
750.544	23672.32271
750.736	23818.98715
750.928	24132.73637
751.12	23768.06026
751.311	23847.50701
751.503	23986.04006
751.695	23745.65301
751.887	23389.22319
752.079	23601.03309
752.271	23533.82057
752.463	23723.24612
752.654	23660.10137
752.846	23713.06129
753.038	23497.1606
753.23	23631.58533
753.421	23688.618
753.613	23658.06449
753.805	24157.18715
753.997	23517.52712
754.188	23725.2831
754.38	23639.73271
754.572	24100.13594
754.763	24016.60059
754.955	23706.95043
755.146	23586.77561
755.338	23216.13456
755.53	23285.36724
755.721	23342.38517
755.913	23486.97745
756.104	22884.2776
756.296	22841.5295
756.487	23004.38739
756.679	23201.88123
756.87	22853.74309
757.062	22839.49392
757.253	22963.67089
757.445	23047.14115
757.636	22939.24164
757.827	22766.21511
758.019	22906.67006
758.21	22756.03785
758.401	22432.44681
758.593	22715.32968
758.784	22642.05849
758.975	22637.988
759.167	22422.27246
759.358	22548.44084
759.549	22436.51658
759.74	22355.12398
759.932	22648.16425
760.123	22218.80446
760.314	22159.80564
760.505	21948.24957
760.696	21773.34009
760.888	21927.9098
761.079	21791.64324
761.27	22037.74908
761.461	22255.42599
761.652	22469.07525
761.843	22029.61246
762.034	22233.04603
762.225	21995.03249
762.416	21783.50847
762.607	21567.9598
762.798	21866.89279
762.989	22096.74139
763.18	22163.87442
763.371	21875.02819
763.562	21960.45362
763.753	21791.64324
763.944	21722.49968
764.135	21342.29129
764.326	21663.52784
764.517	21722.49968
764.708	21450.0368
764.899	21578.1262
765.089	21301.63554
765.28	21677.76212
765.471	21358.55404
765.662	20990.67262
765.853	21287.4064
766.043	21039.44481
766.234	21580.15949
766.425	21104.47806
766.615	21397.17911
766.806	21399.21205
766.997	21232.52445
767.187	21069.92862
767.378	21197.97066
767.569	21210.16598
767.759	21106.51041
767.95	21496.79777
768.141	21104.47806
768.331	21206.10086
768.522	20787.48069
768.712	20947.9989
768.903	20988.6405
769.093	20677.77425
769.284	20411.68506
769.474	20513.23735
769.665	20320.29695
769.855	20442.14965
770.046	20724.49959
770.236	20460.42885
770.426	20539.64267
770.617	20629.01972
770.807	20395.43766
770.998	20501.05053
771.188	20279.68274
771.378	20123.33374
771.569	20267.49881
771.759	20346.69709
771.949	20476.67732
772.139	20612.76875
772.33	20230.94791
772.52	20480.73948
772.71	20289.83614
772.9	20054.30445
773.09	19954.82962
773.281	20023.8519
773.471	19713.28991
773.661	19788.38412
773.851	19837.09696
774.041	19526.59399
774.231	19950.76964
774.421	19303.41685
774.611	19118.82623
774.802	19419.05692
774.992	19388.62402
775.182	19417.02803
775.372	19855.36489
775.562	19264.87314
775.752	19486.01259
775.942	19005.24881
776.131	19157.36433
776.321	18920.07407
776.511	19135.05262
776.701	19070.14863
776.891	19348.04827
777.081	19546.88531
777.271	18972.80045
777.461	19088.40246
777.651	19264.87314
777.84	18997.13662
778.03	19368.33594
778.22	19380.50874
778.41	19199.96078
778.599	18832.87871
778.789	19171.56294
778.979	19066.09227
779.169	18540.9289
779.358	18741.63563
779.548	19084.34602
779.738	18944.40899
779.927	19311.53151
780.117	19137.08093
780.307	18603.77235
780.496	18820.7125
780.686	18490.2514
780.875	18360.52789
781.065	18723.38797
781.254	18589.58156
781.444	18538.90175
781.633	18151.78642
781.823	18313.9123
782.012	18881.54498
782.202	18447.68415
782.391	18522.68472
782.581	18261.21879
782.77	18046.41717
782.96	17963.34441
783.149	17805.31983
783.338	18056.54841
783.528	18040.33847
783.717	17932.95342
783.906	17756.7011
784.096	17837.73342
784.285	17985.63164
784.474	17949.16185
784.663	18009.94547
784.853	17845.83695
785.042	18080.86374
785.231	18194.34218
785.42	17651.36716
785.61	17724.28969
785.799	17813.42315
785.988	17963.34441
786.177	17614.90749
786.366	17456.92773
786.555	17742.521
786.744	17770.88136
786.933	17618.95852
787.122	17572.37256
787.312	17386.04561
787.501	17219.99352
787.69	17317.1923
787.879	17505.53482
788.068	17303.01705
788.257	17064.08438
788.445	17708.08431
788.634	17614.90749
788.823	17489.33225
789.012	17177.47117
789.201	17586.55071
789.39	17084.33138
789.579	16723.9743
789.768	17323.26745
789.957	16843.40952
790.145	17098.50444
790.334	16817.09255
790.523	16950.70623
790.712	16671.34448
790.9	17060.03502
791.089	16703.73188
791.278	16861.62921
791.467	17070.15845
791.655	16942.60811
791.844	16748.26552
792.033	16817.09255
792.221	16608.59559
792.41	16477.03221
792.599	16576.20991
792.787	16780.65436
792.976	16481.08018
793.164	16649.0785
793.353	16831.26317
793.541	16707.78034
793.73	16800.8977
793.918	17037.7637
794.107	16276.66762
794.295	16226.0734
794.484	16331.31064
794.672	16738.14414
794.861	16331.31064
795.049	16618.71623
795.238	16321.19146
795.426	16521.56034
795.614	16056.08449
795.803	15950.85863
795.991	16023.70689
796.179	15958.9528
796.368	16104.6516
796.556	15967.04698
796.744	16043.94285
796.932	16604.54735
797.121	16082.39157
797.309	16076.32068
797.497	15823.37824
797.685	15873.96512
797.874	15845.63638
798.062	16282.739
798.25	16098.58066
798.438	16100.60431
798.626	15649.3645
798.814	15489.52026
799.002	15793.02646
799.19	15691.85556
799.378	15497.61354
799.566	15948.8351
799.755	15703.99594
799.943	15643.29437
800.131	15778.86238
800.318	15788.97958
800.506	15720.18316
800.694	15546.17341
800.882	15523.91676
801.07	15732.32362
801.258	15833.49556
801.446	15886.10608
801.634	15355.98237
801.822	15712.08954
802.01	15465.24049
802.197	15432.86757
802.385	15256.84165
802.573	15388.35502
802.761	15833.49556
802.949	15714.11295
803.136	15388.35502
803.324	15319.56326
803.512	15275.05113
803.699	15012.02559
803.887	15206.25983
804.075	15210.30637
804.262	15094.97992
804.45	15576.52353
804.638	15645.31775
804.825	15750.53438
805.013	15436.91418
805.201	15750.53438
805.388	15479.40368
805.576	15534.03341
805.763	15465.24049
805.951	15667.5749
806.138	15360.02895
806.326	15732.32362
806.513	15477.38036
806.701	15525.94009
806.888	15238.63218
807.075	15323.60982
807.263	15179.95731
807.45	15281.12095
807.638	15592.71032
807.825	15742.4407
808.012	15341.81937
808.2	15756.60465
808.387	15635.20089
808.574	15837.54249
808.761	15685.78538
808.949	15724.22998
809.136	15576.52353
809.323	15489.52026
809.51	15445.0074
809.698	15329.67967
809.885	15127.35227
810.072	15430.84427
810.259	15408.58797
810.446	15420.72776
810.633	15418.70446
810.82	15653.41125
811.008	15406.56467
811.195	15558.31344
811.382	14997.86261
811.569	15424.77436
811.756	15392.4016
811.943	15619.01397
812.13	15048.44461
812.317	15471.31042
812.504	15734.34703
812.691	15967.04698
812.878	15467.2638
813.064	15651.38787
813.251	15218.39946
813.438	15534.03341
813.625	15228.51582
813.812	15161.74787
813.999	15337.7728
814.186	15497.61354
814.372	15750.53438
814.559	15940.74096
814.746	15604.85045
814.933	15521.89343
815.12	15428.82097
815.306	15228.51582
815.493	14896.69797
815.68	15275.05113
815.866	15151.63152
816.053	15616.9906
816.24	15291.23734
816.426	15521.89343
816.613	15438.93748
816.799	15234.58564
816.986	15214.35292
817.173	15214.35292
817.359	15024.16527
817.546	15471.31042
817.732	15218.39946
817.919	15220.42273
818.105	15364.07552
818.292	15594.73367
818.478	14997.86261
818.665	15281.12095
818.851	15119.25919
819.037	15335.74952
819.224	15240.65546
819.41	15392.4016
819.597	15147.58498
819.783	15331.70295
819.969	15266.95802
820.156	15256.84165
820.342	15222.446
820.528	15097.0032
820.714	14516.30316
820.901	14886.58144
821.087	14947.28042
821.273	15194.1202
821.459	14933.11736
821.646	15080.81701
821.832	14894.67466
822.018	14773.2753
822.204	14633.66259
822.39	14702.4578
822.576	14655.91999
822.762	14805.6487
822.948	14668.06034
823.134	14692.34093
823.32	14694.36431
823.507	14793.5087
823.693	14700.43443
823.879	14326.09028
824.065	14384.77443
824.25	14338.23194
824.436	14372.63299
824.622	14910.86108
824.808	14868.37166
824.994	14730.78493
825.18	14235.02579
825.366	14651.8732
825.552	14435.36313
825.738	14720.66812
825.923	14356.44432
826.109	14394.89224
826.295	14192.52771
826.481	14340.25555
826.667	14190.50397
826.852	14170.26647
827.038	14307.87767
827.224	14095.38585
827.409	14038.71741
827.595	14228.95468
827.781	14073.12347
827.966	14145.98118
828.152	13996.21487
828.338	14156.10009
828.523	13573.14653
828.709	13627.80895
828.894	13573.14653
829.08	13844.41085
829.266	13777.61214
829.451	13939.54311
829.637	13838.33837
829.822	14235.02579
830.008	13943.59116
830.193	14188.48023
830.378	13901.08611
830.564	13868.70051
830.749	13579.22026
830.935	13409.14351
831.12	13137.77185
831.305	13490.13571
831.491	13153.97536
831.676	13334.22014
831.861	13220.81175
832.047	13411.16839
832.232	13210.68534
832.417	13340.29521
832.602	13202.58413
832.788	13036.49305
832.973	12793.37234
833.158	13070.92919
833.343	12894.68188
833.528	13267.39182
833.714	13008.13281
833.899	13305.86929
834.084	12894.68188
834.269	13352.44525
834.454	13143.8482
834.639	13330.17006
834.824	13208.66004
835.009	13204.60944
835.194	13222.83702
835.379	13475.96252
835.564	13091.18509
835.749	13291.69356
835.934	13328.14502
836.119	13273.46731
836.304	13117.51704
836.489	13093.21065
836.674	12783.24063
836.859	12931.15003
837.044	12890.62976
837.228	13208.66004
837.413	12582.60277
837.598	12961.53885
837.783	12420.42698
837.968	12878.47327
838.152	12730.55343
838.337	12700.1552
838.522	12448.81074
838.707	12720.42083
838.891	12517.73739
839.076	12643.40828
839.261	12361.62786
839.445	12511.65593
839.63	12331.21226
839.815	12428.53676
839.999	12156.79875
840.184	12465.02945
840.368	12124.34375
840.553	12292.6836
840.737	12203.44948
840.922	12408.26211
841.106	12266.32042
841.291	12201.42126
841.475	11968.12652
841.66	12363.65551
841.844	12108.11553
842.029	12566.38703
842.213	12144.62835
842.397	12408.26211
842.582	11953.92264
842.766	12022.90928
842.951	11830.1289
843.135	11998.5621
843.319	11811.86162
843.504	11824.03988
843.688	11645.39401
843.872	11933.63068
844.056	11822.01019
844.241	11817.95079
844.425	11990.44612
844.609	11830.1289
844.793	11576.35322
844.977	11562.13762
845.161	11356.97497
845.346	11367.13387
845.53	11399.6407
845.714	11669.75884
845.898	11409.79856
846.082	11541.82883
846.266	11375.26082
846.45	11937.68914
846.634	11444.33348
846.818	11432.145
847.002	11348.84767
847.186	11163.90762
847.37	10854.79894
847.554	11113.08478
847.738	10940.23631
847.922	11206.59368
848.106	11200.49596
848.29	11324.46481
848.473	11188.30022
848.657	10934.13431
848.841	10903.62276
849.025	11194.39814
849.209	10869.03991
849.392	11165.94039
849.576	10852.76447
849.76	11255.37213
849.944	10919.89591
850.127	11064.28854
850.311	11064.28854
850.495	11123.24988
850.678	11048.02174
850.862	11068.35514
851.046	10580.03802
851.229	10738.81546
851.413	10726.60444
851.596	11003.28441
851.78	10805.96845
851.964	10968.71098
852.147	10732.71
852.331	10789.69012
852.514	10496.54785
852.698	10685.89789
852.881	10547.45901
853.065	10742.88571
853.248	10341.72854
853.431	10384.51509
853.615	10219.44882
853.798	10437.48091
853.982	10105.27674
854.165	10498.58445
854.348	9862.51351
854.532	10131.78485
854.715	10078.76626
854.898	10296.89826
855.081	10176.63937
855.265	10449.70254
855.448	10125.6678
855.631	10125.6678
855.814	9815.56903
855.997	9938.01648
856.181	9527.60279
856.364	9954.33881
856.547	9805.36266
856.73	10119.55063
856.913	9705.32027
857.096	9962.49963
857.279	9786.99025
857.462	9556.20902
857.645	9451.98556
857.828	9582.76917
858.011	9501.03707
858.194	9654.2641
858.377	9531.68958
858.56	9919.65274
858.743	9746.1583
858.926	9903.32842
859.109	9513.29851
859.292	9535.77631
859.475	9601.15541
859.658	9756.36686
859.841	9548.03613
860.023	9637.92408
860.206	9490.81877
860.389	9509.21143
860.572	9333.40586
860.755	9507.16786
860.937	9347.72013
861.12	9116.54677
861.303	9079.70267
861.486	9310.91037
861.668	9081.74971
861.851	9335.4508
862.034	9149.29241
862.216	9255.68566
862.399	8938.41466
862.581	8944.55936
862.764	8655.58331
862.947	8797.04221
863.129	8745.79908
863.312	9024.42598
863.494	8553.02171
863.677	8723.24848
863.859	8694.5445
864.042	8788.84408
864.224	8692.49408
864.406	8807.28947
864.589	8526.348
864.771	8729.39886
864.954	8633.02377
865.136	8760.14831
865.318	8292.30148
865.501	8216.28467
865.683	8390.87794
865.865	8553.02171
866.048	8347.75626
866.23	8509.93181
866.412	8142.29635
866.594	8312.84195
866.777	8072.3947
866.959	8064.16945
867.141	8018.92476
867.323	8458.62339
867.505	8304.626
867.687	8575.58928
867.869	8343.64898
868.052	8680.19116
868.234	8259.43266
868.416	8565.33158
868.598	8185.45934
868.78	8458.62339
868.962	8316.94981
869.144	8216.28467
869.326	8043.6049
869.508	7932.5212
869.69	8010.6974
869.872	8154.62953
870.054	7675.15191
870.236	8121.73945
870.417	7893.42199
870.599	8142.29635
870.781	8006.5836
870.963	8185.45934
871.145	7792.55273
871.327	7788.43456
871.508	7662.78995
871.69	7899.59604
871.872	7736.95033
872.054	8090.90034
872.235	7763.72376
872.417	8000.41274
872.599	7992.18465
872.78	8097.06852
872.962	8023.03832
873.144	7946.9243
873.325	7946.9243
873.507	7953.09675
873.689	7874.89871
873.87	7965.44109
874.052	7858.43218
874.233	7841.96431
874.415	7718.4128
874.596	7788.43456
874.778	7652.48773
874.959	7771.96103
875.141	7761.66439
875.322	7961.32639
875.503	7619.51706
875.685	7607.15166
875.866	7495.82839
876.048	7860.49056
876.229	7625.69948
876.41	7771.96103
876.592	7555.62088
876.773	7771.96103
876.954	7570.05084
877.136	7940.75166
877.317	7778.13876
877.498	8269.7047
877.679	7965.44109
877.86	7844.02287
878.042	7722.53239
878.223	8014.81112
878.404	7872.84047
878.585	7802.8478
878.766	7652.48773
878.947	8072.3947
879.128	7701.93356
879.309	7800.78883
879.49	7825.49512
879.672	7885.18963
879.853	7570.05084
880.034	7677.21217
880.215	7557.68237
880.396	7734.89069
880.576	7594.78549
880.757	8060.0567
880.938	7862.54893
881.119	8051.83096
881.3	7942.80923
881.481	7951.03928
881.662	7683.3928
881.843	7506.13873
882.023	7415.38921
882.204	7256.47613
882.385	7444.2686
882.566	7759.605
882.747	7431.89224
882.927	7706.05349
883.108	7627.76024
883.289	7846.0814
883.469	7883.13149
883.65	8090.90034
883.831	7730.77134
884.011	8016.86795
884.192	7518.51043
884.373	7701.93356
884.553	7405.07411
884.734	7866.66561
884.914	7872.84047
885.095	8051.83096
885.275	7466.95657
885.456	7899.59604
885.636	7600.96867
885.817	8105.29249
885.997	7829.61254
886.178	8078.56343
886.358	7553.55937
886.538	7780.19796
886.719	7944.86677
886.899	7895.48003
887.08	7858.43218
887.26	8002.46972
887.44	7817.26002
887.621	8156.68499
887.801	7800.78883
887.981	8047.71797
888.161	7866.66561
888.342	8055.94387
888.522	7909.88572
888.702	7891.36393
888.882	7769.90174
889.062	8012.75427
889.242	7811.08348
889.423	7979.8419
889.603	7769.90174
889.783	7911.94359
889.963	7644.24557
890.143	7835.78852
890.323	7510.26272
890.503	7710.17334
890.683	7384.44228
890.863	7590.66326
891.043	7466.95657
891.223	7821.37761
891.403	7629.82098
891.583	7942.80923
891.763	7784.3163
891.943	7586.54095
892.122	7535.00482
892.302	7662.78995
892.482	7407.13717
892.662	7660.72955
892.842	7638.06373
893.022	7693.69343
893.201	7565.9281
893.381	7716.35296
893.561	7565.9281
893.741	7720.47261
893.92	7514.38661
894.1	7561.80528
894.28	7165.6101
894.459	7671.03134
894.639	7334.91698
894.819	7654.54822
894.998	7272.99263
895.178	7462.83168
895.357	7268.86364
895.537	7578.29607
895.716	7574.1735
895.896	7623.63869
896.075	7206.91815
896.255	7365.87176
896.434	7223.43889
896.614	7235.82852
896.793	7107.7639
896.973	6969.27502
897.152	7035.43153
897.331	7113.96254
897.511	6929.98367
897.69	6936.18811
897.87	6741.68521
898.049	7016.82734
898.228	6809.99106
898.407	6609.14208
898.587	6501.38125
898.766	6600.85501
898.945	6470.28476
899.124	6590.49564
899.304	6725.12246
899.483	6818.26887
899.662	6484.7971
899.841	6513.81839
900.02	6395.63183
900.199	6553.19715
900.378	6638.14394
900.557	6621.572
900.737	6524.18203
900.916	6644.35804
901.095	6478.57767
901.274	6474.43126
901.453	6310.57366
901.632	6557.3418
901.811	6497.23535
901.989	6685.78005
902.168	6347.92111
902.347	6250.38685
902.526	6084.25204
902.705	6354.14494
902.884	6040.61673
903.063	6142.41632
903.242	5980.34137
903.42	6273.21865
903.599	5965.78918
903.778	6017.75599
903.957	5967.86813
904.135	5913.80763
904.314	5824.36487
904.493	6237.93195
904.672	6021.9127
904.85	5847.24973
905.029	5559.942
905.207	5557.85842
905.386	5232.53214
905.565	5341.03768
905.743	5184.51915
905.922	5226.27028
906.1	4979.8043
906.279	5190.78242
906.457	4910.81978
906.636	5372.32559
906.814	5261.75139
906.993	5347.29569
907.171	5167.81609
907.35	5080.10061
907.528	4829.26044
907.707	4915.00137
907.885	4684.87838
908.063	4858.54215
908.242	4659.75748
908.42	4764.40648
908.598	4559.24163
908.777	4820.89341
908.955	4590.65835
909.133	4854.35932
909.311	4420.94887
909.49	4810.43412
909.668	4552.95768
909.846	5019.51129
910.024	4770.68362
910.202	5044.58509
910.38	4753.94412
910.559	4749.75902
910.737	4628.3518
910.915	4967.26353
911.093	4829.26044
911.271	4925.45495
911.449	4848.08491
911.627	4988.16436
911.805	4758.12913
911.983	4879.45492
912.161	4613.6941
912.339	4795.79015
912.517	4527.8199
912.695	4902.45632
912.872	4760.2216
913.05	4983.98438
913.228	4686.97164
913.406	4827.16872
913.584	4931.72682
913.762	4841.81029
913.939	4879.45492
914.117	4935.90796
914.295	4619.97611
914.473	4670.22491
914.65	4730.92494
914.828	4906.6381
915.006	4668.13147
915.184	4789.51383
915.361	4475.43929
915.539	4571.80892
915.716	4311.92381
915.894	4573.90339
916.072	4477.53478
916.249	4569.71443
916.427	4766.49888
916.604	4768.59126
916.782	4393.69812
916.959	4703.71693
917.137	4565.52537
917.314	4820.89341
917.492	4381.1196
917.669	4651.38312
917.847	4410.46825
918.024	4431.42895
918.201	4402.08336
918.379	4410.46825
918.556	4150.37612
918.733	4586.46975
918.911	4395.79446
919.088	4412.56442
919.265	4175.56067
919.442	4238.5087
919.62	3948.79189
919.797	4368.5403
919.974	3908.87263
920.151	4018.10791
920.328	3919.37841
920.506	4192.34867
920.683	4267.87789
920.86	4309.8266
921.037	4209.13533
921.214	4322.40953
921.391	4005.50665
921.568	4076.90396
921.745	3892.06235
921.922	4099.99797
922.099	3873.14924
922.276	4267.87789
922.453	3831.11435
922.63	3957.19501
922.807	3608.19903
922.984	3734.40416
923.161	3532.4434
923.338	3683.93035
923.514	3530.33874
923.691	3770.1497
923.868	3437.71544
924.045	3517.71036
924.222	3570.32423
924.399	3561.90678
924.575	3429.29341
924.752	3589.26238
924.929	3612.40697
925.105	3376.6493
925.282	3420.8711
925.459	3578.74137
925.635	3277.64885
925.812	3414.55418
925.989	3109.05205
926.165	3109.05205
926.342	3035.25854
926.518	3184.93361
926.695	2997.30021
926.871	3260.79394
927.048	3161.7498
927.224	3254.47307
927.401	2965.66451
927.577	3340.84503
927.754	3106.94393
927.93	3182.82608
928.107	3159.64209
928.283	3043.69305
928.459	2712.46227
928.636	2957.22775
928.812	2742.01275
928.988	2997.30021
929.165	2687.13125
929.341	2906.60225
929.517	2644.90879
929.693	2744.1234
929.87	2685.02025
930.046	2733.57002
930.222	2552.00196
930.398	2853.85847
930.574	2549.89017
930.751	2832.75847
930.927	2674.46505
931.103	2575.23086
931.279	2549.89017
931.455	2689.24224
931.631	2431.61184
931.807	2596.34678
931.983	2393.58653
932.159	2535.10732
932.335	2235.11294
932.511	2338.65519
932.687	2175.93624
932.863	2277.37779
933.039	2156.91376
933.215	2330.20361
933.391	2201.29851
933.566	2268.92511
933.742	2123.09441
933.918	2258.35906
934.094	2004.71163
934.27	2070.24773
934.445	1721.36328
934.621	2027.96713
934.797	1643.11225
934.973	1662.14664
935.148	1640.99731
935.324	1738.28187
935.5	1577.548
935.675	1776.34783
935.851	1562.74293
936.027	1621.96271
936.202	1425.26517
936.378	1531.01755
936.553	1382.96428
936.729	1249.71993
936.904	1148.20733
937.08	1289.90392
937.255	985.38575
937.431	1086.88125
937.606	879.67749
937.782	841.62734
937.957	748.6283
938.133	960.01411
938.308	748.6283
938.483	818.37586
938.659	638.7464
938.834	742.28816
939.009	613.39353
939.185	647.19775
939.36	440.20081
939.535	604.94298
939.71	505.66485
939.886	594.38007
940.061	512.00084
940.236	537.34607
940.411	516.2249
940.586	533.12172
940.761	317.76099
940.937	514.11286
941.112	471.87515
941.287	473.9869
941.462	334.64583
941.637	501.44093
941.812	412.75256
941.987	433.86636
942.162	288.21528
942.337	334.64583
942.512	351.5318
942.687	370.52983
942.862	241.79366
943.037	385.30703
943.212	313.53995
943.386	429.64347
943.561	246.01343
943.736	307.20854
943.911	305.0981
944.086	283.99475
944.26	309.31899
944.435	313.53995
944.61	359.9752
944.785	246.01343
944.959	283.99475
945.134	343.08867
945.309	296.65654
945.483	372.64081
945.658	241.79366
945.833	281.88452
946.007	292.43587
946.182	286.10501
946.357	283.99475
946.531	328.31388
946.706	321.98209
946.88	279.77431
947.055	237.57397
947.229	300.87729
947.404	317.76099
947.578	296.65654
947.752	294.5462
947.927	395.86267
948.101	353.64262
948.276	296.65654
948.45	309.31899
948.624	372.64081
948.799	292.43587
948.973	402.19626
949.147	370.52983
949.321	412.75256
949.496	359.9752
949.67	347.3102
949.844	317.76099
950.018	343.08867
950.193	368.41887
950.367	347.3102
950.541	288.21528
950.715	269.22351
950.889	292.43587
951.063	343.08867
951.237	307.20854
951.411	410.64126
951.585	319.87153
951.759	294.5462
951.933	324.09267
952.107	512.00084
952.281	355.75346
952.455	343.08867
952.629	385.30703
952.803	357.86432
952.977	227.02509
953.151	450.75854
953.325	286.10501
953.499	452.87013
953.672	351.5318
953.846	387.41813
954.02	374.75181
954.194	340.97794
954.368	250.23327
954.541	305.0981
954.715	387.41813
954.889	463.42832
955.062	343.08867
955.236	461.31665
955.41	275.55393
955.583	332.53516
955.757	305.0981
955.93	469.76342
956.104	359.9752
956.278	381.08489
956.451	288.21528
956.625	351.5318
956.798	283.99475
956.972	438.08931
957.145	309.31899
957.319	368.41887
957.492	334.64583
957.665	402.19626
957.839	368.41887
958.012	435.97783
958.185	334.64583
958.359	343.08867
958.532	368.41887
958.705	442.31232
958.879	459.205
959.052	423.30926
959.225	330.42451
959.398	463.42832
959.572	351.5318
959.745	397.97385
959.918	431.75491
960.091	452.87013
960.264	419.08653
960.438	427.53205
960.611	296.65654
960.784	271.33363
960.957	231.24458
961.13	410.64126
961.303	317.76099
961.476	267.11341
961.649	366.30793
961.822	376.86282
961.995	393.75151
962.168	389.52924
962.341	338.86722
962.514	452.87013
962.686	338.86722
962.859	410.64126
963.032	328.31388
963.205	328.31388
963.378	343.08867
963.551	330.42451
963.723	296.65654
963.896	256.56318
964.069	300.87729
964.242	313.53995
964.414	311.42946
964.587	370.52983
964.76	321.98209
964.932	319.87153
965.105	359.9752
965.278	349.42099
965.45	300.87729
965.623	423.30926
965.795	389.52924
965.968	258.67319
966.14	288.21528
966.313	368.41887
966.485	338.86722
966.658	330.42451
966.83	237.57397
967.003	328.31388
967.175	174.28813
967.348	269.22351
967.52	212.25747
967.692	343.08867
967.865	165.85139
968.037	235.46415
968.209	246.01343
968.382	277.66411
968.554	267.11341
968.726	277.66411
968.898	258.67319
969.071	359.9752
969.243	311.42946
969.415	288.21528
969.587	134.21663
969.759	214.36707
969.932	140.5432
970.104	296.65654
970.276	271.33363
970.448	332.53516
970.62	227.02509
970.792	254.45319
970.964	182.72519
971.136	254.45319
971.308	243.90353
971.48	275.55393
971.652	136.32547
971.824	241.79366
971.996	176.39736
972.168	269.22351
972.339	235.46415
972.511	222.80567
972.683	189.0532
972.855	210.14789
973.027	165.85139
973.199	186.94385
973.37	117.34672
973.542	260.78321
973.714	208.03833
973.886	205.9288
974.057	98.36974
974.229	267.11341
974.401	178.50662
974.572	246.01343
974.744	224.91537
974.915	212.25747
975.087	62.52924
975.259	275.55393
975.43	205.9288
975.602	229.13482
975.773	132.10782
975.945	165.85139
976.116	250.23327
976.288	178.50662
976.459	115.23808
976.63	267.11341
976.802	208.03833
976.973	163.74226
977.145	144.76102
977.316	148.97893
977.487	216.47669
977.659	153.19692
977.83	151.08791
978.001	174.28813
978.172	144.76102
978.344	267.11341
978.515	106.80373
978.686	178.50662
978.857	134.21663
979.028	127.89025
979.2	104.6952
979.371	165.85139
979.542	142.6521
979.713	134.21663
979.884	100.4782
980.055	92.04447
980.226	115.23808
980.397	216.47669
980.568	208.03833
980.739	151.08791
980.91	123.67278
981.081	58.31314
981.252	102.58669
981.423	111.02086
981.594	119.45538
981.765	115.23808
981.936	191.16258
982.106	77.2863
982.277	119.45538
982.448	146.86997
982.619	108.91229
982.79	111.02086
982.96	136.32547
983.131	132.10782
983.302	111.02086
983.472	123.67278
983.643	119.45538
983.814	121.56407
983.984	115.23808
984.155	106.80373
984.326	153.19692
984.496	108.91229
984.667	45.6654
984.837	92.04447
985.008	70.96171
985.178	134.21663
985.349	125.7815
985.519	83.6111
985.69	51.98916
985.86	98.36974
986.031	138.43433
986.201	98.36974
986.371	113.12946
986.542	81.50281
986.712	94.15287
986.882	85.71941
987.053	104.6952
987.223	22.48004
987.393	39.34183
987.563	144.76102
987.734	159.52406
987.904	106.80373
988.074	104.6952
988.244	119.45538
988.414	195.3814
988.585	49.88122
988.755	73.06989
988.925	49.88122
989.095	132.10782
989.265	151.08791
989.435	111.02086
989.605	136.32547
989.775	111.02086
989.945	155.30595
990.115	106.80373
990.285	125.7815
990.455	106.80373
990.625	85.71941
990.795	51.98916
990.965	123.67278
991.134	89.9361
991.304	117.34672
991.474	94.15287
991.644	68.85356
991.814	146.86997
991.984	64.63732
992.153	132.10782
992.323	35.12624
992.493	102.58669
992.662	106.80373
992.832	123.67278
993.002	123.67278
993.171	45.6654
993.341	64.63732
993.511	43.55752
993.68	64.63732
993.85	83.6111
994.019	47.77329
994.189	45.6654
994.358	26.69535
994.528	96.26129
994.697	-0.70246
994.867	64.63732
995.036	5.61975
995.206	94.15287
995.375	98.36974
995.544	144.76102
995.714	47.77329
995.883	81.50281
996.052	83.6111
996.222	89.9361
996.391	73.06989
996.56	73.06989
996.73	115.23808
996.899	79.39455
997.068	14.04971
997.237	94.15287
997.406	113.12946
997.576	41.44967
997.745	115.23808
997.914	-28.09618
998.083	66.74543
998.252	28.80304
998.421	98.36974
998.59	28.80304
998.759	73.06989
998.928	75.17808
999.097	89.9361
999.266	49.88122
999.435	18.26482
999.604	58.31314
999.773	43.55752
999.942	47.77329
1000.111	66.74543
1000.28	92.04447
1000.448	1.40492
1000.617	22.48004
1000.786	79.39455
1000.955	113.12946
1001.124	5.61975
1001.292	33.01848
1001.461	132.10782
1001.63	58.31314
1001.798	41.44967
1001.967	66.74543
1002.136	115.23808
1002.304	-2.80981
1002.473	56.20513
1002.642	-32.31023
1002.81	140.5432
1002.979	89.9361
1003.147	9.83468
1003.316	64.63732
1003.484	41.44967
1003.653	49.88122
1003.821	35.12624
1003.99	-11.23899
1004.158	64.63732
1004.327	60.42118
1004.495	33.01848
1004.663	58.31314
1004.832	151.08791
1005	98.36974
1005.168	35.12624
1005.337	89.9361
1005.505	20.37242
1005.673	73.06989
1005.842	9.83468
1006.01	70.96171
1006.178	92.04447
1006.346	64.63732
1006.514	83.6111
1006.683	64.63732
1006.851	113.12946
1007.019	73.06989
1007.187	-13.34623
1007.355	41.44967
1007.523	20.37242
1007.691	54.09713
1007.859	1.40492
1008.027	73.06989
1008.195	100.4782
1008.363	100.4782
1008.531	-59.69913
1008.699	45.6654
1008.867	-0.70246
1009.035	60.42118
1009.203	70.96171
1009.37	83.6111
1009.538	39.34183
1009.706	35.12624
1009.874	49.88122
1010.042	-28.09618
1010.209	66.74543
1010.377	-2.80981
1010.545	56.20513
1010.713	58.31314
1010.88	3.51233
1011.048	1.40492
1011.216	16.15725
1011.383	68.85356
1011.551	68.85356
1011.718	39.34183
1011.886	-23.88203
1012.054	49.88122
1012.221	-11.23899
1012.389	14.04971
1012.556	39.34183
1012.724	26.69535
1012.891	22.48004
1013.058	56.20513
1013.226	7.72721
1013.393	-2.80981
1013.561	39.34183
1013.728	-9.13173
1013.895	22.48004
1014.063	16.15725
1014.23	62.52924
1014.397	66.74543
1014.565	64.63732
1014.732	35.12624
1014.899	-21.77492
1015.066	49.88122
1015.233	18.26482
1015.401	-7.02445
1015.568	-15.45344
1015.735	-15.45344
1015.902	51.98916
1016.069	60.42118
1016.236	18.26482
1016.403	111.02086
1016.57	33.01848
1016.737	62.52924
1016.904	33.01848
1017.071	75.17808
1017.238	64.63732
1017.405	39.34183
1017.572	58.31314
1017.739	47.77329
1017.906	22.48004
1018.073	-2.80981
1018.24	5.61975
1018.407	30.91075
1018.573	-21.77492
1018.74	51.98916
1018.907	24.58768
1019.074	-19.66778
1019.241	64.63732
1019.407	22.48004
1019.574	30.91075
1019.741	39.34183
1019.907	22.48004
1020.074	28.80304
1020.241	1.40492
1020.407	132.10782
1020.574	-36.52418
1020.74	100.4782
1020.907	39.34183
1021.073	85.71941
1021.24	-17.56062
1021.406	30.91075
1021.573	-0.70246
1021.739	81.50281
1021.906	96.26129
1022.072	123.67278
1022.239	-15.45344
1022.405	49.88122
1022.571	26.69535
1022.738	56.20513
1022.904	30.91075
1023.07	98.36974
1023.237	56.20513
1023.403	14.04971
1023.569	47.77329
1023.735	22.48004
1023.902	43.55752
1024.068	33.01848
1024.234	18.26482
1024.4	16.15725
1024.566	144.76102
1024.732	14.04971
1024.898	-23.88203
1025.065	64.63732
1025.231	-28.09618
1025.397	30.91075
1025.563	47.77329
1025.729	43.55752
1025.895	43.55752
1026.061	9.83468
1026.227	9.83468
1026.392	22.48004
1026.558	56.20513
1026.724	51.98916
1026.89	100.4782
1027.056	-11.23899
1027.222	-17.56062
1027.388	-25.98912
1027.553	39.34183
1027.719	81.50281
1027.885	-7.02445
1028.051	-13.34623
1028.216	-11.23899
1028.382	39.34183
1028.548	96.26129
1028.713	111.02086
1028.879	-40.73804
1029.045	22.48004
1029.21	30.91075
1029.376	14.04971
1029.541	108.91229
1029.707	43.55752
1029.873	64.63732
1030.038	41.44967
1030.204	73.06989
1030.369	58.31314
1030.534	22.48004
1030.7	1.40492
1030.865	-17.56062
1031.031	9.83468
1031.196	-36.52418
1031.361	-61.80579
1031.527	22.48004
1031.692	-0.70246
1031.857	98.36974
1032.023	66.74543
1032.188	16.15725
1032.353	-0.70246
1032.518	60.42118
1032.684	75.17808
1032.849	43.55752
1033.014	64.63732
1033.179	39.34183
1033.344	58.31314
1033.509	111.02086
1033.674	16.15725
1033.839	43.55752
1034.004	98.36974
1034.17	58.31314
1034.335	22.48004
1034.5	60.42118
1034.664	83.6111
1034.829	37.23403
1034.994	16.15725
1035.159	-23.88203
1035.324	56.20513
1035.489	14.04971
1035.654	26.69535
1035.819	-42.84492
1035.984	5.61975
1036.148	70.96171
1036.313	-2.80981
1036.478	-17.56062
1036.643	39.34183
1036.807	60.42118
1036.972	-28.09618
1037.137	33.01848
1037.301	47.77329
1037.466	-19.66778
1037.631	14.04971
1037.795	33.01848
1037.96	-9.13173
1038.124	108.91229
1038.289	-15.45344
1038.454	14.04971
1038.618	-17.56062
1038.783	-2.80981
1038.947	75.17808
1039.111	39.34183
1039.276	81.50281
1039.44	3.51233
1039.605	108.91229
1039.769	-15.45344
1039.933	-42.84492
1040.098	14.04971
1040.262	-2.80981
1040.426	-53.37899
1040.591	5.61975
1040.755	-9.13173
1040.919	94.15287
1041.083	18.26482
1041.248	-2.80981
1041.412	-2.80981
1041.576	-19.66778
1041.74	16.15725
1041.904	73.06989
1042.068	39.34183
1042.232	83.6111
1042.397	64.63732
1042.561	14.04971
1042.725	-19.66778
1042.889	14.04971
1043.053	16.15725
1043.217	41.44967
1043.381	18.26482
1043.544	-23.88203
1043.708	-19.66778
1043.872	41.44967
1044.036	100.4782
1044.2	-0.70246
1044.364	5.61975
1044.528	106.80373
1044.691	43.55752
1044.855	-9.13173
1045.019	45.6654
1045.183	3.51233
1045.346	-23.88203
1045.51	60.42118
1045.674	30.91075
1045.837	26.69535
1046.001	39.34183
1046.165	-34.41722
1046.328	-49.16544
1046.492	30.91075
1046.655	115.23808
1046.819	49.88122
1046.983	-40.73804
1047.146	-49.16544
1047.31	47.77329
1047.473	-15.45344
1047.636	33.01848
1047.8	24.58768
1047.963	51.98916
1048.127	30.91075
1048.29	33.01848
