Data from absorb_only_2.23.25_USB4F045381__35__0140.txt Node

Date: Sun Feb 23 19:18:07 EST 2025
User: ssocol
Spectrometer: USB4F04538
Trigger mode: 4
Integration Time (sec): 2.600000E-3
Scans to average: 1
Electric dark correction enabled: true
Nonlinearity correction enabled: true
Boxcar width: 0
XAxis mode: Wavelengths
Number of Pixels in Spectrum: 3648
>>>>>Begin Spectral Data<<<<<
345.52	-36.69976
345.736	-36.69976
345.952	-36.69976
346.168	-61.98135
346.384	-2.98542
346.6	26.51971
346.816	-28.27177
347.032	9.65906
347.248	26.51971
347.464	-76.72725
347.68	22.3044
347.896	47.59764
348.112	49.70556
348.328	-9.30734
348.544	-36.69976
348.76	39.16618
348.975	-70.40773
349.191	30.7351
349.407	-19.84338
349.623	1.22931
349.839	-2.98542
350.055	-78.83371
350.27	91.86877
350.486	-38.8067
350.702	-28.27177
350.918	3.33671
351.133	5.44413
351.349	-11.4146
351.565	-2.98542
351.781	-15.62904
351.996	-19.84338
352.212	9.65906
352.428	-0.87807
352.644	-55.66129
352.859	3.33671
353.075	-9.30734
353.291	24.41204
353.506	18.08919
353.722	-34.5928
353.938	51.8135
354.153	-17.73622
354.369	-19.84338
354.584	-34.5928
354.8	5.44413
355.016	37.05838
355.231	30.7351
355.447	-24.05762
355.662	-2.98542
355.878	39.16618
356.093	-9.30734
356.309	-45.12736
356.524	-76.72725
356.74	34.9506
356.955	-0.87807
357.171	-28.27177
357.386	-70.40773
357.602	-19.84338
357.817	7.55158
358.033	72.8942
358.248	-51.44779
358.464	5.44413
358.679	24.41204
358.895	-19.84338
359.11	7.55158
359.325	-36.69976
359.541	18.08919
359.756	30.7351
359.972	24.41204
360.187	24.41204
360.402	60.24551
360.618	81.32712
360.833	-7.20006
361.048	-0.87807
361.264	49.70556
361.479	-49.34101
361.694	-49.34101
361.909	30.7351
362.125	9.65906
362.34	22.3044
362.555	41.27401
362.77	-5.09275
362.986	-57.768
363.201	22.3044
363.416	24.41204
363.631	-38.8067
363.847	-0.87807
364.062	1.22931
364.277	-64.08798
364.492	-95.68442
364.707	-45.12736
364.922	5.44413
365.138	24.41204
365.353	-9.30734
365.568	1.22931
365.783	18.08919
365.998	5.44413
366.213	22.3044
366.428	-9.30734
366.643	22.3044
366.858	-28.27177
367.073	-61.98135
367.288	3.33671
367.503	-74.62077
367.718	-91.4719
367.933	47.59764
368.148	13.87408
368.363	-2.98542
368.578	-7.20006
368.793	22.3044
369.008	41.27401
369.223	18.08919
369.438	66.56975
369.653	-11.4146
369.868	77.11062
370.083	-2.98542
370.298	-13.52183
370.513	20.19678
370.728	-11.4146
370.943	-13.52183
371.157	-2.98542
371.372	43.38186
371.587	39.16618
371.802	9.65906
372.017	-11.4146
372.232	60.24551
372.446	-2.98542
372.661	3.33671
372.876	18.08919
373.091	56.02946
373.306	-70.40773
373.52	26.51971
373.735	45.48974
373.95	13.87408
374.165	-83.04654
374.379	15.98162
374.594	5.44413
374.809	18.08919
375.023	-66.19459
375.238	-78.83371
375.453	7.55158
375.667	56.02946
375.882	-15.62904
376.097	24.41204
376.311	9.65906
376.526	-2.98542
376.741	-19.84338
376.955	64.46165
377.17	-45.12736
377.384	-70.40773
377.599	-28.27177
377.813	7.55158
378.028	-19.84338
378.242	-11.4146
378.457	-11.4146
378.672	-11.4146
378.886	-2.98542
379.101	1.22931
379.315	47.59764
379.53	32.84284
379.744	39.16618
379.958	26.51971
380.173	43.38186
380.387	28.62739
380.602	-45.12736
380.816	89.7604
381.031	13.87408
381.245	39.16618
381.459	-32.48582
381.674	-9.30734
381.888	7.55158
382.103	13.87408
382.317	32.84284
382.531	15.98162
382.746	11.76656
382.96	-9.30734
383.174	-11.4146
383.388	-15.62904
383.603	-32.48582
383.817	47.59764
384.031	22.3044
384.246	-2.98542
384.46	-28.27177
384.674	-85.15292
384.888	-15.62904
385.103	-2.98542
385.317	-59.87469
385.531	-87.25927
385.745	-32.48582
385.959	18.08919
386.174	-45.12736
386.388	24.41204
386.602	5.44413
386.816	-7.20006
387.03	20.19678
387.244	-5.09275
387.458	15.98162
387.672	-28.27177
387.887	68.67788
388.101	-2.98542
388.315	18.08919
388.529	-36.69976
388.743	58.13747
388.957	-49.34101
389.171	30.7351
389.385	28.62739
389.599	51.8135
389.813	13.87408
390.027	51.8135
390.241	-2.98542
390.455	43.38186
390.669	-32.48582
390.883	-15.62904
391.097	-15.62904
391.311	-11.4146
391.525	5.44413
391.738	-26.16471
391.952	15.98162
392.166	7.55158
392.38	22.3044
392.594	39.16618
392.808	5.44413
393.022	-53.55456
393.236	41.27401
393.449	-83.04654
393.663	18.08919
393.877	-80.94014
394.091	13.87408
394.305	13.87408
394.518	37.05838
394.732	56.02946
394.946	-43.0205
395.16	37.05838
395.373	60.24551
395.587	-30.3788
395.801	22.3044
396.015	-61.98135
396.228	-15.62904
396.442	-36.69976
396.656	-11.4146
396.869	-2.98542
397.083	148.80318
397.297	7.55158
397.51	-40.91361
397.724	49.70556
397.938	-11.4146
398.151	18.08919
398.365	66.56975
398.578	13.87408
398.792	81.32712
399.005	49.70556
399.219	87.65205
399.433	20.19678
399.646	-93.57817
399.86	24.41204
400.073	-7.20006
400.287	39.16618
400.5	30.7351
400.714	13.87408
400.927	41.27401
401.141	22.3044
401.354	-2.98542
401.567	-55.66129
401.781	-7.20006
401.994	-34.5928
402.208	-24.05762
402.421	-32.48582
402.635	20.19678
402.848	13.87408
403.061	-49.34101
403.275	9.65906
403.488	-45.12736
403.701	60.24551
403.915	-0.87807
404.128	39.16618
404.341	-11.4146
404.555	3.33671
404.768	13.87408
404.981	-19.84338
405.195	75.0024
405.408	26.51971
405.621	22.3044
405.834	41.27401
406.048	98.19403
406.261	30.7351
406.474	-28.27177
406.687	-36.69976
406.9	-13.52183
407.114	-47.2342
407.327	18.08919
407.54	-2.98542
407.753	-36.69976
407.966	32.84284
408.179	-9.30734
408.392	-61.98135
408.605	-28.27177
408.819	-9.30734
409.032	26.51971
409.245	56.02946
409.458	39.16618
409.671	15.98162
409.884	9.65906
410.097	-13.52183
410.31	5.44413
410.523	26.51971
410.736	-17.73622
410.949	68.67788
411.162	41.27401
411.375	13.87408
411.588	13.87408
411.801	43.38186
412.014	22.3044
412.227	-7.20006
412.44	-2.98542
412.653	56.02946
412.865	1.22931
413.078	-78.83371
413.291	-19.84338
413.504	41.27401
413.717	26.51971
413.93	-11.4146
414.143	-38.8067
414.356	-13.52183
414.568	1.22931
414.781	-19.84338
414.994	22.3044
415.207	-36.69976
415.42	-32.48582
415.632	24.41204
415.845	32.84284
416.058	106.62802
416.271	-24.05762
416.483	15.98162
416.696	81.32712
416.909	-36.69976
417.121	66.56975
417.334	-51.44779
417.547	77.11062
417.759	7.55158
417.972	7.55158
418.185	-30.3788
418.397	-11.4146
418.61	98.19403
418.823	72.8942
419.035	68.67788
419.248	89.7604
419.46	15.98162
419.673	-32.48582
419.885	9.65906
420.098	39.16618
420.311	72.8942
420.523	34.9506
420.736	47.59764
420.948	39.16618
421.161	-11.4146
421.373	9.65906
421.586	-19.84338
421.798	75.0024
422.01	-66.19459
422.223	-26.16471
422.435	24.41204
422.648	15.98162
422.86	22.3044
423.073	39.16618
423.285	64.46165
423.497	22.3044
423.71	22.3044
423.922	32.84284
424.134	-7.20006
424.347	1.22931
424.559	-70.40773
424.771	104.51949
424.984	11.76656
425.196	28.62739
425.408	72.8942
425.621	39.16618
425.833	91.86877
426.045	85.54372
426.257	58.13747
426.47	18.08919
426.682	9.65906
426.894	51.8135
427.106	-15.62904
427.318	-26.16471
427.531	70.78603
427.743	-70.40773
427.955	39.16618
428.167	-11.4146
428.379	5.44413
428.591	-24.05762
428.804	13.87408
429.016	72.8942
429.228	-49.34101
429.44	-2.98542
429.652	1.22931
429.864	-0.87807
430.076	41.27401
430.288	3.33671
430.5	43.38186
430.712	-19.84338
430.924	9.65906
431.136	79.21886
431.348	24.41204
431.56	28.62739
431.772	30.7351
431.984	-28.27177
432.196	-19.84338
432.408	30.7351
432.62	56.02946
432.832	-15.62904
433.044	45.48974
433.256	66.56975
433.468	-51.44779
433.679	77.11062
433.891	47.59764
434.103	41.27401
434.315	81.32712
434.527	83.43541
434.739	41.27401
434.95	-28.27177
435.162	45.48974
435.374	47.59764
435.586	7.55158
435.798	39.16618
436.009	24.41204
436.221	-2.98542
436.433	85.54372
436.645	98.19403
436.856	81.32712
437.068	58.13747
437.28	119.27966
437.491	75.0024
437.703	56.02946
437.915	51.8135
438.126	41.27401
438.338	58.13747
438.55	144.58528
438.761	81.32712
438.973	64.46165
439.184	37.05838
439.396	49.70556
439.608	9.65906
439.819	93.97717
440.031	-0.87807
440.242	58.13747
440.454	47.59764
440.665	26.51971
440.877	39.16618
441.088	47.59764
441.3	117.171
441.511	70.78603
441.723	47.59764
441.934	28.62739
442.146	68.67788
442.357	100.3025
442.569	123.49705
442.78	127.71452
442.991	22.3044
443.203	47.59764
443.414	1.22931
443.626	7.55158
443.837	56.02946
444.048	72.8942
444.26	87.65205
444.471	-9.30734
444.682	89.7604
444.894	34.9506
445.105	64.46165
445.316	70.78603
445.528	68.67788
445.739	-43.0205
445.95	70.78603
446.161	104.51949
446.373	56.02946
446.584	-0.87807
446.795	108.73657
447.006	115.06236
447.217	26.51971
447.429	11.76656
447.64	3.33671
447.851	68.67788
448.062	115.06236
448.273	56.02946
448.484	49.70556
448.695	93.97717
448.907	24.41204
449.118	123.49705
449.329	41.27401
449.54	72.8942
449.751	41.27401
449.962	30.7351
450.173	49.70556
450.384	91.86877
450.595	157.23924
450.806	89.7604
451.017	123.49705
451.228	70.78603
451.439	47.59764
451.65	138.25859
451.861	60.24551
452.072	123.49705
452.283	134.0409
452.494	98.19403
452.705	81.32712
452.915	60.24551
453.126	167.78478
453.337	153.02117
453.548	140.36746
453.759	167.78478
453.97	87.65205
454.181	68.67788
454.391	165.67563
454.602	174.11236
454.813	165.67563
455.024	153.02117
455.235	119.27966
455.445	153.02117
455.656	163.5665
455.867	131.93208
456.078	146.69422
456.288	157.23924
456.499	140.36746
456.71	169.89395
456.921	190.9868
457.131	140.36746
457.342	174.11236
457.553	159.34831
457.763	224.73956
457.974	159.34831
458.184	159.34831
458.395	184.65873
458.606	180.44012
458.816	176.22159
459.027	176.22159
459.237	226.84928
459.448	199.42451
459.659	157.23924
459.869	233.17854
460.08	216.30089
460.29	209.9721
460.501	266.93757
460.711	241.61784
460.922	285.92915
461.132	239.50798
461.343	266.93757
461.553	209.9721
461.764	262.71742
461.974	216.30089
462.184	190.9868
462.395	252.16739
462.605	235.28834
462.816	256.38735
463.026	326.02738
463.236	302.81182
463.447	309.14312
463.657	224.73956
463.867	349.24509
464.078	349.24509
464.288	315.47458
464.498	323.91679
464.709	370.35392
464.919	406.24279
465.129	338.69132
465.339	342.91278
465.55	450.58257
465.76	410.46532
465.97	418.91058
466.18	368.24296
466.391	492.81728
466.601	391.46444
466.811	448.471
467.021	494.92917
467.231	539.28225
467.441	486.48169
467.651	497.04108
467.862	598.42915
468.072	655.47322
468.282	617.44283
468.492	583.64144
468.702	604.76693
468.912	710.41275
469.122	594.20402
469.332	710.41275
469.542	697.73371
469.752	794.94937
469.962	663.92495
470.172	752.679
470.382	864.70372
470.592	818.19972
470.802	887.95728
471.012	947.15248
471.222	778.04075
471.432	900.64146
471.642	744.22541
471.852	947.15248
472.062	934.4673
472.272	845.67884
472.482	1080.36118
472.691	1154.37539
472.901	1044.41363
473.111	1122.65432
473.321	1078.24658
473.531	1203.0161
473.741	1258.0034
473.95	1348.94757
474.16	1173.40847
474.37	1370.09782
474.58	1319.33745
474.79	1469.50501
474.999	1416.62872
475.209	1509.69092
475.419	1382.78803
475.628	1615.44155
475.838	1672.54496
476.048	1645.05095
476.258	1621.78646
476.467	1843.84117
476.677	1829.03884
476.886	2034.13322
477.096	1941.10744
477.306	1860.75783
477.515	1807.89227
477.725	2046.81757
477.935	2051.04564
478.144	2110.23548
478.354	2053.15966
478.563	2220.14328
478.773	2169.41936
478.982	2239.16348
479.192	2410.31104
479.401	2380.73462
479.611	2499.02776
479.82	2518.03595
480.03	2644.73285
480.239	2720.72963
480.449	2600.39386
480.658	2828.36246
480.868	2689.06633
481.077	2790.37843
481.287	2897.98805
481.496	2990.79759
481.705	3051.95161
481.915	3176.32773
482.124	3058.27714
482.333	3148.92761
482.543	3170.00487
482.752	3302.75362
482.961	3412.27303
483.171	3464.90962
483.38	3363.83756
483.589	3544.89563
483.799	3410.16733
484.008	3570.14887
484.217	3418.59001
484.426	3830.93918
484.636	3708.99339
484.845	3933.91056
485.054	3704.78719
485.263	4003.23134
485.472	3803.61223
485.682	4208.96047
485.891	3908.69753
486.1	4007.43189
486.309	4120.81541
486.518	4219.45145
486.727	4141.80569
486.936	4211.05871
487.146	4242.52973
487.355	4380.9449
487.564	4649.11501
487.773	4431.25429
487.982	4512.98013
488.191	4517.1703
488.4	4789.33948
488.609	4726.56494
488.818	4755.86226
489.027	4927.37138
489.236	4908.55471
489.445	5054.85743
489.654	5006.79899
489.863	5213.57197
490.072	4912.73636
490.281	5196.8715
490.49	5134.23148
490.698	5226.09634
490.907	5150.93753
491.116	5511.84004
491.325	5455.56045
491.534	5290.79218
491.743	5490.99775
491.952	5472.23767
492.16	5538.9315
492.369	5609.76725
492.578	5455.56045
492.787	5834.59406
492.996	5780.49425
493.204	5768.00741
493.413	5774.25094
493.622	5930.27004
493.831	5743.03118
494.039	5826.27205
494.248	5901.15655
494.457	6190.0073
494.665	5838.75493
494.874	6092.38922
495.083	6237.75896
495.291	6308.32566
495.5	6167.16517
495.709	6403.75526
495.917	6214.92276
496.126	6548.87971
496.335	6129.781
496.543	6569.6025
496.752	6270.97019
496.96	6428.64182
497.169	6443.15744
497.377	6737.37213
497.586	6416.19896
497.794	6710.4563
498.003	6575.81889
498.211	6861.54897
498.42	6521.93663
498.628	6855.34208
498.837	6946.35606
499.045	6886.3745
499.254	6784.98296
499.462	7086.9281
499.671	6971.17045
499.879	7010.45326
500.087	6799.47082
500.296	7124.12099
500.504	7113.79036
500.713	7219.13675
500.921	7307.91351
501.129	7198.48515
501.338	7217.07169
501.546	7545.14132
501.754	7227.39678
501.962	7483.28342
502.171	7448.222
502.379	7656.43698
502.587	7345.06381
502.795	7516.27671
503.004	7512.15285
503.212	7701.76189
503.42	7545.14132
503.628	7728.53999
503.837	7619.34533
504.045	7889.13434
504.253	7954.98273
504.461	7948.81034
504.669	8055.7725
504.877	7903.54048
505.085	7792.38114
505.294	7786.20385
505.502	8024.92368
505.71	8024.92368
505.918	7755.31454
506.126	8140.06945
506.334	8082.50446
506.542	8216.11343
506.75	8175.01196
506.958	8131.84685
507.166	8117.45651
507.374	8355.79944
507.582	8117.45651
507.79	8265.42474
507.998	8246.93433
508.206	8349.63873
508.414	8031.09381
508.622	8442.03111
508.83	8542.59199
509.037	8532.33276
509.245	8226.38756
509.453	8829.66109
509.661	8692.32321
509.869	8778.42519
510.077	8446.13654
510.285	8880.8857
510.492	8766.12689
510.7	8837.85778
510.908	8745.62825
511.116	8796.87142
511.324	8751.77803
511.531	8917.76048
511.739	8790.72284
511.947	8948.48505
512.155	8774.32583
512.362	9218.69191
512.57	8966.91789
512.778	8977.15773
512.985	8977.15773
513.193	9228.92115
513.401	9016.06513
513.608	9097.95484
513.816	9089.76712
514.024	9222.78366
514.231	9171.63198
514.439	9167.53938
514.646	9222.78366
514.854	9318.92036
515.061	9077.48502
515.269	9263.69741
515.477	9179.81696
515.684	9466.12289
515.892	9427.28598
516.099	9294.37832
516.307	9676.55981
516.514	9870.5069
516.722	9506.99756
516.929	9474.29834
517.136	9660.22115
517.344	9707.19215
517.551	9670.43293
517.759	9929.68493
517.966	9670.43293
518.173	9829.68722
518.381	9850.0978
518.588	9923.56364
518.796	9768.44649
519.003	9868.46605
519.21	9907.23954
519.418	10037.80626
519.625	9917.44221
519.832	10025.56814
520.039	10111.22428
520.247	10323.21985
520.454	10233.54743
520.661	10174.43078
520.868	10007.20999
521.076	10237.62402
521.283	10094.91074
521.49	10292.65263
521.697	10372.12117
521.904	10308.95552
522.112	10382.30799
522.319	10563.57924
522.526	10096.94999
522.733	10649.08821
522.94	10429.16314
523.147	10592.08466
523.354	10421.01491
523.561	10604.30052
523.768	10510.63406
523.975	11149.50849
524.183	10471.93794
524.39	10929.89675
524.597	10791.55538
524.804	10990.91291
525.011	10761.03164
525.218	10742.71612
525.425	10724.39962
525.632	10852.59493
525.838	11084.45163
526.045	10999.04764
526.252	10913.62405
526.459	11163.73822
526.666	11112.91536
526.873	11291.78273
527.08	10970.57531
527.287	11003.11494
527.494	11029.55129
527.701	11405.56615
527.907	11226.74939
528.114	11366.96456
528.321	11198.29398
528.528	11616.79752
528.735	11409.62927
528.941	11614.76693
529.148	11348.67835
529.355	11415.72387
529.562	11373.05978
529.768	11515.25675
529.975	11427.91281
530.182	11454.32099
530.388	11186.09817
530.595	11702.07408
530.802	11641.16387
531.008	11896.93399
531.215	11903.0221
531.422	12146.48774
531.628	12040.99984
531.835	12008.53782
532.042	11704.10429
532.248	12036.9422
532.455	11862.43325
532.661	12326.98775
532.868	12036.9422
533.074	12079.5459
533.281	12073.45987
533.487	12176.91313
533.694	12193.13933
533.9	12517.56846
534.107	12189.08282
534.313	12541.89374
534.52	12245.87122
534.726	12462.83319
534.933	12365.51418
535.139	12227.61843
535.345	12249.92732
535.552	12568.2451
535.758	12566.21811
535.965	12781.0454
536.171	12631.07872
536.377	12550.00196
536.584	12452.69651
536.79	12710.11921
536.996	12618.91784
537.203	12635.1323
537.409	12428.36781
537.615	12493.24226
537.821	12768.88712
538.028	13198.36472
538.234	12839.80758
538.44	13040.37563
538.646	12864.1216
538.853	13103.1696
539.059	12955.29236
539.265	12898.56515
539.471	12918.82534
539.677	12939.085
539.883	12981.62861
540.09	13131.52667
540.296	13159.88281
540.502	13295.57503
540.708	13419.09914
540.914	13621.56676
541.12	13546.65796
541.326	13415.0494
541.532	13384.6759
541.738	13451.49645
541.944	13520.33751
542.15	13716.71452
542.356	13410.99965
542.562	13491.99171
542.768	13307.72562
542.974	13392.77559
543.18	13248.99634
543.386	13896.86927
543.592	13641.81157
543.798	14038.54876
544.004	13556.78106
544.21	13787.56468
544.415	13971.75855
544.621	14026.40528
544.827	13819.95209
545.033	14123.55075
545.239	13805.78269
545.445	14249.02298
545.651	14006.16596
545.856	14153.90766
546.062	14125.57456
546.268	14117.47932
546.474	14129.62218
546.679	13906.98966
546.885	13996.04621
547.091	14091.16951
547.297	14064.85933
547.502	14200.45401
547.708	14222.71492
547.914	14216.64379
548.119	14226.76234
548.325	14135.69358
548.531	14010.21384
548.736	14518.15801
548.942	13957.59058
549.147	14155.93144
549.353	14242.95192
549.559	14477.6883
549.764	14451.38269
549.97	14465.54728
550.175	14556.60376
550.381	14665.86833
550.586	14578.86163
550.792	14953.18169
550.997	14941.04193
551.203	14665.86833
551.408	14732.63967
551.614	14892.48275
551.819	14888.43614
552.025	14823.69004
552.23	14953.18169
552.435	14965.32143
552.641	15098.85786
552.846	14819.64339
553.052	14892.48275
553.257	14823.69004
553.462	15123.13712
553.668	15246.55667
553.873	15074.57858
554.078	15327.48778
554.283	15066.48548
554.489	15131.23021
554.694	15301.18513
554.899	14902.59927
555.105	15396.27958
555.31	15414.48926
555.515	15343.67405
555.72	15546.0048
555.925	15070.53203
556.131	15432.69896
556.336	15422.58245
556.541	15554.09815
556.746	15503.51489
556.951	15637.05565
557.156	15456.97864
557.361	15402.34947
557.567	15746.31892
557.772	15675.49983
557.977	15699.78053
558.182	15659.31277
558.387	15675.49983
558.592	15983.06679
558.797	15863.67906
559.002	15724.06136
559.207	15515.65484
559.412	15596.58841
559.617	15580.40161
559.822	15902.12547
560.027	15637.05565
560.232	15970.92545
560.437	15564.21485
560.642	16094.36474
560.847	16140.90888
561.051	15997.23174
561.256	15770.60003
561.461	16072.10479
561.666	16057.93947
561.871	16177.33532
562.076	16059.96308
562.281	16302.8084
562.485	16053.89224
562.69	16349.35663
562.895	15764.52973
563.1	16236.02351
563.305	16157.09835
563.509	16221.85726
563.714	16233.99975
563.919	16181.38274
564.123	16149.0036
564.328	16159.12204
564.533	16118.64854
564.737	16493.05547
564.942	16106.50661
565.147	16665.10323
565.351	16282.57035
565.556	16250.18984
565.761	16197.57247
565.965	16578.06532
566.17	16282.57035
566.374	16260.3087
566.579	16136.86153
566.784	16484.95949
566.988	16438.40824
567.193	16675.22419
567.397	16337.21352
567.602	17021.39787
567.806	16559.84861
568.011	16729.87839
568.215	16632.71655
568.42	17088.21209
568.624	16798.70466
568.828	16905.99839
569.033	16458.64778
569.237	17035.57033
569.442	16837.16764
569.646	16567.9449
569.85	16818.94822
570.055	16855.38726
570.259	16829.07009
570.463	16733.92691
570.668	16897.9005
570.872	16861.46051
571.076	16883.72929
571.281	17055.81694
571.485	16695.46629
571.689	16899.92497
571.893	17177.30243
572.098	17312.97346
572.302	16891.82711
572.506	17157.05415
572.71	17191.4764
572.914	17345.37448
573.119	17084.16265
573.323	17126.68225
573.527	17258.29847
573.731	17236.0241
573.935	17616.76421
574.139	17262.3484
574.343	16889.80265
574.547	17345.37448
574.751	17448.65795
574.955	17389.92715
575.159	17383.8517
575.364	17444.60747
575.568	17428.40566
575.772	17602.58572
575.976	17626.8918
576.18	17576.25466
576.383	17716.01817
576.587	17776.78985
576.791	17406.12849
576.995	17312.97346
577.199	17359.55017
577.403	17134.78136
577.607	17586.38192
577.811	17847.69402
578.015	17649.1728
578.219	17782.86719
578.422	17582.33101
578.626	17677.531
578.83	17734.24936
579.034	18088.8001
579.238	17869.97905
579.442	17878.0828
579.645	17845.66812
579.849	18050.3008
580.053	17977.3583
580.257	18129.32709
580.46	18003.69811
580.664	17942.91483
580.868	18052.32705
581.071	17882.1347
581.275	17797.04776
581.479	17776.78985
581.682	17955.07123
581.886	17718.04384
582.09	18034.09096
582.293	18271.18307
582.497	18096.90538
582.7	18212.41198
582.904	18362.3858
583.107	18548.86859
583.311	18021.93372
583.515	18336.03757
583.718	18117.16884
583.922	18498.19071
584.125	18265.10316
584.329	18435.35348
584.532	18376.57358
584.735	18561.03164
584.939	18042.19585
585.142	18591.43987
585.346	18285.36967
585.549	18563.05883
585.753	18656.31369
585.956	18516.43447
586.159	18563.05883
586.363	18731.32904
586.566	18784.04576
586.769	18700.91676
586.973	18459.67714
587.176	18824.59891
587.379	18735.38408
587.582	18899.62643
587.786	18526.57003
587.989	18869.20921
588.192	18944.23999
588.395	19252.53271
588.599	19132.85528
588.802	19021.30437
589.005	18640.09486
589.208	19189.64957
589.411	18660.36844
589.615	18686.72467
589.818	19374.25325
590.021	19297.16185
590.224	18921.93297
590.427	19161.25202
590.63	19321.50586
590.833	19211.96249
591.036	19378.31086
591.239	19331.64937
591.442	19108.51585
591.645	19418.88785
591.848	19339.76426
592.051	19307.30512
592.254	19224.13338
592.457	19250.50416
592.66	19258.61838
592.863	19502.07586
593.066	19278.90423
593.269	19820.68993
593.472	19528.45401
593.675	20003.38155
593.878	19408.74345
594.081	19585.27087
594.284	19656.29655
594.486	20031.80331
594.689	20096.77042
594.892	19790.24464
595.095	19650.20843
595.298	19950.60048
595.5	20161.74184
595.703	20043.98432
595.906	20108.95224
596.109	20009.47186
596.311	20035.86363
596.514	19627.88566
596.717	19924.211
596.92	20184.07677
597.122	20202.35117
597.325	19883.6132
597.528	20232.80927
597.73	20519.16156
597.933	19836.92781
598.136	20222.65646
598.338	19938.42063
598.541	20385.11394
598.743	20173.92447
598.946	20275.45219
599.148	20279.51352
599.351	20076.46774
599.554	19840.98732
599.756	20289.66691
599.959	20462.29064
600.161	20563.84815
600.363	20190.1682
600.566	20314.03548
600.768	20437.9184
600.971	20362.77444
601.173	20281.54419
601.376	20261.23768
601.578	20117.07353
601.78	20249.05397
601.983	20726.36187
602.185	20297.7897
602.388	20385.11394
602.59	20515.09924
602.792	20541.50461
602.995	19958.72046
603.197	20364.80528
603.399	20381.05217
603.601	20263.26831
603.804	20102.86131
604.006	20628.85044
604.208	20399.33024
604.41	20301.85112
604.613	20628.85044
604.815	20454.1665
605.017	20752.77287
605.219	20446.04241
605.421	20435.88741
605.623	20208.44271
605.826	20535.411
606.028	20561.8169
606.23	20955.95775
606.432	20376.99042
606.634	21110.40577
606.836	20870.61507
607.038	20982.37481
607.24	20673.54199
607.442	21023.0178
607.644	20712.14086
607.846	21279.10616
608.048	20927.50938
608.25	21039.27546
608.452	20972.21432
608.654	21031.14659
608.856	20504.94352
609.058	20894.99795
609.26	20712.14086
609.462	20722.29871
609.664	20626.81906
609.866	20748.70959
610.067	20555.72317
610.269	20444.0114
610.471	20098.80072
610.673	20574.00448
610.875	20571.97321
611.077	21075.85614
611.278	20606.50542
611.48	20793.40654
611.682	20267.32959
611.884	21157.15127
612.085	20884.83834
612.287	20836.07367
612.489	20610.56812
612.69	21018.95343
612.892	20844.20095
613.094	20966.11807
613.295	20639.00744
613.497	20783.24796
613.699	20699.95158
613.9	20712.14086
614.102	20842.16912
614.304	20354.65111
614.505	20372.92869
614.707	21061.63016
614.908	20848.26462
615.11	20897.02988
615.311	21425.47119
615.513	21222.19207
615.714	21088.04999
615.916	20724.33029
616.117	20834.04186
616.319	21016.92125
616.52	20874.67884
616.722	21222.19207
616.923	21114.47051
617.124	20894.99795
617.326	20722.29871
617.527	21094.14697
617.729	21299.43339
617.93	21092.11464
618.131	21098.21165
618.333	20876.71073
618.534	21051.46887
618.735	20919.38142
618.937	20714.17242
619.138	21012.8569
619.339	20547.59825
619.54	21216.09432
619.742	21096.17931
619.943	21122.60004
620.144	20901.09376
620.345	21012.8569
620.546	20980.3427
620.748	20982.37481
620.949	20966.11807
621.15	20931.57338
621.351	20925.47738
621.552	21057.56563
621.753	21120.56765
621.954	21033.1788
622.155	20927.50938
622.356	21088.04999
622.558	20787.31138
622.759	21128.69723
622.96	21063.66243
623.161	21285.20429
623.362	21057.56563
623.563	20970.18223
623.764	21057.56563
623.965	21187.63863
624.166	20931.57338
624.366	20911.25353
624.567	21039.27546
624.768	20957.9898
624.969	20998.63181
625.17	21096.17931
625.371	21035.21102
625.572	20947.82956
625.773	20874.67884
625.973	21270.97539
626.174	21031.14659
626.375	21230.32246
626.576	20943.76549
626.777	21325.8594
626.977	21177.47608
627.178	21301.46614
627.379	20986.43904
627.58	21155.11882
627.78	21006.76041
627.981	20949.8616
628.182	21077.88844
628.382	21258.77934
628.583	20943.76549
628.784	21067.72698
628.984	20821.85109
629.185	21474.26414
629.386	20964.086
629.586	21417.33926
629.787	21116.50289
629.987	21427.50418
630.188	20785.27967
630.388	21189.67115
630.589	21031.14659
630.79	21563.72383
630.99	21193.73621
631.191	21319.76103
631.391	21606.4232
631.591	21555.59081
631.792	21205.93148
631.992	21313.6627
632.193	21586.08995
632.393	21478.33032
632.594	21059.59789
632.794	21240.48554
632.994	21138.8593
633.195	21281.13887
633.395	21189.67115
633.595	21175.44358
633.796	21455.96652
633.996	21283.17158
634.196	20988.47115
634.397	21382.77924
634.597	21067.72698
634.797	21445.80131
634.997	21273.00807
635.198	21417.33926
635.398	21541.35819
635.598	21968.42022
635.798	21697.92768
635.998	21399.04263
636.199	21429.53718
636.399	21354.31893
636.599	21516.95985
636.799	21472.23106
636.999	21083.98536
637.199	21415.30628
637.399	21311.62993
637.599	21307.5644
637.799	21167.31362
637.999	21563.72383
638.199	21551.52433
638.399	21787.40637
638.599	21498.66148
638.799	21563.72383
638.999	21555.59081
639.199	21809.77722
639.399	21348.22039
639.599	21378.71344
639.799	21134.79446
639.999	21638.95722
640.199	21824.01346
640.399	21791.47376
640.599	21075.85614
640.799	22352.91967
640.998	22348.85021
641.198	22224.73843
641.398	21897.23137
641.598	21612.52325
641.798	21602.35652
641.997	22021.30638
642.197	21777.23796
642.397	21742.66608
642.597	21986.72668
642.796	22074.19511
642.996	21724.36378
643.196	22285.7753
643.395	21640.99062
643.595	21854.52032
643.795	21736.56528
643.994	21577.95676
644.194	21824.01346
644.394	21909.43484
644.593	21319.76103
644.793	21809.77722
644.992	21460.03263
645.192	21547.45786
645.392	21685.72662
645.591	21626.75684
645.791	21488.49585
645.99	22179.98017
646.19	21915.53663
646.389	21946.04608
646.589	21889.0958
646.788	21821.9797
646.987	21685.72662
647.187	21740.63248
647.386	21366.51611
647.586	22080.29782
647.785	21840.28367
647.984	22363.09341
648.184	22481.1154
648.383	22314.2603
648.582	22369.1977
648.782	22426.17262
648.981	22194.22124
649.18	22031.47709
649.38	22027.4088
649.579	22230.84196
649.778	22275.60225
649.977	22666.31211
650.177	22731.44316
650.376	22835.25312
650.575	22257.29101
650.774	22257.29101
650.973	22190.15234
651.173	22153.53296
651.372	22049.78461
651.571	22116.91478
651.77	22027.4088
651.969	22118.94909
652.168	22267.46389
652.367	22179.98017
652.566	22151.49858
652.765	22125.05205
652.964	22316.29497
653.163	22179.98017
653.362	22332.57247
653.561	22135.22372
653.76	22356.98916
653.959	22055.88718
654.158	22257.29101
654.357	22295.94843
654.556	22214.56594
654.755	22959.42967
654.954	22082.33206
655.153	22027.4088
655.352	22243.04914
655.551	22334.60718
655.749	22489.2553
655.948	21636.92381
656.147	21756.90143
656.346	22247.11823
656.545	22070.12665
656.743	22112.84617
656.942	22084.36631
657.141	22715.16006
657.34	22188.1179
657.538	22218.63492
657.737	22149.46421
657.936	22682.59454
658.135	22263.39473
658.333	22238.98007
658.532	22371.23247
658.731	22336.64188
658.929	21758.93506
659.128	21858.58796
659.326	21821.9797
659.525	22173.87691
659.724	21941.9781
659.922	22367.16293
660.121	22141.32676
660.319	21817.91219
660.518	21970.45426
660.716	22556.41161
660.915	22289.84454
661.113	22670.38269
661.312	22529.95563
661.51	22878.001
661.709	22955.35811
661.907	22586.93849
662.105	22684.62986
662.304	22432.27724
662.502	22269.49847
662.701	22450.59131
662.899	22485.18534
663.097	22212.53145
663.296	22230.84196
663.494	22232.87648
663.692	21984.69261
663.891	22326.46838
664.089	21990.79482
664.287	22127.08637
664.485	22224.73843
664.684	22369.1977
664.882	22088.43481
665.08	22348.85021
665.278	22540.13094
665.476	22529.95563
665.675	22350.88494
665.873	22123.01772
666.071	21795.54117
666.269	21864.68946
666.467	21986.72668
666.665	22198.29015
666.863	21903.33309
667.061	22442.45169
667.259	22629.67747
667.457	22525.88553
667.655	22147.42984
667.853	22477.04548
668.051	21925.70635
668.249	22247.11823
668.447	22082.33206
668.645	22556.41161
668.843	22800.64881
669.041	22684.62986
669.239	22613.39577
669.437	22654.10044
669.635	22411.92862
669.833	22511.6403
670.031	22015.204
670.229	21992.8289
670.426	22186.08346
670.624	22023.34052
670.822	22133.18938
671.02	22265.4293
671.218	22407.85894
671.415	22204.39354
671.613	21889.0958
671.811	21862.65563
672.009	21610.4899
672.206	22224.73843
672.404	22328.50308
672.602	22021.30638
672.799	21915.53663
672.997	22238.98007
673.195	22031.47709
673.392	21944.01209
673.59	21797.57488
673.788	21685.72662
673.985	21610.4899
674.183	22114.88047
674.38	22279.67146
674.578	22090.46907
674.775	21830.11476
674.973	21610.4899
675.17	21903.33309
675.368	21889.0958
675.565	21748.76692
675.763	21773.17062
675.96	21553.55757
676.158	21417.33926
676.355	21460.03263
676.553	21492.56209
676.75	21545.42463
676.947	21754.8678
677.145	21584.05665
677.342	21974.52234
677.539	21651.15773
677.737	22112.84617
677.934	21789.44007
678.131	22308.15631
678.329	22196.25569
678.526	22029.44295
678.723	21773.17062
678.92	22000.96525
679.118	21726.39736
679.315	21722.33021
679.512	21464.09875
679.709	21736.56528
679.906	21403.10852
680.104	21553.55757
680.301	21309.59716
680.498	21563.72383
680.695	21386.84507
680.892	21529.15895
681.089	21498.66148
681.286	21409.20738
681.483	21008.79257
681.68	21240.48554
681.877	21191.70368
682.075	21157.15127
682.272	20699.95158
682.469	21445.80131
682.665	21183.57359
682.862	21169.34611
683.059	21114.47051
683.256	21079.92074
683.453	21277.07346
683.65	21157.15127
683.847	21254.71402
684.044	20823.88287
684.241	20842.16912
684.438	21427.50418
684.635	21352.28608
684.831	21090.08231
685.028	20858.42385
685.225	20651.19596
685.422	20360.7436
685.619	20970.18223
685.815	20929.54138
686.012	21466.13182
686.209	20972.21432
686.405	21484.42963
686.602	20915.31747
686.799	20880.77453
686.996	21112.43814
687.192	21025.04999
687.389	20819.81931
687.586	20848.26462
687.782	20974.24641
687.979	21260.812
688.175	20598.38009
688.372	21295.36792
688.568	20699.95158
688.765	21205.93148
688.962	20880.77453
689.158	20894.99795
689.355	21006.76041
689.551	21126.66483
689.748	20681.66794
689.944	20897.02988
690.14	20482.60131
690.337	20588.22351
690.533	20921.41341
690.73	20687.76245
690.926	20661.35319
691.123	20661.35319
691.319	20693.857
691.515	20492.7568
691.712	20468.3838
691.908	20710.1093
692.104	20381.05217
692.301	20754.80451
692.497	20527.28625
692.693	20874.67884
692.889	20795.43826
693.086	20801.53347
693.282	20478.53914
693.478	20661.35319
693.674	20523.2239
693.87	20596.34876
694.067	20468.3838
694.263	20500.88127
694.459	19962.78047
694.655	20291.6976
694.851	20263.26831
695.047	20571.97321
695.243	20303.88184
695.439	20293.7283
695.635	20372.92869
695.831	20584.16091
696.027	20350.58947
696.224	20320.12772
696.42	20450.10445
696.615	20482.60131
696.811	20427.76347
697.007	20504.94352
697.203	20023.68272
697.399	19761.82988
697.595	19981.05075
697.791	19615.70982
697.987	19790.24464
698.183	20240.93159
698.379	19698.91442
698.575	20039.92396
698.77	19828.80884
698.966	20129.2556
699.162	19642.091
699.358	19508.16306
699.554	19392.51262
699.749	19638.03231
699.945	19445.26378
700.141	19650.20843
700.337	19723.26831
700.532	20037.89379
700.728	20194.22917
700.924	20563.84815
701.119	20119.10386
701.315	20153.62018
701.511	19757.7707
701.706	20202.35117
701.902	19778.06678
702.097	19832.86832
702.293	20301.85112
702.489	20238.901
702.684	19800.39296
702.88	19881.58336
703.075	19396.5703
703.271	19560.92038
703.466	19402.65685
703.662	19504.10492
703.857	19834.89806
704.053	19875.49384
704.248	19617.73912
704.443	19828.80884
704.639	19688.76714
704.834	19445.26378
705.03	19556.86203
705.225	19601.50486
705.42	19270.78985
705.616	19343.82172
705.811	19276.87563
706.006	19719.20929
706.202	19443.23484
706.397	19550.77453
706.592	19378.31086
706.787	19532.51225
706.983	19451.35063
707.178	19698.91442
707.373	19226.16188
707.568	19753.71153
707.763	19378.31086
707.959	19743.56369
708.154	19485.8435
708.349	19173.4223
708.544	19491.93061
708.739	19674.56112
708.934	18903.68213
709.129	19337.73553
709.324	18897.59859
709.519	19396.5703
709.714	19108.51585
709.909	19232.24739
710.104	19100.40284
710.299	19092.28989
710.494	18928.01666
710.689	18911.79357
710.884	18887.45944
711.079	18980.74344
711.274	18907.73784
711.469	19173.4223
711.664	19049.69798
711.859	19453.37959
712.054	19130.82697
712.249	19015.22013
712.443	18972.63145
712.638	19080.12059
712.833	18597.52162
713.028	19132.85528
713.223	18356.30538
713.417	18784.04576
713.612	18946.26793
713.807	18455.62315
714.002	18648.20424
714.196	18777.96293
714.391	18794.1839
714.586	18786.07338
714.78	18992.91155
714.975	18877.32038
715.17	18786.07338
715.364	18913.82145
715.559	18631.98554
715.754	18784.04576
715.948	18838.79289
716.143	18599.54888
716.337	18135.40627
716.532	18863.12587
716.726	18534.67854
716.921	18812.4328
717.115	18607.65795
717.31	18948.29587
717.504	19136.91191
717.699	18715.10905
717.893	18822.57121
718.088	18585.35815
718.282	18923.96086
718.476	18636.04019
718.671	18609.68523
718.865	18459.67714
719.059	18269.15643
719.254	18417.1111
719.448	18327.93055
719.642	18319.82358
719.837	17821.35769
720.031	18210.38544
720.225	17861.87535
720.419	18157.69685
720.614	18325.9038
720.808	18378.60042
721.002	17999.6458
721.196	18038.1434
721.39	18216.46506
721.585	18147.56471
721.779	18060.43207
721.973	17884.16065
722.167	17803.1252
722.361	17851.74581
722.555	17829.46112
722.749	18184.04084
722.943	18295.50306
723.137	17790.97035
723.331	17637.01948
723.525	17730.19796
723.719	17481.06227
723.913	17813.25433
724.107	17671.45419
724.301	18196.19981
724.495	17863.90127
724.689	18352.25179
724.883	17661.32623
725.077	17912.52437
725.271	17762.60952
725.465	17756.53229
725.659	17752.48082
725.853	18009.77662
726.046	18113.11612
726.24	17861.87535
726.434	17829.46112
726.628	17957.09731
726.822	17971.27996
727.015	17618.78972
727.209	17497.26473
727.403	17932.78459
727.596	17562.07662
727.79	17402.07814
727.984	17582.33101
728.177	18098.93171
728.371	17946.96695
728.565	18032.06474
728.758	17703.8642
728.952	18021.93372
729.146	17705.88985
729.339	18157.69685
729.533	17819.33185
729.726	18319.82358
729.92	18015.85516
730.113	17906.44637
730.307	18220.51815
730.5	18145.53829
730.694	17709.94117
730.887	17807.17684
731.081	18023.95992
731.274	18303.60984
731.468	17888.21257
731.661	17825.4094
731.854	17728.17227
732.048	17671.45419
732.241	17661.32623
732.435	17525.61953
732.628	17667.40299
732.821	17608.6622
733.014	17325.12375
733.208	17432.45609
733.401	17622.84076
733.594	17148.95491
733.788	17424.35523
733.981	17614.7387
734.174	17383.8517
734.367	17612.7132
734.56	17679.55661
734.754	17525.61953
734.947	17404.10331
735.14	17489.16348
735.333	17813.25433
735.526	17347.39957
735.719	17140.85572
735.912	17153.00452
736.105	17175.27759
736.298	17231.97425
736.491	17430.43087
736.684	17452.70845
736.877	17381.82656
737.07	17337.27415
737.263	17262.3484
737.456	17491.18879
737.649	17371.70088
737.842	17645.12168
738.035	17578.2801
738.228	17570.17834
738.421	17780.84141
738.614	17647.14723
738.807	17637.01948
739	16851.33843
739.192	16784.53432
739.385	16794.65598
739.578	16610.45104
739.771	17061.89098
739.964	17126.68225
740.156	16914.09632
740.349	16778.46135
740.542	17209.70029
740.735	16796.68032
740.927	16772.3884
741.12	17037.59498
741.313	16480.91151
741.505	16507.22352
741.698	16782.50999
741.891	16620.57169
742.083	16606.40279
742.276	16675.22419
742.468	16424.24069
742.661	16644.86148
742.854	16559.84861
743.046	16428.28855
743.239	16608.42691
743.431	16505.19951
743.624	16353.40435
743.816	16383.76249
744.009	16723.80561
744.201	16594.25811
744.393	16521.39167
744.586	16606.40279
744.778	16349.35663
744.971	16280.54655
745.163	16446.50404
745.355	16814.89949
745.548	16576.04123
745.74	16879.6804
745.932	16709.63589
746.125	16507.22352
746.317	16306.85604
746.509	16163.16942
746.702	16207.6911
746.894	16254.23738
747.086	16248.16607
747.278	16381.7386
747.471	16557.82454
747.663	16590.2099
747.855	16509.24754
748.047	16371.61918
748.239	16683.321
748.431	16806.80206
748.623	16513.29557
748.815	16357.45208
749.008	16551.75234
749.2	16355.42821
749.392	16501.15149
749.584	16138.88521
749.776	16132.81419
749.968	16286.61795
750.16	16365.54755
750.352	16363.52368
750.544	16618.54755
750.736	16869.55821
750.928	16594.25811
751.12	16290.66555
751.311	16229.95225
751.503	16432.33642
751.695	16282.57035
751.887	16416.14498
752.079	16489.00748
752.271	15952.71355
752.463	16286.61795
752.654	16179.35903
752.846	16177.33532
753.038	15906.17249
753.23	16126.74319
753.421	16118.64854
753.613	16171.26421
753.805	16450.55194
753.997	16227.9285
754.188	16061.9867
754.38	16138.88521
754.572	15991.16104
754.763	16169.24051
754.955	15896.05495
755.146	16126.74319
755.338	15976.99611
755.53	16157.09835
755.721	15857.60861
755.913	16035.67982
756.104	15770.60003
756.296	16171.26421
756.487	15659.31277
756.679	15786.78752
756.87	15523.74815
757.062	15315.34809
757.253	15707.87412
757.445	15493.39829
757.636	15254.64977
757.827	15424.60576
758.019	15406.39606
758.21	15175.74216
758.401	15335.58091
758.593	15323.44121
758.784	15691.68695
758.975	15531.84147
759.167	15491.37497
759.358	15519.70149
759.549	15248.57995
759.74	15299.16185
759.932	15228.34722
760.123	15461.02526
760.314	15404.37277
760.505	14965.32143
760.696	14856.06317
760.888	14953.18169
761.079	14910.69247
761.27	14936.99534
761.461	14856.06317
761.652	15026.01994
761.843	14845.94658
762.034	15113.02077
762.225	14775.13004
762.416	14791.31675
762.607	14487.80578
762.798	15007.81042
762.989	14995.67072
763.18	15015.90354
763.371	14835.82998
763.562	14854.03985
763.753	14461.50026
763.944	14740.7331
764.135	14550.53341
764.326	14926.87886
764.517	14463.52377
764.708	14412.93559
764.899	14356.27569
765.089	14445.31213
765.28	14520.18149
765.471	14682.05542
765.662	14299.6145
765.853	14811.55008
766.043	14532.32229
766.234	14724.54623
766.425	14372.46436
766.615	14416.98268
766.806	14147.83632
766.997	14279.37803
767.187	14143.78875
767.378	14518.15801
767.569	14157.95521
767.759	14382.58223
767.95	14267.23606
768.141	14425.07684
768.331	14246.99929
768.522	14388.65293
768.712	13878.65241
768.903	13998.07016
769.093	13692.42216
769.284	13854.36291
769.474	13911.03779
769.665	13975.80652
769.855	14012.23778
770.046	14285.44899
770.236	13809.83111
770.426	13781.49195
770.617	13886.74882
770.807	14212.59636
770.998	14008.1899
771.188	13627.64024
771.378	13692.42216
771.569	13840.19385
771.759	13660.03162
771.949	13500.09058
772.139	13526.41151
772.33	13445.42203
772.52	13556.78106
772.71	13692.42216
772.9	13765.29789
773.09	13692.42216
773.281	13678.2514
773.471	13718.73886
773.661	13534.51014
773.851	13453.52125
774.041	13512.23878
774.231	13564.87946
774.421	13421.124
774.611	13293.54992
774.802	13099.11852
774.992	13425.17371
775.182	13386.70083
775.372	13172.03517
775.562	13334.05138
775.752	13336.07641
775.942	12971.49938
776.131	13303.67544
776.321	12813.46649
776.511	13200.39004
776.701	12762.80791
776.891	12849.93852
777.081	12876.27833
777.271	12910.72132
777.461	12898.56515
777.651	12862.09547
777.84	12681.74674
778.03	13147.73029
778.22	12890.46092
778.41	12781.0454
778.599	12870.19999
778.789	12768.88712
778.979	12624.99831
779.169	12501.35109
779.358	12375.6523
779.548	12835.75516
779.738	12827.65027
779.927	12752.67577
780.117	12586.48773
780.307	12665.53338
780.496	12635.1323
780.686	12817.51903
780.875	12302.65398
781.065	12562.16411
781.254	12558.11009
781.444	12513.51416
781.633	12414.17562
781.823	12331.04328
782.012	12339.15426
782.202	12375.6523
782.391	12331.04328
782.581	12049.11504
782.77	12043.02865
782.96	12191.11108
783.149	11738.61637
783.338	12270.20737
783.528	12310.76535
783.717	12432.42266
783.906	12452.69651
784.096	12258.03943
784.285	12120.1177
784.474	12116.06066
784.663	11886.78696
784.853	11775.15582
785.042	11972.01561
785.231	12073.45987
785.42	11990.27704
785.61	11661.46817
785.799	11777.18571
785.988	12148.51615
786.177	11842.13757
786.366	12057.2301
786.555	11996.36404
786.744	11931.43234
786.933	11781.24546
787.122	11965.92833
787.312	11594.46053
787.501	11726.43593
787.69	11819.81135
787.879	12089.68914
788.068	11990.27704
788.257	11935.49081
788.445	11543.69051
788.634	12045.05746
788.823	11598.52189
789.012	11929.40309
789.201	11499.00805
789.39	11937.52003
789.579	11600.55255
789.768	11576.18399
789.957	11379.15492
790.145	11531.50484
790.334	11586.33772
790.523	11836.04871
790.712	11659.43778
790.9	11679.74128
791.089	11243.00871
791.278	11371.02805
791.467	11060.05246
791.655	11352.74202
791.844	11031.58478
792.033	11198.29398
792.221	11064.1191
792.41	11407.59771
792.599	10921.76049
792.787	11360.86925
792.976	10836.31875
793.164	11133.2453
793.353	11055.98578
793.541	11157.63983
793.73	11190.16348
793.918	11220.65197
794.107	10838.35331
794.295	11165.77099
794.484	11021.41723
794.672	10931.93078
794.861	10813.93777
795.049	11068.1857
795.238	11070.21898
795.426	11068.1857
795.614	10990.91291
795.803	10913.62405
795.991	10893.28216
796.179	11076.31875
796.368	10917.69229
796.556	10893.28216
796.744	10325.25756
796.932	10846.49145
797.121	10498.41473
797.309	10520.81649
797.497	10522.85294
797.685	10620.58765
797.874	10618.5518
798.062	10724.39962
798.25	10258.00613
798.438	10478.04816
798.626	10355.82158
798.814	10602.26458
799.002	10490.26826
799.19	10518.78003
799.378	10343.59633
799.566	10343.59633
799.755	9976.61049
799.943	10327.29525
800.131	10482.12158
800.318	10585.97656
800.506	10359.89655
800.694	10317.10665
800.882	9956.20902
801.07	10494.34152
801.258	10341.55874
801.446	10565.61542
801.634	10594.12067
801.822	10541.1804
802.01	10200.93277
802.197	10541.1804
802.385	10094.91074
802.573	10190.73998
802.761	10082.675
802.949	10292.65263
803.136	10168.31461
803.324	10264.12051
803.512	10215.20212
803.699	10308.95552
803.887	10264.12051
804.075	10229.47079
804.262	10109.18514
804.45	10351.74655
804.638	10298.76632
804.825	10579.86835
805.013	10005.17013
805.201	10296.72843
805.388	10088.79294
805.576	10351.74655
805.763	10388.41992
805.951	10158.1207
806.138	10062.28097
806.326	10213.16368
806.513	10137.73186
806.701	10005.17013
806.888	10239.66229
807.075	10266.1586
807.263	10160.15951
807.45	10310.99332
807.638	10200.93277
807.825	10410.82934
808.012	9970.4902
808.2	10347.67146
808.387	10376.19594
808.574	10457.6803
808.761	10135.6929
808.949	10404.71784
809.136	10137.73186
809.323	10473.97469
809.51	10147.92646
809.698	10414.90361
809.885	10221.31734
810.072	10225.39409
810.259	10178.50816
810.446	10192.77856
810.633	10439.34813
810.82	10416.94072
811.008	10380.27065
811.195	10416.94072
811.382	10569.68775
811.569	10400.64344
811.756	10145.88756
811.943	10300.80418
812.13	10101.02843
812.317	10119.38071
812.504	10323.21985
812.691	10366.00892
812.878	10160.15951
813.064	10251.89164
813.251	9852.13878
813.438	9848.05681
813.625	9994.97058
813.812	10192.77856
813.999	9897.03651
814.186	10408.79218
814.372	10113.26341
814.559	10372.12117
814.746	10317.10665
814.933	10577.83225
815.12	10811.90307
815.306	10441.38509
815.493	10441.38509
815.68	10557.47061
815.866	10325.25756
816.053	10359.89655
816.24	9997.01052
816.426	9923.56364
816.613	10361.93402
816.799	10143.84866
816.986	10127.53692
817.173	10306.91771
817.359	10143.84866
817.546	10243.73879
817.732	10029.64757
817.919	10319.14439
818.105	10180.54683
818.292	10209.08677
818.478	9825.60492
818.665	9992.93063
818.851	10005.17013
819.037	10090.83222
819.224	9992.93063
819.41	10086.75364
819.597	9701.06596
819.783	9850.0978
819.969	9821.52257
820.156	9666.34826
820.342	9870.5069
820.528	10064.32044
820.714	9878.67012
820.901	10115.30252
821.087	9792.94441
821.273	10056.16249
821.459	9735.77921
821.646	9848.05681
821.832	9723.52798
822.018	9907.23954
822.204	9907.23954
822.39	10286.53883
822.576	10060.24149
822.762	10078.59631
822.948	9825.60492
823.134	10007.20999
823.32	9625.4982
823.507	9792.94441
823.693	9367.99729
823.879	9592.81366
824.065	9582.59892
824.25	9650.00898
824.436	9576.46989
824.622	9361.86319
824.808	9122.51636
824.994	9237.10423
825.18	9140.93587
825.366	9525.38908
825.552	9382.30961
825.738	9562.16826
825.923	9357.77371
826.109	9633.66871
826.295	9300.51406
826.481	9302.55927
826.667	9363.90791
826.852	9359.81846
827.038	9071.34373
827.224	9553.99555
827.409	9351.63937
827.595	9598.94232
827.781	9269.83389
827.966	9533.56268
828.152	9372.08661
828.338	9374.13124
828.523	8780.47485
828.709	9085.67316
828.894	9016.06513
829.08	9269.83389
829.266	8942.34046
829.451	9500.86677
829.637	9153.21477
829.822	9145.02891
830.008	9112.28269
830.193	9142.9824
830.378	9282.10641
830.564	9417.06477
830.749	9230.96694
830.935	9355.72895
831.12	8979.20565
831.305	9061.10791
831.491	8846.05419
831.676	9052.91894
831.861	8786.6237
832.047	8870.64167
832.232	8427.66153
832.417	8837.85778
832.602	8639.00568
832.788	8876.78814
832.973	8807.11869
833.158	8663.61533
833.343	8731.27811
833.528	8901.3724
833.714	8442.03111
833.899	8597.98364
834.084	8589.77834
834.269	8860.3972
834.454	8511.8129
834.639	8882.93445
834.824	8386.60038
835.009	8811.21747
835.194	8396.86639
835.379	8671.81795
835.564	8442.03111
835.749	8493.34339
835.934	8450.24188
836.119	8468.71499
836.304	8337.31678
836.489	8427.66153
836.674	8029.03712
836.859	8246.93433
837.044	8248.9889
837.228	8302.40079
837.413	8292.1303
837.598	8187.34324
837.783	7819.14726
837.968	8228.44233
838.152	8214.05855
838.337	8240.77051
838.522	8177.06722
838.707	8339.37049
838.891	8187.34324
839.076	8433.82004
839.261	8413.291
839.445	8444.08383
839.63	8318.83255
839.815	8253.09798
839.999	7736.77869
840.184	7897.36654
840.368	8006.41219
840.553	8230.49707
840.737	7940.5802
840.922	8026.98041
841.106	7695.58182
841.291	7784.14471
841.475	7944.69531
841.66	8337.31678
841.844	7977.61327
842.029	7948.81034
842.213	7798.55825
842.397	8026.98041
842.582	7720.30096
842.766	7924.11892
842.951	7767.67083
843.135	7695.58182
843.319	7606.97991
843.504	7633.77067
843.688	7545.14132
843.872	7662.61825
844.056	7670.85965
844.241	7650.25551
844.425	7382.20703
844.609	7652.31602
844.793	7646.13443
844.977	7639.95265
845.161	7262.49793
845.346	7530.70954
845.53	7289.3357
845.714	7309.97761
845.898	7235.65645
846.082	7192.28923
846.266	7136.51702
846.45	7421.4061
846.634	7250.11002
846.818	7210.87638
847.002	7254.23941
847.186	7404.90218
847.37	7309.97761
847.554	7423.46899
847.738	7210.87638
847.922	7173.7003
848.106	7258.36872
848.29	7338.87259
848.473	7184.02771
848.657	7388.39688
848.841	7157.17529
849.025	7305.8494
849.209	6979.44119
849.392	6942.22001
849.576	6766.35408
849.76	7132.3851
849.944	6811.88809
850.127	7045.59416
850.311	6735.30182
850.495	6805.67956
850.678	6700.10303
850.862	7024.92383
851.046	6706.31506
851.229	6780.84337
851.413	6635.89991
851.596	6727.02035
851.78	6718.73851
851.964	6760.14404
852.147	6561.31366
852.331	6704.24441
852.514	6582.03507
852.698	6768.42405
852.881	6480.47807
853.065	6579.96303
853.248	6586.17907
853.431	6633.82848
853.615	6443.15744
853.798	6436.9366
853.982	6507.42719
854.165	6534.37238
854.348	6353.97206
854.532	6729.09075
854.715	6214.92276
854.898	6521.93663
855.081	6225.3032
855.265	6563.38591
855.448	6241.91069
855.631	6229.45521
855.814	6175.47173
855.997	6216.99889
856.181	6190.0073
856.364	6084.0789
856.547	6171.3185
856.73	6077.84592
856.913	5815.86901
857.096	6163.01175
857.279	5874.11846
857.462	5934.42874
857.645	5917.7934
857.828	6140.16626
858.011	5976.01048
858.194	6422.42049
858.377	6113.16337
858.56	6090.31168
858.743	6071.61272
858.926	6177.54831
859.109	5963.53695
859.292	6071.61272
859.475	5982.24693
859.658	6187.93086
859.841	6040.44355
860.023	5988.48316
860.206	5718.05156
860.389	6185.8544
860.572	5743.03118
860.755	5919.8729
860.937	5924.03183
861.12	5973.93162
861.303	5824.19149
861.486	5878.27842
861.668	5559.76837
861.851	5847.07637
862.034	5384.66548
862.216	5738.86815
862.399	5253.22959
862.581	5597.26881
862.764	5357.5514
862.947	5616.01616
863.129	5434.71181
863.312	5497.25068
863.494	5342.94987
863.677	5549.35023
863.859	5221.92164
864.042	5378.40874
864.224	5246.96842
864.406	5297.05188
864.589	5132.14312
864.771	5380.49434
864.954	5065.30329
865.136	5355.46554
865.318	5184.34517
865.501	5340.86385
865.683	5109.16961
865.865	5178.08169
866.048	5021.42677
866.23	5215.65942
866.412	4778.87848
866.594	4942.00528
866.777	4914.82714
866.959	5092.45984
867.141	4852.09359
867.323	5094.54864
867.505	5042.32162
867.687	4962.90889
867.869	4921.09936
868.052	5090.37101
868.234	4826.9944
868.416	5196.8715
868.598	5155.11381
868.78	5004.70922
868.962	4883.46294
869.144	5096.63742
869.326	4783.06295
869.508	4981.72018
869.69	4925.28073
869.872	5163.46609
870.054	4883.46294
870.236	5075.74858
870.417	4678.42401
870.599	5006.79899
870.781	4801.89194
870.963	4866.73326
871.145	4814.44358
871.327	4950.367
871.508	4628.17731
871.69	4896.00924
871.872	4770.50926
872.054	4962.90889
872.235	4714.00758
872.417	4776.78621
872.599	4603.04913
872.78	4703.5425
872.962	4544.40421
873.144	4636.55266
873.325	4517.1703
873.507	4843.72756
873.689	4582.10652
873.87	4891.82723
874.052	4651.20865
874.233	4824.90266
874.415	4554.8778
874.596	4908.55471
874.778	4479.45563
874.959	4768.4169
875.141	4665.86355
875.322	4670.05046
875.503	4728.65775
875.685	4699.35631
875.866	4682.61065
876.048	4778.87848
876.229	4523.45538
876.41	4619.80161
876.592	4582.10652
876.773	4580.01214
876.954	4395.61977
877.136	4605.14327
877.317	4404.00493
877.498	4693.07686
877.679	4448.02129
877.86	4768.4169
878.042	4569.53988
878.223	4749.58464
878.404	4462.69126
878.585	4711.91461
878.766	4705.63556
878.947	4887.64513
879.128	4847.91062
879.309	4814.44358
879.49	4760.04723
879.672	4906.46386
879.853	4657.48946
880.034	4695.17003
880.215	4672.14388
880.396	4831.17783
880.576	4590.48383
880.757	4745.39944
880.938	4506.69472
881.119	4762.13968
881.3	4552.78312
881.481	4586.29522
881.662	4504.59953
881.843	4448.02129
882.023	4336.9139
882.204	4703.5425
882.385	4437.54208
882.566	4663.77006
882.747	4596.76658
882.927	4803.98394
883.108	4301.26277
883.289	4812.3517
883.469	4705.63556
883.65	4753.76974
883.831	4502.50433
884.011	4785.15515
884.192	4789.33948
884.373	4806.07591
884.553	4590.48383
884.734	4722.37924
884.914	4521.36037
885.095	4737.02878
885.275	4512.98013
885.456	4795.61581
885.636	4619.80161
885.817	4956.63805
885.997	4682.61065
886.178	5002.61942
886.358	4701.44942
886.538	4651.20865
886.719	4887.64513
886.899	4837.4528
887.08	4812.3517
887.26	4835.36116
887.44	4711.91461
887.621	5038.14284
887.801	4770.50926
887.981	4987.9902
888.161	4734.93605
888.342	4868.82455
888.522	4780.97072
888.702	4875.09828
888.882	4745.39944
889.062	4971.2697
889.242	4770.50926
889.423	4619.80161
889.603	4745.39944
889.783	4841.63599
889.963	4613.5196
890.143	4724.4721
890.323	4439.63796
890.503	4772.6016
890.683	4506.69472
890.863	4586.29522
891.043	4387.23426
891.223	4682.61065
891.403	4642.83394
891.583	4919.00865
891.763	4703.5425
891.943	4803.98394
892.122	4628.17731
892.302	4896.00924
892.482	4533.93007
892.662	4780.97072
892.842	4586.29522
893.022	4885.55405
893.201	4466.88249
893.381	4812.3517
893.561	4473.16916
893.741	4690.98366
893.92	4464.78689
894.1	4964.99913
894.28	4632.36503
894.459	4613.5196
894.639	4473.16916
894.819	4412.38974
894.998	4265.60543
895.178	4615.61362
895.357	4368.36559
895.537	4498.31386
895.716	4284.48362
895.896	4393.52342
896.075	4158.59641
896.255	4477.36016
896.434	4083.02762
896.614	4318.04055
896.793	4112.4187
896.973	4171.18857
897.152	3973.82524
897.331	4267.70309
897.511	3992.72962
897.69	3944.41513
897.87	3889.78586
898.049	4087.2266
898.228	3675.3417
898.407	4154.39886
898.587	3801.51002
898.766	3893.98859
898.945	3738.43458
899.124	3774.17948
899.304	3738.43458
899.483	4263.50774
899.662	4024.23325
899.841	3887.68446
900.02	3547.00017
900.199	4120.81541
900.378	3755.25641
900.557	3912.8999
900.737	3814.12299
900.916	3828.83723
901.095	3854.05938
901.274	3782.58923
901.453	3580.67026
901.632	3696.37458
901.811	3574.35748
901.989	3557.52258
902.168	3427.0124
902.347	3519.63974
902.526	3420.69563
902.705	3660.61754
902.884	3355.41306
903.063	3570.14887
903.242	3380.68574
903.42	3525.95396
903.599	3311.17985
903.778	3494.38121
903.957	3300.64702
904.135	3418.59001
904.314	3089.90273
904.493	3456.48852
904.672	3241.65529
904.85	3285.90033
905.029	3174.22013
905.207	3233.22683
905.386	3106.76825
905.565	3159.46644
905.743	2857.90247
905.922	3138.38837
906.1	2583.5014
906.279	2971.81616
906.457	2642.6216
906.636	2805.15053
906.814	2703.8429
906.993	2786.15771
907.171	2566.60818
907.35	2737.61552
907.528	2357.49459
907.707	2494.8036
907.885	2368.05839
908.063	2361.72014
908.242	2382.84728
908.42	2629.9538
908.598	2693.28827
908.777	2722.84041
908.955	2549.71419
909.133	2570.83155
909.311	2283.5411
909.49	2587.72459
909.668	2448.33484
909.846	2667.95585
910.024	2431.4358
910.202	2558.16128
910.38	2313.12392
910.559	2562.38475
910.737	2323.68875
910.915	2376.50925
911.093	2287.76733
911.271	2380.73462
911.449	2270.86219
911.627	2376.50925
911.805	2382.84728
911.983	2444.11015
912.161	2122.91826
912.339	2359.60737
912.517	2346.93054
912.695	2490.57939
912.872	2340.59198
913.05	2769.27428
913.228	2399.74826
913.406	2391.29786
913.584	2372.28384
913.762	2600.39386
913.939	2490.57939
914.117	2674.28912
914.295	2359.60737
914.473	2543.37875
914.65	2458.89639
914.828	2566.60818
915.006	2401.86084
915.184	2384.95994
915.361	2186.32787
915.539	2323.68875
915.716	2203.23585
915.894	2463.12093
916.072	2118.6907
916.249	2416.64858
916.427	2287.76733
916.604	2463.12093
916.782	2211.68964
916.959	2406.08596
917.137	1985.50763
917.314	2410.31104
917.492	2139.82819
917.669	2325.80169
917.847	2228.59679
918.024	2355.3818
918.201	2258.18295
918.379	2207.46276
918.556	2179.98724
918.733	2321.5758
918.911	2046.81757
919.088	2188.4414
919.265	2044.70353
919.442	2247.61667
919.62	2000.30709
919.797	2207.46276
919.974	1881.90321
920.151	2038.36137
920.328	1926.30679
920.506	2169.41936
920.683	1788.85998
920.86	1875.55965
921.037	1765.59785
921.214	1941.10744
921.391	1657.74055
921.568	2012.99209
921.745	1708.49796
921.922	1966.47931
922.099	1598.52171
922.276	1926.30679
922.453	1839.61195
922.63	1810.00694
922.807	1628.13135
922.984	1693.69389
923.161	1740.22044
923.338	1924.19239
923.514	1636.59117
923.691	1858.64326
923.868	1687.34924
924.045	1814.23629
924.222	1606.98165
924.399	1774.05686
924.575	1604.86667
924.752	1727.53154
924.929	1522.38116
925.105	1600.6367
925.282	1539.30142
925.459	1714.84252
925.635	1439.89428
925.812	1473.73511
925.989	1351.06259
926.165	1397.59331
926.342	1291.84265
926.518	1359.52268
926.695	1243.19893
926.871	1511.80596
927.048	1433.54912
927.224	1659.85547
927.401	1255.88846
927.577	1513.921
927.754	1327.79745
927.93	1306.6475
928.107	1027.49769
928.283	1355.29263
928.459	1181.86772
928.636	1427.20397
928.812	1274.92295
928.988	1266.46315
929.165	1215.70529
929.341	1183.98254
929.517	1118.42492
929.693	1162.8345
929.87	921.78238
930.046	1133.2279
930.222	993.66698
930.398	1141.68685
930.574	900.64146
930.751	1063.44449
930.927	879.50133
931.103	1112.08086
931.279	959.83792
931.455	1304.53251
931.631	980.98088
931.807	1012.69656
931.983	847.79268
932.159	1031.72664
932.335	926.01066
932.511	1010.58214
932.687	904.86958
932.863	892.18531
933.039	680.82896
933.215	968.29503
933.391	788.60856
933.566	858.36202
933.742	828.76843
933.918	858.36202
934.094	697.73371
934.27	824.54092
934.445	615.33015
934.621	621.66823
934.797	516.0489
934.973	761.13276
935.148	507.60084
935.324	568.85439
935.5	562.51727
935.675	604.76693
935.851	456.91739
936.027	551.95569
936.202	469.58744
936.378	494.92917
936.553	326.02738
936.729	558.2926
936.904	294.37034
937.08	393.57558
937.255	406.24279
937.431	389.35331
937.606	271.15779
937.782	342.91278
937.957	258.49735
938.133	292.26001
938.308	226.84928
938.483	207.86254
938.659	250.05744
938.834	186.76807
939.009	178.33085
939.185	186.76807
939.36	218.41053
939.535	250.05744
939.71	140.36746
939.886	271.15779
940.061	184.65873
940.236	199.42451
940.411	159.34831
940.586	174.11236
940.761	182.54942
940.937	157.23924
941.112	62.35357
941.287	148.80318
941.462	146.69422
941.637	108.73657
941.812	125.60578
941.987	190.9868
942.162	106.62802
942.337	123.49705
942.512	115.06236
942.687	125.60578
942.862	195.20561
943.037	30.7351
943.212	39.16618
943.386	159.34831
943.561	165.67563
943.736	163.5665
943.911	89.7604
944.086	108.73657
944.26	72.8942
944.435	115.06236
944.61	148.80318
944.785	161.45739
944.959	115.06236
945.134	176.22159
945.309	79.21886
945.483	106.62802
945.658	161.45739
945.833	146.69422
946.007	93.97717
946.182	142.47636
946.357	115.06236
946.531	89.7604
946.706	136.14973
946.88	148.80318
947.055	125.60578
947.229	106.62802
947.404	125.60578
947.578	110.84515
947.752	89.7604
947.927	161.45739
948.101	167.78478
948.276	127.71452
948.45	108.73657
948.624	119.27966
948.799	131.93208
948.973	182.54942
949.147	51.8135
949.321	89.7604
949.496	172.00315
949.67	87.65205
949.844	47.59764
950.018	83.43541
950.193	66.56975
950.367	163.5665
950.541	155.13019
950.715	159.34831
950.889	136.14973
951.063	178.33085
951.237	77.11062
951.411	157.23924
951.585	89.7604
951.759	157.23924
951.933	144.58528
952.107	180.44012
952.281	131.93208
952.455	81.32712
952.629	134.0409
952.803	190.9868
952.977	190.9868
953.151	266.93757
953.325	190.9868
953.499	193.0962
953.672	72.8942
953.846	79.21886
954.02	123.49705
954.194	144.58528
954.368	75.0024
954.541	87.65205
954.715	110.84515
954.889	85.54372
955.062	131.93208
955.236	178.33085
955.41	252.16739
955.583	241.61784
955.757	123.49705
955.93	104.51949
956.104	72.8942
956.278	100.3025
956.451	148.80318
956.625	148.80318
956.798	131.93208
956.972	106.62802
957.145	182.54942
957.319	83.43541
957.492	112.95374
957.665	140.36746
957.839	123.49705
958.012	26.51971
958.185	134.0409
958.359	150.91217
958.532	150.91217
958.705	134.0409
958.879	138.25859
959.052	104.51949
959.225	159.34831
959.398	68.67788
959.572	83.43541
959.745	58.13747
959.918	174.11236
960.091	157.23924
960.264	155.13019
960.438	98.19403
960.611	123.49705
960.784	186.76807
960.957	72.8942
961.13	123.49705
961.303	131.93208
961.476	140.36746
961.649	89.7604
961.822	182.54942
961.995	144.58528
962.168	119.27966
962.341	104.51949
962.514	119.27966
962.686	224.73956
962.859	222.62986
963.032	79.21886
963.205	140.36746
963.378	146.69422
963.551	167.78478
963.723	127.71452
963.896	131.93208
964.069	81.32712
964.242	81.32712
964.414	83.43541
964.587	150.91217
964.76	142.47636
964.932	102.41098
965.105	64.46165
965.278	102.41098
965.45	115.06236
965.623	117.171
965.795	93.97717
965.968	121.38835
966.14	83.43541
966.313	115.06236
966.485	41.27401
966.658	100.3025
966.83	89.7604
967.003	131.93208
967.175	39.16618
967.348	77.11062
967.52	87.65205
967.692	131.93208
967.865	123.49705
968.037	30.7351
968.209	64.46165
968.382	127.71452
968.554	49.70556
968.726	138.25859
968.898	47.59764
969.071	131.93208
969.243	174.11236
969.415	68.67788
969.587	81.32712
969.759	66.56975
969.932	66.56975
970.104	75.0024
970.276	104.51949
970.448	119.27966
970.62	24.41204
970.792	127.71452
970.964	83.43541
971.136	47.59764
971.308	72.8942
971.48	43.38186
971.652	89.7604
971.824	102.41098
971.996	115.06236
972.168	30.7351
972.339	49.70556
972.511	98.19403
972.683	72.8942
972.855	96.08559
973.027	131.93208
973.199	89.7604
973.37	140.36746
973.542	195.20561
973.714	68.67788
973.886	30.7351
974.057	117.171
974.229	72.8942
974.401	30.7351
974.572	58.13747
974.744	104.51949
974.915	91.86877
975.087	58.13747
975.259	41.27401
975.43	93.97717
975.602	7.55158
975.773	47.59764
975.945	43.38186
976.116	53.92147
976.288	7.55158
976.459	93.97717
976.63	142.47636
976.802	66.56975
976.973	108.73657
977.145	47.59764
977.316	28.62739
977.487	13.87408
977.659	51.8135
977.83	22.3044
978.001	77.11062
978.172	79.21886
978.344	39.16618
978.515	93.97717
978.686	91.86877
978.857	136.14973
979.028	24.41204
979.2	43.38186
979.371	155.13019
979.542	47.59764
979.713	119.27966
979.884	98.19403
980.055	56.02946
980.226	-11.4146
980.397	24.41204
980.568	-7.20006
980.739	28.62739
980.91	56.02946
981.081	-7.20006
981.252	26.51971
981.423	-0.87807
981.594	125.60578
981.765	-2.98542
981.936	134.0409
982.106	39.16618
982.277	49.70556
982.448	72.8942
982.619	47.59764
982.79	24.41204
982.96	13.87408
983.131	13.87408
983.302	22.3044
983.472	81.32712
983.643	51.8135
983.814	24.41204
983.984	75.0024
984.155	39.16618
984.326	79.21886
984.496	-9.30734
984.667	1.22931
984.837	26.51971
985.008	72.8942
985.178	-2.98542
985.349	30.7351
985.519	5.44413
985.69	28.62739
985.86	58.13747
986.031	24.41204
986.201	9.65906
986.371	34.9506
986.542	70.78603
986.712	106.62802
986.882	75.0024
987.053	64.46165
987.223	-17.73622
987.393	13.87408
987.563	64.46165
987.734	64.46165
987.904	5.44413
988.074	3.33671
988.244	-5.09275
988.414	9.65906
988.585	53.92147
988.755	81.32712
988.925	41.27401
989.095	41.27401
989.265	47.59764
989.435	77.11062
989.605	85.54372
989.775	-30.3788
989.945	68.67788
990.115	51.8135
990.285	72.8942
990.455	15.98162
990.625	24.41204
990.795	98.19403
990.965	28.62739
991.134	66.56975
991.304	1.22931
991.474	34.9506
991.644	39.16618
991.814	-5.09275
991.984	-28.27177
992.153	18.08919
992.323	53.92147
992.493	68.67788
992.662	22.3044
992.832	93.97717
993.002	5.44413
993.171	45.48974
993.341	5.44413
993.511	-9.30734
993.68	22.3044
993.85	-57.768
994.019	-11.4146
994.189	56.02946
994.358	1.22931
994.528	39.16618
994.697	41.27401
994.867	-26.16471
995.036	3.33671
995.206	5.44413
995.375	-70.40773
995.544	39.16618
995.714	-11.4146
995.883	58.13747
996.052	34.9506
996.222	30.7351
996.391	-9.30734
996.56	60.24551
996.73	70.78603
996.899	58.13747
997.068	-24.05762
997.237	30.7351
997.406	-28.27177
997.576	106.62802
997.745	70.78603
997.914	39.16618
998.083	20.19678
998.252	-49.34101
998.421	24.41204
998.59	13.87408
998.759	30.7351
998.928	32.84284
999.097	7.55158
999.266	49.70556
999.435	28.62739
999.604	37.05838
999.773	30.7351
999.942	89.7604
1000.111	-15.62904
1000.28	30.7351
1000.448	3.33671
1000.617	47.59764
1000.786	-85.15292
1000.955	28.62739
1001.124	-28.27177
1001.292	-61.98135
1001.461	64.46165
1001.63	-34.5928
1001.798	43.38186
1001.967	-74.62077
1002.136	89.7604
1002.304	37.05838
1002.473	39.16618
1002.642	-55.66129
1002.81	-9.30734
1002.979	15.98162
1003.147	43.38186
1003.316	66.56975
1003.484	47.59764
1003.653	34.9506
1003.821	32.84284
1003.99	5.44413
1004.158	62.35357
1004.327	-9.30734
1004.495	-11.4146
1004.663	125.60578
1004.832	-68.30117
1005	30.7351
1005.168	-0.87807
1005.337	20.19678
1005.505	-53.55456
1005.673	-51.44779
1005.842	34.9506
1006.01	7.55158
1006.178	18.08919
1006.346	-11.4146
1006.514	-36.69976
1006.683	5.44413
1006.851	15.98162
1007.019	-24.05762
1007.187	37.05838
1007.355	-9.30734
1007.523	30.7351
1007.691	32.84284
1007.859	58.13747
1008.027	-26.16471
1008.195	-53.55456
1008.363	34.9506
1008.531	-24.05762
1008.699	37.05838
1008.867	-11.4146
1009.035	60.24551
1009.203	1.22931
1009.37	7.55158
1009.538	7.55158
1009.706	1.22931
1009.874	24.41204
1010.042	-9.30734
1010.209	26.51971
1010.377	7.55158
1010.545	24.41204
1010.713	-26.16471
1010.88	129.82329
1011.048	22.3044
1011.216	-11.4146
1011.383	-32.48582
1011.551	9.65906
1011.718	-49.34101
1011.886	-28.27177
1012.054	-40.91361
1012.221	47.59764
1012.389	83.43541
1012.556	-26.16471
1012.724	-34.5928
1012.891	60.24551
1013.058	-43.0205
1013.226	-2.98542
1013.393	32.84284
1013.561	30.7351
1013.728	-28.27177
1013.895	-19.84338
1014.063	-19.84338
1014.23	-2.98542
1014.397	41.27401
1014.565	47.59764
1014.732	75.0024
1014.899	-53.55456
1015.066	39.16618
1015.233	-28.27177
1015.401	9.65906
1015.568	-99.89684
1015.735	-5.09275
1015.902	13.87408
1016.069	5.44413
1016.236	93.97717
1016.403	-17.73622
1016.57	-51.44779
1016.737	-2.98542
1016.904	75.0024
1017.071	-64.08798
1017.238	-13.52183
1017.405	22.3044
1017.572	-76.72725
1017.739	-36.69976
1017.906	5.44413
1018.073	-5.09275
1018.24	22.3044
1018.407	56.02946
1018.573	30.7351
1018.74	-32.48582
1018.907	1.22931
1019.074	-15.62904
1019.241	1.22931
1019.407	-19.84338
1019.574	-53.55456
1019.741	22.3044
1019.907	11.76656
1020.074	28.62739
1020.241	-36.69976
1020.407	26.51971
1020.574	-5.09275
1020.74	-43.0205
1020.907	41.27401
1021.073	-28.27177
1021.24	-83.04654
1021.406	56.02946
1021.573	-13.52183
1021.739	5.44413
1021.906	34.9506
1022.072	81.32712
1022.239	24.41204
1022.405	56.02946
1022.571	-64.08798
1022.738	-5.09275
1022.904	-36.69976
1023.07	45.48974
1023.237	-2.98542
1023.403	-0.87807
1023.569	-57.768
1023.735	-19.84338
1023.902	18.08919
1024.068	15.98162
1024.234	37.05838
1024.4	30.7351
1024.566	-30.3788
1024.732	-28.27177
1024.898	-28.27177
1025.065	39.16618
1025.231	-28.27177
1025.397	37.05838
1025.563	-17.73622
1025.729	75.0024
1025.895	32.84284
1026.061	-19.84338
1026.227	-55.66129
1026.392	49.70556
1026.558	-53.55456
1026.724	64.46165
1026.89	-19.84338
1027.056	-19.84338
1027.222	-24.05762
1027.388	47.59764
1027.553	-2.98542
1027.719	24.41204
1027.885	26.51971
1028.051	-59.87469
1028.216	-26.16471
1028.382	-24.05762
1028.548	-5.09275
1028.713	5.44413
1028.879	-24.05762
1029.045	32.84284
1029.21	75.0024
1029.376	-2.98542
1029.541	30.7351
1029.707	30.7351
1029.873	-7.20006
1030.038	20.19678
1030.204	-61.98135
1030.369	-78.83371
1030.534	18.08919
1030.7	37.05838
1030.865	13.87408
1031.031	-19.84338
1031.196	5.44413
1031.361	56.02946
1031.527	51.8135
1031.692	-43.0205
1031.857	5.44413
1032.023	7.55158
1032.188	-76.72725
1032.353	-28.27177
1032.518	-0.87807
1032.684	-9.30734
1032.849	-2.98542
1033.014	-26.16471
1033.179	15.98162
1033.344	-15.62904
1033.509	-74.62077
1033.674	30.7351
1033.839	18.08919
1034.004	-21.95051
1034.17	-28.27177
1034.335	-0.87807
1034.5	-91.4719
1034.664	47.59764
1034.829	58.13747
1034.994	7.55158
1035.159	-43.0205
1035.324	-61.98135
1035.489	-36.69976
1035.654	-21.95051
1035.819	-7.20006
1035.984	102.41098
1036.148	-66.19459
1036.313	-83.04654
1036.478	-11.4146
1036.643	41.27401
1036.807	-28.27177
1036.972	13.87408
1037.137	-2.98542
1037.301	13.87408
1037.466	-32.48582
1037.631	-36.69976
1037.795	-95.68442
1037.96	-47.2342
1038.124	-78.83371
1038.289	-26.16471
1038.454	-40.91361
1038.618	3.33671
1038.783	-2.98542
1038.947	-7.20006
1039.111	-66.19459
1039.276	-36.69976
1039.44	-19.84338
1039.605	-11.4146
1039.769	7.55158
1039.933	-47.2342
1040.098	-15.62904
1040.262	-15.62904
1040.426	22.3044
1040.591	-57.768
1040.755	-53.55456
1040.919	-47.2342
1041.083	-7.20006
1041.248	-45.12736
1041.412	7.55158
1041.576	47.59764
1041.74	9.65906
1041.904	-36.69976
1042.068	41.27401
1042.232	-32.48582
1042.397	15.98162
1042.561	5.44413
1042.725	-34.5928
1042.889	-11.4146
1043.053	-11.4146
1043.217	-7.20006
1043.381	18.08919
1043.544	-45.12736
1043.708	-66.19459
1043.872	-9.30734
1044.036	41.27401
1044.2	-2.98542
1044.364	22.3044
1044.528	-24.05762
1044.691	-34.5928
1044.855	-19.84338
1045.019	-26.16471
1045.183	-21.95051
1045.346	22.3044
1045.51	49.70556
1045.674	53.92147
1045.837	-17.73622
1046.001	58.13747
1046.165	-40.91361
1046.328	7.55158
1046.492	26.51971
1046.655	-36.69976
1046.819	5.44413
1046.983	-24.05762
1047.146	20.19678
1047.31	-45.12736
1047.473	13.87408
1047.636	-15.62904
1047.8	56.02946
1047.963	-40.91361
1048.127	-40.91361
1048.29	45.48974
