Data from absorb_only_2.23.25_USB4F045381__20__0125.txt Node

Date: Sun Feb 23 19:15:25 EST 2025
User: ssocol
Spectrometer: USB4F04538
Trigger mode: 4
Integration Time (sec): 2.600000E-3
Scans to average: 1
Electric dark correction enabled: true
Nonlinearity correction enabled: true
Boxcar width: 0
XAxis mode: Wavelengths
Number of Pixels in Spectrum: 3648
>>>>>Begin Spectral Data<<<<<
345.52	-23.88203
345.736	-23.88203
345.952	-23.88203
346.168	26.69535
346.384	-11.23899
346.6	5.61975
346.816	3.51233
347.032	9.83468
347.248	60.42118
347.464	-15.45344
347.68	9.83468
347.896	-4.91714
348.112	-63.91243
348.328	11.94218
348.544	18.26482
348.76	-28.09618
348.975	-7.02445
349.191	9.83468
349.407	20.37242
349.623	51.98916
349.839	-23.88203
350.055	14.04971
350.27	7.72721
350.486	-15.45344
350.702	1.40492
350.918	35.12624
351.133	45.6654
351.349	-66.01904
351.565	20.37242
351.781	11.94218
351.996	-47.05863
352.212	43.55752
352.428	37.23403
352.644	30.91075
352.859	20.37242
353.075	39.34183
353.291	-72.33872
353.506	-28.09618
353.722	43.55752
353.938	43.55752
354.153	1.40492
354.369	1.40492
354.584	-32.31023
354.8	16.15725
355.016	18.26482
355.231	22.48004
355.447	18.26482
355.662	-13.34623
355.878	43.55752
356.093	-23.88203
356.309	11.94218
356.524	5.61975
356.74	-21.77492
356.955	-13.34623
357.171	28.80304
357.386	5.61975
357.602	39.34183
357.817	14.04971
358.033	-7.02445
358.248	64.63732
358.464	3.51233
358.679	20.37242
358.895	79.39455
359.11	-42.84492
359.325	1.40492
359.541	-36.52418
359.756	51.98916
359.972	51.98916
360.187	20.37242
360.402	-38.63112
360.618	20.37242
360.833	-63.91243
361.048	3.51233
361.264	39.34183
361.479	-2.80981
361.694	28.80304
361.909	1.40492
362.125	26.69535
362.34	39.34183
362.555	-11.23899
362.77	-23.88203
362.986	68.85356
363.201	73.06989
363.416	26.69535
363.631	51.98916
363.847	3.51233
364.062	-13.34623
364.277	-23.88203
364.492	136.32547
364.707	-2.80981
364.922	26.69535
365.138	22.48004
365.353	68.85356
365.568	33.01848
365.783	60.42118
365.998	22.48004
366.213	35.12624
366.428	51.98916
366.643	9.83468
366.858	24.58768
367.073	-91.29638
367.288	56.20513
367.503	26.69535
367.718	1.40492
367.933	56.20513
368.148	18.26482
368.363	70.96171
368.578	-19.66778
368.793	39.34183
369.008	28.80304
369.223	14.04971
369.438	9.83468
369.653	51.98916
369.868	11.94218
370.083	30.91075
370.298	-7.02445
370.513	20.37242
370.728	-7.02445
370.943	-49.16544
371.157	7.72721
371.372	85.71941
371.587	3.51233
371.802	43.55752
372.017	35.12624
372.232	7.72721
372.446	45.6654
372.661	35.12624
372.876	87.82774
373.091	-4.91714
373.306	14.04971
373.52	68.85356
373.735	-68.12563
373.95	-13.34623
374.165	68.85356
374.379	-15.45344
374.594	26.69535
374.809	75.17808
375.023	-34.41722
375.238	9.83468
375.453	39.34183
375.667	37.23403
375.882	51.98916
376.097	64.63732
376.311	-4.91714
376.526	35.12624
376.741	-95.5089
376.955	79.39455
377.17	81.50281
377.384	1.40492
377.599	51.98916
377.813	11.94218
378.028	43.55752
378.242	77.2863
378.457	85.71941
378.672	5.61975
378.886	51.98916
379.101	-15.45344
379.315	43.55752
379.53	35.12624
379.744	35.12624
379.958	30.91075
380.173	-17.56062
380.387	9.83468
380.602	68.85356
380.816	26.69535
381.031	33.01848
381.245	85.71941
381.459	1.40492
381.674	102.58669
381.888	11.94218
382.103	-32.31023
382.317	33.01848
382.531	7.72721
382.746	-74.44523
382.96	30.91075
383.174	-28.09618
383.388	45.6654
383.603	22.48004
383.817	-13.34623
384.031	35.12624
384.246	39.34183
384.46	56.20513
384.674	-7.02445
384.888	-15.45344
385.103	26.69535
385.317	9.83468
385.531	3.51233
385.745	-17.56062
385.959	16.15725
386.174	-32.31023
386.388	-13.34623
386.602	-9.13173
386.816	11.94218
387.03	129.99903
387.244	14.04971
387.458	-2.80981
387.672	-0.70246
387.887	22.48004
388.101	51.98916
388.315	43.55752
388.529	68.85356
388.743	16.15725
388.957	35.12624
389.171	98.36974
389.385	43.55752
389.599	-17.56062
389.813	51.98916
390.027	33.01848
390.241	-13.34623
390.455	73.06989
390.669	-30.20322
390.883	26.69535
391.097	11.94218
391.311	39.34183
391.525	-49.16544
391.738	47.77329
391.952	62.52924
392.166	11.94218
392.38	102.58669
392.594	-63.91243
392.808	47.77329
393.022	22.48004
393.236	35.12624
393.449	7.72721
393.663	43.55752
393.877	45.6654
394.091	-17.56062
394.305	-15.45344
394.518	18.26482
394.732	54.09713
394.946	70.96171
395.16	30.91075
395.373	79.39455
395.587	81.50281
395.801	68.85356
396.015	70.96171
396.228	11.94218
396.442	24.58768
396.656	16.15725
396.869	-0.70246
397.083	35.12624
397.297	33.01848
397.51	56.20513
397.724	35.12624
397.938	1.40492
398.151	45.6654
398.365	85.71941
398.578	-32.31023
398.792	51.98916
399.005	-11.23899
399.219	47.77329
399.433	26.69535
399.646	98.36974
399.86	79.39455
400.073	77.2863
400.287	77.2863
400.5	89.9361
400.714	77.2863
400.927	33.01848
401.141	5.61975
401.354	70.96171
401.567	37.23403
401.781	56.20513
401.994	111.02086
402.208	37.23403
402.421	3.51233
402.635	60.42118
402.848	43.55752
403.061	7.72721
403.275	37.23403
403.488	14.04971
403.701	58.31314
403.915	9.83468
404.128	39.34183
404.341	-66.01904
404.555	-28.09618
404.768	39.34183
404.981	33.01848
405.195	58.31314
405.408	-15.45344
405.621	89.9361
405.834	51.98916
406.048	73.06989
406.261	119.45538
406.474	24.58768
406.687	62.52924
406.9	-2.80981
407.114	1.40492
407.327	68.85356
407.54	45.6654
407.753	102.58669
407.966	35.12624
408.179	79.39455
408.392	-7.02445
408.605	51.98916
408.819	9.83468
409.032	-21.77492
409.245	60.42118
409.458	113.12946
409.671	-4.91714
409.884	92.04447
410.097	41.44967
410.31	98.36974
410.523	60.42118
410.736	11.94218
410.949	39.34183
411.162	18.26482
411.375	28.80304
411.588	73.06989
411.801	-49.16544
412.014	66.74543
412.227	9.83468
412.44	68.85356
412.653	68.85356
412.865	43.55752
413.078	73.06989
413.291	121.56407
413.504	5.61975
413.717	30.91075
413.93	28.80304
414.143	89.9361
414.356	-21.77492
414.568	73.06989
414.781	22.48004
414.994	20.37242
415.207	111.02086
415.42	5.61975
415.632	-4.91714
415.845	64.63732
416.058	-7.02445
416.271	22.48004
416.483	62.52924
416.696	62.52924
416.909	37.23403
417.121	-4.91714
417.334	85.71941
417.547	155.30595
417.759	73.06989
417.972	70.96171
418.185	62.52924
418.397	30.91075
418.61	-0.70246
418.823	24.58768
419.035	89.9361
419.248	94.15287
419.46	47.77329
419.673	26.69535
419.885	77.2863
420.098	119.45538
420.311	77.2863
420.523	45.6654
420.736	26.69535
420.948	79.39455
421.161	26.69535
421.373	14.04971
421.586	37.23403
421.798	49.88122
422.01	-11.23899
422.223	26.69535
422.435	68.85356
422.648	56.20513
422.86	98.36974
423.073	70.96171
423.285	70.96171
423.497	-7.02445
423.71	68.85356
423.922	62.52924
424.134	127.89025
424.347	56.20513
424.559	9.83468
424.771	127.89025
424.984	37.23403
425.196	73.06989
425.408	111.02086
425.621	98.36974
425.833	56.20513
426.045	75.17808
426.257	81.50281
426.47	104.6952
426.682	30.91075
426.894	14.04971
427.106	24.58768
427.318	81.50281
427.531	66.74543
427.743	83.6111
427.955	9.83468
428.167	58.31314
428.379	51.98916
428.591	37.23403
428.804	64.63732
429.016	89.9361
429.228	113.12946
429.44	87.82774
429.652	-49.16544
429.864	20.37242
430.076	153.19692
430.288	111.02086
430.5	127.89025
430.712	174.28813
430.924	129.99903
431.136	47.77329
431.348	85.71941
431.56	144.76102
431.772	56.20513
431.984	60.42118
432.196	111.02086
432.408	119.45538
432.62	157.41499
432.832	60.42118
433.044	182.72519
433.256	191.16258
433.468	85.71941
433.679	174.28813
433.891	104.6952
434.103	77.2863
434.315	140.5432
434.527	180.61589
434.739	113.12946
434.95	77.2863
435.162	153.19692
435.374	111.02086
435.586	60.42118
435.798	83.6111
436.009	132.10782
436.221	123.67278
436.433	132.10782
436.645	151.08791
436.856	98.36974
437.068	96.26129
437.28	119.45538
437.491	222.80567
437.703	148.97893
437.915	140.5432
438.126	121.56407
438.338	140.5432
438.55	248.12334
438.761	153.19692
438.973	170.06972
439.184	98.36974
439.396	182.72519
439.608	119.45538
439.819	132.10782
440.031	248.12334
440.242	159.52406
440.454	195.3814
440.665	214.36707
440.877	159.52406
441.088	212.25747
441.3	79.39455
441.511	136.32547
441.723	129.99903
441.934	136.32547
442.146	186.94385
442.357	182.72519
442.569	119.45538
442.78	178.50662
442.991	195.3814
443.203	233.35436
443.414	216.47669
443.626	205.9288
443.837	246.01343
444.048	159.52406
444.26	157.41499
444.471	186.94385
444.682	191.16258
444.894	231.24458
445.105	203.81928
445.316	195.3814
445.528	231.24458
445.739	210.14789
445.95	243.90353
446.161	220.69599
446.373	178.50662
446.584	229.13482
446.795	208.03833
447.006	184.83451
447.217	208.03833
447.429	262.89326
447.64	279.77431
447.851	256.56318
448.062	256.56318
448.273	161.63315
448.484	265.00332
448.695	294.5462
448.907	292.43587
449.118	195.3814
449.329	235.46415
449.54	254.45319
449.751	186.94385
449.962	246.01343
450.173	283.99475
450.384	269.22351
450.595	281.88452
450.806	265.00332
451.017	283.99475
451.228	313.53995
451.439	336.75651
451.65	321.98209
451.861	368.41887
452.072	262.89326
452.283	277.66411
452.494	400.08505
452.705	330.42451
452.915	343.08867
453.126	321.98209
453.337	343.08867
453.548	353.64262
453.759	345.19943
453.97	357.86432
454.181	486.65768
454.391	427.53205
454.602	423.30926
454.813	410.64126
455.024	490.88139
455.235	343.08867
455.445	488.76953
455.656	397.97385
455.867	459.205
456.078	431.75491
456.288	450.75854
456.499	387.41813
456.71	471.87515
456.921	427.53205
457.131	562.6933
457.342	427.53205
457.553	476.09866
457.763	516.2249
457.974	512.00084
458.184	440.20081
458.395	642.97205
458.606	573.25523
458.816	575.36765
459.027	619.73158
459.237	596.49263
459.448	592.26753
459.659	554.24401
459.869	539.45826
460.08	619.73158
460.29	653.53639
460.501	676.77897
460.711	706.36246
460.922	681.00505
461.132	761.30888
461.343	763.42234
461.553	727.49485
461.764	748.6283
461.974	748.6283
462.184	782.44397
462.395	795.1255
462.605	888.13345
462.816	812.03474
463.026	780.33042
463.236	854.31041
463.447	1027.6739
463.657	898.70358
463.867	1108.02773
464.078	1084.76663
464.288	1023.44497
464.498	1074.1936
464.709	1103.79839
464.919	993.84318
465.129	1173.58471
465.339	1243.37517
465.55	1158.78116
465.76	1135.51886
465.97	1207.42206
466.18	1217.99641
466.391	1423.15012
466.601	1201.07748
466.811	1321.6287
467.021	1294.13387
467.231	1541.59271
467.441	1363.92898
467.651	1621.96271
467.862	1547.93778
468.072	1702.32962
468.282	1497.1769
468.492	1463.33611
468.702	1651.57201
468.912	1985.68382
469.122	1841.90278
469.332	1841.90278
469.542	1702.32962
469.752	1869.39225
469.962	1937.05491
470.172	2089.27307
470.382	2080.81744
470.592	2203.41197
470.802	2131.54943
471.012	2300.62188
471.222	2235.11294
471.432	2292.16962
471.642	2099.84245
471.852	2482.30685
472.062	2283.7172
472.272	2571.00753
472.482	2579.45414
472.691	2682.90924
472.901	2539.33105
473.111	2733.57002
473.321	2767.33966
473.531	2858.0783
473.741	2851.74853
473.95	2912.9309
474.16	2820.0978
474.37	3111.16015
474.58	3033.14988
474.79	3338.73874
474.999	3309.24887
475.209	3361.90697
475.419	3342.9513
475.628	3467.19029
475.838	3465.08506
476.048	3818.50233
476.258	3738.60981
476.467	3944.59021
476.677	3757.53427
476.886	3988.70383
477.096	3984.50292
477.306	4020.20804
477.515	3980.30193
477.725	4114.69284
477.935	4003.40637
478.144	4347.57307
478.354	4129.38669
478.563	4632.53952
478.773	4433.5249
478.982	4728.83215
479.192	4609.50598
479.401	4640.91468
479.611	4875.27255
479.82	4825.07697
480.03	4892.00148
480.239	4996.52405
480.449	4998.61391
480.658	5263.83831
480.868	5372.32559
481.077	5514.09781
481.287	5380.66814
481.496	5539.10515
481.705	5347.29569
481.915	5584.94312
482.124	5518.26594
482.333	5920.04619
482.543	5616.18974
482.752	5832.68697
482.961	5811.88102
483.171	6169.4149
483.38	6021.9127
483.589	6159.0313
483.799	6341.69706
484.008	6437.1094
484.217	6163.18481
484.426	6654.7144
484.636	6480.65084
484.845	6551.12479
485.054	6491.01633
485.263	6789.29494
485.472	6575.99156
485.682	6903.09541
485.891	6781.01586
486.1	6828.61561
486.309	7002.35615
486.518	7289.50772
486.727	7140.82101
486.936	7473.14375
487.146	7396.82164
487.355	7504.07671
487.564	7518.51043
487.773	7821.37761
487.982	7326.66154
488.191	7615.39535
488.4	7629.82098
488.609	7716.35296
488.818	7784.3163
489.027	8173.12795
489.236	8150.51855
489.445	8092.95642
489.654	7988.07048
489.863	8394.98432
490.072	8277.92199
490.281	8366.23803
490.49	8290.24733
490.698	8329.27291
490.907	8602.25712
491.116	8995.75899
491.325	8741.69914
491.534	8700.69566
491.743	8657.63407
491.952	8926.12478
492.16	8934.31811
492.369	9227.04582
492.578	9122.68691
492.787	8991.66342
492.996	8924.07641
493.204	9317.04571
493.413	9509.21143
493.622	9545.99286
493.831	9122.68691
494.039	9588.89806
494.248	9505.12428
494.457	9605.24107
494.665	9784.9488
494.874	9805.36266
495.083	9744.11654
495.291	9968.62009
495.5	10035.93658
495.709	9695.1098
495.917	10037.97624
496.126	9925.77412
496.335	10131.78485
496.543	10037.97624
496.752	10017.57909
496.96	10237.79387
497.169	10292.82246
497.377	10368.21614
497.586	10180.71672
497.794	10378.40308
498.003	10608.54204
498.211	10687.93333
498.42	10498.58445
498.628	10818.1767
498.837	10950.40609
499.045	10830.38454
499.254	10596.32633
499.462	10818.1767
499.671	10787.65528
499.879	10968.71098
500.087	11076.48819
500.296	11086.65426
500.504	11157.80923
500.713	11157.80923
500.921	11336.65642
501.129	11035.82118
501.338	11216.75635
501.546	11436.20787
501.754	11027.68725
501.962	11385.41927
502.171	11507.30173
502.379	11551.98334
502.587	11497.14618
502.795	11807.80213
503.004	11580.41474
503.212	11576.35322
503.42	11675.84984
503.628	11716.45449
503.837	11822.01019
504.045	11994.50413
504.253	11905.22057
504.461	12290.65571
504.669	11893.04432
504.877	12237.92795
505.085	12067.54282
505.294	12310.93433
505.502	12075.65761
505.71	12367.71079
505.918	12235.89986
506.126	12400.15206
506.334	12016.82259
506.542	12410.2896
506.75	12162.88385
506.958	12444.756
507.166	12645.43504
507.374	12663.67558
507.582	12623.14039
507.79	12511.65593
507.998	12637.32798
508.206	12795.39867
508.414	12726.50041
508.622	12856.18586
508.83	12734.60643
509.037	13194.48285
509.245	12878.47327
509.453	12918.99417
509.661	13062.8267
509.869	13344.34524
510.077	13214.73591
510.285	13350.42025
510.492	13062.8267
510.7	13522.5309
510.908	13346.37025
511.116	13388.89449
511.324	13352.44525
511.531	13662.22475
511.739	13249.16511
511.947	13307.89438
512.155	13279.54277
512.362	13469.88823
512.57	13376.74489
512.778	13409.14351
512.985	13334.22014
513.193	13546.82668
513.401	13492.16044
513.608	13680.4445
513.816	13595.41671
514.024	13690.56647
514.231	13629.83343
514.439	14162.17141
514.646	13856.55573
514.854	13955.73524
515.061	13356.49523
515.269	13828.21751
515.477	14113.60033
515.684	14133.83843
515.892	13757.36947
516.099	14087.29047
516.307	14160.14764
516.514	14370.60941
516.722	14469.76292
516.929	14407.03357
517.136	14301.80677
517.344	14615.4519
517.551	14340.25555
517.759	14449.5278
517.966	14534.51437
518.173	14635.686
518.381	14451.55132
518.588	14781.36867
518.796	14904.79118
519.003	14801.60203
519.21	14692.34093
519.418	14874.44159
519.625	14771.25196
519.832	15097.0032
520.039	15181.98058
520.247	14773.2753
520.454	15084.86356
520.661	15396.44819
520.868	15058.56099
521.076	15347.88923
521.283	15090.93338
521.49	14989.76948
521.697	15277.0744
521.904	15295.2839
522.112	15244.702
522.319	15424.77436
522.526	15115.21264
522.733	15724.22998
522.94	15483.45031
523.147	15538.08007
523.354	15479.40368
523.561	15505.70683
523.768	15600.80374
523.975	15754.58122
524.183	15722.20657
524.39	15813.26096
524.597	16052.03727
524.804	16161.31437
525.011	15845.63638
525.218	15906.34111
525.425	16236.19215
525.632	16149.17224
525.838	16064.17895
526.045	16080.36794
526.252	15975.14119
526.459	16276.66762
526.666	16272.62004
526.873	16230.12089
527.08	16292.858
527.287	16475.00823
527.494	16337.38217
527.701	16736.11987
527.907	16515.48826
528.114	16837.33634
528.321	16764.45987
528.528	16760.41127
528.735	16871.75135
528.941	16912.24054
529.148	16539.77669
529.355	16770.53278
529.562	16375.8356
529.768	17031.68976
529.975	16541.80074
530.182	16956.77985
530.388	16902.11815
530.595	17015.49271
530.802	16879.8491
531.008	17305.04208
531.215	17187.59542
531.422	17315.16725
531.628	17693.90478
531.835	17345.54324
532.042	17367.81939
532.248	17768.8556
532.455	17363.76915
532.661	17647.31603
532.868	17438.70053
533.074	17521.73759
533.281	17465.02878
533.487	17716.18698
533.694	17610.85649
533.9	17874.19975
534.107	17566.29626
534.313	18113.28499
534.52	17819.50067
534.726	18105.17959
534.933	17878.25163
535.139	18133.54874
535.345	18119.36407
535.552	18030.20738
535.758	18093.0216
535.965	18263.24541
536.171	18579.44541
536.377	18747.71825
536.584	18601.74508
536.79	18524.71183
536.996	18905.87897
537.203	18725.41548
537.409	18451.7381
537.615	18784.21473
537.821	18926.15775
538.028	18997.13662
538.234	18824.76788
538.44	18934.26937
538.646	18439.5763
538.853	18767.99391
539.059	18861.26708
539.265	18472.00809
539.471	18830.85099
539.677	18680.81136
539.883	18692.97593
540.09	18765.96633
540.296	18816.65713
540.502	19228.35942
540.708	19364.27837
540.914	19644.28947
541.12	19368.33594
541.326	19587.46921
541.532	19490.07065
541.738	19490.07065
541.944	19195.9039
542.15	19709.23092
542.356	19774.17667
542.562	20096.93961
542.768	19455.57763
542.974	19674.73024
543.18	19394.71053
543.386	20094.90933
543.592	19904.08105
543.798	20017.76151
544.004	20153.78938
544.21	20151.75898
544.415	20196.42887
544.621	20515.26851
544.827	20267.49881
545.033	20411.68506
545.239	20182.2155
545.445	20527.45551
545.651	20308.11251
545.856	20468.55305
546.062	20222.82568
546.268	20224.85623
546.474	20222.82568
546.679	20153.78938
546.885	19833.03746
547.091	20235.00906
547.297	20251.2538
547.502	20285.77477
547.708	20232.97848
547.914	20257.34565
548.119	20803.73452
548.325	20641.20813
548.531	20431.99468
548.736	20876.88006
548.942	20415.74695
549.147	20143.6374
549.353	20887.03958
549.559	20815.92507
549.764	20710.2786
549.97	20945.96686
550.175	20874.84816
550.381	20968.31949
550.586	20480.73948
550.792	21220.32886
550.997	20954.09503
551.203	21311.79932
551.408	21242.68755
551.614	21435.80562
551.819	21635.05986
552.025	21592.35933
552.23	21382.94865
552.435	21409.3768
552.641	22045.88576
552.846	21529.32838
553.052	21708.26479
553.257	21659.46094
553.462	21750.97001
553.668	21801.81179
553.873	21476.46666
554.078	21883.16366
554.283	21769.27277
554.489	21608.62599
554.694	21858.75745
554.899	22039.78324
555.105	21763.17182
555.31	21995.03249
555.515	22151.66811
555.72	22149.63374
555.925	21868.92663
556.131	22424.30732
556.336	21799.77807
556.541	22275.7718
556.746	22119.11862
556.951	22369.36726
557.156	22300.18726
557.361	22359.19347
557.567	22735.68359
557.772	22403.95884
557.977	22094.70712
558.182	22560.65141
558.387	22448.72597
558.592	22536.23039
558.797	22914.81287
559.002	22617.63577
559.207	22465.00536
559.412	22285.94485
559.617	22756.03785
559.822	22953.49198
560.027	22640.02325
560.232	22853.74309
560.437	22668.51701
560.642	22975.8857
560.847	23195.77271
561.051	23096.00439
561.256	23022.71025
561.461	23093.96838
561.666	22863.92117
561.871	23034.92564
562.076	22621.70619
562.281	23260.93175
562.485	22837.45833
562.69	22851.70748
562.895	22910.74146
563.1	23232.42426
563.305	23165.23056
563.509	23079.71643
563.714	23140.79736
563.919	23377.00442
564.123	23374.96797
564.328	23297.58516
564.533	23305.7305
564.737	22902.59867
564.942	23423.84367
565.147	23596.95951
565.351	23729.35706
565.556	23713.06129
565.761	23214.09836
565.965	23631.58533
566.17	23706.95043
566.374	23491.0507
566.579	23332.20322
566.784	23279.25832
566.988	23708.98738
567.193	23904.54842
567.397	23533.82057
567.602	23700.83959
567.806	23694.72878
568.011	23933.06997
568.215	24173.4879
568.42	23818.98715
568.624	24008.45106
568.828	24057.34896
569.033	23941.21909
569.237	24041.04948
569.442	24153.112
569.646	23871.95305
569.85	24208.12755
570.055	24193.86407
570.259	23906.58566
570.463	24181.63833
570.668	23784.35667
570.872	24004.3763
571.076	24041.04948
571.281	24379.29958
571.485	24254.99421
571.689	24395.60266
571.893	24426.17136
572.098	24344.65611
572.302	24206.0899
572.506	24334.467
572.71	24338.54264
572.914	24950.00277
573.119	24682.97119
573.323	24307.97562
573.527	24397.64055
573.731	24803.23225
573.935	24780.81006
574.139	24324.27796
574.343	24075.68609
574.547	24570.87111
574.751	24593.29052
574.955	24379.29958
575.159	24805.27065
575.364	24721.69841
575.568	24947.96421
575.772	25029.50849
575.976	24627.9393
576.18	24507.69076
576.383	24817.50107
576.587	24872.53903
576.791	24858.26977
576.995	24994.85172
577.199	24884.76992
577.403	24974.4657
577.607	25062.12723
577.811	25237.46272
578.015	24939.80998
578.219	25135.52149
578.422	25237.46272
578.626	25492.33916
578.83	24819.53948
579.034	25463.79138
579.238	25478.06522
579.442	25306.78585
579.645	25502.53489
579.849	25106.97893
580.053	25690.1453
580.257	25577.98488
580.46	25686.06663
580.664	25647.31971
580.868	25777.83844
581.071	25739.08987
581.275	25806.39046
581.479	25930.79995
581.682	25765.60198
581.886	25363.87733
582.09	25624.8876
582.293	26257.15166
582.497	26036.85931
582.7	26336.70654
582.904	26187.7982
583.107	26102.12901
583.311	26061.33524
583.515	25979.74982
583.718	25708.49938
583.922	26379.54483
584.125	25669.75205
584.329	26155.16195
584.532	26067.45426
584.735	26355.06572
584.939	26189.83797
585.142	26867.1341
585.346	26455.02356
585.549	26406.06413
585.753	26010.34401
585.956	26138.844
586.159	26334.66664
586.363	26795.72443
586.566	26648.8302
586.769	26667.19156
586.973	26608.02764
587.176	26958.94913
587.379	26532.54453
587.582	26130.68506
587.786	26326.50706
587.989	26444.8236
588.192	26332.62674
588.395	27136.46622
588.599	26946.70696
588.802	26926.30346
589.005	26909.98076
589.208	27265.01948
589.411	26954.8684
589.615	26714.11557
589.818	27067.09049
590.021	26950.78768
590.224	27083.41405
590.427	27522.14146
590.63	27071.17137
590.833	27189.51931
591.036	27391.5373
591.239	27450.71667
591.442	27295.62818
591.645	27695.60793
591.848	27552.75255
592.051	27707.85296
592.254	27362.96833
592.457	27505.81566
592.66	27320.11534
592.863	27465.00151
593.066	27430.30987
593.269	27683.36296
593.472	27501.73422
593.675	28001.74613
593.878	28087.46945
594.081	27844.59193
594.284	27764.99696
594.486	27650.70989
594.689	27869.08304
594.892	27534.38586
595.095	27746.62914
595.298	27248.69497
595.5	27707.85296
595.703	28263.00426
595.906	27669.0772
596.109	27881.32866
596.311	28234.42827
596.514	28214.01698
596.717	28289.53929
596.92	28348.7335
597.122	28128.29077
597.325	27911.9429
597.528	28056.85375
597.73	28444.67085
597.933	27889.49243
598.136	28652.88341
598.338	28326.28042
598.541	28875.39714
598.743	28756.9938
598.946	28250.75738
599.148	28516.1151
599.351	28771.28367
599.554	28785.57359
599.756	28924.39264
599.959	28846.8167
600.161	28599.80858
600.363	28842.7338
600.566	28769.24225
600.768	28377.31033
600.971	28732.49699
601.173	28677.37973
601.376	28434.46464
601.578	28814.15359
601.78	28677.37973
601.983	28897.85334
602.185	29206.12842
602.388	28424.25845
602.59	28712.0831
602.792	28648.80071
602.995	28985.63787
603.197	28599.80858
603.399	28895.81186
603.601	28471.20714
603.804	28467.12462
604.006	28569.18881
604.208	28434.46464
604.41	28848.85815
604.613	29014.2193
604.815	28748.82818
605.017	28724.33142
605.219	28246.67509
605.421	28458.9596
605.623	28542.65186
605.826	29244.91968
606.028	29048.92559
606.23	29306.1698
606.432	28865.18981
606.634	29124.46384
606.836	28967.26421
607.038	29140.79662
607.24	29320.46163
607.442	29365.37914
607.644	29236.75306
607.846	29314.33655
608.048	29579.76522
608.25	29424.58937
608.452	29130.58863
608.654	29218.37825
608.856	28754.95239
609.058	28950.93213
609.26	29228.58647
609.462	29189.79537
609.664	29657.35546
609.866	29128.54703
610.067	29471.54984
610.269	29361.29571
610.471	29069.34119
610.673	29320.46163
610.875	29338.83691
611.077	29226.54482
611.278	28924.39264
611.48	28793.73929
611.682	29291.87802
611.884	29771.70181
612.085	29594.05804
612.287	29630.81125
612.489	29496.05117
612.69	29402.13021
612.892	29773.74374
613.094	29741.07298
613.295	29359.254
613.497	29069.34119
613.699	29430.71462
613.9	29471.54984
614.102	29383.75463
614.304	29181.62887
614.505	29036.67627
614.707	29692.06738
614.908	28830.48511
615.11	29079.54903
615.311	29300.04474
615.513	29481.75871
615.714	29585.89071
615.916	29330.67011
616.117	29293.9197
616.319	29589.97437
616.52	29585.89071
616.722	29898.30356
616.923	29653.27172
617.124	29667.56481
617.326	28701.8762
617.527	29663.48107
617.729	29502.17653
617.93	29383.75463
618.131	29422.54762
618.333	29142.83823
618.534	29449.09041
618.735	29336.79521
618.937	29449.09041
619.138	29861.54777
619.339	29600.18355
619.54	29569.55609
619.742	28952.97363
619.943	29091.79847
620.144	29471.54984
620.345	29451.13217
620.546	29157.12947
620.748	29391.92155
620.949	29342.92032
621.15	30020.82547
621.351	29289.83634
621.552	29489.92582
621.753	29579.76522
621.954	29863.58975
622.155	29447.04865
622.356	29822.75039
622.558	29406.21369
622.759	30047.37242
622.96	29271.46128
623.161	29087.71532
623.362	29308.21148
623.563	29653.27172
623.764	29230.62812
623.965	29457.25746
624.166	29577.72339
624.366	29447.04865
624.567	29814.58257
624.768	29939.14375
624.969	29449.09041
625.17	29269.41961
625.371	29469.50806
625.572	29238.79471
625.773	29596.09988
625.973	29324.54502
626.174	29808.45672
626.375	30120.88807
626.576	29863.58975
626.777	30241.37531
626.977	29669.60669
627.178	29861.54777
627.379	29710.44441
627.58	29357.21228
627.78	29498.09296
627.981	29702.27683
628.182	30022.86754
628.382	30490.53168
628.583	30167.85719
628.784	29814.58257
628.984	29702.27683
629.185	30249.54409
629.386	29585.89071
629.586	30053.49867
629.787	29424.58937
629.987	29722.69581
630.188	29749.24065
630.388	29824.79235
630.589	29396.00501
630.79	30127.01444
630.99	30214.82692
631.191	30704.9845
631.391	30347.57089
631.591	29902.38756
631.792	30153.56217
631.992	30235.24874
632.193	30296.51492
632.393	29973.85826
632.594	30437.43125
632.794	30204.61606
632.994	30272.00832
633.195	29810.49867
633.395	29977.94234
633.595	30045.33034
633.796	29957.52198
633.996	30057.58284
634.196	30206.65823
634.397	30466.02369
634.597	30406.79677
634.797	30337.35963
634.997	29692.06738
635.198	30012.65722
635.398	30110.67747
635.598	30837.7483
635.798	30678.43242
635.998	29941.18577
636.199	29871.75768
636.399	30604.90475
636.599	30453.76976
636.799	30339.40188
636.999	29663.48107
637.199	30137.22508
637.399	29943.22779
637.599	30198.48955
637.799	30235.24874
637.999	30282.21938
638.199	29892.17757
638.399	29916.68159
638.599	29835.00215
638.799	30318.97945
638.999	30247.50189
639.199	30269.96611
639.399	30020.82547
639.599	30363.90896
639.799	30145.39362
639.999	30500.7434
640.199	30543.63297
640.399	30547.71772
640.599	30133.14082
640.799	30754.00432
640.998	30621.24409
641.198	30768.30191
641.398	30329.19065
641.598	30674.34751
641.798	30841.83343
641.997	30555.88723
642.197	30259.75508
642.397	30715.1969
642.597	30962.34729
642.796	30956.21935
642.996	30449.68512
643.196	30833.66317
643.395	30455.81207
643.595	30525.25166
643.795	30625.32893
643.994	31234.03257
644.194	30553.84485
644.394	30882.68504
644.593	30831.62061
644.793	31460.7982
644.992	30404.75448
645.192	30613.07441
645.392	30723.36684
645.591	31127.80663
645.791	30678.43242
645.99	30835.70573
646.19	30678.43242
646.389	30367.99349
646.589	30978.68853
646.788	30800.98236
646.987	30466.02369
647.187	30611.03199
647.386	30478.27766
647.586	30988.90185
647.785	31001.15789
647.984	30970.5179
648.184	30890.85543
648.383	30792.81222
648.582	30611.03199
648.782	31125.76386
648.981	30999.11521
649.18	30894.94063
649.38	30847.96113
649.579	31315.74766
649.778	31372.94972
649.977	31550.69282
650.177	31311.66185
650.376	31526.17579
650.575	31054.26796
650.774	31448.54009
650.973	30888.81283
651.173	31027.7128
651.372	30911.2815
651.571	31330.04806
651.77	30937.8356
651.969	31542.52045
652.168	31017.49934
652.367	31501.65899
652.566	31117.59281
652.765	31438.32505
652.964	31105.33628
653.163	31072.65245
653.362	31207.4757
653.561	31479.18548
653.76	31460.7982
653.959	31319.83348
654.158	31025.67011
654.357	30980.73119
654.556	30700.89955
654.755	31086.95158
654.954	30939.87823
655.153	30717.23938
655.352	30890.85543
655.551	31342.30561
655.749	31579.29634
655.948	31076.73791
656.147	31217.68985
656.346	30995.02986
656.545	31403.5942
656.743	30982.77385
656.942	31338.21975
657.141	31620.15909
657.34	31052.22525
657.538	31305.53314
657.737	31133.93494
657.936	31898.04461
658.135	31187.04752
658.333	31193.17596
658.532	31133.93494
658.731	31093.0798
658.929	30531.37875
659.128	31160.4911
659.326	31330.04806
659.525	31530.26194
659.724	31303.49024
659.922	31013.41397
660.121	30862.25916
660.319	30880.64244
660.518	31479.18548
660.716	31291.23287
660.915	30739.70679
661.113	31334.1339
661.312	31076.73791
661.51	30803.02491
661.709	30999.11521
661.907	31503.70205
662.105	31289.18999
662.304	31603.81391
662.502	31673.2817
662.701	31846.96018
662.899	31654.89297
663.097	31440.36806
663.296	30835.70573
663.494	31671.2385
663.692	31618.11594
663.891	31303.49024
664.089	31027.7128
664.287	31556.82212
664.485	31471.01334
664.684	31473.05637
664.882	31070.60973
665.08	31088.99432
665.278	31015.45666
665.476	31029.7555
665.675	31234.03257
665.873	31068.567
666.071	31266.71831
666.269	31493.48678
666.467	31595.64136
666.665	31701.88668
666.863	31031.7982
667.061	31638.54756
667.259	31454.66914
667.457	31955.26057
667.655	30894.94063
667.853	30780.55704
668.051	31156.40552
668.249	31148.23438
668.447	31201.34723
668.645	30964.38994
668.843	31450.58311
669.041	30905.15366
669.239	30847.96113
669.437	31029.7555
669.635	30756.04683
669.833	31123.7211
670.031	31168.66228
670.229	31262.63257
670.426	31162.53389
670.624	31064.48155
670.822	30917.40935
671.02	31170.70508
671.218	30923.53721
671.415	30431.30433
671.613	30280.17717
671.811	30288.34603
672.009	30562.01438
672.206	30345.52863
672.404	30629.41379
672.602	30517.08222
672.799	30931.70771
672.997	31199.30441
673.195	30774.42947
673.392	31174.79068
673.59	31113.5073
673.788	30443.55818
673.985	30643.71081
674.183	30821.40783
674.38	30743.79179
674.578	31227.90404
674.775	31056.31068
674.973	30815.28017
675.17	31468.97031
675.368	31162.53389
675.565	30611.03199
675.763	30872.47208
675.96	30594.6927
676.158	30249.54409
676.355	30180.1101
676.553	30412.92364
676.75	29902.38756
676.947	30192.36306
677.145	30218.91128
677.342	30655.96545
677.539	30435.38894
677.737	30625.32893
677.934	30649.83813
678.131	30621.24409
678.329	30384.33166
678.526	30198.48955
678.723	30500.7434
678.92	30592.6503
679.118	30310.81051
679.315	29967.73214
679.512	30447.64281
679.709	29994.27871
679.906	29914.63958
680.104	30564.05676
680.301	30124.97232
680.498	30020.82547
680.695	30120.88807
680.892	30435.38894
681.089	29975.9003
681.286	29969.77418
681.483	29555.26336
681.68	29708.40251
681.877	30069.83538
682.075	29959.56401
682.272	29837.04412
682.469	30553.84485
682.665	29977.94234
682.862	30008.5731
683.059	30314.89498
683.256	30343.48638
683.453	30204.61606
683.65	30131.0987
683.847	29755.3664
684.044	30057.58284
684.241	29589.97437
684.438	30257.71288
684.635	29747.19873
684.831	30241.37531
685.028	30239.33312
685.225	30000.40487
685.422	29506.2601
685.619	29769.65988
685.815	29812.54062
686.012	29461.34099
686.209	29206.12842
686.405	29536.88707
686.602	29649.18799
686.799	29406.21369
686.996	29581.80705
687.192	29604.26723
687.389	29416.42239
687.586	29459.29923
687.782	29722.69581
687.979	29216.33661
688.175	29251.04465
688.372	29371.5043
688.568	29298.00306
688.765	29146.92143
688.962	29326.58671
689.158	29522.59446
689.355	29314.33655
689.551	29151.00465
689.748	28628.38725
689.944	29208.17005
690.14	29071.38276
690.337	29157.12947
690.533	29257.16962
690.73	29106.08954
690.926	29375.58774
691.123	29106.08954
691.319	29438.88163
691.515	29304.12811
691.712	28679.4211
691.908	28963.18118
692.104	28687.58657
692.301	28669.21427
692.497	28403.84616
692.693	28309.95099
692.889	29075.46589
693.086	29008.09469
693.282	28908.06074
693.478	28803.94643
693.674	28710.04172
693.87	28893.77038
694.067	28781.49075
694.263	28414.05229
694.459	28238.51054
694.655	28840.69235
694.851	28836.60945
695.047	28530.4041
695.243	28530.4041
695.439	27916.02481
695.635	28573.27143
695.831	28656.96612
696.027	28773.32508
696.224	28720.24864
696.42	28497.7436
696.615	28671.25564
696.811	28144.61942
697.007	28418.13475
697.203	27762.95608
697.399	28230.346
697.595	27989.50011
697.791	28097.67474
697.987	27877.24679
698.183	28546.73446
698.379	27903.77908
698.575	28097.67474
698.77	28177.27694
698.966	28644.71801
699.162	28267.08656
699.358	28122.16754
699.554	28226.26374
699.749	27858.87839
699.945	27820.10098
700.141	28162.98924
700.337	28018.07423
700.532	28320.15687
700.728	28542.65186
700.924	28467.12462
701.119	28103.79792
701.315	28056.85375
701.511	27238.49219
701.706	28275.25117
701.902	27652.7507
702.097	27948.68032
702.293	27801.73288
702.489	27573.1601
702.684	27228.28944
702.88	27730.30227
703.075	27797.65109
703.271	27840.51009
703.466	27550.7118
703.662	27685.40378
703.857	27932.35253
704.053	27432.35054
704.248	27256.85722
704.443	27436.4319
704.639	27485.40852
704.834	27811.93737
705.03	27226.2489
705.225	27487.44923
705.42	26960.9895
705.616	27144.62818
705.811	26897.73879
706.006	27175.2357
706.202	26920.18243
706.397	27169.11417
706.592	27058.92874
706.787	27605.81243
706.983	27138.50671
707.178	27228.28944
707.373	27191.55983
707.568	27409.9032
707.763	27540.50808
707.959	27371.13086
708.154	27375.21214
708.349	26985.47401
708.544	27477.2457
708.739	27040.56489
708.934	26767.16106
709.129	27040.56489
709.324	26893.65815
709.519	26934.46484
709.714	26567.22569
709.909	26787.56343
710.104	26605.98753
710.299	26652.91049
710.494	26801.84519
710.689	27103.81862
710.884	27081.3736
711.079	27501.73422
711.274	27091.57586
711.469	27273.18177
711.664	27199.72193
711.859	27703.77128
712.054	27573.1601
712.249	27150.74966
712.443	27052.80744
712.638	26834.48946
712.833	26742.6784
713.028	27069.13093
713.223	26475.42359
713.417	26881.41625
713.612	26608.02764
713.807	26612.10787
714.002	26485.62367
714.196	27107.89955
714.391	26646.79006
714.586	27091.57586
714.78	26944.66661
714.975	26548.86502
715.17	26401.98422
715.364	26875.29532
715.559	26557.0253
715.754	26679.43253
715.948	26155.16195
716.143	26373.42503
716.337	26024.62144
716.532	26275.51025
716.726	26385.66465
716.921	26524.38432
717.115	26153.1222
717.31	26622.30847
717.504	26475.42359
717.699	26785.52319
717.893	26357.10564
718.088	26302.02846
718.282	26018.50254
718.476	25996.06667
718.671	25543.31833
718.865	25867.57459
719.059	25457.67405
719.254	25694.22397
719.448	25618.7698
719.642	25751.32619
719.837	25341.44834
720.031	25628.96615
720.225	25345.52632
720.419	25655.4769
720.614	25437.28309
720.808	25412.8142
721.002	25514.76984
721.196	25692.18463
721.39	25749.2868
721.585	25796.19327
721.779	25739.08987
721.973	25890.00919
722.167	25469.90873
722.361	25930.79995
722.555	25938.95819
722.749	25698.30265
722.943	25304.7469
723.137	25096.78527
723.331	25333.2924
723.525	25270.08506
723.719	25274.16289
723.913	25268.04614
724.107	24868.46209
724.301	25131.44396
724.495	24841.96217
724.689	24772.65661
724.883	24428.2093
725.077	25094.74654
725.271	24886.80841
725.465	25023.39255
725.659	25000.96758
725.853	25143.67659
726.046	25123.28891
726.24	25310.86376
726.434	25029.50849
726.628	25111.05642
726.822	24430.24724
727.015	24972.42711
727.209	24477.12051
727.403	24958.15704
727.596	24609.59574
727.79	24764.5032
727.984	24931.65579
728.177	24972.42711
728.371	24988.73589
728.565	24848.0775
728.758	24803.23225
728.952	24699.27728
729.146	24729.85162
729.339	24837.8853
729.533	24623.86294
729.726	24548.452
729.92	24409.86798
730.113	24933.69433
730.307	25051.93381
730.5	24921.46311
730.694	24915.34752
730.887	25025.43119
731.081	24750.23481
731.274	24452.66472
731.468	24342.61828
731.661	24599.40496
731.854	24428.2093
732.048	24403.75425
732.241	24438.39901
732.435	24913.309
732.628	24770.61825
732.821	24642.20665
733.014	24656.47413
733.208	24409.86798
733.401	24462.85459
733.594	24532.14738
733.788	24890.8854
733.981	25229.30722
734.174	25227.26835
734.367	25053.97249
734.56	24903.11642
734.754	24489.34854
734.947	23943.25638
735.14	23802.69035
735.333	24283.52244
735.526	24100.13594
735.719	24303.90006
735.912	24157.18715
736.105	24000.30156
736.298	24448.58879
736.491	24950.00277
736.684	24625.90112
736.877	24636.09206
737.07	24717.62182
737.263	24202.01461
737.456	24342.61828
737.649	24560.68057
737.842	24919.42458
738.035	24444.51287
738.228	24403.75425
738.421	24568.83299
738.614	24505.65273
738.807	24723.73671
739	24674.8182
739.192	24511.76684
739.385	24346.69394
739.578	24483.23451
739.771	24597.36681
739.964	24132.73637
740.156	23743.61601
740.349	23584.73884
740.542	24532.14738
740.735	24014.56321
740.927	24279.44694
741.12	23969.74137
741.313	23570.48153
741.505	23541.96736
741.698	23440.13597
741.891	23393.29614
742.083	23246.67793
742.276	23059.35678
742.468	23489.01407
742.661	23313.87589
742.854	23489.01407
743.046	23704.91348
743.239	23979.92803
743.431	24140.88659
743.624	23582.70207
743.816	23273.14944
744.009	23450.31876
744.201	23462.53821
744.393	23399.40559
744.586	23293.51251
744.778	23429.95326
744.971	23230.38804
745.163	23535.85726
745.355	23370.89507
745.548	23352.56721
745.74	23368.85863
745.932	22967.74248
746.125	23531.78388
746.317	23460.50163
746.509	23079.71643
746.702	23454.3919
746.894	23395.33262
747.086	23240.5692
747.278	23047.14115
747.471	22495.52984
747.663	23008.45912
747.855	22870.02807
748.047	23114.32859
748.239	23269.07686
748.431	23153.0139
748.623	23405.51507
748.815	23012.53085
749.008	23177.44733
749.2	22794.71189
749.392	22955.52775
749.584	22784.53439
749.776	23731.39404
749.968	23100.07641
750.16	23244.64168
750.352	22878.17064
750.544	22546.40575
750.736	23195.77271
750.928	23163.19444
751.12	22957.56353
751.311	23055.28489
751.503	23212.06216
751.695	22896.49162
751.887	22959.59932
752.079	22699.0468
752.271	22391.74993
752.463	22737.719
752.654	22827.28047
752.846	23010.49498
753.038	22715.32968
753.23	22971.81409
753.421	22672.5876
753.613	23016.6026
753.805	23271.11315
753.997	22981.99315
754.188	23020.67437
754.38	23258.89548
754.572	22986.0648
754.763	23096.00439
754.955	22534.19533
755.146	22442.62126
755.338	22285.94485
755.53	22344.95031
755.721	22650.19951
755.913	22369.36726
756.104	22448.72597
756.296	22353.08924
756.487	22049.95413
756.679	22660.37586
756.87	21915.70612
757.062	22387.68032
757.253	22068.26195
757.445	22100.80995
757.636	22060.1251
757.827	22102.84423
758.019	21811.98043
758.21	21846.55455
758.401	21708.26479
758.593	21805.87924
758.784	21334.16001
758.975	21545.59407
759.167	21506.96348
759.358	21653.36062
759.549	21734.70116
759.74	21809.9467
759.932	21651.32718
760.123	21519.16246
760.314	21504.93033
760.505	21214.23112
760.696	21031.31595
760.888	21078.05779
761.079	21248.78546
761.27	21482.56595
761.461	21846.55455
761.652	21348.38979
761.843	21356.52118
762.034	21531.36158
762.225	20974.41575
762.416	20746.84726
762.607	20555.89244
762.798	20911.42286
762.989	21663.52784
763.18	21336.19282
763.371	21263.01406
763.562	21080.0901
763.753	20537.61146
763.944	20785.44898
764.135	20685.90024
764.326	21059.76725
764.517	20840.30662
764.708	20429.9637
764.899	20129.42479
765.089	20322.32771
765.28	20698.08934
765.471	20202.52038
765.662	20395.43766
765.853	20665.58539
766.043	20174.09367
766.234	20393.40676
766.425	20107.09112
766.615	20360.91284
766.806	20334.51232
766.997	20446.21166
767.187	20098.96991
767.378	20427.93272
767.569	20338.57389
767.759	20397.46857
767.95	20253.28441
768.141	20170.03278
768.331	20003.55073
768.522	19958.88962
768.712	19575.29386
768.903	19772.14705
769.093	19703.14248
769.284	19603.70323
769.474	19741.70326
769.665	19597.61544
769.855	20017.76151
770.046	20023.8519
770.236	19818.82936
770.426	19715.3194
770.617	19597.61544
770.807	19477.89651
770.998	19496.15778
771.188	19828.97798
771.378	19522.53577
771.569	19506.30308
771.759	19609.79106
771.949	19417.02803
772.139	19757.93983
772.33	19366.30715
772.52	19583.41074
772.71	19538.76873
772.9	19362.24959
773.09	19483.98356
773.281	19066.09227
773.471	19193.87546
773.661	19019.44529
773.851	19376.45112
774.041	19137.08093
774.231	18897.76758
774.421	18611.88145
774.611	18713.25053
774.802	18603.77235
774.992	18690.94849
775.182	19001.19271
775.372	19189.8186
775.562	18506.46794
775.752	18660.53739
775.942	18599.71782
776.131	18226.7667
776.321	18240.95272
776.511	18782.18711
776.701	18567.28215
776.891	19021.47338
777.081	18455.79207
777.271	18520.65761
777.461	18447.68415
777.651	18480.11619
777.84	18259.19216
778.03	18463.90005
778.22	18634.18181
778.41	18634.18181
778.599	18405.11859
778.789	18346.34033
778.979	18117.33771
779.169	18111.25863
779.358	17874.19975
779.548	18490.2514
779.738	18255.13893
779.927	18435.52239
780.117	18530.7932
780.307	17772.90713
780.496	17681.75102
780.686	18188.26269
780.875	17983.60551
781.065	18678.78394
781.254	17906.6152
781.444	17764.80409
781.633	17916.74522
781.823	17900.53724
782.012	17791.13917
782.202	17819.50067
782.391	17473.12989
782.581	17685.80226
782.77	17284.79194
782.96	17416.4232
783.149	17222.01842
783.338	17217.96861
783.528	17205.81926
783.717	17335.41783
783.906	17072.18315
784.096	17412.37281
784.285	17418.44839
784.474	17341.49307
784.663	17349.59342
784.853	17321.2424
785.042	17590.60164
785.231	17781.01022
785.42	17222.01842
785.61	17124.82621
785.799	17074.20785
785.988	17355.66872
786.177	16950.70623
786.366	16750.28981
786.555	17163.29734
786.744	17084.33138
786.933	16541.80074
787.122	16788.75167
787.312	16796.84901
787.501	16543.82479
787.69	16606.57147
787.879	16906.1671
788.068	16861.62921
788.257	16950.70623
788.445	16867.70249
788.634	17017.51733
788.823	16788.75167
789.012	16715.8773
789.201	16663.24773
789.39	16351.54914
789.579	16331.31064
789.768	16448.69665
789.957	16402.14624
790.145	16634.90938
790.334	16422.38542
790.523	16183.57509
790.712	16359.6446
790.9	16207.85975
791.089	16209.88348
791.278	16351.54914
791.467	16262.50112
791.655	16323.21529
791.844	15981.21186
792.033	16078.34431
792.221	15829.44863
792.41	16098.58066
792.599	15892.17658
792.787	16070.24981
792.976	16027.75407
793.164	16027.75407
793.353	15910.38813
793.541	16005.49466
793.73	15944.78803
793.918	15918.48219
794.107	15813.26096
794.295	15855.75376
794.484	15884.08258
794.672	15873.96512
794.861	16033.82485
795.049	15993.35323
795.238	15772.79208
795.426	15679.71522
795.614	16003.47109
795.803	15661.50476
795.991	15706.01934
796.179	15596.75703
796.368	15376.21526
796.556	15542.12674
796.744	15414.65786
796.932	15479.40368
797.121	15505.70683
797.309	15337.7728
797.497	15242.67873
797.685	15355.98237
797.874	15422.75106
798.062	15608.89716
798.25	15394.4249
798.438	15566.4068
798.626	15283.14423
798.814	15188.05039
799.002	14985.72291
799.19	15281.12095
799.378	15092.95665
799.566	15250.77183
799.755	15101.04974
799.943	14979.65305
800.131	15394.4249
800.318	15319.56326
800.506	15151.63152
800.694	15046.42133
800.882	14910.86108
801.07	15105.09629
801.258	15275.05113
801.446	15614.96724
801.634	15171.86423
801.822	15086.88683
802.01	15050.46789
802.197	15206.25983
802.385	14591.17084
802.573	15080.81701
802.761	15141.51517
802.949	15190.07366
803.136	14918.95428
803.324	14767.20527
803.512	14670.08373
803.699	14419.17485
803.887	14445.48076
804.075	14732.80829
804.262	14848.13851
804.45	15175.91077
804.638	14961.44346
804.825	15236.60891
805.013	14937.16395
805.201	14971.5599
805.388	14898.72127
805.576	15155.67806
805.763	15291.23734
805.951	15299.33045
806.138	14993.81605
806.326	15206.25983
806.513	14971.5599
806.701	14953.35029
806.888	14680.20065
807.075	15056.53771
807.263	14572.95993
807.45	15046.42133
807.638	14676.15388
807.825	15149.60825
808.012	14765.18193
808.2	15050.46789
808.387	15080.81701
808.574	15430.84427
808.761	14953.35029
808.949	15206.25983
809.136	14999.8859
809.323	14971.5599
809.51	14862.30172
809.698	14574.98337
809.885	14394.89224
810.072	14781.36867
810.259	14963.46675
810.446	14595.21769
810.633	14700.43443
810.82	15258.86492
811.008	15117.23592
811.195	14987.74619
811.382	14918.95428
811.569	14927.04747
811.756	14655.91999
811.943	14916.93098
812.13	14880.51152
812.317	15090.93338
812.504	15238.63218
812.691	15380.26185
812.878	15139.4919
813.064	15048.44461
813.251	14692.34093
813.438	15115.21264
813.625	14425.24546
813.812	14570.93649
813.999	14791.48536
814.186	15226.49255
814.372	15068.67737
814.559	15335.74952
814.746	14842.06855
814.933	15212.32965
815.12	15028.21183
815.306	14775.29865
815.493	14583.07711
815.68	14866.34834
815.866	14955.37359
816.053	15115.21264
816.24	14868.37166
816.426	15044.39806
816.613	14744.94843
816.799	15064.63082
816.986	14797.55537
817.173	15117.23592
817.359	14609.38165
817.546	15032.25839
817.732	14795.53203
817.919	14862.30172
818.105	14833.97527
818.292	14886.58144
818.478	14597.24112
818.665	14676.15388
818.851	14991.79276
819.037	14920.97758
819.224	14686.27079
819.41	14795.53203
819.597	14746.97178
819.783	14441.43371
819.969	14637.7094
820.156	14599.26454
820.342	14324.06667
820.528	14239.07318
820.714	13913.23053
820.901	14340.25555
821.087	14006.33462
821.273	14528.44398
821.459	14471.78642
821.646	14427.269
821.832	14137.88602
822.018	14380.72729
822.204	13888.94159
822.39	14222.88357
822.576	14220.85986
822.762	14307.87767
822.948	14437.38666
823.134	14405.01002
823.32	14069.07573
823.507	14105.50503
823.693	14079.19505
823.879	14052.88469
824.065	14014.43038
824.25	14196.57519
824.436	14077.17119
824.622	14336.20834
824.808	14301.80677
824.994	14160.14764
825.18	13941.56713
825.366	14079.19505
825.552	13929.42294
825.738	14152.05253
825.923	13591.36762
826.109	13625.78446
826.295	13648.05366
826.481	13745.22372
826.667	13696.63961
826.852	13941.56713
827.038	13619.71097
827.224	14095.38585
827.409	13826.19333
827.595	13751.29661
827.781	13611.61294
827.966	13688.54208
828.152	13654.127
828.338	13461.78914
828.523	13382.81971
828.709	13305.86929
828.894	13251.19032
829.08	13585.29395
829.266	13259.2911
829.451	13650.07811
829.637	13277.51762
829.822	13631.85792
830.008	13405.09374
830.193	13840.36253
830.378	13340.29521
830.564	13405.09374
830.749	12949.38346
830.935	12813.63535
831.12	12572.46798
831.305	12912.91617
831.491	12540.03559
831.676	12941.27976
831.861	12825.79288
832.047	12775.13515
832.232	12797.42499
832.417	12805.53021
832.602	12752.84464
832.788	12726.50041
832.973	12738.6594
833.158	12785.26698
833.343	12325.12896
833.528	12550.17088
833.714	12542.06266
833.899	12679.88898
834.084	12505.57441
834.269	12621.11357
834.454	12582.60277
834.639	12803.50391
834.824	12716.36775
835.009	13103.3384
835.194	12789.31967
835.379	13048.64715
835.564	12765.00319
835.749	12991.92652
835.934	12811.60907
836.119	12667.72896
836.304	12588.68357
836.489	12525.84591
836.674	12148.68518
836.859	12426.50932
837.044	12327.15673
837.228	12351.4895
837.413	12298.76724
837.598	12158.82713
837.783	12469.08407
837.968	12296.73937
838.152	12134.48615
838.337	12205.47768
838.522	12335.26776
838.707	12132.45768
838.891	12063.48538
839.076	12093.91543
839.261	11872.7499
839.445	12138.54305
839.63	11842.30671
839.815	12284.57198
839.999	11866.66141
840.184	11921.45512
840.368	11880.86777
840.553	12209.53407
840.737	11870.72041
840.922	12061.45665
841.106	11688.03161
841.291	11588.53766
841.475	11625.08899
841.66	11925.51367
841.844	11677.88016
842.029	11777.35487
842.213	11653.51576
842.397	11801.71283
842.582	11694.12237
842.766	11726.6051
842.951	11302.11258
843.135	11639.3026
843.319	11190.33287
843.504	11482.92801
843.688	11235.0485
843.872	11312.27284
844.056	11549.95246
844.241	11454.49027
844.425	11604.78307
844.609	11442.30209
844.793	11165.94039
844.977	11415.89316
845.161	10925.99815
845.346	11174.07139
845.53	10909.72528
845.714	11275.69473
845.898	11102.91941
846.082	11133.41471
846.266	11088.68744
846.45	11068.35514
846.634	10799.86416
846.818	10610.57794
847.002	10683.86244
847.186	10991.08239
847.37	10606.50612
847.554	10840.55741
847.738	10459.88688
847.922	10612.61384
848.106	10722.534
848.29	10565.7851
848.473	10447.66564
848.657	10588.18228
848.841	10327.46506
849.025	10402.85041
849.209	10317.27646
849.392	10451.73944
849.576	10441.55484
849.76	10531.1683
849.944	10435.44392
850.127	10779.51578
850.311	10557.6403
850.495	10822.24603
850.678	10427.29586
850.862	10441.55484
851.046	10256.13783
851.229	10133.82384
851.413	10329.50274
851.596	10755.09616
851.78	10164.40698
851.964	10531.1683
852.147	10086.92358
852.331	10188.87126
852.514	10117.51155
852.698	10190.90986
852.881	10005.34012
853.065	10121.5897
853.248	9817.61026
853.431	9870.67697
853.615	9929.85496
853.798	10064.49039
853.982	10052.25339
854.165	10033.89692
854.348	9737.99118
854.532	10031.85724
854.715	9887.00317
854.898	10119.55063
855.081	9950.25831
855.265	10084.88427
855.448	9537.81966
855.631	9564.38166
855.814	9564.38166
855.997	9498.99344
856.181	9386.56907
856.364	9611.36944
856.547	9419.2794
856.73	9519.42901
856.913	9053.08955
857.096	9441.76533
857.279	9208.63275
857.462	9431.5447
857.645	9212.72466
857.828	9151.33887
858.011	9116.54677
858.194	9231.13743
858.377	9214.77059
858.56	9517.38552
858.743	9558.2522
858.926	9368.16768
859.109	8995.75899
859.292	9040.80558
859.475	9182.03368
859.658	9276.14068
859.841	9003.94991
860.023	8967.08855
860.206	8973.23251
860.389	9098.12542
860.572	8940.46291
860.755	8889.25132
860.937	8965.04053
861.12	8831.88105
861.303	8889.25132
861.486	8893.34865
861.668	8729.39886
861.851	8831.88105
862.034	8553.02171
862.216	8807.28947
862.399	8358.0241
862.581	8667.88757
862.764	8177.2385
862.947	8355.97057
863.129	8446.30759
863.312	8528.39993
863.494	8292.30148
863.677	8409.35605
863.859	8249.16012
864.042	8323.11145
864.224	8337.48793
864.406	8380.61165
864.589	8074.45096
864.771	8511.9839
864.954	8247.10555
865.136	8298.46383
865.318	7986.01337
865.501	7932.5212
865.683	7977.7847
865.865	8394.98432
866.048	7928.40584
866.23	8185.45934
866.412	7924.2904
866.594	7977.7847
866.777	8008.64051
866.959	7846.0814
867.141	7848.13991
867.323	8023.03832
867.505	8136.12949
867.687	8292.30148
867.869	8109.40435
868.052	8191.62476
868.234	7747.24822
868.416	8086.78812
868.598	8068.28211
868.78	8152.57405
868.962	7957.21161
869.144	8045.66144
869.326	7736.95033
869.508	7650.42722
869.69	7708.11343
869.872	7841.96431
870.054	7778.13876
870.236	7559.74383
870.417	7603.02969
870.599	7767.84244
870.781	7588.60212
870.963	7528.81958
871.145	7454.58164
871.327	7551.49784
871.508	7355.55405
871.69	7718.4128
871.872	7751.36723
872.054	7916.05928
872.235	7248.21735
872.417	7784.3163
872.599	7497.8905
872.78	7640.12437
872.962	7543.2515
873.144	7345.23579
873.325	7535.00482
873.507	7673.09164
873.689	7425.70376
873.87	7629.82098
874.052	7361.74474
874.233	7590.66326
874.415	7388.56882
874.596	7318.40575
874.778	7157.34743
874.959	7600.96867
875.141	7293.63628
875.322	7588.60212
875.503	7580.35732
875.685	7394.75846
875.866	7194.52667
876.048	7502.01466
876.229	7359.6812
876.41	7561.80528
876.592	7153.21596
876.773	7301.89312
876.954	6907.23232
877.136	7347.29949
877.317	7194.52667
877.498	7650.42722
877.679	7574.1735
877.86	7367.93524
878.042	7297.76474
878.223	7658.66912
878.404	7524.69599
878.585	7376.18893
878.766	7244.08783
878.947	7427.76661
879.128	7202.78775
879.309	7442.20593
879.49	7134.62324
879.672	7413.32623
879.853	7159.41313
880.034	7233.76364
880.215	7386.50556
880.396	7574.1735
880.576	7254.41147
880.757	7811.08348
880.938	7421.57801
881.119	7856.37376
881.3	7283.31473
881.481	7561.80528
881.662	7388.56882
881.843	7314.27773
882.023	7357.61764
882.204	7169.74131
882.385	7132.55727
882.566	7367.93524
882.747	7277.12154
882.927	7413.32623
883.108	7365.87176
883.289	7901.65402
883.469	7565.9281
883.65	7726.65191
883.831	7561.80528
884.011	7751.36723
884.192	7466.95657
884.373	7792.55273
884.553	7598.90763
884.734	7477.26842
884.914	7147.01858
885.095	7431.89224
885.275	7405.07411
885.456	7499.95259
885.636	7495.82839
885.817	7650.42722
885.997	7442.20593
886.178	7510.26272
886.358	7415.38921
886.538	7431.89224
886.719	7514.38661
886.899	7631.8817
887.08	7440.14323
887.26	7697.81354
887.44	7268.86364
887.621	7703.99353
887.801	7363.80827
887.981	7745.18869
888.161	7547.37471
888.342	7629.82098
888.522	7691.63335
888.702	7625.69948
888.882	7565.9281
889.062	7541.18986
889.242	7270.92815
889.423	7549.43629
889.603	7450.45649
889.783	7623.63869
889.963	7411.26323
890.143	7535.00482
890.323	7235.82852
890.503	7376.18893
890.683	7454.58164
890.863	7607.15166
891.043	7318.40575
891.223	7644.24557
891.403	7541.18986
891.583	7829.61254
891.763	7464.89414
891.943	7683.3928
892.122	7328.72544
892.302	7256.47613
892.482	7124.29317
892.662	7227.56886
892.842	7336.98079
893.022	7446.33125
893.201	7417.45216
893.381	7351.42681
893.561	7128.42526
893.741	7316.34175
893.92	6936.18811
894.1	7281.25035
894.28	7103.63136
894.459	7392.69527
894.639	6863.7903
894.819	7254.41147
894.998	7016.82734
895.178	7080.90079
895.357	7056.10072
895.537	7151.15019
895.716	6963.07166
895.896	7252.34678
896.075	6849.3074
896.255	7033.36448
896.434	6872.06574
896.614	6756.17641
896.793	6627.78665
896.973	6731.33366
897.152	6582.20774
897.331	6718.91105
897.511	6706.48762
897.69	6650.57193
897.87	6474.43126
898.049	6546.98001
898.228	6343.77176
898.407	6418.44565
898.587	6414.29789
898.766	6569.77518
898.945	6088.40724
899.124	6412.22398
899.304	6449.55086
899.483	6536.61764
899.662	6148.64711
899.841	6374.88955
900.02	6354.14494
900.199	6673.35442
900.378	6435.03574
900.557	6443.33023
900.737	6387.3352
900.916	6323.02365
901.095	6200.56218
901.274	6283.5958
901.453	6154.87769
901.632	6401.85406
901.811	6269.06762
901.989	6484.7971
902.168	6005.2853
902.347	6181.87444
902.526	6013.59919
902.705	6194.33315
902.884	5797.31545
903.063	5984.49893
903.242	5703.65204
903.42	6007.36381
903.599	5626.6041
903.778	5564.10909
903.957	5345.20971
904.135	5903.40955
904.314	5259.66446
904.493	5959.55217
904.672	5630.76968
904.85	5639.10055
905.029	5361.89687
905.207	5476.58045
905.386	4958.90255
905.565	4967.26353
905.743	5071.74462
905.922	5088.45623
906.1	4810.43412
906.279	4900.3654
906.457	4747.66643
906.636	5203.30831
906.814	5029.95911
906.993	5180.34353
907.171	4806.25024
907.35	4799.97426
907.528	4565.52537
907.707	4883.6372
907.885	4567.61991
908.063	4575.99784
908.242	4508.96447
908.42	4337.08864
908.598	4429.33298
908.777	4636.72714
908.955	4167.16616
909.133	4383.21608
909.311	4265.78023
909.49	4431.42895
909.668	4364.34703
909.846	4653.47675
910.024	4733.0177
910.202	4797.88222
910.38	4492.20259
910.559	4770.68362
910.737	4402.08336
910.915	4653.47675
911.093	4282.56092
911.271	4471.24825
911.449	4534.10464
911.627	4682.78509
911.805	4255.29161
911.983	4523.62996
912.161	4202.84049
912.339	4613.6941
912.517	4481.72569
912.695	4825.07697
912.872	4643.00841
913.05	4724.6465
913.228	4590.65835
913.406	4697.43761
913.584	4607.41189
913.762	4712.08903
913.939	4733.0177
914.117	4697.43761
914.295	4248.99818
914.473	4557.147
914.65	4368.5403
914.828	4578.09226
915.006	4305.63212
915.184	4527.8199
915.361	4389.50537
915.539	4651.38312
915.716	4141.9806
915.894	4469.1527
916.072	4156.67254
916.249	4337.08864
916.427	4362.25036
916.604	4550.86299
916.782	4364.34703
916.959	4615.78813
917.137	4248.99818
917.314	4565.52537
917.492	4183.95484
917.669	4204.93879
917.847	4188.1518
918.024	4389.50537
918.201	3952.99349
918.379	4108.39517
918.556	3906.77142
918.733	4349.66989
918.911	4022.30816
919.088	4058.007
919.265	3786.96918
919.442	4150.37612
919.62	3831.11435
919.797	3934.08564
919.974	3730.19843
920.151	3913.075
920.328	3734.40416
920.506	4079.00352
920.683	3837.42009
920.86	3929.88368
921.037	3982.40243
921.214	4112.59364
921.391	3717.58079
921.568	3896.26504
921.745	3807.99177
921.922	3839.52196
922.099	3637.65302
922.276	3839.52196
922.453	3559.80238
922.63	3719.68378
922.807	3323.99422
922.984	3568.21989
923.161	3389.28489
923.338	3561.90678
923.514	3473.50587
923.691	3385.0731
923.868	3210.22278
924.045	3347.16379
924.222	3172.28814
924.399	3542.96645
924.575	3246.04502
924.752	3469.2955
924.929	3288.18261
925.105	3397.70827
925.282	3254.47307
925.459	3431.39895
925.635	3109.05205
925.812	3374.5433
925.989	3085.86188
926.165	3087.97015
926.342	3045.80164
926.518	2999.40913
926.695	2691.35322
926.871	3031.0412
927.048	2885.50581
927.224	3212.3301
927.401	3031.0412
927.577	2980.42826
927.754	2883.39609
927.93	3045.80164
928.107	2756.78702
928.283	2758.89757
928.459	2632.24107
928.636	2817.98764
928.812	2577.3425
928.988	2855.96839
929.165	2461.18469
929.341	2773.67109
929.517	2583.67737
929.693	2756.78702
929.87	2503.42789
930.046	2744.1234
930.222	2342.88092
930.398	2530.88355
930.574	2351.33225
930.751	2634.35239
930.927	2406.26201
931.103	2617.4615
931.279	2480.19468
931.455	2528.77164
931.631	2279.49093
931.807	2467.52145
931.983	2082.93136
932.159	2469.63369
932.335	2076.58957
932.511	2342.88092
932.687	1901.10981
932.863	2093.50084
933.039	2066.0198
933.215	2059.67784
933.391	2070.24773
933.566	2095.61472
933.742	1937.05491
933.918	1953.96967
934.094	1818.64183
934.27	1841.90278
934.445	1742.51148
934.621	1920.13977
934.797	1541.59271
934.973	1594.46798
935.148	1370.27407
935.324	1651.57201
935.5	1406.22974
935.675	1594.46798
935.851	1435.84043
936.027	1539.47768
936.202	1421.03508
936.378	1319.5137
936.553	1190.50327
936.729	1304.70876
936.904	1067.84985
937.08	871.22166
937.255	862.76597
937.431	1120.71585
937.606	761.30888
937.782	888.13345
937.957	719.04176
938.133	854.31041
938.308	573.25523
938.483	657.76221
938.659	550.01944
938.834	678.89201
939.009	537.34607
939.185	583.81748
939.36	528.89743
939.535	592.26753
939.71	516.2249
939.886	501.44093
940.061	408.52999
940.236	486.65768
940.411	423.30926
940.586	531.00957
940.761	351.5318
940.937	459.205
941.112	452.87013
941.287	416.97519
941.462	326.20327
941.637	402.19626
941.812	326.20327
941.987	385.30703
942.162	324.09267
942.337	347.3102
942.512	292.43587
942.687	408.52999
942.862	311.42946
943.037	315.65046
943.212	250.23327
943.386	334.64583
943.561	277.66411
943.736	372.64081
943.911	186.94385
944.086	231.24458
944.26	271.33363
944.435	391.64037
944.61	237.57397
944.785	321.98209
944.959	199.6003
945.134	265.00332
945.309	374.75181
945.483	300.87729
945.658	349.42099
945.833	288.21528
946.007	212.25747
946.182	212.25747
946.357	193.27198
946.531	288.21528
946.706	269.22351
946.88	286.10501
947.055	279.77431
947.229	302.98769
947.404	241.79366
947.578	332.53516
947.752	243.90353
947.927	351.5318
948.101	317.76099
948.276	317.76099
948.45	330.42451
948.624	305.0981
948.799	227.02509
948.973	347.3102
949.147	248.12334
949.321	258.67319
949.496	256.56318
949.67	262.89326
949.844	227.02509
950.018	246.01343
950.193	212.25747
950.367	330.42451
950.541	343.08867
950.715	267.11341
950.889	330.42451
951.063	400.08505
951.237	241.79366
951.411	271.33363
951.585	326.20327
951.759	305.0981
951.933	338.86722
952.107	355.75346
952.281	305.0981
952.455	328.31388
952.629	381.08489
952.803	338.86722
952.977	235.46415
953.151	383.19595
953.325	321.98209
953.499	427.53205
953.672	362.08609
953.846	336.75651
954.02	273.44377
954.194	271.33363
954.368	269.22351
954.541	397.97385
954.715	277.66411
954.889	343.08867
955.062	302.98769
955.236	410.64126
955.41	372.64081
955.583	237.57397
955.757	328.31388
955.93	288.21528
956.104	309.31899
956.278	391.64037
956.451	275.55393
956.625	309.31899
956.798	307.20854
956.972	349.42099
957.145	315.65046
957.319	343.08867
957.492	321.98209
957.665	332.53516
957.839	326.20327
958.012	448.64696
958.185	311.42946
958.359	376.86282
958.532	357.86432
958.705	300.87729
958.879	311.42946
959.052	393.75151
959.225	355.75346
959.398	332.53516
959.572	423.30926
959.745	366.30793
959.918	376.86282
960.091	393.75151
960.264	281.88452
960.438	364.197
960.611	281.88452
960.784	402.19626
960.957	288.21528
961.13	279.77431
961.303	191.16258
961.476	393.75151
961.649	317.76099
961.822	378.97385
961.995	300.87729
962.168	408.52999
962.341	355.75346
962.514	351.5318
962.686	298.76691
962.859	315.65046
963.032	281.88452
963.205	317.76099
963.378	262.89326
963.551	262.89326
963.723	393.75151
963.896	298.76691
964.069	233.35436
964.242	267.11341
964.414	313.53995
964.587	294.5462
964.76	298.76691
964.932	296.65654
965.105	357.86432
965.278	313.53995
965.45	343.08867
965.623	243.90353
965.795	237.57397
965.968	286.10501
966.14	281.88452
966.313	279.77431
966.485	243.90353
966.658	248.12334
966.83	199.6003
967.003	258.67319
967.175	222.80567
967.348	256.56318
967.52	220.69599
967.692	237.57397
967.865	155.30595
968.037	317.76099
968.209	237.57397
968.382	239.6838
968.554	214.36707
968.726	279.77431
968.898	216.47669
969.071	254.45319
969.243	189.0532
969.415	195.3814
969.587	243.90353
969.759	248.12334
969.932	189.0532
970.104	201.70978
970.276	269.22351
970.448	279.77431
970.62	265.00332
970.792	246.01343
970.964	229.13482
971.136	144.76102
971.308	132.10782
971.48	229.13482
971.652	275.55393
971.824	195.3814
971.996	115.23808
972.168	186.94385
972.339	237.57397
972.511	222.80567
972.683	203.81928
972.855	178.50662
973.027	195.3814
973.199	153.19692
973.37	210.14789
973.542	163.74226
973.714	191.16258
973.886	170.06972
974.057	136.32547
974.229	191.16258
974.401	182.72519
974.572	161.63315
974.744	195.3814
974.915	132.10782
975.087	176.39736
975.259	174.28813
975.43	208.03833
975.602	144.76102
975.773	227.02509
975.945	167.96055
976.116	174.28813
976.288	102.58669
976.459	77.2863
976.63	222.80567
976.802	165.85139
976.973	174.28813
977.145	197.49084
977.316	205.9288
977.487	132.10782
977.659	115.23808
977.83	153.19692
978.001	142.6521
978.172	170.06972
978.344	136.32547
978.515	106.80373
978.686	140.5432
978.857	134.21663
979.028	157.41499
979.2	115.23808
979.371	167.96055
979.542	182.72519
979.713	146.86997
979.884	178.50662
980.055	35.12624
980.226	161.63315
980.397	140.5432
980.568	123.67278
980.739	180.61589
980.91	70.96171
981.081	191.16258
981.252	98.36974
981.423	146.86997
981.594	85.71941
981.765	66.74543
981.936	127.89025
982.106	58.31314
982.277	96.26129
982.448	146.86997
982.619	43.55752
982.79	123.67278
982.96	70.96171
983.131	163.74226
983.302	18.26482
983.472	129.99903
983.643	79.39455
983.814	102.58669
983.984	115.23808
984.155	39.34183
984.326	85.71941
984.496	127.89025
984.667	132.10782
984.837	64.63732
985.008	9.83468
985.178	144.76102
985.349	115.23808
985.519	142.6521
985.69	43.55752
985.86	119.45538
986.031	138.43433
986.201	51.98916
986.371	28.80304
986.542	98.36974
986.712	94.15287
986.882	144.76102
987.053	132.10782
987.223	81.50281
987.393	96.26129
987.563	125.7815
987.734	102.58669
987.904	119.45538
988.074	87.82774
988.244	51.98916
988.414	165.85139
988.585	68.85356
988.755	85.71941
988.925	104.6952
989.095	64.63732
989.265	106.80373
989.435	170.06972
989.605	51.98916
989.775	60.42118
989.945	153.19692
990.115	64.63732
990.285	96.26129
990.455	85.71941
990.625	30.91075
990.795	56.20513
990.965	47.77329
991.134	113.12946
991.304	47.77329
991.474	111.02086
991.644	18.26482
991.814	100.4782
991.984	60.42118
992.153	96.26129
992.323	79.39455
992.493	132.10782
992.662	96.26129
992.832	24.58768
993.002	14.04971
993.171	-7.02445
993.341	98.36974
993.511	51.98916
993.68	39.34183
993.85	104.6952
994.019	79.39455
994.189	18.26482
994.358	45.6654
994.528	20.37242
994.697	123.67278
994.867	102.58669
995.036	1.40492
995.206	123.67278
995.375	54.09713
995.544	155.30595
995.714	96.26129
995.883	94.15287
996.052	94.15287
996.222	26.69535
996.391	60.42118
996.56	73.06989
996.73	113.12946
996.899	89.9361
997.068	113.12946
997.237	33.01848
997.406	39.34183
997.576	70.96171
997.745	35.12624
997.914	70.96171
998.083	51.98916
998.252	68.85356
998.421	14.04971
998.59	24.58768
998.759	-7.02445
998.928	58.31314
999.097	60.42118
999.266	111.02086
999.435	24.58768
999.604	102.58669
999.773	73.06989
999.942	106.80373
1000.111	28.80304
1000.28	1.40492
1000.448	3.51233
1000.617	54.09713
1000.786	33.01848
1000.955	64.63732
1001.124	43.55752
1001.292	43.55752
1001.461	102.58669
1001.63	85.71941
1001.798	-4.91714
1001.967	22.48004
1002.136	26.69535
1002.304	35.12624
1002.473	26.69535
1002.642	81.50281
1002.81	87.82774
1002.979	85.71941
1003.147	-61.80579
1003.316	73.06989
1003.484	43.55752
1003.653	43.55752
1003.821	60.42118
1003.99	-40.73804
1004.158	18.26482
1004.327	106.80373
1004.495	73.06989
1004.663	9.83468
1004.832	79.39455
1005	11.94218
1005.168	58.31314
1005.337	26.69535
1005.505	9.83468
1005.673	89.9361
1005.842	41.44967
1006.01	26.69535
1006.178	58.31314
1006.346	22.48004
1006.514	60.42118
1006.683	-7.02445
1006.851	-7.02445
1007.019	41.44967
1007.187	58.31314
1007.355	39.34183
1007.523	-4.91714
1007.691	51.98916
1007.859	119.45538
1008.027	22.48004
1008.195	151.08791
1008.363	26.69535
1008.531	26.69535
1008.699	-15.45344
1008.867	1.40492
1009.035	33.01848
1009.203	-11.23899
1009.37	85.71941
1009.538	100.4782
1009.706	9.83468
1009.874	68.85356
1010.042	75.17808
1010.209	39.34183
1010.377	41.44967
1010.545	-0.70246
1010.713	85.71941
1010.88	75.17808
1011.048	-15.45344
1011.216	-32.31023
1011.383	26.69535
1011.551	87.82774
1011.718	28.80304
1011.886	51.98916
1012.054	51.98916
1012.221	18.26482
1012.389	64.63732
1012.556	7.72721
1012.724	47.77329
1012.891	81.50281
1013.058	73.06989
1013.226	39.34183
1013.393	-0.70246
1013.561	-7.02445
1013.728	35.12624
1013.895	54.09713
1014.063	60.42118
1014.23	68.85356
1014.397	85.71941
1014.565	102.58669
1014.732	-49.16544
1014.899	64.63732
1015.066	-13.34623
1015.233	47.77329
1015.401	-2.80981
1015.568	-11.23899
1015.735	22.48004
1015.902	-32.31023
1016.069	51.98916
1016.236	35.12624
1016.403	68.85356
1016.57	113.12946
1016.737	79.39455
1016.904	77.2863
1017.071	77.2863
1017.238	-63.91243
1017.405	24.58768
1017.572	11.94218
1017.739	68.85356
1017.906	14.04971
1018.073	94.15287
1018.24	-2.80981
1018.407	7.72721
1018.573	94.15287
1018.74	51.98916
1018.907	58.31314
1019.074	14.04971
1019.241	-40.73804
1019.407	-32.31023
1019.574	73.06989
1019.741	60.42118
1019.907	-7.02445
1020.074	39.34183
1020.241	-28.09618
1020.407	43.55752
1020.574	43.55752
1020.74	70.96171
1020.907	37.23403
1021.073	41.44967
1021.24	62.52924
1021.406	79.39455
1021.573	39.34183
1021.739	56.20513
1021.906	-7.02445
1022.072	26.69535
1022.239	94.15287
1022.405	-15.45344
1022.571	1.40492
1022.738	-7.02445
1022.904	14.04971
1023.07	-7.02445
1023.237	30.91075
1023.403	18.26482
1023.569	-30.20322
1023.735	51.98916
1023.902	39.34183
1024.068	20.37242
1024.234	54.09713
1024.4	35.12624
1024.566	-4.91714
1024.732	89.9361
1024.898	26.69535
1025.065	77.2863
1025.231	-32.31023
1025.397	14.04971
1025.563	-36.52418
1025.729	58.31314
1025.895	-28.09618
1026.061	81.50281
1026.227	-2.80981
1026.392	43.55752
1026.558	33.01848
1026.724	-11.23899
1026.89	89.9361
1027.056	83.6111
1027.222	58.31314
1027.388	51.98916
1027.553	73.06989
1027.719	64.63732
1027.885	-28.09618
1028.051	35.12624
1028.216	123.67278
1028.382	81.50281
1028.548	-32.31023
1028.713	14.04971
1028.879	-23.88203
1029.045	28.80304
1029.21	11.94218
1029.376	98.36974
1029.541	-7.02445
1029.707	30.91075
1029.873	-36.52418
1030.038	-11.23899
1030.204	-57.59244
1030.369	30.91075
1030.534	26.69535
1030.7	62.52924
1030.865	-38.63112
1031.031	60.42118
1031.196	1.40492
1031.361	45.6654
1031.527	-44.95179
1031.692	45.6654
1031.857	-74.44523
1032.023	62.52924
1032.188	35.12624
1032.353	1.40492
1032.518	66.74543
1032.684	1.40492
1032.849	-66.01904
1033.014	64.63732
1033.179	24.58768
1033.344	3.51233
1033.509	-0.70246
1033.674	28.80304
1033.839	60.42118
1034.004	18.26482
1034.17	-7.02445
1034.335	81.50281
1034.5	18.26482
1034.664	98.36974
1034.829	14.04971
1034.994	9.83468
1035.159	85.71941
1035.324	43.55752
1035.489	-23.88203
1035.654	-11.23899
1035.819	1.40492
1035.984	-7.02445
1036.148	3.51233
1036.313	129.99903
1036.478	-21.77492
1036.643	30.91075
1036.807	-34.41722
1036.972	47.77329
1037.137	39.34183
1037.301	106.80373
1037.466	22.48004
1037.631	-25.98912
1037.795	28.80304
1037.96	85.71941
1038.124	-4.91714
1038.289	-9.13173
1038.454	-21.77492
1038.618	35.12624
1038.783	47.77329
1038.947	89.9361
1039.111	68.85356
1039.276	-15.45344
1039.44	7.72721
1039.605	70.96171
1039.769	94.15287
1039.933	3.51233
1040.098	-32.31023
1040.262	73.06989
1040.426	58.31314
1040.591	22.48004
1040.755	47.77329
1040.919	5.61975
1041.083	62.52924
1041.248	26.69535
1041.412	-40.73804
1041.576	37.23403
1041.74	45.6654
1041.904	16.15725
1042.068	22.48004
1042.232	11.94218
1042.397	39.34183
1042.561	-7.02445
1042.725	98.36974
1042.889	56.20513
1043.053	30.91075
1043.217	45.6654
1043.381	11.94218
1043.544	11.94218
1043.708	45.6654
1043.872	9.83468
1044.036	-15.45344
1044.2	37.23403
1044.364	43.55752
1044.528	102.58669
1044.691	47.77329
1044.855	-4.91714
1045.019	43.55752
1045.183	56.20513
1045.346	-2.80981
1045.51	-40.73804
1045.674	22.48004
1045.837	56.20513
1046.001	43.55752
1046.165	22.48004
1046.328	-9.13173
1046.492	77.2863
1046.655	-55.48573
1046.819	37.23403
1046.983	51.98916
1047.146	20.37242
1047.31	49.88122
1047.473	1.40492
1047.636	43.55752
1047.8	7.72721
1047.963	-7.02445
1048.127	68.85356
1048.29	-32.31023
