Data from absorb_only_2.23.25_USB4F045381__46__0151.txt Node

Date: Sun Feb 23 19:21:03 EST 2025
User: ssocol
Spectrometer: USB4F04538
Trigger mode: 4
Integration Time (sec): 2.600000E-3
Scans to average: 1
Electric dark correction enabled: true
Nonlinearity correction enabled: true
Boxcar width: 0
XAxis mode: Wavelengths
Number of Pixels in Spectrum: 3648
>>>>>Begin Spectral Data<<<<<
345.52	-25.63794
345.736	-25.63794
345.952	-25.63794
346.168	-31.95906
346.384	-27.74501
346.6	-8.78052
346.816	-59.34802
347.032	12.29343
347.248	-44.60065
347.464	-0.35123
347.68	-2.45859
347.896	18.61609
348.112	-4.56592
348.328	58.66448
348.544	18.61609
348.76	-36.17303
348.975	48.12461
349.191	24.93896
349.407	-25.63794
349.623	18.61609
349.839	48.12461
350.055	-53.02787
350.27	-6.67324
350.486	-0.35123
350.702	-2.45859
350.918	-27.74501
351.133	-8.78052
351.349	-6.67324
351.565	-19.31659
351.781	50.23254
351.996	33.36978
352.212	31.26204
352.428	-0.35123
352.644	-80.41353
352.859	-17.20943
353.075	37.58533
353.291	1.75615
353.506	-53.02787
353.722	-12.99502
353.938	-10.88778
354.153	-8.78052
354.369	14.40096
354.584	24.93896
354.8	10.18593
355.016	-4.56592
355.231	-61.45468
355.447	20.72369
355.662	16.50851
355.878	31.26204
356.093	-19.31659
356.309	35.47754
356.524	16.50851
356.74	24.93896
356.955	29.15432
357.171	-10.88778
357.386	-0.35123
357.602	41.80097
357.817	81.85419
358.033	-48.81431
358.248	10.18593
358.464	35.47754
358.679	98.72115
358.895	14.40096
359.11	-10.88778
359.325	18.61609
359.541	22.83131
359.756	39.69314
359.972	43.90883
360.187	-0.35123
360.402	-38.27997
360.618	-6.67324
360.833	29.15432
361.048	43.90883
361.264	67.09678
361.479	5.97099
361.694	-15.10224
361.909	5.97099
362.125	-63.56133
362.34	-78.3071
362.555	-4.56592
362.77	-2.45859
362.986	60.77252
363.201	-65.66794
363.416	-19.31659
363.631	-2.45859
363.847	39.69314
364.062	27.04663
364.277	-44.60065
364.492	39.69314
364.707	24.93896
364.922	27.04663
365.138	-27.74501
365.353	67.09678
365.568	-10.88778
365.783	-6.67324
365.998	86.0708
366.213	-19.31659
366.428	31.26204
366.643	-34.06606
366.858	27.04663
367.073	-36.17303
367.288	-44.60065
367.503	64.98867
367.718	-36.17303
367.933	-42.49378
368.148	-4.56592
368.363	33.36978
368.578	22.83131
368.793	-2.45859
369.008	48.12461
369.223	-53.02787
369.438	22.83131
369.653	31.26204
369.868	1.75615
370.083	-10.88778
370.298	-36.17303
370.513	-53.02787
370.728	-27.74501
370.943	18.61609
371.157	-99.37029
371.372	-15.10224
371.587	48.12461
371.802	-50.9211
372.017	-23.53085
372.232	-67.77453
372.446	14.40096
372.661	-10.88778
372.876	-42.49378
373.091	-2.45859
373.306	14.40096
373.52	-6.67324
373.735	-25.63794
373.95	27.04663
374.165	46.01671
374.379	-61.45468
374.594	-27.74501
374.809	43.90883
375.023	-40.38689
375.238	-36.17303
375.453	-69.8811
375.667	31.26204
375.882	69.20492
376.097	-31.95906
376.311	88.17913
376.526	-36.17303
376.741	24.93896
376.955	-27.74501
377.17	22.83131
377.384	41.80097
377.599	-31.95906
377.813	52.34049
378.028	29.15432
378.242	60.77252
378.457	-67.77453
378.672	-31.95906
378.886	-12.99502
379.101	35.47754
379.315	75.52945
379.53	5.97099
379.744	12.29343
379.958	-15.10224
380.173	-0.35123
380.387	-27.74501
380.602	-53.02787
380.816	-34.06606
381.031	-74.09415
381.245	39.69314
381.459	-10.88778
381.674	16.50851
381.888	-59.34802
382.103	64.98867
382.317	33.36978
382.531	16.50851
382.746	-10.88778
382.96	-48.81431
383.174	37.58533
383.388	5.97099
383.603	71.31307
383.817	-2.45859
384.031	22.83131
384.246	33.36978
384.46	-25.63794
384.674	27.04663
384.888	-36.17303
385.103	50.23254
385.317	5.97099
385.531	31.26204
385.745	43.90883
385.959	12.29343
386.174	-23.53085
386.388	-36.17303
386.602	-57.24133
386.816	-42.49378
387.03	-69.8811
387.244	16.50851
387.458	50.23254
387.672	-15.10224
387.887	-36.17303
388.101	-0.35123
388.315	52.34049
388.529	27.04663
388.743	10.18593
388.957	-10.88778
389.171	-2.45859
389.385	88.17913
389.599	-57.24133
389.813	12.29343
390.027	-10.88778
390.241	-8.78052
390.455	-2.45859
390.669	-15.10224
390.883	-50.9211
391.097	-6.67324
391.311	-15.10224
391.525	-17.20943
391.738	35.47754
391.952	29.15432
392.166	-59.34802
392.38	1.75615
392.594	10.18593
392.808	-59.34802
393.022	20.72369
393.236	35.47754
393.449	-112.00696
393.663	48.12461
393.877	-15.10224
394.091	-8.78052
394.305	-12.99502
394.518	27.04663
394.732	50.23254
394.946	5.97099
395.16	-31.95906
395.373	-6.67324
395.587	48.12461
395.801	-6.67324
396.015	-53.02787
396.228	-10.88778
396.442	-76.20064
396.656	-12.99502
396.869	-31.95906
397.083	-40.38689
397.297	-42.49378
397.51	-53.02787
397.724	-46.70749
397.938	5.97099
398.151	22.83131
398.365	64.98867
398.578	8.07845
398.792	-46.70749
399.005	-10.88778
399.219	14.40096
399.433	-78.3071
399.646	43.90883
399.86	-46.70749
400.073	-6.67324
400.287	33.36978
400.5	8.07845
400.714	-69.8811
400.927	27.04663
401.141	-2.45859
401.354	-40.38689
401.567	5.97099
401.781	-8.78052
401.994	18.61609
402.208	-4.56592
402.421	-15.10224
402.635	-27.74501
402.848	-6.67324
403.061	67.09678
403.275	31.26204
403.488	16.50851
403.701	50.23254
403.915	-61.45468
404.128	52.34049
404.341	105.04662
404.555	52.34049
404.768	12.29343
404.981	-40.38689
405.195	-34.06606
405.408	69.20492
405.621	35.47754
405.834	14.40096
406.048	-36.17303
406.261	-57.24133
406.474	-12.99502
406.687	27.04663
406.9	39.69314
407.114	31.26204
407.327	71.31307
407.54	-6.67324
407.753	-36.17303
407.966	33.36978
408.179	39.69314
408.392	33.36978
408.605	16.50851
408.819	1.75615
409.032	5.97099
409.245	1.75615
409.458	73.42125
409.671	-6.67324
409.884	-27.74501
410.097	-6.67324
410.31	48.12461
410.523	43.90883
410.736	22.83131
410.949	14.40096
411.162	-12.99502
411.375	-27.74501
411.588	33.36978
411.801	-19.31659
412.014	18.61609
412.227	48.12461
412.44	27.04663
412.653	16.50851
412.865	31.26204
413.078	46.01671
413.291	111.37229
413.504	86.0708
413.717	-10.88778
413.93	-12.99502
414.143	12.29343
414.356	31.26204
414.568	27.04663
414.781	35.47754
414.994	24.93896
415.207	-6.67324
415.42	90.28749
415.632	-27.74501
415.845	22.83131
416.058	-6.67324
416.271	-27.74501
416.483	48.12461
416.696	14.40096
416.909	18.61609
417.121	-36.17303
417.334	-6.67324
417.547	20.72369
417.759	52.34049
417.972	39.69314
418.185	-40.38689
418.397	-17.20943
418.61	-23.53085
418.823	98.72115
419.035	-57.24133
419.248	50.23254
419.46	-12.99502
419.673	-19.31659
419.885	1.75615
420.098	-15.10224
420.311	-8.78052
420.523	20.72369
420.736	-17.20943
420.948	-38.27997
421.161	12.29343
421.373	-19.31659
421.586	46.01671
421.798	-2.45859
422.01	77.63768
422.223	8.07845
422.435	-34.06606
422.648	67.09678
422.86	14.40096
423.073	-46.70749
423.285	-6.67324
423.497	39.69314
423.71	35.47754
423.922	56.55646
424.134	12.29343
424.347	-2.45859
424.559	5.97099
424.771	1.75615
424.984	-19.31659
425.196	29.15432
425.408	81.85419
425.621	39.69314
425.833	-0.35123
426.045	-10.88778
426.257	-4.56592
426.47	-46.70749
426.682	-44.60065
426.894	43.90883
427.106	14.40096
427.318	41.80097
427.531	5.97099
427.743	31.26204
427.955	-19.31659
428.167	-36.17303
428.379	39.69314
428.591	-36.17303
428.804	-69.8811
429.016	39.69314
429.228	24.93896
429.44	-12.99502
429.652	-29.85205
429.864	31.26204
430.076	31.26204
430.288	-76.20064
430.5	33.36978
430.712	14.40096
430.924	56.55646
431.136	-2.45859
431.348	27.04663
431.56	-8.78052
431.772	41.80097
431.984	16.50851
432.196	56.55646
432.408	-23.53085
432.62	35.47754
432.832	18.61609
433.044	14.40096
433.256	48.12461
433.468	52.34049
433.679	-19.31659
433.891	73.42125
434.103	-25.63794
434.315	126.13296
434.527	14.40096
434.739	-19.31659
434.95	48.12461
435.162	98.72115
435.374	77.63768
435.586	-31.95906
435.798	-23.53085
436.009	54.44846
436.221	27.04663
436.433	73.42125
436.645	52.34049
436.856	64.98867
437.068	-31.95906
437.28	69.20492
437.491	-2.45859
437.703	14.40096
437.915	12.29343
438.126	-44.60065
438.338	20.72369
438.55	24.93896
438.761	35.47754
438.973	62.88058
439.184	-67.77453
439.396	-15.10224
439.608	16.50851
439.819	22.83131
440.031	-0.35123
440.242	-31.95906
440.454	-17.20943
440.665	-10.88778
440.877	8.07845
441.088	14.40096
441.3	31.26204
441.511	8.07845
441.723	31.26204
441.934	18.61609
442.146	98.72115
442.357	24.93896
442.569	3.86356
442.78	12.29343
442.991	33.36978
443.203	14.40096
443.414	33.36978
443.626	-6.67324
443.837	1.75615
444.048	81.85419
444.26	-0.35123
444.471	-6.67324
444.682	69.20492
444.894	-6.67324
445.105	35.47754
445.316	-4.56592
445.528	31.26204
445.739	-19.31659
445.95	50.23254
446.161	-19.31659
446.373	-36.17303
446.584	31.26204
446.795	5.97099
447.006	77.63768
447.217	-25.63794
447.429	-19.31659
447.64	16.50851
447.851	-4.56592
448.062	41.80097
448.273	48.12461
448.484	58.66448
448.695	35.47754
448.907	22.83131
449.118	35.47754
449.329	-23.53085
449.54	8.07845
449.751	20.72369
449.962	39.69314
450.173	-25.63794
450.384	46.01671
450.595	41.80097
450.806	126.13296
451.017	8.07845
451.228	56.55646
451.439	50.23254
451.65	24.93896
451.861	-19.31659
452.072	58.66448
452.283	81.85419
452.494	-34.06606
452.705	90.28749
452.915	69.20492
453.126	52.34049
453.337	88.17913
453.548	37.58533
453.759	48.12461
453.97	27.04663
454.181	115.58952
454.391	-25.63794
454.602	102.93811
454.813	64.98867
455.024	37.58533
455.235	60.77252
455.445	71.31307
455.656	50.23254
455.867	107.15516
456.078	56.55646
456.288	27.04663
456.499	83.96248
456.71	48.12461
456.921	90.28749
457.131	71.31307
457.342	5.97099
457.553	31.26204
457.763	29.15432
457.974	71.31307
458.184	-15.10224
458.395	81.85419
458.606	60.77252
458.816	10.18593
459.027	58.66448
459.237	37.58533
459.448	10.18593
459.659	73.42125
459.869	-40.38689
460.08	102.93811
460.29	81.85419
460.501	73.42125
460.711	60.77252
460.922	18.61609
461.132	69.20492
461.343	81.85419
461.553	113.4809
461.764	69.20492
461.974	60.77252
462.184	79.74592
462.395	64.98867
462.605	102.93811
462.816	8.07845
463.026	86.0708
463.236	35.47754
463.447	107.15516
463.657	119.80683
463.867	124.02423
464.078	117.69816
464.288	126.13296
464.498	115.58952
464.709	102.93811
464.919	111.37229
465.129	126.13296
465.339	151.43941
465.55	43.90883
465.76	69.20492
465.97	35.47754
466.18	83.96248
466.391	86.0708
466.601	54.44846
466.811	109.26371
467.021	107.15516
467.231	81.85419
467.441	50.23254
467.651	77.63768
467.862	147.22146
468.072	143.00359
468.282	157.7665
468.492	62.88058
468.702	166.20292
468.912	126.13296
469.122	145.11251
469.332	180.96744
469.542	94.50427
469.752	208.38993
469.962	149.33043
470.172	183.07674
470.382	134.5681
470.592	242.1453
470.802	216.8283
471.012	225.26699
471.222	242.1453
471.432	153.54842
471.642	183.07674
471.852	199.95188
472.062	185.18606
472.272	237.92561
472.482	250.58493
472.691	218.93794
472.901	225.26699
473.111	286.45672
473.321	292.78759
473.531	294.89792
473.741	191.51415
473.95	290.67728
474.16	284.34646
474.37	313.8917
474.58	318.11274
474.79	320.22329
474.999	303.33942
475.209	305.44984
475.419	353.99443
475.628	413.10444
475.838	334.99761
476.048	406.7706
476.258	391.99222
476.467	423.66115
476.677	396.21454
476.886	482.78599
477.096	514.46487
477.306	476.45062
477.515	451.11047
477.725	440.55273
477.935	438.44123
478.144	556.70836
478.354	495.45715
478.563	715.16749
478.773	573.6073
478.982	634.87293
479.192	630.64738
479.401	628.53462
479.611	706.71465
479.82	732.07367
480.03	748.98054
480.239	732.07367
480.449	696.14886
480.658	753.20736
480.868	818.72815
481.077	871.57399
481.287	698.262
481.496	977.28082
481.705	894.82784
481.915	981.50947
482.124	926.53919
482.333	841.97964
482.543	928.65334
482.752	1049.1713
482.961	1066.0877
483.171	1055.51491
483.38	1042.82774
483.589	1190.85574
483.799	1137.98605
484.008	1140.10079
484.217	1201.42996
484.426	1286.02648
484.636	1099.92152
484.845	1324.09619
485.054	1296.60134
485.263	1408.6973
485.472	1142.21553
485.682	1442.53809
485.891	1315.63621
486.1	1328.3262
486.309	1362.16646
486.518	1544.06024
486.727	1522.90992
486.936	1630.77505
487.146	1510.21968
487.355	1563.09543
487.564	1476.37892
487.773	1757.66746
487.982	1592.70549
488.191	1740.74914
488.4	1649.80956
488.609	1814.76495
488.818	1717.48608
489.027	1901.46222
489.236	1920.49217
489.445	1994.49306
489.654	1971.23644
489.863	2104.42245
490.072	1954.32206
490.281	2026.20538
490.49	2036.77582
490.698	2178.40207
490.907	2129.78798
491.116	2203.76422
491.325	2146.69771
491.534	2161.49331
491.743	2146.69771
491.952	2176.2885
492.16	2176.2885
492.369	2358.02278
492.578	2322.10404
492.787	2575.5828
492.996	2322.10404
493.204	2508.00397
493.413	2402.38898
493.622	2362.24833
493.831	2474.21015
494.039	2600.92174
494.248	2415.0642
494.457	2662.15024
494.665	2539.68303
494.874	2664.26138
495.083	2725.47887
495.291	2725.47887
495.5	2693.81601
495.709	2698.03789
495.917	2613.59056
496.126	2917.50151
496.335	2765.58091
496.543	2881.63798
496.752	2917.50151
496.96	2898.51545
497.169	2951.25157
497.377	2991.32484
497.586	2875.30869
497.794	2930.15822
498.003	2997.6517
498.211	2972.34344
498.42	2968.12518
498.628	3143.13108
498.837	3157.88565
499.045	3141.02322
499.254	2868.97927
499.462	3326.4517
499.671	3132.59162
499.879	3368.57623
500.087	3212.68132
500.296	3423.32764
500.504	3153.67014
500.713	3505.43214
500.921	3377.00029
501.129	3360.15188
501.338	3545.42177
501.546	3600.13361
501.754	3587.50891
501.962	3526.48014
502.171	3387.52999
502.379	3568.57062
502.587	3558.04869
502.795	3684.2809
503.004	3419.11641
503.212	3684.2809
503.42	3570.67495
503.628	3608.5497
503.837	3583.30053
504.045	3724.24019
504.253	3652.72922
504.461	3926.0318
504.669	3707.41607
504.877	3902.91914
505.085	3751.57674
505.294	3785.21721
505.502	3705.31297
505.71	4121.34019
505.918	3730.54891
506.126	4100.34786
506.334	3820.95472
506.542	4209.48503
506.75	3917.62748
506.958	3923.93075
507.166	4037.3584
507.374	4079.35345
507.582	4020.55807
507.79	4175.91043
507.998	4094.04975
508.206	4205.28851
508.414	4169.61459
508.622	4412.91378
508.83	4064.65612
509.037	4366.79312
509.245	3928.13283
509.453	4570.06351
509.661	4268.2275
509.869	4469.50196
510.077	4293.39771
510.285	4358.40641
510.492	4272.42275
510.7	4377.27601
510.908	4268.2275
511.116	4471.59751
511.324	4203.19021
511.531	4463.21517
511.739	4259.83674
511.947	4574.25247
512.155	4482.07493
512.362	4412.91378
512.57	4463.21517
512.778	4547.02266
512.985	4563.77991
513.193	4762.66279
513.401	4479.97949
513.608	4609.855
513.816	4507.21851
514.024	4628.70078
514.231	4653.82568
514.439	4628.70078
514.646	4607.76091
514.854	4846.34198
515.061	4611.94906
515.269	4791.95465
515.477	4718.71669
515.684	4829.60906
515.892	4685.22725
516.099	4980.15265
516.307	4737.55195
516.514	5136.8419
516.722	4808.69085
516.929	5036.57577
517.136	4791.95465
517.344	5082.53771
517.551	4888.1679
517.759	5272.53353
517.966	5174.4279
518.173	5122.22308
518.381	5101.33709
518.588	5107.60313
518.796	5047.02265
519.003	5247.49019
519.21	4873.52987
519.418	5322.61011
519.625	4948.79921
519.832	5214.09383
520.039	4988.51269
520.247	5358.07286
520.454	5278.79384
520.661	5626.95123
520.868	5324.69635
521.076	5541.53623
521.283	5374.75887
521.49	5303.83298
521.697	5358.07286
521.904	5347.64335
522.112	5385.18686
522.319	5708.16285
522.526	5472.75881
522.733	5776.85234
522.94	5608.20499
523.147	5458.16637
523.354	5672.76733
523.561	5710.24473
523.768	5739.38853
523.975	5789.33858
524.183	5551.95482
524.39	5899.59677
524.597	5756.04006
524.804	5905.83582
525.011	5564.45634
525.218	5710.24473
525.425	5724.81721
525.632	5924.55169
525.838	5724.81721
526.045	6080.44302
526.252	5822.63106
526.459	6088.7535
526.666	5949.50321
526.873	5949.50321
527.08	5706.08095
527.287	6173.91428
527.494	5991.08153
527.701	6161.45419
527.907	6130.30028
528.114	6196.75557
528.321	6124.06886
528.528	6244.50547
528.735	6124.06886
528.941	6207.13704
529.148	6043.04118
529.355	6229.97421
529.562	5997.31747
529.768	6165.60765
529.975	6138.60851
530.182	6259.03559
530.388	6138.60851
530.595	6265.26243
530.802	5895.43729
531.008	6470.6303
531.215	6221.67011
531.422	6350.34151
531.628	6225.82221
531.835	6476.85001
532.042	6412.56963
532.248	6406.34776
532.455	6398.05161
532.661	6710.97395
532.868	6379.38391
533.074	6630.20341
533.281	6570.12054
533.487	6742.03025
533.694	6433.30768
533.9	6984.09332
534.107	6665.41538
534.313	6785.50041
534.52	6868.27287
534.726	6814.47492
534.933	6847.58317
535.139	6779.291
535.345	6621.91727
535.552	6545.25299
535.758	6905.50862
535.965	6936.53279
536.171	6915.85057
536.377	6965.4841
536.584	6812.40546
536.79	6884.823
536.996	7091.5776
537.203	7044.04396
537.409	6944.80505
537.615	7103.97574
537.821	7031.64193
538.028	7258.88487
538.234	7176.2822
538.44	7314.62173
538.646	7205.19716
538.853	7374.46944
539.059	7017.17187
539.265	7250.6262
539.471	7027.50774
539.677	7081.24521
539.883	7044.04396
540.09	7347.64343
540.296	7355.89798
540.502	7238.23752
540.708	7289.85177
540.914	7679.61577
541.12	7151.49448
541.326	7570.3944
541.532	7471.42511
541.738	7681.67597
541.944	7652.83115
542.15	7603.37319
542.356	7663.13335
542.562	7751.71048
542.768	7597.19008
542.974	7689.91659
543.18	7605.43418
543.386	7825.83824
543.592	7541.53347
543.798	7817.60316
544.004	7500.29627
544.21	8013.09708
544.415	7729.05492
544.621	7827.89696
544.827	7741.41281
545.033	7895.82303
545.239	7640.4678
545.445	8157.02757
545.651	7531.22498
545.856	8138.52774
546.062	7809.36774
546.268	8134.41644
546.474	7957.55451
546.679	7858.77524
546.885	8103.57919
547.091	7957.55451
547.297	7702.27689
547.502	8076.84991
547.708	7879.35817
547.914	7945.20969
548.119	7984.29909
548.325	8113.85878
548.531	7926.69108
548.736	8407.64518
548.942	8111.8029
549.147	8056.28661
549.353	8097.4112
549.559	8171.41521
549.764	8189.91216
549.97	8337.83021
550.175	8152.91663
550.381	8253.61161
550.586	8167.30455
550.792	8378.90055
550.997	8288.53552
551.203	8383.00716
551.408	8272.10144
551.614	8341.9376
551.819	8309.07634
552.025	8442.54429
552.23	8052.1737
552.435	8407.64518
552.641	8680.53291
552.846	8526.68999
553.052	8450.75504
553.257	8397.37968
553.462	8586.18842
553.668	8524.63803
553.873	8380.95387
554.078	8483.59498
554.283	8598.49646
554.489	8842.46829
554.694	8651.82354
554.899	8809.68044
555.105	8832.22259
555.31	8619.00837
555.515	8830.17339
555.72	9004.29119
555.925	8426.12188
556.131	8850.66454
556.336	8633.3656
556.541	8821.97643
556.746	8614.90614
556.951	8893.69009
557.156	8684.63395
557.361	9000.19577
557.567	8975.62178
557.772	9002.24349
557.977	8705.13806
558.182	8938.75604
558.387	8813.77917
558.592	9110.74761
558.797	8934.65949
559.002	8926.46618
559.207	9024.76723
559.412	9006.33887
559.617	8961.28578
559.822	9053.43076
560.027	9143.49403
560.232	9123.02803
560.437	9241.7071
560.642	9014.52943
560.847	9188.5132
561.051	9139.40096
561.256	9077.99678
561.461	9268.29978
561.666	8789.18567
561.871	9388.95434
562.076	9384.8653
562.281	9433.92955
562.485	9290.79908
562.69	9292.84437
562.895	9204.88177
563.1	9174.18981
563.305	9008.38654
563.509	9415.53155
563.714	9366.46378
563.919	9026.81474
564.123	9147.58702
564.328	9619.88083
564.533	9186.46706
564.737	9442.10601
564.942	9270.34526
565.147	9732.20599
565.351	9474.80929
565.556	9505.46488
565.761	9245.79847
565.965	9560.63589
566.17	9435.97369
566.374	9166.00464
566.579	9482.98447
566.784	9460.50212
566.988	9746.49859
567.193	9658.68935
567.397	9378.73161
567.602	9435.97369
567.806	9123.02803
568.011	9705.66061
568.215	9654.60451
568.42	9675.0281
568.624	9621.92352
568.828	9775.08156
569.033	9245.79847
569.237	9803.66156
569.442	9711.7867
569.646	9781.20609
569.85	9677.07038
570.055	9760.79045
570.259	9968.96011
570.463	9664.8165
570.668	9525.89994
570.872	9901.62792
571.076	9748.54033
571.281	9950.59836
571.485	9719.9546
571.689	10026.07807
571.893	9766.9153
572.098	9860.81276
572.302	9536.11687
572.506	9773.04001
572.71	9670.94351
572.914	9948.55809
573.119	9926.11419
573.323	9995.48057
573.527	9724.03846
573.731	10144.35839
573.935	10246.28658
574.139	9985.28068
574.343	9711.7867
574.547	10134.16367
574.751	9868.97627
574.955	9983.24066
575.159	9889.38399
575.364	9852.64902
575.568	9999.56042
575.772	10452.07892
575.976	10058.71187
576.18	10079.10615
576.383	10262.59192
576.587	10454.1158
576.791	9924.07375
576.995	10201.44241
577.199	10205.51942
577.403	10285.01036
577.607	10305.38934
577.811	10452.07892
578.015	10152.51391
578.219	10258.51567
578.422	10185.13379
578.626	10474.48388
578.83	10331.88001
579.034	10470.41036
579.238	10313.54055
579.442	10590.55765
579.645	10301.31365
579.849	10462.26318
580.053	10319.65383
580.257	10515.2162
580.46	10380.77999
580.664	10590.55765
580.868	10344.10572
581.071	10578.34128
581.275	10395.04105
581.479	10647.56146
581.682	10409.30147
581.886	10659.7753
582.09	10574.26906
582.293	10824.61978
582.497	10694.37882
582.7	10649.59713
582.904	10828.68903
583.107	10914.13259
583.311	10643.49008
583.515	10962.94843
583.718	10614.98904
583.922	10739.15465
584.125	10698.44959
584.329	10767.64535
584.532	10702.52031
584.735	10808.34231
584.939	10981.25269
585.142	10903.9618
585.346	10598.70164
585.549	10785.95956
585.753	11072.76056
585.956	10975.15137
586.159	10932.43929
586.363	11139.8523
586.566	10802.23807
586.769	11068.69402
586.973	10853.10355
587.176	11180.5083
587.379	10828.68903
587.582	10956.8468
587.786	10930.40526
587.989	11334.96316
588.192	10881.58505
588.395	11221.1601
588.599	11084.95993
588.802	11135.78647
589.005	10910.0643
589.208	11150.0167
589.411	11070.72729
589.615	11210.99754
589.818	11176.44289
590.021	11261.80773
590.224	11137.81939
590.427	11586.8454
590.63	11341.05886
590.833	11402.01089
591.036	11111.39057
591.239	11343.09074
591.442	11164.24641
591.645	11302.45126
591.848	11499.51583
592.051	11357.31361
592.254	11231.32239
592.457	11357.31361
592.66	11290.25863
592.863	11507.64025
593.066	11292.29076
593.269	11202.86731
593.472	11292.29076
593.675	11706.64203
593.878	11249.61387
594.081	11562.4761
594.284	11389.82119
594.486	11584.81468
594.689	11452.79749
594.892	11383.72621
595.095	11617.30516
595.298	11659.94538
595.5	11627.45796
595.703	11869.02917
595.906	11779.72306
596.109	11696.49098
596.311	11456.86015
596.514	11741.15392
596.717	11668.06688
596.92	12240.29404
597.122	11871.05866
597.325	12063.82351
597.528	11601.06021
597.73	12075.99572
597.933	11507.64025
598.136	11990.78429
598.338	11913.67613
598.541	11950.2025
598.743	11915.70544
598.946	11659.94538
599.148	11781.75292
599.351	11958.31912
599.554	11968.46471
599.756	11988.75528
599.959	11860.9111
600.161	12155.10844
600.363	12163.22191
600.566	12071.93835
600.768	11826.40784
600.971	12217.98478
601.173	11751.304
601.376	12185.53336
601.578	11978.61009
601.78	12230.15358
601.983	11962.37738
602.185	12009.04505
602.388	11860.9111
602.59	12232.18168
602.792	11925.85188
602.995	12092.22492
603.197	11883.23545
603.399	12335.60572
603.601	12130.76729
603.804	12071.93835
604.006	12098.31074
604.208	12297.07735
604.41	11960.34825
604.613	12149.02325
604.815	11901.50008
605.017	12398.46245
605.219	12171.33527
605.421	12065.85223
605.623	12293.02158
605.826	12301.13309
606.028	12015.13183
606.23	12418.73743
606.432	12163.22191
606.634	12374.13159
606.836	11879.17656
607.038	12355.88281
607.24	12252.46237
607.442	12191.61814
607.644	12495.77628
607.846	12220.01293
608.048	12228.12546
608.25	12234.20978
608.452	12222.04107
608.654	12378.18681
608.856	12021.21854
609.058	12404.54502
609.26	12059.76604
609.462	12169.30694
609.664	12183.50508
609.866	12094.25353
610.067	12015.13183
610.269	12140.90957
610.471	11696.49098
610.673	12359.93814
610.875	12071.93835
611.077	12366.02109
611.278	12053.67978
611.48	12315.32794
611.682	12353.85513
611.884	12538.34636
612.085	12390.35228
612.287	12507.93945
612.489	12455.2307
612.69	12378.18681
612.892	12562.67086
613.094	12550.50872
613.295	12116.56779
613.497	12301.13309
613.699	11917.73475
613.9	12355.88281
614.102	12102.36791
614.304	12357.91048
614.505	12197.70286
614.707	12270.71437
614.908	11925.85188
615.11	12183.50508
615.311	12144.96642
615.513	12455.2307
615.714	12384.26957
615.916	12434.95692
616.117	12189.58989
616.319	12266.65842
616.52	12378.18681
616.722	12333.57798
616.923	12319.38356
617.124	12582.94059
617.326	12061.79478
617.527	12299.10522
617.729	12329.52246
617.93	12850.44506
618.131	12593.07522
618.333	12307.21664
618.534	12483.61288
618.735	12459.28537
618.937	12341.68892
619.138	12453.20335
619.339	12453.20335
619.54	12467.39465
619.742	12278.82618
619.943	12136.85268
620.144	12153.08005
620.345	12325.46692
620.546	12177.42021
620.748	12396.43492
620.949	12455.2307
621.15	12672.1201
621.351	12396.43492
621.552	12749.12948
621.753	12556.58982
621.954	12732.91768
622.155	12412.65501
622.356	12631.58542
622.558	12542.40051
622.759	12603.2097
622.96	12552.53576
623.161	12485.64013
623.362	12274.77029
623.563	12530.23799
623.764	12331.55022
623.965	12836.26172
624.166	12374.13159
624.366	12599.15593
624.567	12345.74435
624.768	12374.13159
624.969	12209.8721
625.17	12546.45463
625.371	12309.24448
625.572	12398.46245
625.773	12388.32471
625.973	12453.20335
626.174	12406.57252
626.375	12578.8867
626.576	12597.12903
626.777	12674.14677
626.977	12591.04831
627.178	12753.18238
627.379	12511.99379
627.58	12712.65241
627.78	12738.99715
627.981	12617.39771
628.182	12463.34002
628.382	12402.5175
628.583	12613.34402
628.784	12400.48998
628.984	12333.57798
629.185	12607.26345
629.386	12453.20335
629.586	12755.20882
629.787	12477.53109
629.987	12491.72184
630.188	12554.5628
630.388	12570.77883
630.589	12311.27231
630.79	12651.85306
630.99	12785.6047
631.191	12878.81095
631.391	12745.07657
631.591	12473.47653
631.792	12485.64013
631.992	12428.87466
632.193	12524.15665
632.393	12777.49926
632.594	12611.31717
632.794	12769.39372
632.994	12787.63105
633.195	12899.07166
633.395	12676.17344
633.595	12801.81533
633.796	12558.61684
633.996	12562.67086
634.196	12645.77283
634.397	12984.16089
634.597	12459.28537
634.797	13040.88205
634.997	12516.0481
635.198	12892.9935
635.398	12453.20335
635.598	12666.04005
635.798	12570.77883
635.998	12899.07166
636.199	12777.49926
636.399	12846.3927
636.599	12514.02095
636.799	12909.20181
636.999	12339.66119
637.199	12651.85306
637.399	12726.83816
637.599	12818.02559
637.799	12801.81533
637.999	12761.2881
638.199	12899.07166
638.399	12882.86314
638.599	12643.74608
638.799	12826.13059
638.999	12722.78512
639.199	13138.10942
639.399	12955.79883
639.599	13073.29241
639.799	12753.18238
639.999	12844.36652
640.199	12716.70551
640.399	12921.35782
640.599	12299.10522
640.799	13158.36376
640.998	12982.13506
641.198	12870.70652
641.398	12753.18238
641.598	12998.34155
641.798	13026.70213
641.997	13103.67599
642.197	13144.18577
642.397	13136.08397
642.597	13022.65068
642.796	12834.2355
642.996	12949.72111
643.196	13156.33834
643.395	12797.7627
643.595	12992.26416
643.795	13140.13488
643.994	12935.5396
644.194	13014.54772
644.394	12980.10923
644.593	12909.20181
644.793	13221.14929
644.992	12992.26416
645.192	13063.1643
645.392	12874.75875
645.591	12858.54971
645.791	13032.77927
645.99	13387.20706
646.19	13091.52268
646.389	13113.80361
646.589	13081.3948
646.788	13024.67641
646.987	12899.07166
647.187	12986.18672
647.386	12953.77293
647.586	13306.2068
647.785	13063.1643
647.984	13081.3948
648.184	12937.56554
648.383	12980.10923
648.582	13134.0585
648.782	13326.45748
648.981	13283.93057
649.18	13395.30673
649.38	13249.50264
649.579	13146.21121
649.778	13318.35726
649.977	13360.88269
650.177	13486.4237
650.376	13247.47743
650.575	12631.58542
650.774	13387.20706
650.973	13243.427
651.173	12931.48769
651.372	13316.3322
651.571	13296.08131
651.77	13595.75413
651.969	13539.06559
652.168	13182.66835
652.367	13166.46536
652.566	13342.65773
652.765	13484.39896
652.964	13377.08238
653.163	13012.52196
653.362	13117.85463
653.561	13225.19982
653.76	13308.23189
653.959	13324.43244
654.158	13190.76974
654.357	13093.54825
654.556	13176.59226
654.755	13200.89637
654.954	13073.29241
655.153	13267.72935
655.352	13132.03303
655.551	13204.94699
655.749	13312.28205
655.948	13085.44597
656.147	13304.18171
656.346	13140.13488
656.545	13168.49075
656.743	13067.21556
656.942	13427.70477
657.141	13690.90387
657.34	13241.40177
657.538	13038.85636
657.737	13134.0585
657.936	13360.88269
658.135	12925.40978
658.333	13255.57825
658.532	13225.19982
658.731	13273.80484
658.929	13368.98257
659.128	13192.79507
659.326	13202.92168
659.525	13168.49075
659.724	13344.68274
659.922	13541.09023
660.121	13304.18171
660.319	13152.28751
660.518	13271.77968
660.716	13401.38144
660.915	13298.10641
661.113	13492.49789
661.312	13190.76974
661.51	13427.70477
661.709	13184.6937
661.907	13273.80484
662.105	13184.6937
662.304	13563.36102
662.502	13148.23665
662.701	13279.88029
662.899	13158.36376
663.097	13480.34948
663.296	13419.60535
663.494	13403.40633
663.692	13202.92168
663.891	13377.08238
664.089	13119.88013
664.287	13452.00265
664.485	13136.08397
664.684	13237.35131
664.882	13073.29241
665.08	13401.38144
665.278	13265.70418
665.476	13237.35131
665.675	13174.56689
665.873	13336.58267
666.071	13304.18171
666.269	13435.80412
666.467	13251.52785
666.665	13551.21337
666.863	13136.08397
667.061	13215.07346
667.259	13061.13867
667.457	13239.37655
667.655	13101.65045
667.853	13158.36376
668.051	12939.59148
668.249	12864.62814
668.447	12969.97999
668.645	13091.52268
668.843	12988.21253
669.041	13237.35131
669.239	13046.95909
669.437	13261.65382
669.635	13132.03303
669.833	13233.30083
670.031	13136.08397
670.229	13132.03303
670.426	13008.47044
670.624	13105.70152
670.822	13020.62494
671.02	13200.89637
671.218	13020.62494
671.415	13162.41457
671.613	12761.2881
671.811	12734.94418
672.009	13014.54772
672.206	13190.76974
672.404	12957.82472
672.602	12909.20181
672.799	13018.59921
672.997	13636.24428
673.195	13421.63021
673.392	13381.13226
673.59	13176.59226
673.788	13263.679
673.985	13174.56689
674.183	13245.45222
674.38	13113.80361
674.578	13344.68274
674.775	12980.10923
674.973	13091.52268
675.17	13217.09874
675.368	13340.63271
675.565	13130.00756
675.763	12937.56554
675.96	12775.47288
676.158	13067.21556
676.355	12704.54613
676.553	13010.4962
676.75	12765.34092
676.947	13142.16033
677.145	12789.65739
677.342	13211.02288
677.539	12716.70551
677.737	12878.81095
677.934	12637.66578
678.131	13304.18171
678.329	12826.13059
678.526	12957.82472
678.723	12907.17579
678.92	12925.40978
679.118	12846.3927
679.315	12822.0781
679.512	12854.4974
679.709	12811.94678
679.906	12536.31928
680.104	12886.9153
680.301	12793.71006
680.498	12436.98433
680.695	12548.48168
680.892	12769.39372
681.089	12791.68373
681.286	12941.61742
681.483	12317.35575
681.68	12520.10239
681.877	12455.2307
682.075	12457.25804
682.272	12722.78512
682.469	12805.86793
682.665	12688.33331
682.862	12803.84163
683.059	12728.86467
683.256	12453.20335
683.453	12509.96662
683.65	12392.37983
683.847	12353.85513
684.044	12653.87979
684.241	12459.28537
684.438	12676.17344
684.635	12347.77206
684.831	12755.20882
685.028	12724.81164
685.225	12919.33183
685.422	12451.176
685.619	12714.67896
685.815	12436.98433
686.012	12400.48998
686.209	11994.84229
686.405	12518.07525
686.602	12177.42021
686.799	12489.69461
686.996	12295.04947
687.192	12422.79234
687.389	12400.48998
687.586	12301.13309
687.782	12268.68639
687.979	12246.37824
688.175	12000.92924
688.372	12102.36791
688.568	12096.28214
688.765	12416.70996
688.962	12278.82618
689.158	12408.60002
689.355	12213.92845
689.551	12374.13159
689.748	12260.57444
689.944	12276.79824
690.14	12422.79234
690.337	12299.10522
690.533	12272.74233
690.73	12181.4768
690.926	12329.52246
691.123	12211.90028
691.319	12280.85412
691.515	12485.64013
691.712	12307.21664
691.908	12116.56779
692.104	12075.99572
692.301	12319.38356
692.497	11980.63915
692.693	12055.70854
692.889	11980.63915
693.086	12181.4768
693.282	12185.53336
693.478	12063.82351
693.674	12122.65333
693.87	12201.7593
694.067	12260.57444
694.263	12151.05165
694.459	11970.4938
694.655	12388.32471
694.851	11976.58103
695.047	11891.35315
695.243	11931.93965
695.439	12055.70854
695.635	11856.85202
695.831	12264.63043
696.027	11946.14415
696.224	12063.82351
696.42	11808.14042
696.615	11938.02734
696.811	11639.64101
697.007	11976.58103
697.203	11682.27915
697.399	11611.21337
697.595	11696.49098
697.791	11649.79331
697.987	11820.31878
698.183	12084.11038
698.379	12017.16074
698.575	12142.938
698.77	11925.85188
698.966	11893.38255
699.162	11714.7627
699.358	11757.39394
699.554	11629.48849
699.749	11913.67613
699.945	11566.53774
700.141	11739.12388
700.337	11682.27915
700.532	11755.36397
700.728	11751.304
700.924	11915.70544
701.119	11580.7532
701.315	11718.82299
701.511	11574.66091
701.706	11840.61536
701.902	11635.58003
702.097	11718.82299
702.293	11385.75788
702.489	11375.59944
702.684	11383.72621
702.88	11653.85417
703.075	11373.56772
703.271	11568.56855
703.466	11509.67133
703.662	11601.06021
703.857	11464.98537
704.053	11793.93195
704.248	11605.12151
704.443	11448.73478
704.639	11558.41442
704.834	11820.31878
705.03	11519.82658
705.225	11491.39127
705.42	11387.78954
705.616	11923.82261
705.811	11629.48849
706.006	11529.9816
706.202	11430.45213
706.397	11515.76451
706.592	11456.86015
706.787	11560.44526
706.983	11284.16218
707.178	11391.85283
707.373	11523.88862
707.568	11448.73478
707.763	11168.31195
707.959	11649.79331
708.154	11314.64353
708.349	11657.91499
708.544	11361.37719
708.739	11141.8852
708.934	11074.79382
709.129	11152.04955
709.324	10832.75823
709.519	11359.3454
709.714	11198.80213
709.909	11280.09782
710.104	11154.08239
710.299	11274.00122
710.494	10967.01612
710.689	11174.41017
710.884	11387.78954
711.079	11383.72621
711.274	10928.37121
711.469	11475.14168
711.664	11117.48969
711.859	11521.85761
712.054	11479.20413
712.249	11432.48358
712.443	11028.02617
712.638	11361.37719
712.833	11180.5083
713.028	11406.07404
713.223	10942.60928
713.417	11101.22516
713.612	10826.65441
713.807	11235.38724
714.002	10851.06907
714.196	11320.73952
714.391	11180.5083
714.586	11373.56772
714.78	11353.24998
714.975	11332.93124
715.17	11023.95914
715.364	11044.29383
715.559	11131.72059
715.754	10879.55074
715.948	10847.00008
716.143	11109.35751
716.337	10885.65366
716.532	10991.42134
716.726	10948.71114
716.921	11135.78647
717.115	11162.21363
717.31	11133.75354
717.504	10950.74508
717.699	11005.65698
717.893	10861.24135
718.088	11023.95914
718.282	10997.52239
718.476	10775.78512
718.671	10608.88136
718.865	10800.20329
719.059	10423.56126
719.254	10808.34231
719.448	10686.23713
719.642	10665.88206
719.837	10323.72928
720.031	10661.8109
720.225	10136.20264
720.419	10651.63279
720.614	10470.41036
720.808	10728.97884
721.002	10340.03054
721.196	10560.01589
721.39	10502.99704
721.585	10511.14319
721.779	10557.97967
721.973	10645.52577
722.167	10238.13359
722.361	10926.33716
722.555	10519.28915
722.749	10513.1797
722.943	10464.3
723.137	10309.46497
723.331	10160.66921
723.525	10203.48092
723.719	10225.90368
723.913	10452.07892
724.107	10352.25593
724.301	10376.70528
724.495	10221.82694
724.689	10417.45
724.883	10327.80467
725.077	10537.6168
725.271	10403.18994
725.465	10376.70528
725.659	10038.31618
725.853	10209.59638
726.046	10274.82036
726.24	10578.34128
726.434	10311.50277
726.628	10472.44713
726.822	10176.97915
727.015	10437.8204
727.209	10399.11552
727.403	10356.33095
727.596	10388.92925
727.79	10543.7258
727.984	10356.33095
728.177	10519.28915
728.371	10291.12419
728.565	10726.94364
728.758	10586.48557
728.952	10384.85464
729.146	10413.37576
729.339	10372.63052
729.533	10244.24835
729.726	10258.51567
729.92	10011.79964
730.113	10268.7062
730.307	10168.82429
730.5	10492.81405
730.694	10201.44241
730.887	10311.50277
731.081	10095.42056
731.274	10372.63052
731.468	10227.94204
731.661	10179.01783
731.854	10024.03834
732.048	10384.85464
732.241	10042.39543
732.435	10539.65315
732.628	10340.03054
732.821	10437.8204
733.014	10441.89433
733.208	10203.48092
733.401	10144.35839
733.594	10064.8303
733.788	10166.78554
733.981	10221.82694
734.174	10246.28658
734.367	10217.75014
734.56	10170.86303
734.754	10095.42056
734.947	10058.71187
735.14	10278.8964
735.333	10234.05701
735.526	10097.45979
735.719	9964.87982
735.912	10168.82429
736.105	9658.68935
736.298	10050.55376
736.491	10205.51942
736.684	10219.78855
736.877	9964.87982
737.07	10107.65577
737.263	10287.04831
737.456	10205.51942
737.649	10409.30147
737.842	10201.44241
738.035	10274.82036
738.228	10181.0565
738.421	10046.47462
738.614	10111.73406
738.807	9834.27973
739	9842.44401
739.192	10013.83946
739.385	10087.26347
739.578	9864.89454
739.771	9922.03329
739.964	9877.13953
740.156	10097.45979
740.349	9646.43463
740.542	9866.93541
740.735	9844.48504
740.927	9809.78546
741.12	9817.95046
741.313	9787.33049
741.505	9854.68998
741.698	9581.06667
741.891	9546.33341
742.083	9644.39213
742.276	9726.08036
742.468	10007.71996
742.661	9940.39688
742.854	9826.11521
743.046	9681.15488
743.239	9734.24784
743.431	9828.15637
743.624	9619.88083
743.816	9315.34146
744.009	9548.37667
744.201	9744.45684
744.393	9552.46314
744.586	9482.98447
744.778	9640.30707
744.971	9511.59556
745.163	9781.20609
745.355	9552.46314
745.548	9636.22194
745.74	9564.72218
745.932	9699.53439
746.125	9672.98581
746.317	9864.89454
746.509	9591.28147
746.702	9654.60451
746.894	9274.43615
747.086	9695.45016
747.278	9554.50635
747.471	9501.37768
747.663	9566.76529
747.855	9513.63909
748.047	9133.26124
748.239	9542.24684
748.431	9509.55202
748.623	9773.04001
748.815	9574.93761
749.008	9922.03329
749.2	9617.83812
749.392	9650.5196
749.584	9292.84437
749.776	9591.28147
749.968	9352.15057
750.16	9495.24675
750.352	9393.04332
750.544	9505.46488
750.736	9427.79703
750.928	9601.49588
751.12	9221.24926
751.311	9196.69762
751.503	9707.70265
751.695	9348.06093
751.887	9327.61176
752.079	9560.63589
752.271	9401.22109
752.463	9491.15939
752.654	9380.77619
752.846	9601.49588
753.038	9372.59777
753.23	9603.53872
753.421	9354.19536
753.613	9466.63386
753.805	9433.92955
753.997	9444.15009
754.188	9360.32965
754.38	9388.95434
754.572	9249.88977
754.763	9564.72218
754.955	9489.11568
755.146	9092.32581
755.338	9108.70081
755.53	9282.61775
755.721	9272.39071
755.913	9358.2849
756.104	8912.1272
756.296	9468.67774
756.487	9141.4475
756.679	9235.56993
756.87	9100.51345
757.062	8914.17568
757.253	8908.03019
757.445	9020.67217
757.636	9020.67217
757.827	9016.57703
758.019	8934.65949
758.21	8844.51738
758.401	8674.38121
758.593	8666.17868
758.784	8553.36366
758.975	8600.54774
759.167	8551.31195
759.358	8504.11746
759.549	8908.03019
759.74	8953.0934
759.932	9028.86223
760.123	8977.66971
760.314	8924.41781
760.505	8584.13701
760.696	8467.17562
760.888	8567.72509
761.079	8502.06529
761.27	8479.49025
761.461	8325.50759
761.652	8653.87433
761.843	8557.46702
762.034	8756.39026
762.225	8487.69963
762.416	8196.07746
762.607	8270.0471
762.798	8101.52321
762.989	8179.63627
763.18	8403.53904
763.371	8159.083
763.562	8424.06899
763.753	8300.86025
763.944	8444.59701
764.135	8477.43786
764.326	8561.5703
764.517	8343.99126
764.708	8337.83021
764.899	8167.30455
765.089	8191.96728
765.28	8337.83021
765.471	8378.90055
765.662	8212.51737
765.853	8401.48594
766.043	8083.01851
766.234	8327.56141
766.425	8087.13081
766.615	8187.85703
766.806	8185.80187
766.997	8062.45581
767.187	7850.54149
767.378	8231.01076
767.569	7996.64157
767.759	8035.72128
767.95	8167.30455
768.141	7974.01312
768.331	7823.7795
768.522	8196.07746
768.712	7998.69858
768.903	8208.40751
769.093	8017.21076
769.284	7998.69858
769.474	7965.78398
769.665	7967.8413
769.855	7679.61577
770.046	7867.00866
770.236	7650.77064
770.426	7599.25114
770.617	7685.79633
770.807	7792.89591
770.998	7638.40717
771.188	7864.95034
771.378	7584.82329
771.569	7766.12633
771.759	7558.02594
771.949	7949.32471
772.139	7747.59148
772.33	7597.19008
772.52	7456.98794
772.71	7743.47239
772.9	7644.589
773.09	7708.45675
773.281	7764.06699
773.471	7716.69627
773.661	7586.88448
773.851	7764.06699
774.041	7417.79599
774.231	7407.48101
774.421	7085.37824
774.611	7248.56147
774.802	7199.00146
774.992	7456.98794
775.182	7182.47863
775.372	7199.00146
775.562	7211.39266
775.752	7419.85892
775.942	7112.24072
776.131	7479.67444
776.321	7174.21668
776.511	7465.23788
776.701	7355.89798
776.891	7382.72286
777.081	7306.36543
777.271	7184.54406
777.461	7108.10827
777.651	7322.87768
777.84	7031.64193
778.03	6992.3635
778.22	7209.32752
778.41	7114.3069
778.599	6988.22846
778.789	7120.50534
778.979	7041.97701
779.169	7384.78616
779.358	6994.43099
779.548	7364.15218
779.738	6936.53279
779.927	7002.70072
780.117	7110.17451
780.307	7064.71222
780.496	6702.6914
780.686	6944.80505
780.875	6665.41538
781.065	6657.13081
781.254	6930.32837
781.444	6909.64547
781.633	6586.69707
781.823	6913.78223
782.012	6702.6914
782.202	7225.84805
782.391	6816.54435
782.581	6868.27287
782.77	6669.55753
782.96	6833.09903
783.149	6590.84097
783.338	6831.02977
783.528	6646.77458
783.717	6590.84097
783.906	6812.40546
784.096	6884.823
784.285	6710.97395
784.474	6760.66155
784.663	6493.43487
784.853	6561.83173
785.042	6346.19222
785.231	6510.01824
785.42	6704.76207
785.61	6487.21572
785.799	6483.0695
785.988	6607.41564
786.177	6321.29454
786.366	6445.74939
786.555	6406.34776
786.744	6240.3538
786.933	6315.06959
787.122	6283.9417
787.312	6516.23662
787.501	6379.38391
787.69	6221.67011
787.879	6404.27376
788.068	6271.48907
788.257	6640.56056
788.445	6354.49071
788.634	6456.11684
788.823	6395.97752
789.012	6225.82221
789.201	6205.06079
789.39	6483.0695
789.579	6240.3538
789.768	6180.144
789.957	6132.37737
790.145	6159.37743
790.334	6456.11684
790.523	6142.76248
790.712	6292.24298
790.9	6107.45072
791.089	6049.27535
791.278	6283.9417
791.467	6057.58725
791.655	5961.9777
791.844	6094.98612
792.033	6171.83765
792.221	5903.75616
792.41	6013.94559
792.599	5641.53032
792.787	5986.92412
792.976	5880.87835
793.164	5783.09557
793.353	5937.02787
793.541	6175.99088
793.73	5966.13567
793.918	5968.21462
794.107	5739.38853
794.295	5847.59645
794.484	5791.41954
794.672	5789.33858
794.861	5947.42404
795.049	5768.52771
795.238	5758.12139
795.426	5726.8989
795.614	5739.38853
795.803	5830.95323
795.991	5939.10715
796.179	5853.83727
796.368	5801.82397
796.556	5839.27503
796.744	5639.44766
796.932	5772.69008
797.121	5506.10864
797.309	5822.63106
797.497	5497.77175
797.685	5731.06221
797.874	5785.17659
798.062	5839.27503
798.25	5458.16637
798.438	5924.55169
798.626	5458.16637
798.814	5689.42489
799.002	5572.79022
799.19	5647.77815
799.378	5610.288
799.566	5572.79022
799.755	5451.91211
799.943	5604.0389
800.131	5514.44516
800.318	5751.87732
800.506	5606.12196
800.694	5670.68503
800.882	5383.10131
801.07	5620.7027
801.258	5389.3579
801.446	5599.87272
801.634	5366.41606
801.822	5466.50505
802.01	5347.64335
802.197	5431.06306
802.385	5092.98204
802.573	5364.33029
802.761	5339.29931
802.949	5330.9549
803.136	5358.07286
803.324	5456.08164
803.512	5499.85601
803.699	5537.36864
803.887	5456.08164
804.075	5610.288
804.262	5189.04264
804.45	5587.3736
804.638	5499.85601
804.825	5506.10864
805.013	5441.48788
805.201	5639.44766
805.388	5549.87115
805.576	5479.01236
805.763	5699.83511
805.951	5599.87272
806.138	5376.84452
806.326	5522.7813
806.513	5364.33029
806.701	5510.27695
806.888	5360.1587
807.075	5647.77815
807.263	5391.44338
807.45	5579.04038
807.638	5520.6973
807.825	5533.20094
808.012	5293.40041
808.2	5330.9549
808.387	5533.20094
808.574	5529.03316
808.761	5330.9549
808.949	5518.61328
809.136	5589.45684
809.323	5447.74249
809.51	5308.00584
809.698	5574.87363
809.885	5349.7293
810.072	5487.3501
810.259	5364.33029
810.446	5526.94923
810.633	5268.35988
810.82	5547.78746
811.008	5493.60316
811.195	5568.62333
811.382	5374.75887
811.569	5576.95702
811.756	5403.95577
811.943	5849.67675
812.13	5383.10131
812.317	5664.43798
812.504	5531.11706
812.691	5547.78746
812.878	5308.00584
813.064	5504.02446
813.251	5341.38536
813.438	5641.53032
813.625	5485.26571
813.812	5408.12638
813.999	5399.78507
814.186	5539.45245
814.372	5322.61011
814.559	5476.92787
814.746	5193.21807
814.933	5497.77175
815.12	5234.96726
815.306	5626.95123
815.493	5001.05206
815.68	5581.12372
815.866	5163.9881
816.053	5301.74651
816.24	5441.48788
816.426	5397.69968
816.613	5305.91942
816.799	5456.08164
816.986	5433.14807
817.173	5397.69968
817.359	5301.74651
817.546	5654.02576
817.732	5318.43758
817.919	5660.27316
818.105	5472.75881
818.292	5568.62333
818.478	5335.12715
818.665	5631.1168
818.851	5324.69635
819.037	5504.02446
819.224	5247.49019
819.41	5239.14166
819.597	4955.07031
819.783	5431.06306
819.969	5141.01849
820.156	5237.05447
820.342	4934.16583
820.528	5113.86896
820.714	4921.62204
820.901	4975.97249
821.087	4867.25608
821.273	5324.69635
821.459	5289.22722
821.646	5456.08164
821.832	5151.45957
822.018	5591.54007
822.204	5074.18182
822.39	5345.55737
822.576	5145.19499
822.762	5310.09223
822.948	4988.51269
823.134	5072.0928
823.32	5026.12831
823.507	5253.75134
823.693	5057.46895
823.879	5262.09922
824.065	5021.94917
824.25	5199.48105
824.436	5032.39686
824.622	5011.5009
824.808	4756.38539
824.994	4942.5279
825.18	4628.70078
825.366	4808.69085
825.552	4572.158
825.738	4940.43741
825.923	4750.10778
826.109	5053.2905
826.295	4938.34691
826.481	5017.76993
826.667	4858.89071
826.852	4909.07742
827.038	4837.9757
827.224	4829.60906
827.409	4691.50696
827.595	4959.25093
827.781	4628.70078
827.966	4756.38539
828.152	4435.97015
828.338	4530.26399
828.523	4377.27601
828.709	4557.49611
828.894	4536.54866
829.08	4538.6435
829.266	4479.97949
829.451	4837.9757
829.637	4335.34118
829.822	4370.98634
830.008	4347.92254
830.193	4628.70078
830.378	4519.7891
830.564	4775.21699
830.749	4645.45107
830.935	4639.16988
831.12	4259.83674
831.305	4614.04311
831.491	4264.03216
831.676	4511.4088
831.861	4463.21517
832.047	4599.38433
832.232	4444.35363
832.417	4714.53082
832.602	4295.49509
832.788	4578.44133
832.973	4234.66242
833.158	4565.87446
833.343	4391.95115
833.528	4415.00992
833.714	4356.30968
833.899	4249.34782
834.084	4345.8257
834.269	4377.27601
834.454	4091.95034
834.639	4469.50196
834.824	4312.27334
835.009	4576.34691
835.194	4381.46902
835.379	4544.9279
835.564	4329.05021
835.749	4452.73676
835.934	4287.10545
836.119	4364.69647
836.304	4186.40308
836.489	4314.37053
836.674	4247.24997
836.859	4175.91043
837.044	4167.51593
837.228	4243.0542
837.413	4075.15432
837.598	4335.34118
837.783	4016.35778
837.968	4421.29822
838.152	4016.35778
838.337	4175.91043
838.522	3999.5558
838.707	4234.66242
838.891	3911.32402
839.076	4056.25719
839.261	3898.71657
839.445	4175.91043
839.63	4131.83557
839.815	3965.94792
839.999	4005.8567
840.184	4335.34118
840.368	3747.37133
840.553	4230.4664
840.737	3942.83948
840.922	4031.05843
841.106	3886.1084
841.291	4131.83557
841.475	4041.55827
841.66	4133.93458
841.844	3837.7704
842.029	4012.15741
842.213	3755.78207
842.397	3902.91914
842.582	3766.29506
842.766	3808.34213
842.951	3648.522
843.135	3907.12162
843.319	3684.2809
843.504	3764.1925
843.688	3690.59073
843.872	3789.42192
844.056	3625.38097
844.241	3879.80404
844.425	3402.27081
844.609	3566.46627
844.793	3463.33069
844.977	3627.4848
845.161	3503.32724
845.346	3852.48308
845.53	3686.3842
845.714	3755.78207
845.898	3377.00029
846.082	3629.5886
846.266	3372.7883
846.45	3562.25752
846.634	3379.10627
846.818	3555.94425
847.002	3589.61308
847.186	3608.5497
847.37	3410.69376
847.554	3581.19632
847.738	3446.48809
847.922	3526.48014
848.106	3593.82135
848.29	3642.21104
848.473	3395.95342
848.657	3539.10805
848.841	3638.00364
849.025	3583.30053
849.209	3431.74987
849.392	3555.94425
849.576	3237.96787
849.76	3421.22203
849.944	3254.82424
850.127	3377.00029
850.311	3286.42702
850.495	3419.11641
850.678	3020.84902
850.862	3427.53879
851.046	3109.4034
851.229	3187.39239
851.413	3191.60737
851.596	3200.03715
851.78	3141.02322
851.964	3275.89318
852.147	2999.76062
852.331	3022.95777
852.514	2938.59574
852.698	3200.03715
852.881	2997.6517
853.065	3326.4517
853.248	2932.26763
853.431	3031.39264
853.615	2805.67809
853.798	3193.71484
853.982	2955.47006
854.165	3141.02322
854.348	2856.32004
854.532	3134.69955
854.715	2932.26763
854.898	2812.00877
855.081	2636.81558
855.265	2845.7703
855.448	2634.70427
855.631	2845.7703
855.814	2795.12668
855.997	2913.28249
856.181	2622.03619
856.364	3065.12965
856.547	2727.58963
856.73	2940.70508
856.913	2704.37062
857.096	2776.13328
857.279	2609.36767
857.462	2902.73468
857.645	2600.92174
857.828	2788.79567
858.011	2440.4135
858.194	2936.48638
858.377	2529.12363
858.56	2858.42995
858.743	2769.8019
858.926	2913.28249
859.109	2617.8134
859.292	2691.70505
859.475	2493.21952
859.658	2786.6853
859.841	2415.0642
860.023	2609.36767
860.206	2408.72664
860.389	2668.48362
860.572	2541.79487
860.755	2537.57117
860.937	2364.36109
861.12	2499.55578
861.303	2465.76125
861.486	2592.47562
861.668	2459.42446
861.851	2554.4657
862.034	2442.52587
862.216	2512.22799
862.399	2216.44483
862.581	2284.06939
862.764	2324.21699
862.947	2391.82601
863.129	2207.99112
863.312	2186.85625
863.494	2153.03873
863.677	2271.39049
863.859	2239.69181
864.042	2119.21914
864.224	2165.72055
864.406	2279.84312
864.589	2108.65012
864.771	2330.55577
864.954	2043.118
865.136	2239.69181
865.318	1988.15042
865.501	2081.16976
865.683	2243.91842
865.865	2180.51563
866.048	1890.88984
866.23	2148.81139
866.412	2026.20538
866.594	2140.35662
866.777	1988.15042
866.959	2252.37152
867.141	1895.11881
867.323	2136.12919
867.505	1960.665
867.687	2203.76422
867.869	2125.56047
868.052	2284.06939
868.234	2009.29232
868.416	2322.10404
868.598	2074.82796
868.78	2180.51563
868.962	1945.86473
869.144	2186.85625
869.326	1882.43183
869.508	1981.80772
869.69	1810.53561
869.872	1909.92003
870.054	1869.74468
870.236	1876.08828
870.417	1833.79675
870.599	2108.65012
870.781	1950.09341
870.963	1907.80559
871.145	1922.60658
871.327	1897.23328
871.508	1751.32312
871.69	2047.34608
871.872	1742.86394
872.054	1848.59901
872.235	1831.68213
872.417	1977.57923
872.599	1797.84749
872.78	2062.14417
872.962	1810.53561
873.144	2153.03873
873.325	1935.29293
873.507	2041.00394
873.689	1799.96219
873.87	1901.46222
874.052	1713.25638
874.233	2060.03017
874.415	1884.54634
874.596	2098.0809
874.778	1704.79696
874.959	1926.83539
875.141	1747.09354
875.322	2030.43357
875.503	1893.00432
875.685	1956.43638
875.866	1681.53329
876.048	1785.15922
876.229	1702.6821
876.41	1666.72896
876.592	1656.15435
876.773	1812.65028
876.954	1529.25502
877.136	1759.78224
877.317	1522.90992
877.498	1882.43183
877.679	1734.40471
877.86	1884.54634
878.042	1715.37123
878.223	1802.07688
878.404	1880.31732
878.585	2011.40648
878.766	1668.84387
878.947	1901.46222
879.128	1852.82818
879.309	1901.46222
879.49	1827.45286
879.672	1785.15922
879.853	1660.3842
880.034	1947.97907
880.215	1687.87797
880.396	1852.82818
880.576	1768.24129
880.757	1867.63013
880.938	1730.17507
881.119	2032.54766
881.3	1647.69462
881.481	1899.34776
881.662	1626.54513
881.843	1840.14061
882.023	1899.34776
882.204	1901.46222
882.385	1747.09354
882.566	1772.4708
882.747	1675.1886
882.927	1912.03447
883.108	1618.08527
883.289	1774.58555
883.469	1666.72896
883.65	1882.43183
883.831	1637.11991
884.011	2047.34608
884.192	1808.42094
884.373	1838.02599
884.553	1603.28043
884.734	1810.53561
884.914	1501.7595
885.095	1838.02599
885.275	1484.83912
885.456	1840.14061
885.636	1675.1886
885.817	1793.61808
885.997	1764.01177
886.178	1774.58555
886.358	1565.21044
886.538	1823.22358
886.719	1852.82818
886.899	2127.67423
887.08	1816.87961
887.26	1865.51558
887.44	1715.37123
887.621	2068.48609
887.801	1723.83059
887.981	1962.7793
888.161	1848.59901
888.342	1903.57668
888.522	1649.80956
888.702	1799.96219
888.882	1776.70029
889.062	1827.45286
889.242	1732.28989
889.423	2062.14417
889.603	1797.84749
889.783	1990.26464
889.963	1759.78224
890.143	2005.06399
890.323	1696.33749
890.503	1901.46222
890.683	1645.57968
890.863	1744.97874
891.043	1685.76308
891.223	1952.20774
891.403	1719.60092
891.583	2064.25815
891.763	1780.92976
891.943	1899.34776
892.122	1687.87797
892.302	1983.92196
892.482	1607.51039
892.662	1740.74914
892.842	1700.56723
893.022	1778.81503
893.201	1730.17507
893.381	1673.07369
893.561	1772.4708
893.741	1725.94542
893.92	1643.46474
894.1	1702.6821
894.28	1541.94521
894.459	1681.53329
894.639	1603.28043
894.819	1711.14153
894.998	1641.3498
895.178	1649.80956
895.357	1450.9983
895.537	1603.28043
895.716	1440.42304
895.896	1654.03943
896.075	1472.14882
896.255	1580.0155
896.434	1290.25642
896.614	1590.5905
896.793	1326.2112
896.973	1550.40531
897.152	1349.47632
897.331	1514.44976
897.511	1455.22841
897.69	1611.74035
897.87	1357.93641
898.049	1508.10463
898.228	1393.89199
898.407	1565.21044
898.587	1171.82237
898.766	1438.30799
898.945	1256.4172
899.124	1400.23711
899.304	1332.55621
899.483	1330.44121
899.662	1218.34889
899.841	1309.29123
900.02	1214.11914
900.199	1470.03377
900.378	1324.09619
900.557	1453.11335
900.737	1256.4172
900.916	1531.37006
901.095	1302.94628
901.274	1279.6816
901.453	1040.71324
901.632	1222.57865
901.811	1104.15084
901.989	1214.11914
902.168	1146.44503
902.347	1231.03822
902.526	1089.34831
902.705	1247.95749
902.884	1038.59873
903.063	1152.78931
903.242	1032.25526
903.42	1129.52714
903.599	977.28082
903.778	1118.9536
903.957	1078.77523
904.135	1099.92152
904.314	977.28082
904.493	1099.92152
904.672	1002.65311
904.85	1078.77523
905.029	968.8236
905.207	1154.90408
905.386	1013.22517
905.565	977.28082
905.743	977.28082
905.922	966.70931
906.1	970.93789
906.279	956.13798
906.457	782.79623
906.636	896.94188
906.814	799.70503
906.993	803.93232
907.171	751.09394
907.35	884.25779
907.528	757.43422
907.707	784.9098
907.885	605.29508
908.063	710.94105
908.242	784.9098
908.42	818.72815
908.598	598.95729
908.777	759.54766
908.955	696.14886
909.133	636.98573
909.311	571.49488
909.49	620.0837
909.668	658.11436
909.846	858.89049
910.024	742.64038
910.202	738.41367
910.38	677.13115
910.559	719.39397
910.737	617.971
910.915	647.5499
911.093	689.80952
911.271	647.5499
911.449	624.30913
911.627	736.30033
911.805	634.87293
911.983	668.67912
912.161	748.98054
912.339	763.77459
912.517	672.90511
912.695	738.41367
912.872	740.52702
913.05	829.29687
913.228	539.8103
913.406	816.61443
913.584	677.13115
913.762	765.88806
913.939	666.56615
914.117	918.08266
914.295	573.6073
914.473	765.88806
914.65	719.39397
914.828	738.41367
915.006	537.6981
915.184	706.71465
915.361	503.90488
915.539	630.64738
915.716	520.80104
915.894	751.09394
916.072	590.50708
916.249	755.32078
916.427	592.61962
916.604	664.45318
916.782	563.04536
916.959	710.94105
917.137	495.45715
917.314	630.64738
917.492	554.59606
917.669	590.50708
917.847	550.37148
918.024	647.5499
918.201	436.32974
918.379	573.6073
918.556	567.2701
918.733	687.69643
918.911	622.19641
919.088	689.80952
919.265	596.84472
919.442	529.24946
919.62	468.00366
919.797	495.45715
919.974	436.32974
920.151	539.8103
920.328	461.6686
920.506	560.93302
920.683	529.24946
920.86	577.83217
921.037	372.99264
921.214	550.37148
921.391	482.78599
921.568	594.73216
921.745	444.77578
921.922	474.33885
922.099	459.55694
922.276	482.78599
922.453	432.10681
922.63	465.89196
922.807	448.99889
922.984	495.45715
923.161	427.88395
923.338	628.53462
923.514	377.21465
923.691	415.21575
923.868	410.99314
924.045	385.65888
924.222	366.65975
924.399	410.99314
924.575	389.88109
924.752	457.4453
924.929	351.8836
925.105	487.00965
925.282	318.11274
925.459	410.99314
925.635	360.32701
925.812	343.44047
925.989	343.44047
926.165	343.44047
926.342	261.13489
926.518	343.44047
926.695	307.56028
926.871	313.8917
927.048	301.22902
927.224	297.00827
927.401	309.67074
927.577	284.34646
927.754	284.34646
927.93	320.22329
928.107	309.67074
928.283	385.65888
928.459	307.56028
928.636	372.99264
928.812	322.33385
928.988	337.1083
929.165	229.48645
929.341	328.66565
929.517	233.70599
929.693	309.67074
929.87	292.78759
930.046	254.80485
930.222	174.63967
930.398	305.44984
930.574	218.93794
930.751	259.02486
930.927	280.12601
931.103	328.66565
931.279	286.45672
931.455	280.12601
931.631	174.63967
931.807	227.37671
931.983	237.92561
932.159	269.5752
932.335	178.85816
932.511	115.58952
932.687	195.73297
932.863	280.12601
933.039	126.13296
933.215	259.02486
933.391	168.31207
933.566	246.36508
933.742	199.95188
933.918	197.84241
934.094	119.80683
934.27	199.95188
934.445	191.51415
934.621	178.85816
934.797	193.62355
934.973	212.60907
935.148	159.87558
935.324	199.95188
935.5	115.58952
935.675	121.91552
935.851	140.89469
936.027	98.72115
936.202	94.50427
936.378	166.20292
936.553	46.01671
936.729	140.89469
936.904	73.42125
937.08	94.50427
937.255	90.28749
937.431	115.58952
937.606	60.77252
937.782	92.39587
937.957	83.96248
938.133	119.80683
938.308	77.63768
938.483	117.69816
938.659	124.02423
938.834	79.74592
939.009	92.39587
939.185	138.7858
939.36	83.96248
939.535	39.69314
939.71	98.72115
939.886	39.69314
940.061	107.15516
940.236	107.15516
940.411	60.77252
940.586	86.0708
940.761	22.83131
940.937	22.83131
941.112	124.02423
941.287	105.04662
941.462	50.23254
941.637	33.36978
941.812	73.42125
941.987	56.55646
942.162	-17.20943
942.337	43.90883
942.512	-2.45859
942.687	86.0708
942.862	20.72369
943.037	5.97099
943.212	46.01671
943.386	-34.06606
943.561	-19.31659
943.736	14.40096
943.911	-0.35123
944.086	54.44846
944.26	48.12461
944.435	79.74592
944.61	-6.67324
944.785	145.11251
944.959	24.93896
945.134	41.80097
945.309	-8.78052
945.483	52.34049
945.658	60.77252
945.833	77.63768
946.007	39.69314
946.182	98.72115
946.357	37.58533
946.531	5.97099
946.706	48.12461
946.88	90.28749
947.055	-23.53085
947.229	31.26204
947.404	41.80097
947.578	58.66448
947.752	-10.88778
947.927	100.82962
948.101	16.50851
948.276	14.40096
948.45	-46.70749
948.624	43.90883
948.799	22.83131
948.973	-42.49378
949.147	31.26204
949.321	58.66448
949.496	52.34049
949.67	58.66448
949.844	83.96248
950.018	39.69314
950.193	77.63768
950.367	10.18593
950.541	33.36978
950.715	-27.74501
950.889	54.44846
951.063	-48.81431
951.237	41.80097
951.411	27.04663
951.585	-4.56592
951.759	31.26204
951.933	8.07845
952.107	83.96248
952.281	31.26204
952.455	90.28749
952.629	46.01671
952.803	39.69314
952.977	56.55646
953.151	64.98867
953.325	22.83131
953.499	10.18593
953.672	16.50851
953.846	29.15432
954.02	92.39587
954.194	-36.17303
954.368	-12.99502
954.541	-19.31659
954.715	60.77252
954.889	64.98867
955.062	73.42125
955.236	75.52945
955.41	86.0708
955.583	18.61609
955.757	27.04663
955.93	39.69314
956.104	48.12461
956.278	-10.88778
956.451	48.12461
956.625	79.74592
956.798	100.82962
956.972	16.50851
957.145	56.55646
957.319	22.83131
957.492	5.97099
957.665	64.98867
957.839	14.40096
958.012	67.09678
958.185	14.40096
958.359	50.23254
958.532	43.90883
958.705	83.96248
958.879	73.42125
959.052	81.85419
959.225	77.63768
959.398	-10.88778
959.572	-17.20943
959.745	46.01671
959.918	102.93811
960.091	29.15432
960.264	31.26204
960.438	124.02423
960.611	14.40096
960.784	41.80097
960.957	117.69816
961.13	29.15432
961.303	75.52945
961.476	22.83131
961.649	64.98867
961.822	-23.53085
961.995	14.40096
962.168	41.80097
962.341	81.85419
962.514	33.36978
962.686	90.28749
962.859	14.40096
963.032	41.80097
963.205	-36.17303
963.378	69.20492
963.551	-2.45859
963.723	77.63768
963.896	48.12461
964.069	31.26204
964.242	56.55646
964.414	90.28749
964.587	16.50851
964.76	56.55646
964.932	-55.13461
965.105	-2.45859
965.278	14.40096
965.45	50.23254
965.623	58.66448
965.795	132.45929
965.968	67.09678
966.14	62.88058
966.313	52.34049
966.485	31.26204
966.658	39.69314
966.83	113.4809
967.003	-19.31659
967.175	90.28749
967.348	-29.85205
967.52	81.85419
967.692	18.61609
967.865	75.52945
968.037	73.42125
968.209	22.83131
968.382	14.40096
968.554	43.90883
968.726	22.83131
968.898	33.36978
969.071	35.47754
969.243	-19.31659
969.415	-27.74501
969.587	43.90883
969.759	64.98867
969.932	31.26204
970.104	12.29343
970.276	24.93896
970.448	71.31307
970.62	67.09678
970.792	77.63768
970.964	37.58533
971.136	64.98867
971.308	69.20492
971.48	46.01671
971.652	-10.88778
971.824	14.40096
971.996	-10.88778
972.168	-10.88778
972.339	48.12461
972.511	-8.78052
972.683	58.66448
972.855	14.40096
973.027	1.75615
973.199	60.77252
973.37	22.83131
973.542	24.93896
973.714	27.04663
973.886	-61.45468
974.057	1.75615
974.229	24.93896
974.401	-25.63794
974.572	58.66448
974.744	140.89469
974.915	43.90883
975.087	41.80097
975.259	5.97099
975.43	50.23254
975.602	10.18593
975.773	20.72369
975.945	10.18593
976.116	31.26204
976.288	60.77252
976.459	12.29343
976.63	64.98867
976.802	-19.31659
976.973	81.85419
977.145	39.69314
977.316	39.69314
977.487	-21.42373
977.659	35.47754
977.83	115.58952
978.001	-19.31659
978.172	22.83131
978.344	56.55646
978.515	-27.74501
978.686	35.47754
978.857	14.40096
979.028	-12.99502
979.2	20.72369
979.371	-19.31659
979.542	-31.95906
979.713	-109.90091
979.884	88.17913
980.055	64.98867
980.226	8.07845
980.397	-15.10224
980.568	94.50427
980.739	39.69314
980.91	-8.78052
981.081	-38.27997
981.252	-6.67324
981.423	-0.35123
981.594	115.58952
981.765	5.97099
981.936	-31.95906
982.106	14.40096
982.277	52.34049
982.448	27.04663
982.619	64.98867
982.79	39.69314
982.96	24.93896
983.131	5.97099
983.302	113.4809
983.472	10.18593
983.643	16.50851
983.814	10.18593
983.984	-6.67324
984.155	39.69314
984.326	-10.88778
984.496	1.75615
984.667	22.83131
984.837	12.29343
985.008	18.61609
985.178	18.61609
985.349	-38.27997
985.519	5.97099
985.69	58.66448
985.86	37.58533
986.031	-61.45468
986.201	-23.53085
986.371	-59.34802
986.542	-10.88778
986.712	-63.56133
986.882	33.36978
987.053	-17.20943
987.223	29.15432
987.393	-10.88778
987.563	27.04663
987.734	48.12461
987.904	22.83131
988.074	-34.06606
988.244	-57.24133
988.414	1.75615
988.585	-57.24133
988.755	-0.35123
988.925	5.97099
989.095	16.50851
989.265	31.26204
989.435	29.15432
989.605	-27.74501
989.775	39.69314
989.945	18.61609
990.115	50.23254
990.285	16.50851
990.455	-8.78052
990.625	-15.10224
990.795	1.75615
990.965	50.23254
991.134	22.83131
991.304	43.90883
991.474	-48.81431
991.644	20.72369
991.814	81.85419
991.984	1.75615
992.153	-23.53085
992.323	-8.78052
992.493	14.40096
992.662	37.58533
992.832	22.83131
993.002	31.26204
993.171	35.47754
993.341	24.93896
993.511	-12.99502
993.68	39.69314
993.85	14.40096
994.019	60.77252
994.189	-44.60065
994.358	8.07845
994.528	75.52945
994.697	-42.49378
994.867	5.97099
995.036	-8.78052
995.206	-27.74501
995.375	-25.63794
995.544	-36.17303
995.714	-86.73269
995.883	16.50851
996.052	39.69314
996.222	-71.98763
996.391	-2.45859
996.56	58.66448
996.73	20.72369
996.899	71.31307
997.068	-23.53085
997.237	1.75615
997.406	-57.24133
997.576	-61.45468
997.745	-4.56592
997.914	22.83131
998.083	-0.35123
998.252	-15.10224
998.421	14.40096
998.59	-29.85205
998.759	14.40096
998.928	-10.88778
999.097	56.55646
999.266	58.66448
999.435	39.69314
999.604	20.72369
999.773	62.88058
999.942	-34.06606
1000.111	8.07845
1000.28	43.90883
1000.448	-48.81431
1000.617	39.69314
1000.786	75.52945
1000.955	56.55646
1001.124	-4.56592
1001.292	10.18593
1001.461	31.26204
1001.63	-36.17303
1001.798	-27.74501
1001.967	56.55646
1002.136	16.50851
1002.304	-10.88778
1002.473	18.61609
1002.642	56.55646
1002.81	5.97099
1002.979	8.07845
1003.147	-2.45859
1003.316	41.80097
1003.484	79.74592
1003.653	-2.45859
1003.821	-25.63794
1003.99	20.72369
1004.158	39.69314
1004.327	69.20492
1004.495	-2.45859
1004.663	-19.31659
1004.832	39.69314
1005	-6.67324
1005.168	-74.09415
1005.337	-40.38689
1005.505	-27.74501
1005.673	-44.60065
1005.842	41.80097
1006.01	-6.67324
1006.178	39.69314
1006.346	39.69314
1006.514	27.04663
1006.683	48.12461
1006.851	-15.10224
1007.019	-27.74501
1007.187	-57.24133
1007.355	1.75615
1007.523	-2.45859
1007.691	-19.31659
1007.859	-25.63794
1008.027	60.77252
1008.195	8.07845
1008.363	-50.9211
1008.531	-40.38689
1008.699	16.50851
1008.867	-36.17303
1009.035	52.34049
1009.203	27.04663
1009.37	-86.73269
1009.538	-86.73269
1009.706	-0.35123
1009.874	56.55646
1010.042	-10.88778
1010.209	-17.20943
1010.377	-38.27997
1010.545	-15.10224
1010.713	31.26204
1010.88	73.42125
1011.048	22.83131
1011.216	35.47754
1011.383	48.12461
1011.551	10.18593
1011.718	33.36978
1011.886	67.09678
1012.054	-48.81431
1012.221	-59.34802
1012.389	-10.88778
1012.556	-15.10224
1012.724	-53.02787
1012.891	5.97099
1013.058	24.93896
1013.226	48.12461
1013.393	22.83131
1013.561	-0.35123
1013.728	-2.45859
1013.895	54.44846
1014.063	-19.31659
1014.23	-59.34802
1014.397	5.97099
1014.565	27.04663
1014.732	-78.3071
1014.899	-25.63794
1015.066	-57.24133
1015.233	109.26371
1015.401	111.37229
1015.568	24.93896
1015.735	-57.24133
1015.902	-2.45859
1016.069	73.42125
1016.236	-8.78052
1016.403	-25.63794
1016.57	18.61609
1016.737	-59.34802
1016.904	-21.42373
1017.071	5.97099
1017.238	-2.45859
1017.405	37.58533
1017.572	14.40096
1017.739	50.23254
1017.906	-10.88778
1018.073	-12.99502
1018.24	3.86356
1018.407	60.77252
1018.573	18.61609
1018.74	-80.41353
1018.907	-61.45468
1019.074	-38.27997
1019.241	-2.45859
1019.407	-25.63794
1019.574	-8.78052
1019.741	14.40096
1019.907	-40.38689
1020.074	37.58533
1020.241	1.75615
1020.407	-53.02787
1020.574	-10.88778
1020.74	-34.06606
1020.907	-36.17303
1021.073	-48.81431
1021.24	31.26204
1021.406	20.72369
1021.573	-61.45468
1021.739	3.86356
1021.906	-46.70749
1022.072	39.69314
1022.239	73.42125
1022.405	27.04663
1022.571	3.86356
1022.738	-97.26409
1022.904	33.36978
1023.07	-42.49378
1023.237	5.97099
1023.403	-2.45859
1023.569	-78.3071
1023.735	-31.95906
1023.902	-69.8811
1024.068	43.90883
1024.234	12.29343
1024.4	31.26204
1024.566	-46.70749
1024.732	41.80097
1024.898	-12.99502
1025.065	8.07845
1025.231	-53.02787
1025.397	64.98867
1025.563	-2.45859
1025.729	-86.73269
1025.895	-53.02787
1026.061	86.0708
1026.227	-46.70749
1026.392	-44.60065
1026.558	50.23254
1026.724	-25.63794
1026.89	31.26204
1027.056	48.12461
1027.222	-40.38689
1027.388	43.90883
1027.553	31.26204
1027.719	-15.10224
1027.885	18.61609
1028.051	58.66448
1028.216	20.72369
1028.382	41.80097
1028.548	149.33043
1028.713	5.97099
1028.879	27.04663
1029.045	41.80097
1029.21	22.83131
1029.376	-34.06606
1029.541	-36.17303
1029.707	-19.31659
1029.873	-2.45859
1030.038	10.18593
1030.204	22.83131
1030.369	1.75615
1030.534	-2.45859
1030.7	107.15516
1030.865	10.18593
1031.031	14.40096
1031.196	77.63768
1031.361	-36.17303
1031.527	-2.45859
1031.692	1.75615
1031.857	75.52945
1032.023	-23.53085
1032.188	41.80097
1032.353	-15.10224
1032.518	41.80097
1032.684	-76.20064
1032.849	-0.35123
1033.014	-44.60065
1033.179	29.15432
1033.344	-10.88778
1033.509	22.83131
1033.674	-0.35123
1033.839	16.50851
1034.004	67.09678
1034.17	41.80097
1034.335	-42.49378
1034.5	43.90883
1034.664	-6.67324
1034.829	-15.10224
1034.994	-25.63794
1035.159	56.55646
1035.324	43.90883
1035.489	50.23254
1035.654	-12.99502
1035.819	39.69314
1035.984	81.85419
1036.148	105.04662
1036.313	52.34049
1036.478	18.61609
1036.643	-2.45859
1036.807	-12.99502
1036.972	-74.09415
1037.137	56.55646
1037.301	-0.35123
1037.466	-17.20943
1037.631	-42.49378
1037.795	-59.34802
1037.96	29.15432
1038.124	-19.31659
1038.289	-12.99502
1038.454	-36.17303
1038.618	62.88058
1038.783	22.83131
1038.947	-40.38689
1039.111	8.07845
1039.276	8.07845
1039.44	14.40096
1039.605	-36.17303
1039.769	27.04663
1039.933	39.69314
1040.098	-2.45859
1040.262	24.93896
1040.426	-44.60065
1040.591	-19.31659
1040.755	5.97099
1040.919	-19.31659
1041.083	22.83131
1041.248	-2.45859
1041.412	5.97099
1041.576	-46.70749
1041.74	-53.02787
1041.904	-31.95906
1042.068	-44.60065
1042.232	-21.42373
1042.397	-10.88778
1042.561	-27.74501
1042.725	-2.45859
1042.889	31.26204
1043.053	5.97099
1043.217	-50.9211
1043.381	-4.56592
1043.544	1.75615
1043.708	-38.27997
1043.872	14.40096
1044.036	37.58533
1044.2	16.50851
1044.364	111.37229
1044.528	-12.99502
1044.691	48.12461
1044.855	27.04663
1045.019	56.55646
1045.183	22.83131
1045.346	14.40096
1045.51	1.75615
1045.674	-27.74501
1045.837	-8.78052
1046.001	-31.95906
1046.165	46.01671
1046.328	1.75615
1046.492	37.58533
1046.655	-12.99502
1046.819	86.0708
1046.983	43.90883
1047.146	14.40096
1047.31	-53.02787
1047.473	31.26204
1047.636	-4.56592
1047.8	-12.99502
1047.963	64.98867
1048.127	14.40096
1048.29	22.83131
