Data from absorb_only_2.23.25_USB4F045381__51__0156.txt Node

Date: Sun Feb 23 19:22:09 EST 2025
User: ssocol
Spectrometer: USB4F04538
Trigger mode: 4
Integration Time (sec): 2.600000E-3
Scans to average: 1
Electric dark correction enabled: true
Nonlinearity correction enabled: true
Boxcar width: 0
XAxis mode: Wavelengths
Number of Pixels in Spectrum: 3648
>>>>>Begin Spectral Data<<<<<
345.52	-1.05368
345.736	-1.05368
345.952	-1.05368
346.168	-1.05368
346.384	-13.69743
346.6	-9.48295
346.816	-13.69743
347.032	7.37596
347.248	36.88273
347.464	-64.26353
347.68	24.2364
347.896	24.2364
348.112	9.48343
348.328	20.02115
348.544	-26.3403
348.76	-26.3403
348.975	17.91356
349.191	-1.05368
349.407	24.2364
349.623	17.91356
349.839	9.48343
350.055	15.80599
350.27	5.26851
350.486	32.66719
350.702	-74.79631
350.918	41.09836
351.133	-13.69743
351.349	45.31408
351.565	7.37596
351.781	43.20621
351.996	9.48343
352.212	-9.48295
352.428	-9.48295
352.644	32.66719
352.859	41.09836
353.075	49.5299
353.291	-5.26836
353.506	-45.30293
353.722	26.34407
353.938	-32.6614
354.153	22.12877
354.369	34.77495
354.584	-9.48295
354.8	9.48343
355.016	-7.37567
355.231	41.09836
355.447	49.5299
355.662	32.66719
355.878	60.06984
356.093	74.82672
356.309	3.16109
356.524	-9.48295
356.74	-24.23321
356.955	-57.94356
357.171	-9.48295
357.386	-5.26836
357.602	112.77803
357.817	22.12877
358.033	68.5022
358.248	68.5022
358.464	-3.16104
358.679	-24.23321
358.895	43.20621
359.11	5.26851
359.325	11.59093
359.541	-34.76838
359.756	36.88273
359.972	-51.62336
360.187	-17.91182
360.402	17.91356
360.618	38.99053
360.833	32.66719
361.048	-9.48295
361.264	36.88273
361.479	7.37596
361.694	-13.69743
361.909	17.91356
362.125	15.80599
362.34	89.5847
362.555	9.48343
362.77	15.80599
362.986	60.06984
363.201	76.93493
363.416	24.2364
363.631	-38.98228
363.847	41.09836
364.062	-9.48295
364.277	-5.26836
364.492	110.66943
364.707	-15.80464
364.922	45.31408
365.138	7.37596
365.353	17.91356
365.568	17.91356
365.783	3.16109
365.998	15.80599
366.213	15.80599
366.428	41.09836
366.643	-15.80464
366.858	-13.69743
367.073	30.55946
367.288	-60.05024
367.503	38.99053
367.718	-7.37567
367.933	-32.6614
368.148	-5.26836
368.363	60.06984
368.578	9.48343
368.793	34.77495
369.008	7.37596
369.223	17.91356
369.438	53.7458
369.653	-47.40976
369.868	-30.55439
370.083	-36.87534
370.298	-9.48295
370.513	22.12877
370.728	-57.94356
370.943	53.7458
371.157	-85.32845
371.372	36.88273
371.587	9.48343
371.802	24.2364
372.017	20.02115
372.232	-17.91182
372.446	-15.80464
372.661	60.06984
372.876	15.80599
373.091	-1.05368
373.306	-24.23321
373.52	74.82672
373.735	-11.5902
373.95	83.25972
374.165	1.05369
374.379	-26.3403
374.594	-5.26836
374.809	20.02115
375.023	66.39408
375.238	79.04317
375.453	17.91356
375.667	-43.19607
375.882	20.02115
376.097	32.66719
376.311	49.5299
376.526	38.99053
376.741	20.02115
376.955	60.06984
377.17	20.02115
377.384	66.39408
377.599	43.20621
377.813	-51.62336
378.028	-24.23321
378.242	-1.05368
378.457	83.25972
378.672	53.7458
378.886	-5.26836
379.101	81.15143
379.315	17.91356
379.53	133.86516
379.744	49.5299
379.958	7.37596
380.173	-5.26836
380.387	11.59093
380.602	22.12877
380.816	-1.05368
381.031	-26.3403
381.245	1.05369
381.459	62.17789
381.674	-1.05368
381.888	-7.37567
382.103	22.12877
382.317	72.71852
382.531	49.5299
382.746	60.06984
382.96	51.63784
383.174	110.66943
383.388	49.5299
383.603	26.34407
383.817	53.7458
384.031	64.28597
384.246	43.20621
384.46	22.12877
384.674	28.45175
384.888	11.59093
385.103	60.06984
385.317	-17.91182
385.531	100.12679
385.745	-17.91182
385.959	24.2364
386.174	1.05369
386.388	-1.05368
386.602	1.05369
386.816	-24.23321
387.03	32.66719
387.244	81.15143
387.458	-9.48295
387.672	43.20621
387.887	-49.51657
388.101	57.9618
388.315	91.69308
388.529	43.20621
388.743	15.80599
388.957	119.10394
389.171	68.5022
389.385	5.26851
389.599	28.45175
389.813	-9.48295
390.027	28.45175
390.241	1.05369
390.455	87.47635
390.669	15.80599
390.883	1.05369
391.097	32.66719
391.311	-26.3403
391.525	-36.87534
391.738	36.88273
391.952	-1.05368
392.166	5.26851
392.38	41.09836
392.594	-5.26836
392.808	-17.91182
393.022	-26.3403
393.236	-30.55439
393.449	-13.69743
393.663	-3.16104
393.877	-34.76838
394.091	51.63784
394.305	26.34407
394.518	47.42198
394.732	-64.26353
394.946	49.5299
395.16	20.02115
395.373	32.66719
395.587	51.63784
395.801	-20.01897
396.015	15.80599
396.228	43.20621
396.442	7.37596
396.656	49.5299
396.869	-17.91182
397.083	55.85379
397.297	-5.26836
397.51	-3.16104
397.724	1.05369
397.938	68.5022
398.151	125.43005
398.365	-5.26836
398.578	-30.55439
398.792	1.05369
399.005	-13.69743
399.219	-22.12611
399.433	-43.19607
399.646	15.80599
399.86	5.26851
400.073	17.91356
400.287	28.45175
400.5	-26.3403
400.714	-26.3403
400.927	38.99053
401.141	22.12877
401.354	11.59093
401.567	-51.62336
401.781	85.36802
401.994	5.26851
402.208	57.9618
402.421	24.2364
402.635	83.25972
402.848	-5.26836
403.061	-51.62336
403.275	34.77495
403.488	57.9618
403.701	7.37596
403.915	43.20621
404.128	-7.37567
404.341	60.06984
404.555	43.20621
404.768	53.7458
404.981	22.12877
405.195	-17.91182
405.408	93.80147
405.621	-11.5902
405.834	-11.5902
406.048	68.5022
406.261	98.01833
406.474	49.5299
406.687	-24.23321
406.9	-22.12611
407.114	66.39408
407.327	57.9618
407.54	24.2364
407.753	57.9618
407.966	-1.05368
408.179	-7.37567
408.392	26.34407
408.605	-51.62336
408.819	34.77495
409.032	-22.12611
409.245	28.45175
409.458	57.9618
409.671	17.91356
409.884	22.12877
410.097	-5.26836
410.31	1.05369
410.523	60.06984
410.736	-15.80464
410.949	-51.62336
411.162	24.2364
411.375	17.91356
411.588	83.25972
411.801	3.16109
412.014	3.16109
412.227	43.20621
412.44	20.02115
412.653	-32.6614
412.865	28.45175
413.078	-24.23321
413.291	5.26851
413.504	47.42198
413.717	-49.51657
413.93	30.55946
414.143	-11.5902
414.356	85.36802
414.568	20.02115
414.781	68.5022
414.994	60.06984
415.207	49.5299
415.42	-41.08919
415.632	57.9618
415.845	57.9618
416.058	-9.48295
416.271	9.48343
416.483	36.88273
416.696	68.5022
416.909	45.31408
417.121	51.63784
417.334	-26.3403
417.547	32.66719
417.759	-87.4348
417.972	-9.48295
418.185	41.09836
418.397	41.09836
418.61	-24.23321
418.823	64.28597
419.035	125.43005
419.248	32.66719
419.46	36.88273
419.673	36.88273
419.885	49.5299
420.098	9.48343
420.311	51.63784
420.523	36.88273
420.736	57.9618
420.948	7.37596
421.161	70.61035
421.373	-47.40976
421.586	38.99053
421.798	-17.91182
422.01	3.16109
422.223	7.37596
422.435	45.31408
422.648	70.61035
422.86	15.80599
423.073	60.06984
423.285	-13.69743
423.497	83.25972
423.71	36.88273
423.922	28.45175
424.134	36.88273
424.347	57.9618
424.559	7.37596
424.771	41.09836
424.984	70.61035
425.196	49.5299
425.408	-24.23321
425.621	-13.69743
425.833	30.55946
426.045	24.2364
426.257	41.09836
426.47	38.99053
426.682	-22.12611
426.894	66.39408
427.106	5.26851
427.318	32.66719
427.531	57.9618
427.743	-3.16104
427.955	53.7458
428.167	24.2364
428.379	-22.12611
428.591	41.09836
428.804	7.37596
429.016	1.05369
429.228	45.31408
429.44	108.56086
429.652	28.45175
429.864	-17.91182
430.076	-9.48295
430.288	66.39408
430.5	68.5022
430.712	-38.98228
430.924	24.2364
431.136	49.5299
431.348	13.69845
431.56	68.5022
431.772	57.9618
431.984	79.04317
432.196	24.2364
432.408	-89.54113
432.62	28.45175
432.832	22.12877
433.044	30.55946
433.256	3.16109
433.468	-17.91182
433.679	-24.23321
433.891	79.04317
434.103	47.42198
434.315	41.09836
434.527	74.82672
434.739	1.05369
434.95	57.9618
435.162	-9.48295
435.374	138.08285
435.586	-41.08919
435.798	32.66719
436.009	32.66719
436.221	9.48343
436.433	-5.26836
436.645	55.85379
436.856	28.45175
437.068	15.80599
437.28	-11.5902
437.491	70.61035
437.703	-1.05368
437.915	32.66719
438.126	26.34407
438.338	20.02115
438.55	-30.55439
438.761	-13.69743
438.973	20.02115
439.184	57.9618
439.396	-7.37567
439.608	9.48343
439.819	70.61035
440.031	22.12877
440.242	20.02115
440.454	104.34378
440.665	11.59093
440.877	53.7458
441.088	9.48343
441.3	85.36802
441.511	5.26851
441.723	87.47635
441.934	34.77495
442.146	41.09836
442.357	-1.05368
442.569	32.66719
442.78	20.02115
442.991	15.80599
443.203	-9.48295
443.414	15.80599
443.626	-13.69743
443.837	167.60902
444.048	28.45175
444.26	-5.26836
444.471	13.69845
444.682	53.7458
444.894	20.02115
445.105	32.66719
445.316	15.80599
445.528	36.88273
445.739	24.2364
445.95	116.99528
446.161	24.2364
446.373	60.06984
446.584	11.59093
446.795	26.34407
447.006	28.45175
447.217	57.9618
447.429	-7.37567
447.64	95.90989
447.851	-1.05368
448.062	5.26851
448.273	-34.76838
448.484	20.02115
448.695	7.37596
448.907	15.80599
449.118	20.02115
449.329	83.25972
449.54	-26.3403
449.751	15.80599
449.962	17.91356
450.173	-11.5902
450.384	-9.48295
450.595	74.82672
450.806	20.02115
451.017	138.08285
451.228	7.37596
451.439	34.77495
451.65	57.9618
451.861	53.7458
452.072	79.04317
452.283	26.34407
452.494	24.2364
452.705	70.61035
452.915	38.99053
453.126	34.77495
453.337	34.77495
453.548	-57.94356
453.759	-41.08919
453.97	66.39408
454.181	106.45231
454.391	68.5022
454.602	60.06984
454.813	45.31408
455.024	66.39408
455.235	3.16109
455.445	57.9618
455.656	-13.69743
455.867	-1.05368
456.078	49.5299
456.288	20.02115
456.499	-11.5902
456.71	87.47635
456.921	28.45175
457.131	15.80599
457.342	83.25972
457.553	7.37596
457.763	41.09836
457.974	55.85379
458.184	45.31408
458.395	38.99053
458.606	62.17789
458.816	51.63784
459.027	150.73642
459.237	79.04317
459.448	9.48343
459.659	30.55946
459.869	34.77495
460.08	36.88273
460.29	38.99053
460.501	-9.48295
460.711	47.42198
460.922	85.36802
461.132	49.5299
461.343	38.99053
461.553	26.34407
461.764	60.06984
461.974	98.01833
462.184	49.5299
462.395	-17.91182
462.605	74.82672
462.816	-1.05368
463.026	62.17789
463.236	76.93493
463.447	-7.37567
463.657	41.09836
463.867	123.32132
464.078	32.66719
464.288	87.47635
464.498	-17.91182
464.709	3.16109
464.919	93.80147
465.129	32.66719
465.339	11.59093
465.55	-64.26353
465.76	-5.26836
465.97	26.34407
466.18	60.06984
466.391	64.28597
466.601	15.80599
466.811	9.48343
467.021	76.93493
467.231	51.63784
467.441	41.09836
467.651	36.88273
467.862	129.64756
468.072	53.7458
468.282	11.59093
468.492	98.01833
468.702	47.42198
468.912	3.16109
469.122	62.17789
469.332	87.47635
469.542	68.5022
469.752	66.39408
469.962	93.80147
470.172	17.91356
470.382	32.66719
470.592	70.61035
470.802	85.36802
471.012	93.80147
471.222	5.26851
471.432	60.06984
471.642	-24.23321
471.852	108.56086
472.062	57.9618
472.272	47.42198
472.482	87.47635
472.691	127.53879
472.901	-28.44736
473.111	41.09836
473.321	66.39408
473.531	167.60902
473.741	47.42198
473.95	51.63784
474.16	72.71852
474.37	110.66943
474.58	79.04317
474.79	100.12679
474.999	47.42198
475.209	91.69308
475.419	64.28597
475.628	47.42198
475.838	154.95444
476.048	125.43005
476.258	125.43005
476.467	45.31408
476.677	49.5299
476.886	205.57721
477.096	108.56086
477.306	121.21262
477.515	76.93493
477.725	104.34378
477.935	100.12679
478.144	41.09836
478.354	152.84542
478.563	119.10394
478.773	154.95444
478.982	127.53879
479.192	157.06349
479.401	66.39408
479.611	154.95444
479.82	142.30062
480.03	157.06349
480.239	135.97399
480.449	87.47635
480.658	201.3582
480.868	142.30062
481.077	129.64756
481.287	127.53879
481.496	148.62743
481.705	197.13926
481.915	131.75635
482.124	140.19172
482.333	214.01547
482.543	161.28164
482.752	159.17255
482.961	161.28164
483.171	237.22233
483.38	220.34438
483.589	169.71819
483.799	169.71819
484.008	154.95444
484.217	235.11252
484.426	201.3582
484.636	226.67346
484.845	165.49987
485.054	161.28164
485.263	245.66178
485.472	270.98194
485.682	241.44201
485.891	218.23472
486.1	186.59229
486.309	313.1882
486.518	355.40166
486.727	228.7832
486.936	264.65165
487.146	254.10153
487.355	268.87183
487.564	222.45405
487.773	285.7533
487.982	270.98194
488.191	247.77168
488.4	247.77168
488.609	256.21151
488.818	304.74637
489.027	336.40473
489.236	277.31241
489.445	251.99156
489.654	243.55189
489.863	370.17801
490.072	287.86356
490.281	355.40166
490.49	327.96211
490.698	355.40166
490.907	344.84764
491.116	351.18
491.325	387.06628
491.534	437.73739
491.743	378.62201
491.952	475.74669
492.16	463.07638
492.369	446.18347
492.578	323.7409
492.787	448.29503
492.996	456.74142
493.204	435.62591
493.413	429.29157
493.622	498.97701
493.831	448.29503
494.039	433.51445
494.248	479.97025
494.457	524.32118
494.665	441.9604
494.874	435.62591
495.083	454.6298
495.291	589.80291
495.5	572.90316
495.709	522.20909
495.917	547.55513
496.126	627.83037
496.335	547.55513
496.543	589.80291
496.752	556.00426
496.96	479.97025
497.169	581.35293
497.377	744.0493
497.586	539.10623
497.794	670.08778
498.003	572.90316
498.211	566.56597
498.42	600.36568
498.628	543.33065
498.837	556.00426
499.045	585.57789
499.254	665.86183
499.462	638.39427
499.671	564.4536
499.879	703.89708
500.087	610.92877
500.296	651.07135
500.504	623.60489
500.713	733.48255
500.921	686.99207
501.129	767.29705
501.338	733.48255
501.546	758.84318
501.754	735.59588
501.962	784.20528
502.171	809.56877
502.379	769.41055
502.587	760.95663
502.795	862.41365
503.004	767.29705
503.212	887.78111
503.42	820.1373
503.628	725.02935
503.837	771.52405
504.045	815.90986
504.253	714.46308
504.461	959.66174
504.669	862.41365
504.877	906.80748
505.085	889.89512
505.294	940.63367
505.502	902.57934
505.71	944.86208
505.918	934.29112
506.126	911.03565
506.334	963.89027
506.542	1029.43596
506.75	868.75541
506.958	1090.75806
507.166	970.23313
507.374	1069.612
507.582	872.98328
507.79	1046.35194
507.998	944.86208
508.206	1097.10198
508.414	978.69036
508.622	1090.75806
508.83	1054.81006
509.037	1190.15079
509.245	1010.40594
509.453	1107.67528
509.661	1004.06271
509.869	1114.01932
510.077	1120.3634
510.285	1094.98734
510.492	1090.75806
510.7	1266.28691
510.908	1228.21836
511.116	1236.67796
511.324	1050.58099
511.531	1295.89635
511.739	974.46173
511.947	1143.62536
512.155	1126.70752
512.362	1196.49531
512.57	972.34743
512.778	1259.94209
512.985	1287.43646
513.193	1291.6664
513.401	1173.23224
513.608	1262.05702
513.816	1257.82715
514.024	1198.61016
514.231	1063.26828
514.439	1359.34643
514.646	1101.33129
514.854	1304.35626
515.061	1198.61016
515.269	1264.17196
515.477	1245.1376
515.684	1274.7467
515.892	1202.83986
516.099	1340.31125
516.307	1243.02269
516.514	1395.30201
516.722	1333.96622
516.929	1448.17823
517.136	1380.49674
517.344	1435.48792
517.551	1357.2314
517.759	1537.01014
517.966	1361.46145
518.173	1501.05449
518.381	1350.88633
518.588	1386.84185
518.796	1350.88633
519.003	1486.24916
519.21	1321.2762
519.418	1414.33742
519.625	1287.43646
519.832	1469.32875
520.039	1355.11638
520.247	1564.50544
520.454	1511.6297
520.661	1685.05812
520.868	1556.04537
521.076	1630.07006
521.283	1564.50544
521.49	1579.3105
521.697	1496.8244
521.904	1596.23048
522.112	1477.78896
522.319	1682.94322
522.526	1570.85047
522.733	1841.55035
522.94	1659.67923
523.147	1795.02789
523.354	1642.75976
523.561	1835.2065
523.768	1792.91318
523.975	1714.66628
524.183	1731.58495
524.39	1767.53638
524.597	1756.96254
524.804	1744.27381
525.011	1636.41492
525.218	1795.02789
525.425	1657.56431
525.632	1892.2995
525.838	1843.66495
526.045	1930.35937
526.252	1733.69977
526.459	1875.38344
526.666	1765.42162
526.873	1864.81073
527.08	1761.19208
527.287	1926.13059
527.494	1790.79847
527.701	2118.51455
527.907	1756.96254
528.114	1833.09188
528.321	1943.0456
528.528	2120.62833
528.735	1959.96023
528.941	1998.01672
529.148	1900.7574
529.355	2059.32551
529.562	1742.15901
529.768	2076.23725
529.975	1913.44409
530.182	2122.74211
530.388	1871.15437
530.595	1987.44568
530.802	1864.81073
531.008	2148.10683
531.215	2084.69295
531.422	2266.45972
531.628	1989.5599
531.835	2141.76576
532.042	2057.21151
532.248	2304.49579
532.455	2116.40076
532.661	2213.62694
532.868	2080.46512
533.074	2234.76072
533.281	2224.19394
533.487	2327.73854
533.694	2207.28664
533.9	2403.79736
534.107	2338.30304
534.313	2310.83484
534.52	2264.34651
534.726	2524.19581
534.933	2061.4395
535.139	2321.39972
535.345	2350.98012
535.552	2321.39972
535.758	2306.60881
535.965	2365.76959
536.171	2340.41591
536.377	2505.18792
536.584	2401.68479
536.79	2433.37218
536.996	2353.09293
537.203	2429.14734
537.409	2302.38275
537.615	2427.0349
537.821	2372.10778
538.028	2701.55609
538.234	2534.75534
538.44	2547.4264
538.646	2367.88233
538.853	2604.4409
539.059	2545.31459
539.265	2541.09093
539.471	2568.5439
539.677	2621.3324
539.883	2509.41198
540.09	2617.1096
540.296	2443.93412
540.502	2790.20257
540.708	2564.32049
540.914	2589.6602
541.12	2500.96382
541.326	2674.1132
541.532	2562.20877
541.738	2766.98791
541.944	2693.11236
542.15	2785.98185
542.356	2703.66699
542.562	2977.96768
542.768	2659.33537
542.974	2821.85625
543.18	2750.1035
543.386	2889.3736
543.592	2773.31935
543.798	2885.15419
544.004	2718.44293
544.21	3043.34162
544.415	2781.76107
544.621	2870.38581
544.827	2792.31291
545.033	2809.19515
545.239	2990.62184
545.445	2999.05765
545.651	3001.16656
545.856	2992.73082
546.062	2823.96639
546.268	3224.62249
546.474	2809.19515
546.679	2906.25066
546.885	2902.03148
547.091	2923.12678
547.297	2720.55373
547.502	3091.83529
547.708	3043.34162
547.914	2956.87622
548.119	3108.7007
548.325	3121.34909
548.531	2868.27599
548.736	3155.07531
548.942	2855.61674
549.147	2914.68883
549.353	3037.01575
549.559	3104.48444
549.764	2741.66097
549.97	3110.8088
550.175	3024.3636
550.381	3216.19349
550.586	2973.74951
550.792	3346.81276
550.997	2961.09463
551.203	3245.69384
551.408	3220.40802
551.614	3258.33585
551.819	3237.2655
552.025	3308.89778
552.23	3152.96754
552.435	3435.25905
552.641	3365.76814
552.846	3277.29772
553.052	3239.37261
553.257	3289.9382
553.462	3329.96234
553.668	3281.51128
553.873	3363.66206
554.078	3428.94249
554.283	3193.01236
554.489	3475.26017
554.694	3264.65662
554.899	3492.1008
555.105	3418.41454
555.31	3462.62894
555.515	3595.22409
555.72	3551.03381
555.925	3372.08629
556.131	3616.26418
556.336	3374.1923
556.541	3399.4631
556.746	3565.76481
556.951	3529.98796
557.156	3388.93391
557.361	3578.39066
557.567	3382.61618
557.772	3710.9212
557.977	3435.25905
558.182	3574.18212
558.387	3506.8354
558.592	3620.47197
558.797	3487.89075
559.002	3658.33872
559.207	3513.14995
559.412	3567.86917
559.617	3612.05631
559.822	3647.82079
560.027	3525.77857
560.232	3614.16026
560.437	3517.35956
560.642	3624.67969
560.847	3694.09611
561.051	3784.51642
561.256	3563.66044
561.461	3845.47716
561.666	3673.06302
561.871	3717.23029
562.076	3529.98796
562.281	3734.05369
562.485	3548.92931
562.69	3837.06977
562.895	3801.33483
563.1	3845.47716
563.305	3626.78352
563.509	3866.49425
563.714	3551.03381
563.919	3963.14703
564.123	3851.7825
564.328	3826.56009
564.533	3839.17165
564.737	3641.50981
564.942	3778.20919
565.147	3845.47716
565.351	3702.50881
565.556	3925.33145
565.761	3599.43225
565.965	3822.35608
566.17	3799.2326
566.374	4126.93779
566.579	3935.83644
566.784	4236.06108
566.988	3790.82347
567.193	4164.71769
567.397	3801.33483
567.602	4124.83871
567.806	3715.12728
568.011	4076.55404
568.215	4042.95822
568.42	4112.24377
568.624	4000.95602
568.828	4049.25784
569.033	3818.15199
569.237	4261.23523
569.442	3895.91482
569.646	3944.24006
569.85	4003.05632
570.055	4055.55727
570.259	3893.81348
570.463	4084.95216
570.668	4059.75679
570.872	4126.93779
571.076	3942.13919
571.281	4114.34298
571.485	4051.35767
571.689	4426.88765
571.893	4078.6536
572.098	4351.41723
572.302	3925.33145
572.506	4215.08027
572.71	3858.08765
572.914	4179.40804
573.119	4042.95822
573.323	4368.19087
573.527	4028.25838
573.731	4332.54522
573.935	4223.47285
574.139	4290.60117
574.343	3988.35375
574.547	4340.933
574.751	4131.13589
574.955	4384.96312
575.159	4118.54133
575.364	4278.01628
575.568	3984.15284
575.772	4311.57428
575.976	4070.25522
576.18	4313.67147
576.383	4361.90091
576.587	4581.93199
576.791	4370.28748
576.995	4487.66267
577.199	4286.4063
577.403	4378.67369
577.607	4389.15597
577.811	4466.70785
578.015	4282.21133
578.219	4353.51401
578.422	4338.83608
578.626	4573.55431
578.83	4189.90051
579.034	4391.25236
579.238	4363.99759
579.442	4498.13925
579.645	4269.62593
579.849	4454.13391
580.053	4248.64854
580.257	4623.81501
580.46	4359.80422
580.664	4588.21501
580.868	4315.76864
581.071	4464.61225
581.275	4506.52012
581.479	4533.7555
581.682	4397.5414
581.886	4646.84687
582.09	4359.80422
582.293	4686.62276
582.497	4604.96876
582.7	4609.15697
582.904	4611.25104
583.107	4793.34938
583.311	4757.78038
583.515	4856.10218
583.718	4604.96876
583.922	4604.96876
584.125	4680.3429
584.329	4458.32531
584.532	4548.41915
584.735	4646.84687
584.939	4472.99453
585.142	4642.65946
585.346	4397.5414
585.549	4768.24254
585.753	4634.28437
585.956	4805.90158
586.159	4621.72107
586.363	4801.71761
586.566	4456.22962
586.769	4841.46169
586.973	4709.6472
587.176	4831.00352
587.379	4674.06283
587.582	4906.28962
587.786	4680.3429
587.989	4826.82009
588.192	4784.9808
588.395	4964.82494
588.599	4738.94709
588.802	4902.10784
589.005	4732.66891
589.208	4607.06287
589.411	4736.85438
589.615	4839.37011
589.818	4987.81603
590.021	5165.38011
590.224	4759.87286
590.427	5092.28577
590.63	4743.13242
590.833	4864.46767
591.036	4849.82782
591.239	4891.65298
591.442	4805.90158
591.645	4856.10218
591.848	4881.19755
592.051	4998.2656
592.254	4887.47087
592.457	5165.38011
592.66	4966.91516
592.863	5119.43842
593.066	5040.05813
593.269	5081.8414
593.472	4994.08584
593.675	5044.23687
593.878	5165.38011
594.081	5263.49049
594.284	4895.83499
594.486	5242.62026
594.689	5138.2341
594.892	5213.39801
595.095	5106.90691
595.298	5317.74215
595.5	4998.2656
595.703	5349.03398
595.906	5257.22967
596.109	5303.13749
596.311	5086.01922
596.514	5121.52692
596.717	5161.20405
596.92	5284.35839
597.122	5148.67534
597.325	5307.31037
597.528	5031.70036
597.73	5476.23303
597.933	5131.96908
598.136	5453.30196
598.338	5242.62026
598.541	5261.40357
598.743	5240.53311
598.946	5315.65584
599.148	5044.23687
599.351	5278.09826
599.554	5271.83793
599.756	5324.00094
599.959	5409.51656
600.161	5324.00094
600.363	5301.05102
600.566	5407.43129
600.768	5215.48547
600.971	5365.7208
601.173	5282.2717
601.376	5401.17531
601.578	5444.96269
601.78	5624.17413
601.983	5357.37758
602.185	5440.79291
602.388	5517.9186
602.59	5576.26256
602.792	5440.79291
602.995	5669.99092
603.197	5417.85744
603.399	5580.42928
603.601	5401.17531
603.804	5653.33159
604.006	5432.45307
604.208	5428.283
604.41	5349.03398
604.613	5692.89503
604.815	5424.11285
605.017	5690.81296
605.219	5242.62026
605.421	5565.84535
605.623	5336.51788
605.826	5632.50531
606.028	5424.11285
606.23	5432.45307
606.432	5261.40357
606.634	5669.99092
606.836	5515.83454
607.038	5709.55077
607.24	5684.56659
607.442	5753.26491
607.644	5507.49809
607.846	5686.64874
608.048	5357.37758
608.25	5667.90859
608.452	5411.60182
608.654	5659.57902
608.856	5186.25897
609.058	5492.90839
609.26	5565.84535
609.462	5647.08395
609.664	5376.1493
609.866	5601.26146
610.067	5536.67403
610.269	5640.8361
610.471	5444.96269
610.673	5615.84258
610.875	5382.40612
611.077	5595.01205
611.278	5428.283
611.48	5549.17659
611.682	5461.64086
611.884	5776.15864
612.085	5590.84566
612.287	5794.88775
612.489	5651.24907
612.69	5757.42762
612.892	5599.17835
613.094	5790.72589
613.295	5528.33852
613.497	5674.15552
613.699	5392.83369
613.9	5824.01811
614.102	5638.75344
614.304	5622.09128
614.505	5459.55617
614.707	5592.92887
614.908	5528.33852
615.11	5751.18352
615.311	5497.07699
615.513	5599.17835
615.714	5513.75046
615.916	5751.18352
616.117	5628.33977
616.319	5717.87808
616.52	5678.32002
616.722	5659.57902
616.923	5990.38864
617.124	5944.65179
617.326	5638.75344
617.527	5857.3043
617.729	5676.23778
617.93	5809.45351
618.131	5761.59023
618.333	5690.81296
618.534	5344.86204
618.735	5628.33977
618.937	5534.59018
619.138	5857.3043
619.339	5511.66636
619.54	5692.89503
619.742	5653.33159
619.943	5509.58224
620.144	5494.9927
620.345	5647.08395
620.546	5588.76243
620.748	5803.21118
620.949	5782.40189
621.15	5844.82268
621.351	5634.58804
621.552	5955.04753
621.753	5565.84535
621.954	5817.77628
622.155	5532.50632
622.356	5759.50894
622.558	5738.69469
622.759	5832.34022
622.96	5657.49656
623.161	5488.73969
623.362	5436.62303
623.563	5857.3043
623.764	5574.17916
623.965	5769.91518
624.166	5624.17413
624.366	5807.37275
624.567	5509.58224
624.768	5815.69562
624.969	5520.00263
625.17	5747.02067
625.371	5809.45351
625.572	5932.17612
625.773	5561.6783
625.973	5755.34628
626.174	5726.20501
626.375	5961.28469
626.576	5715.79629
626.777	5776.15864
626.977	5824.01811
627.178	6056.8946
627.379	5661.66144
627.58	5836.50114
627.78	5757.42762
627.981	5615.84258
628.182	5805.29198
628.382	5905.1426
628.583	5688.73086
628.784	5728.28668
628.984	5559.59474
629.185	5857.3043
629.386	5765.75275
629.586	6158.68517
629.787	5742.85773
629.987	5903.06293
630.188	5536.67403
630.388	5844.82268
630.589	5636.67075
630.79	6115.06755
630.99	5749.10211
631.191	5948.81016
631.391	5888.50461
631.591	5882.26497
631.792	5724.12331
631.992	5913.46103
632.193	5844.82268
632.393	5803.21118
632.594	5763.6715
632.794	5801.13036
632.994	5805.29198
633.195	6061.05043
633.395	5869.78506
633.595	6110.91295
633.796	5844.82268
633.996	5998.7032
634.196	5821.93752
634.397	5950.8893
634.597	5711.63264
634.797	5905.1426
634.997	5686.64874
635.198	5892.66425
635.398	5751.18352
635.598	5828.17922
635.798	5690.81296
635.998	5903.06293
636.199	5634.58804
636.399	5890.58444
636.599	5740.77622
636.799	5761.59023
636.999	5638.75344
637.199	5832.34022
637.399	5778.23974
637.599	6050.66069
637.799	5792.80683
637.999	6023.64464
638.199	5857.3043
638.399	5882.26497
638.599	5751.18352
638.799	5979.9949
638.999	5811.53424
639.199	6077.67278
639.399	5898.90353
639.599	6100.52605
639.799	5957.12661
639.999	6183.60487
640.199	5796.96864
640.399	6075.59506
640.599	5549.17659
640.799	6088.06098
640.998	5934.25546
641.198	6069.36179
641.398	6156.60837
641.598	5873.94512
641.798	5838.58156
641.997	6210.5974
642.197	5955.04753
642.397	6048.58268
642.597	5848.98332
642.796	6125.45364
642.996	5794.88775
643.196	6368.32068
643.395	5982.0737
643.595	6098.44859
643.795	5830.25973
643.994	6007.01739
644.194	5967.52164
644.394	6158.68517
644.593	6040.27037
644.793	6480.30531
644.992	5873.94512
645.192	5973.75838
645.392	6090.13855
645.591	6237.58597
645.791	6029.87946
645.99	6183.60487
646.19	5840.66196
646.389	6083.90577
646.589	5782.40189
646.788	5890.58444
646.987	5672.07323
647.187	6061.05043
647.386	6027.80121
647.586	6210.5974
647.785	6081.82813
647.984	6247.96513
648.184	6058.97253
648.383	6243.81353
648.582	5913.46103
648.782	6339.27654
648.981	5990.38864
649.18	6270.79723
649.38	6285.32527
649.579	6372.46947
649.778	6069.36179
649.977	6150.37785
650.177	6154.53156
650.376	6291.55122
650.575	6183.60487
650.774	6310.22782
650.973	6085.98338
651.173	6135.83914
651.372	6083.90577
651.571	6353.79918
651.77	6123.37647
651.969	6355.87375
652.168	6177.37526
652.367	6463.71927
652.566	6088.06098
652.765	6274.94821
652.964	6023.64464
653.163	6322.67783
653.362	5965.44268
653.561	6173.22207
653.76	6150.37785
653.959	6131.68501
654.158	6048.58268
654.357	6216.82588
654.556	5988.30994
654.755	6333.0522
654.954	5930.09676
655.153	5942.57257
655.352	6025.72294
655.551	6164.91541
655.749	6214.74974
655.948	6158.68517
656.147	6040.27037
656.346	6081.82813
656.545	6065.20616
656.743	6148.30096
656.942	6250.04089
657.141	6339.27654
657.34	6131.68501
657.538	6283.24991
657.737	6152.45472
657.936	6422.24768
658.135	6144.14712
658.333	6272.87273
658.532	6067.28398
658.731	6357.9483
658.929	6162.83869
659.128	6274.94821
659.326	6158.68517
659.525	6052.73869
659.724	5975.83724
659.922	6320.60289
660.121	6092.21609
660.319	6453.35225
660.518	6036.11408
660.716	6189.83427
660.915	6075.59506
661.113	6455.4257
661.312	5923.85854
661.51	6364.1718
661.709	6225.1302
661.907	6482.37846
662.105	6472.01248
662.304	6395.28615
662.502	6449.20527
662.701	6426.39525
662.899	6357.9483
663.097	6349.64997
663.296	6326.82765
663.494	6422.24768
663.692	6256.26804
663.891	6339.27654
664.089	6357.9483
664.287	6250.04089
664.485	5898.90353
664.684	6285.32527
664.882	6100.52605
665.08	6216.82588
665.278	6227.20622
665.476	6349.64997
665.675	6077.67278
665.873	6316.45293
666.071	6075.59506
666.269	6135.83914
666.467	6243.81353
666.665	6272.87273
666.863	6131.68501
667.061	6463.71927
667.259	6115.06755
667.457	6133.76209
667.655	5928.01738
667.853	6108.83562
668.051	6056.8946
668.249	6181.52836
668.447	6048.58268
668.645	6254.19235
668.843	6202.29243
669.041	6175.29868
669.239	6216.82588
669.437	6260.41935
669.635	6081.82813
669.833	6225.1302
670.031	6137.91617
670.229	6212.67358
670.426	6264.57057
670.624	6216.82588
670.822	6065.20616
671.02	6237.58597
671.218	6372.46947
671.415	6002.86034
671.613	5957.12661
671.811	6256.26804
672.009	6015.3312
672.206	6204.36871
672.404	6391.13787
672.602	6393.21202
672.799	6279.09911
672.997	6293.62649
673.195	6173.22207
673.392	6391.13787
673.59	6231.35819
673.788	6401.50839
673.985	6048.58268
674.183	6223.05415
674.38	5957.12661
674.578	6372.46947
674.775	5799.04951
674.973	6316.45293
675.17	6351.72459
675.368	6264.57057
675.565	5961.28469
675.763	6349.64997
675.96	5952.96843
676.158	6189.83427
676.355	5838.58156
676.553	6031.95769
676.75	5578.34593
676.947	6015.3312
677.145	6023.64464
677.342	5915.54058
677.539	5759.50894
677.737	6198.1398
677.934	5932.17612
678.131	6409.80438
678.329	5919.69961
678.526	6283.24991
678.723	6098.44859
678.92	6117.14482
679.118	5919.69961
679.315	5896.82379
679.512	5946.73098
679.709	6181.52836
679.906	5909.30186
680.104	6171.14544
680.301	6000.78178
680.498	6092.21609
680.695	5873.94512
680.892	6173.22207
681.089	5915.54058
681.286	5944.65179
681.483	5682.48443
681.68	6102.60347
681.877	5834.42069
682.075	5998.7032
682.272	5836.50114
682.469	6073.51733
682.665	5790.72589
682.862	5938.41406
683.059	5617.9255
683.256	6046.50464
683.453	5769.91518
683.65	5832.34022
683.847	5740.77622
684.044	5928.01738
684.241	5848.98332
684.438	6015.3312
684.635	5601.26146
684.831	6040.27037
685.028	5921.77909
685.225	5836.50114
685.422	5567.92884
685.619	5790.72589
685.815	5832.34022
686.012	6025.72294
686.209	5694.97708
686.405	5969.60058
686.602	5742.85773
686.799	5697.05911
686.996	5699.14111
687.192	5817.77628
687.389	5640.8361
687.586	5676.23778
687.782	5640.8361
687.979	5857.3043
688.175	5740.77622
688.372	5807.37275
688.568	5524.17062
688.765	5855.22409
688.962	5763.6715
689.158	5832.34022
689.355	5632.50531
689.551	5834.42069
689.748	5545.00916
689.944	5911.38146
690.14	5753.26491
690.337	5832.34022
690.533	5744.93921
690.73	5567.92884
690.926	5353.20583
691.123	5542.92541
691.319	5657.49656
691.515	5786.56393
691.712	5376.1493
691.908	5613.75963
692.104	5499.16126
692.301	5501.2455
692.497	5463.72553
692.693	5584.5959
692.889	5225.92239
693.086	5570.0123
693.282	5584.5959
693.478	5709.55077
693.674	5599.17835
693.87	5801.13036
694.067	5555.42755
694.263	5857.3043
694.459	5444.96269
694.655	5676.23778
694.851	5574.17916
695.047	5436.62303
695.243	5509.58224
695.439	5678.32002
695.635	5321.9147
695.831	5611.67666
696.027	5509.58224
696.224	5701.22309
696.42	5367.80655
696.615	5603.34455
696.811	5482.48647
697.007	5672.07323
697.203	5330.25952
697.399	5624.17413
697.595	5647.08395
697.791	5582.5126
697.987	5361.54924
698.183	5563.76184
698.379	5465.81017
698.575	5615.84258
698.77	5259.31663
698.966	5684.56659
699.162	5376.1493
699.358	5394.91913
699.554	5269.75111
699.749	5428.283
699.945	5246.79449
700.141	5499.16126
700.337	5390.74822
700.532	5380.32054
700.728	5463.72553
700.924	5482.48647
701.119	5190.43446
701.315	5175.81983
701.511	5190.43446
701.706	5736.61313
701.902	5188.34673
702.097	5532.50632
702.293	5497.07699
702.489	5576.26256
702.684	5202.96038
702.88	5301.05102
703.075	5121.52692
703.271	5257.22967
703.466	5163.29209
703.662	5576.26256
703.857	5340.69001
704.053	5253.05567
704.248	5083.93032
704.443	5171.64401
704.639	5073.48548
704.834	5582.5126
705.03	5042.14751
705.225	5432.45307
705.42	5106.90691
705.616	5553.34392
705.811	5232.18427
706.006	5154.9398
706.202	5065.1292
706.397	5157.02791
706.592	5044.23687
706.787	5349.03398
706.983	4989.90599
707.178	5532.50632
707.373	5369.89227
707.568	5315.65584
707.763	5102.72956
707.959	5388.66273
708.154	5121.52692
708.349	5394.91913
708.544	5182.08338
708.739	5240.53311
708.934	5031.70036
709.129	4879.10639
709.324	4971.09552
709.519	5198.78517
709.714	4950.1928
709.909	5365.7208
710.104	4975.27578
710.299	5324.00094
710.494	5017.07338
710.689	5165.38011
710.884	4966.91516
711.079	5117.34989
711.274	4962.73471
711.469	5211.31053
711.664	5173.73193
711.859	5386.57722
712.054	5108.99555
712.249	5376.1493
712.443	4923.01584
712.638	5271.83793
712.833	5182.08338
713.028	5167.4681
713.223	5056.77255
713.417	5035.87929
713.612	5052.59408
713.807	5303.13749
714.002	5046.32621
714.196	5182.08338
714.391	4981.54601
714.586	4994.08584
714.78	5098.55211
714.975	5079.75245
715.17	5052.59408
715.364	5069.30739
715.559	5002.44527
715.754	5006.62485
715.948	4697.08876
716.143	4933.46897
716.337	4738.94709
716.532	4916.74368
716.726	4977.36588
716.921	5104.81825
717.115	4991.99593
717.31	5048.41552
717.504	4816.36112
717.699	5106.90691
717.893	4774.51955
718.088	4814.26926
718.282	4883.28868
718.476	4866.55898
718.671	4588.21501
718.865	5025.43179
719.059	4755.68789
719.254	5050.50481
719.448	4791.25727
719.642	4805.90158
719.837	4579.8376
720.031	4831.00352
720.225	4623.81501
720.419	4893.744
720.614	4506.52012
720.808	4939.74058
721.002	4845.6448
721.196	4866.55898
721.39	4674.06283
721.585	4571.45984
721.779	4648.94054
721.973	4950.1928
722.167	4653.12781
722.361	4722.20484
722.555	4653.12781
722.749	4688.71601
722.943	4456.22962
723.137	4439.46331
723.331	4659.40855
723.525	4782.88859
723.719	4447.84664
723.913	4527.47074
724.107	4380.77019
724.301	4531.6606
724.495	4301.08799
724.689	4638.47196
724.883	4397.5414
725.077	4676.15621
725.271	4345.12675
725.465	4680.3429
725.659	4437.36742
725.853	4703.36808
726.046	4642.65946
726.24	4632.19055
726.434	4410.11889
726.628	4464.61225
726.822	4353.51401
727.015	4795.44147
727.209	4445.75084
727.403	4600.78045
727.596	4535.85037
727.79	4749.41026
727.984	4519.09076
728.177	4651.03418
728.371	4646.84687
728.565	4646.84687
728.758	4462.51663
728.952	4709.6472
729.146	4319.96291
729.339	4667.78256
729.533	4315.76864
729.726	4768.24254
729.92	4489.75803
730.113	4732.66891
730.307	4682.43621
730.5	4607.06287
730.694	4420.59953
730.887	4533.7555
731.081	4584.02635
731.274	4632.19055
731.468	4422.69559
731.661	4684.5295
731.854	4412.21506
732.048	4508.61528
732.241	4500.2345
732.435	4655.22141
732.628	4491.85337
732.821	4646.84687
733.014	4391.25236
733.208	4577.74319
733.401	4462.51663
733.594	4324.1571
733.788	4307.37983
733.981	4437.36742
734.174	4537.94522
734.367	4460.42098
734.56	4678.24956
734.754	4548.41915
734.947	4437.36742
735.14	4479.28101
735.333	4483.47188
735.526	4428.98365
735.719	4233.96309
735.912	4387.05955
736.105	4196.19574
736.298	4179.40804
736.491	4426.88765
736.684	4426.88765
736.877	4546.32441
737.07	4521.18579
737.263	4491.85337
737.456	4418.50344
737.649	4573.55431
737.842	4504.42493
738.035	4571.45984
738.228	4491.85337
738.421	4523.28079
738.614	4460.42098
738.807	4372.38406
739	4380.77019
739.192	4387.05955
739.385	4456.22962
739.578	4498.13925
739.771	4496.04398
739.964	4332.54522
740.156	4489.75803
740.349	4101.74741
740.542	4145.82859
740.735	4261.23523
740.927	4162.61899
741.12	4307.37983
741.313	4322.06002
741.505	4171.01368
741.698	4374.48063
741.891	4158.42152
742.083	4303.18529
742.276	4168.91504
742.468	4309.47706
742.661	4309.47706
742.854	4498.13925
743.046	4236.06108
743.239	4401.73398
743.431	4487.66267
743.624	4244.4528
743.816	4030.35842
744.009	4351.41723
744.201	4017.75788
744.393	4315.76864
744.586	3973.65019
744.778	4254.94198
744.971	3929.53351
745.163	4059.75679
745.355	3969.44899
745.548	4061.85652
745.74	4080.75314
745.932	4267.52828
746.125	4361.90091
746.317	4319.96291
746.509	3950.54257
746.702	4110.14454
746.894	4021.95814
747.086	3994.65498
747.278	4011.45734
747.471	4143.7297
747.663	4168.91504
747.855	4162.61899
748.047	4141.63078
748.239	4257.03975
748.431	4248.64854
748.623	4210.88386
748.815	4150.02632
749.008	4357.7075
749.2	3902.21871
749.392	4294.79597
749.584	3782.41403
749.776	4154.22396
749.968	4042.95822
750.16	4135.33391
750.352	4181.50657
750.544	4118.54133
750.736	4129.03685
750.928	4084.95216
751.12	4036.65841
751.311	4034.55843
751.503	4059.75679
751.695	4068.15558
751.887	3839.17165
752.079	3929.53351
752.271	3952.64336
752.463	4024.05824
752.654	4028.25838
752.846	4202.49077
753.038	4082.85266
753.23	3950.54257
753.421	4000.95602
753.613	3956.84489
753.805	3862.29099
753.997	4072.35485
754.188	4030.35842
754.38	3860.18933
754.572	3996.75534
754.763	4189.90051
754.955	3996.75534
755.146	3666.75272
755.338	3883.30648
755.53	3996.75534
755.721	4005.1566
755.913	3929.53351
756.104	3870.69743
756.296	3782.41403
756.487	3780.31162
756.679	3893.81348
756.87	3609.95235
757.062	3748.77314
757.253	3776.10675
757.445	3731.95083
757.636	3706.71504
757.827	3774.00428
758.019	3729.84795
758.21	3643.61349
758.401	3454.20776
758.593	3843.37535
758.784	3489.99578
758.975	3616.26418
759.167	3529.98796
759.358	3639.40611
759.549	3647.82079
759.74	3595.22409
759.932	3475.26017
760.123	3668.85617
760.314	3559.45164
760.505	3452.10241
760.696	3473.15501
760.888	3542.61569
761.079	3683.5798
761.27	3668.85617
761.461	3468.94463
761.652	3538.40652
761.843	3464.73419
762.034	3433.15355
762.225	3355.23755
762.416	3479.47044
762.607	3342.60026
762.798	3346.81276
762.989	3462.62894
763.18	3643.61349
763.371	3306.79123
763.562	3706.71504
763.753	3188.79739
763.944	3496.31078
764.135	3378.40428
764.326	3551.03381
764.517	3254.12191
764.708	3525.77857
764.899	3110.8088
765.089	3340.49398
765.28	3230.94407
765.471	3277.29772
765.662	3005.38434
765.853	3374.1923
766.043	3273.08409
766.234	3268.87039
766.425	3220.40802
766.615	3315.21733
766.806	3133.99691
766.997	3247.80088
767.187	3304.68466
767.378	3485.7857
767.569	3186.68988
767.759	3273.08409
767.95	3298.36485
768.141	3266.76351
768.331	3110.8088
768.522	3165.61391
768.712	3150.85976
768.903	3294.15156
769.093	3201.44209
769.284	3167.72158
769.474	3180.36726
769.665	3245.69384
769.855	2916.79834
770.046	2999.05765
770.236	2887.2639
770.426	3100.26812
770.617	2935.78326
770.807	3041.23301
770.998	2880.93473
771.188	2842.95698
771.378	2823.96639
771.569	3176.1521
771.759	3081.29389
771.949	2992.73082
772.139	2906.25066
772.33	2944.22062
772.52	3011.7109
772.71	3070.7521
772.9	2878.82497
773.09	3034.9071
773.281	2893.59295
773.471	2967.42214
773.661	2940.00197
773.851	3045.45021
774.041	2680.44637
774.231	2899.92187
774.421	2916.79834
774.611	2821.85625
774.802	2790.20257
774.992	2887.2639
775.182	2897.81224
775.372	2883.04447
775.562	2931.56449
775.752	2948.43921
775.942	2657.2242
776.131	2830.29671
776.321	2707.88875
776.511	2855.61674
776.701	2804.97467
776.891	2815.52577
777.081	2830.29671
777.271	2804.97467
777.461	2830.29671
777.651	2775.4298
777.84	2585.43704
778.03	2849.28692
778.22	2598.10639
778.41	2834.51686
778.599	2551.65
778.789	2585.43704
778.979	2731.10752
779.169	2773.31935
779.358	2595.99486
779.548	2804.97467
779.738	2745.88226
779.927	2733.21824
780.117	2665.6688
780.307	2636.11181
780.496	2492.51549
780.686	2604.4409
780.875	2327.73854
781.065	2591.77177
781.254	2437.59699
781.444	2661.44653
781.633	2536.86722
781.823	2695.22331
782.012	2435.48459
782.202	2593.88332
782.391	2538.97908
782.581	2602.32941
782.77	2756.43526
782.96	2764.87741
783.149	2454.49578
783.338	2627.66651
783.528	2503.07588
783.717	2500.96382
783.906	2441.82175
784.096	2503.07588
784.285	2528.41966
784.474	2386.89654
784.663	2300.26971
784.853	2336.19016
785.042	2323.51267
785.231	2268.57291
785.42	2192.4923
785.61	2405.90992
785.799	2084.69295
785.988	2437.59699
786.177	2433.37218
786.366	2433.37218
786.555	2312.94783
786.744	2258.00685
786.933	2274.91244
787.122	2424.92245
787.312	2207.28664
787.501	2336.19016
787.69	2203.05973
787.879	2405.90992
788.068	2296.04359
788.257	2315.06082
788.445	2262.2333
788.634	2477.73047
788.823	2281.25188
789.012	2334.07727
789.201	2207.28664
789.39	2243.21398
789.579	2065.66747
789.768	2145.99315
789.957	2099.49014
790.145	2344.64162
790.334	1976.87447
790.523	2122.74211
790.712	2122.74211
790.9	2241.10068
791.089	2021.27245
791.278	2365.76959
791.467	1987.44568
791.655	2095.26241
791.844	2004.35927
792.033	2033.95705
792.221	2082.57904
792.41	2160.78876
792.599	1866.92528
792.787	2046.6414
792.976	2029.72887
793.164	2080.46512
793.353	1962.07453
793.541	2063.55349
793.73	1968.4174
793.918	2033.95705
794.107	1962.07453
794.295	1799.25729
794.484	1841.55035
794.672	1995.90253
794.861	2052.98349
795.049	2171.35682
795.238	2002.24509
795.426	2131.19714
795.614	1883.84151
795.803	1915.55852
795.991	1951.50296
796.179	2072.00936
796.368	1898.64293
796.556	1926.13059
796.744	1816.17473
796.932	1989.5599
797.121	1756.96254
797.309	2010.70176
797.497	1883.84151
797.685	1854.2379
797.874	1756.96254
798.062	1896.52846
798.25	1723.12564
798.438	1936.70251
798.626	1659.67923
798.814	2036.07112
799.002	1763.30685
799.19	1795.02789
799.378	1716.78113
799.566	1911.32966
799.755	1632.18502
799.943	1866.92528
800.131	1892.2995
800.318	1833.09188
800.506	1725.24048
800.694	1828.86262
800.882	1661.79415
801.07	1807.71604
801.258	1630.07006
801.446	1773.88063
801.634	1640.64482
801.822	1699.86227
802.01	1693.51765
802.197	1987.44568
802.385	1587.7705
802.573	1778.11012
802.761	1748.5034
802.949	1888.07051
803.136	1727.35531
803.324	1883.84151
803.512	1833.09188
803.699	1892.2995
803.887	1820.40404
804.075	1964.18883
804.262	1663.90907
804.45	1881.727
804.638	1742.15901
804.825	1987.44568
805.013	1811.94539
805.201	2025.50067
805.388	1833.09188
805.576	1888.07051
805.763	1866.92528
805.951	1981.10297
806.138	1765.42162
806.326	1756.96254
806.513	1701.97714
806.701	1940.93124
806.888	1701.97714
807.075	2012.81591
807.263	1803.48668
807.45	2000.13091
807.638	1676.59853
807.825	1945.15995
808.012	1775.99537
808.2	1807.71604
808.387	1733.69977
808.574	1888.07051
808.761	1875.38344
808.949	1915.55852
809.136	1699.86227
809.323	1959.96023
809.51	1706.20687
809.698	1955.73161
809.885	1649.10458
810.072	1835.2065
810.259	1824.63334
810.446	1822.51869
810.633	1649.10458
810.82	1909.21522
811.008	1788.68375
811.195	1888.07051
811.382	1833.09188
811.569	1883.84151
811.756	1983.21721
811.943	1850.00874
812.13	1769.65113
812.317	1854.2379
812.504	1733.69977
812.691	1845.77955
812.878	1814.06006
813.064	1835.2065
813.251	1718.89597
813.438	1847.89414
813.625	1826.74798
813.812	1811.94539
813.999	1723.12564
814.186	1752.73298
814.372	1551.81533
814.559	1953.61729
814.746	1532.78008
814.933	1706.20687
815.12	1820.40404
815.306	1904.98632
815.493	1740.04421
815.68	1746.38861
815.866	1699.86227
816.053	1773.88063
816.24	1828.86262
816.426	1748.5034
816.613	1706.20687
816.799	1845.77955
816.986	1701.97714
817.173	1847.89414
817.359	1718.89597
817.546	1795.02789
817.732	1634.29997
817.919	1976.87447
818.105	1759.07731
818.292	1896.52846
818.478	1655.44938
818.665	1833.09188
818.851	1699.86227
819.037	1843.66495
819.224	1725.24048
819.41	1858.46705
819.597	1545.47026
819.783	1782.33958
819.969	1526.43498
820.156	1737.9294
820.342	1427.02772
820.528	1710.43658
820.714	1520.08986
820.901	1663.90907
821.087	1604.69042
821.273	1701.97714
821.459	1619.49525
821.646	1655.44938
821.832	1566.62045
822.018	1655.44938
822.204	1553.93035
822.39	1701.97714
822.576	1553.93035
822.762	1742.15901
822.948	1630.07006
823.134	1801.37199
823.32	1528.55001
823.507	1775.99537
823.693	1646.98964
823.879	1642.75976
824.065	1545.47026
824.25	1405.87723
824.436	1314.93121
824.622	1479.90401
824.808	1498.93944
824.994	1503.16953
825.18	1270.5168
825.366	1602.57544
825.552	1448.17823
825.738	1545.47026
825.923	1450.29329
826.109	1581.4255
826.295	1289.55143
826.481	1344.54128
826.667	1378.3817
826.852	1496.8244
827.038	1401.64714
827.224	1418.56752
827.409	1503.16953
827.595	1380.49674
827.781	1143.62536
827.966	1350.88633
828.152	1215.52905
828.338	1401.64714
828.523	1259.94209
828.709	1359.34643
828.894	1270.5168
829.08	1498.93944
829.266	1232.44815
829.451	1384.72681
829.637	1266.28691
829.822	1369.92157
830.008	1285.32149
830.193	1403.76219
830.378	1333.96622
830.564	1632.18502
830.749	1306.47125
830.935	1507.39962
831.12	1137.28114
831.305	1401.64714
831.491	1181.69149
831.676	1376.26667
831.861	1452.40834
832.047	1422.79762
832.232	1181.69149
832.417	1325.5062
832.602	1175.34704
832.788	1230.33325
832.973	1281.09157
833.158	1369.92157
833.343	1245.1376
833.528	1312.81621
833.714	1124.5928
833.899	1107.67528
834.084	1158.4287
834.269	1363.57648
834.454	1190.15079
834.639	1344.54128
834.824	1088.64343
835.009	1321.2762
835.194	1097.10198
835.379	1285.32149
835.564	1169.00264
835.749	1232.44815
835.934	1164.77305
836.119	1272.63175
836.304	1232.44815
836.489	1285.32149
836.674	1029.43596
836.859	1111.90463
837.044	1094.98734
837.228	1075.95576
837.413	1071.72658
837.598	1344.54128
837.783	995.60516
837.968	1215.52905
838.152	1063.26828
838.337	1190.15079
838.522	1048.46646
838.707	1291.6664
838.891	1023.09256
839.076	1118.2487
839.261	1122.4781
839.445	1092.8727
839.63	1075.95576
839.815	1198.61016
839.999	1031.55043
840.184	1175.34704
840.368	868.75541
840.553	1118.2487
840.737	930.06278
840.922	1090.75806
841.106	1114.01932
841.291	1219.75881
841.475	940.63367
841.66	1145.74011
841.844	989.26206
842.029	1046.35194
842.213	1023.09256
842.397	1016.74922
842.582	987.14771
842.766	1099.21663
842.951	870.86934
843.135	1033.66492
843.319	879.32516
843.504	1014.63479
843.688	961.776
843.872	889.89512
844.056	900.46529
844.241	1069.612
844.425	927.94863
844.609	911.03565
844.793	970.23313
844.977	953.31898
845.161	843.38886
845.346	902.57934
845.53	822.25103
845.714	894.12316
845.898	729.25593
846.082	860.29975
846.266	786.31885
846.45	919.49208
846.634	754.61631
846.818	930.06278
847.002	851.84424
847.186	987.14771
847.37	737.70922
847.554	921.6062
847.738	803.22777
847.922	989.26206
848.106	911.03565
848.29	913.14974
848.473	752.50288
848.657	879.32516
848.841	779.97816
849.025	826.47853
849.209	805.34143
849.392	860.29975
849.576	716.57631
849.76	818.02358
849.944	794.77323
850.127	841.27503
850.311	708.12345
850.495	824.36477
850.678	788.43243
850.862	936.4053
851.046	735.59588
851.229	860.29975
851.413	678.53983
851.596	796.88685
851.78	744.0493
851.964	809.56877
852.147	646.84561
852.331	699.67076
852.514	564.4536
852.698	744.0493
852.881	625.71762
853.065	784.20528
853.248	665.86183
853.431	750.38947
853.615	708.12345
853.798	834.93362
853.982	699.67076
854.165	714.46308
854.348	623.60489
854.532	598.2531
854.715	640.50708
854.898	672.20078
855.081	568.67835
855.265	610.92877
855.448	530.65755
855.631	604.59088
855.814	505.31286
855.997	600.36568
856.181	543.33065
856.364	691.21826
856.547	636.28146
856.73	636.28146
856.913	581.35293
857.096	539.10623
857.279	606.70349
857.462	657.41006
857.645	617.26677
857.828	636.28146
858.011	549.6674
858.194	602.47827
858.377	444.07193
858.56	648.95847
858.743	545.44289
858.926	682.76593
859.109	591.91544
859.292	589.80291
859.475	558.11657
859.658	553.89196
859.841	532.7697
860.023	594.02798
860.206	509.53683
860.389	634.16867
860.572	509.53683
860.755	564.4536
860.937	539.10623
861.12	606.70349
861.303	403.95561
861.486	539.10623
861.668	465.18806
861.851	534.88186
862.034	526.43329
862.216	463.07638
862.399	338.51543
862.581	543.33065
862.764	429.29157
862.947	437.73739
863.129	441.9604
863.312	490.52941
863.494	446.18347
863.677	479.97025
863.859	346.9584
864.042	416.6233
864.224	471.52319
864.406	444.07193
864.589	365.95611
864.771	420.84599
864.954	353.29082
865.136	473.63494
865.318	395.51081
865.501	416.6233
865.683	484.19387
865.865	439.84889
866.048	382.84411
866.23	416.6233
866.412	463.07638
866.594	456.74142
866.777	496.86509
866.959	471.52319
867.141	353.29082
867.323	374.39997
867.505	361.73427
867.687	437.73739
867.869	380.73305
868.052	420.84599
868.234	361.73427
868.416	515.8729
868.598	336.40473
868.78	458.85306
868.962	376.51098
869.144	412.40067
869.326	273.09208
869.508	370.17801
869.69	315.29871
869.872	458.85306
870.054	378.62201
870.236	327.96211
870.417	275.20224
870.599	365.95611
870.781	401.84439
870.963	395.51081
871.145	302.63595
871.327	353.29082
871.508	412.40067
871.69	397.62199
871.872	311.07772
872.054	332.18339
872.235	370.17801
872.417	306.8568
872.599	412.40067
872.78	403.95561
872.962	365.95611
873.144	403.95561
873.325	397.62199
873.507	403.95561
873.689	311.07772
873.87	395.51081
874.052	323.7409
874.233	391.28851
874.415	332.18339
874.596	389.17739
874.778	294.19448
874.959	283.64305
875.141	372.28898
875.322	319.51977
875.503	222.45405
875.685	285.7533
875.866	336.40473
876.048	380.73305
876.229	273.09208
876.41	393.39965
876.592	270.98194
876.773	363.84518
876.954	344.84764
877.136	380.73305
877.317	306.8568
877.498	378.62201
877.679	344.84764
877.86	359.62338
878.042	342.73688
878.223	357.51251
878.404	372.28898
878.585	380.73305
878.766	353.29082
878.947	376.51098
879.128	300.52556
879.309	361.73427
879.49	327.96211
879.672	361.73427
879.853	292.08415
880.034	433.51445
880.215	266.76173
880.396	319.51977
880.576	315.29871
880.757	344.84764
880.938	412.40067
881.119	431.403
881.3	270.98194
881.481	327.96211
881.662	241.44201
881.843	251.99156
882.023	294.19448
882.204	361.73427
882.385	330.07274
882.566	296.30482
882.747	374.39997
882.927	374.39997
883.108	338.51543
883.289	391.28851
883.469	372.28898
883.65	323.7409
883.831	395.51081
884.011	349.06919
884.192	296.30482
884.373	406.06685
884.553	429.29157
884.734	251.99156
884.914	277.31241
885.095	378.62201
885.275	344.84764
885.456	344.84764
885.636	311.07772
885.817	361.73427
885.997	260.43154
886.178	410.28938
886.358	378.62201
886.538	403.95561
886.719	327.96211
886.899	488.41755
887.08	416.6233
887.26	361.73427
887.44	332.18339
887.621	418.73464
887.801	313.1882
887.981	387.06628
888.161	332.18339
888.342	361.73427
888.522	408.17811
888.702	365.95611
888.882	296.30482
889.062	351.18
889.242	408.17811
889.423	363.84518
889.603	410.28938
889.783	410.28938
889.963	296.30482
890.143	363.84518
890.323	412.40067
890.503	327.96211
890.683	298.41518
890.863	414.51198
891.043	357.51251
891.223	384.95518
891.403	349.06919
891.583	437.73739
891.763	376.51098
891.943	311.07772
892.122	325.8515
892.302	306.8568
892.482	251.99156
892.662	260.43154
892.842	235.11252
893.022	387.06628
893.201	372.28898
893.381	353.29082
893.561	334.29405
893.741	378.62201
893.92	249.88161
894.1	327.96211
894.28	287.86356
894.459	427.18015
894.639	336.40473
894.819	296.30482
894.998	287.86356
895.178	289.97385
895.357	323.7409
895.537	344.84764
895.716	306.8568
895.896	344.84764
896.075	264.65165
896.255	378.62201
896.434	251.99156
896.614	254.10153
896.793	300.52556
896.973	260.43154
897.152	273.09208
897.331	268.87183
897.511	294.19448
897.69	279.42261
897.87	363.84518
898.049	327.96211
898.228	344.84764
898.407	277.31241
898.587	247.77168
898.766	209.7963
898.945	226.67346
899.124	281.53282
899.304	209.7963
899.483	251.99156
899.662	235.11252
899.841	260.43154
900.02	237.22233
900.199	327.96211
900.378	216.12509
900.557	235.11252
900.737	270.98194
900.916	264.65165
901.095	226.67346
901.274	273.09208
901.453	226.67346
901.632	239.33216
901.811	203.46769
901.989	199.24872
902.168	154.95444
902.347	251.99156
902.526	133.86516
902.705	226.67346
902.884	239.33216
903.063	207.68674
903.242	218.23472
903.42	243.55189
903.599	167.60902
903.778	203.46769
903.957	148.62743
904.135	233.00273
904.314	74.82672
904.493	176.04582
904.672	233.00273
904.85	216.12509
905.029	199.24872
905.207	142.30062
905.386	104.34378
905.565	228.7832
905.743	129.64756
905.922	161.28164
906.1	209.7963
906.279	167.60902
906.457	135.97399
906.636	186.59229
906.814	135.97399
906.993	167.60902
907.171	119.10394
907.35	144.40954
907.528	222.45405
907.707	154.95444
907.885	129.64756
908.063	133.86516
908.242	91.69308
908.42	146.51847
908.598	108.56086
908.777	116.99528
908.955	165.49987
909.133	161.28164
909.311	188.70164
909.49	142.30062
909.668	68.5022
909.846	119.10394
910.024	138.08285
910.202	159.17255
910.38	142.30062
910.559	167.60902
910.737	125.43005
910.915	226.67346
911.093	142.30062
911.271	176.04582
911.449	129.64756
911.627	129.64756
911.805	140.19172
911.983	154.95444
912.161	119.10394
912.339	119.10394
912.517	192.92041
912.695	159.17255
912.872	218.23472
913.05	235.11252
913.228	163.39074
913.406	188.70164
913.584	133.86516
913.762	173.93659
913.939	142.30062
914.117	32.66719
914.295	129.64756
914.473	199.24872
914.65	163.39074
914.828	129.64756
915.006	41.09836
915.184	186.59229
915.361	144.40954
915.539	176.04582
915.716	68.5022
915.894	102.23527
916.072	216.12509
916.249	235.11252
916.427	110.66943
916.604	142.30062
916.782	148.62743
916.959	144.40954
917.137	57.9618
917.314	142.30062
917.492	100.12679
917.669	171.82738
917.847	66.39408
918.024	102.23527
918.201	150.73642
918.379	184.48295
918.556	85.36802
918.733	180.26435
918.911	100.12679
919.088	152.84542
919.265	100.12679
919.442	216.12509
919.62	95.90989
919.797	108.56086
919.974	188.70164
920.151	211.90588
920.328	85.36802
920.506	121.21262
920.683	133.86516
920.86	57.9618
921.037	79.04317
921.214	114.88664
921.391	68.5022
921.568	104.34378
921.745	127.53879
921.922	129.64756
922.099	93.80147
922.276	100.12679
922.453	87.47635
922.63	110.66943
922.807	133.86516
922.984	178.15507
923.161	184.48295
923.338	135.97399
923.514	169.71819
923.691	43.20621
923.868	76.93493
924.045	85.36802
924.222	91.69308
924.399	125.43005
924.575	106.45231
924.752	161.28164
924.929	41.09836
925.105	102.23527
925.282	60.06984
925.459	100.12679
925.635	154.95444
925.812	138.08285
925.989	93.80147
926.165	106.45231
926.342	-22.12611
926.518	85.36802
926.695	119.10394
926.871	85.36802
927.048	83.25972
927.224	66.39408
927.401	32.66719
927.577	140.19172
927.754	93.80147
927.93	49.5299
928.107	62.17789
928.283	104.34378
928.459	146.51847
928.636	100.12679
928.812	11.59093
928.988	81.15143
929.165	127.53879
929.341	116.99528
929.517	95.90989
929.693	95.90989
929.87	49.5299
930.046	30.55946
930.222	133.86516
930.398	79.04317
930.574	26.34407
930.751	62.17789
930.927	11.59093
931.103	53.7458
931.279	57.9618
931.455	32.66719
931.631	154.95444
931.807	81.15143
931.983	93.80147
932.159	108.56086
932.335	93.80147
932.511	91.69308
932.687	43.20621
932.863	76.93493
933.039	66.39408
933.215	121.21262
933.391	138.08285
933.566	32.66719
933.742	45.31408
933.918	45.31408
934.094	15.80599
934.27	60.06984
934.445	-13.69743
934.621	66.39408
934.797	49.5299
934.973	41.09836
935.148	87.47635
935.324	100.12679
935.5	9.48343
935.675	135.97399
935.851	108.56086
936.027	104.34378
936.202	66.39408
936.378	123.32132
936.553	138.08285
936.729	34.77495
936.904	15.80599
937.08	9.48343
937.255	32.66719
937.431	7.37596
937.606	1.05369
937.782	24.2364
937.957	79.04317
938.133	24.2364
938.308	89.5847
938.483	24.2364
938.659	9.48343
938.834	45.31408
939.009	49.5299
939.185	32.66719
939.36	72.71852
939.535	89.5847
939.71	9.48343
939.886	43.20621
940.061	17.91356
940.236	41.09836
940.411	74.82672
940.586	91.69308
940.761	91.69308
940.937	-3.16104
941.112	41.09836
941.287	5.26851
941.462	-26.3403
941.637	57.9618
941.812	133.86516
941.987	91.69308
942.162	41.09836
942.337	57.9618
942.512	-9.48295
942.687	24.2364
942.862	49.5299
943.037	3.16109
943.212	3.16109
943.386	9.48343
943.561	-13.69743
943.736	-22.12611
943.911	74.82672
944.086	49.5299
944.26	17.91356
944.435	62.17789
944.61	66.39408
944.785	45.31408
944.959	-30.55439
945.134	43.20621
945.309	100.12679
945.483	-17.91182
945.658	5.26851
945.833	-17.91182
946.007	60.06984
946.182	20.02115
946.357	55.85379
946.531	70.61035
946.706	51.63784
946.88	66.39408
947.055	-1.05368
947.229	15.80599
947.404	49.5299
947.578	32.66719
947.752	32.66719
947.927	47.42198
948.101	41.09836
948.276	51.63784
948.45	91.69308
948.624	24.2364
948.799	43.20621
948.973	28.45175
949.147	-9.48295
949.321	57.9618
949.496	-5.26836
949.67	76.93493
949.844	28.45175
950.018	-64.26353
950.193	-32.6614
950.367	-7.37567
950.541	1.05369
950.715	76.93493
950.889	28.45175
951.063	62.17789
951.237	-13.69743
951.411	20.02115
951.585	11.59093
951.759	55.85379
951.933	26.34407
952.107	100.12679
952.281	-9.48295
952.455	-62.1569
952.629	62.17789
952.803	51.63784
952.977	57.9618
953.151	-5.26836
953.325	36.88273
953.499	60.06984
953.672	57.9618
953.846	38.99053
954.02	62.17789
954.194	22.12877
954.368	76.93493
954.541	28.45175
954.715	36.88273
954.889	30.55946
955.062	15.80599
955.236	22.12877
955.41	-7.37567
955.583	-9.48295
955.757	66.39408
955.93	47.42198
956.104	36.88273
956.278	32.66719
956.451	76.93493
956.625	34.77495
956.798	60.06984
956.972	121.21262
957.145	70.61035
957.319	64.28597
957.492	36.88273
957.665	11.59093
957.839	-57.94356
958.012	49.5299
958.185	-17.91182
958.359	95.90989
958.532	13.69845
958.705	91.69308
958.879	110.66943
959.052	34.77495
959.225	53.7458
959.398	66.39408
959.572	22.12877
959.745	1.05369
959.918	57.9618
960.091	11.59093
960.264	-5.26836
960.438	28.45175
960.611	76.93493
960.784	-1.05368
960.957	-11.5902
961.13	57.9618
961.303	41.09836
961.476	7.37596
961.649	7.37596
961.822	32.66719
961.995	57.9618
962.168	41.09836
962.341	-34.76838
962.514	15.80599
962.686	76.93493
962.859	55.85379
963.032	28.45175
963.205	15.80599
963.378	-7.37567
963.551	36.88273
963.723	66.39408
963.896	20.02115
964.069	17.91356
964.242	17.91356
964.414	102.23527
964.587	49.5299
964.76	24.2364
964.932	-9.48295
965.105	-17.91182
965.278	116.99528
965.45	11.59093
965.623	43.20621
965.795	26.34407
965.968	57.9618
966.14	91.69308
966.313	17.91356
966.485	66.39408
966.658	83.25972
966.83	43.20621
967.003	95.90989
967.175	70.61035
967.348	43.20621
967.52	28.45175
967.692	68.5022
967.865	49.5299
968.037	38.99053
968.209	41.09836
968.382	24.2364
968.554	32.66719
968.726	41.09836
968.898	-5.26836
969.071	20.02115
969.243	159.17255
969.415	-3.16104
969.587	41.09836
969.759	32.66719
969.932	83.25972
970.104	7.37596
970.276	20.02115
970.448	-49.51657
970.62	17.91356
970.792	-43.19607
970.964	47.42198
971.136	-26.3403
971.308	93.80147
971.48	24.2364
971.652	22.12877
971.824	20.02115
971.996	-13.69743
972.168	-13.69743
972.339	74.82672
972.511	47.42198
972.683	5.26851
972.855	-9.48295
973.027	9.48343
973.199	60.06984
973.37	49.5299
973.542	68.5022
973.714	15.80599
973.886	43.20621
974.057	138.08285
974.229	57.9618
974.401	-49.51657
974.572	83.25972
974.744	125.43005
974.915	15.80599
975.087	62.17789
975.259	-11.5902
975.43	-1.05368
975.602	1.05369
975.773	62.17789
975.945	49.5299
976.116	62.17789
976.288	13.69845
976.459	9.48343
976.63	-49.51657
976.802	-28.44736
976.973	127.53879
977.145	66.39408
977.316	-1.05368
977.487	51.63784
977.659	-3.16104
977.83	83.25972
978.001	83.25972
978.172	76.93493
978.344	-9.48295
978.515	5.26851
978.686	34.77495
978.857	9.48343
979.028	36.88273
979.2	-13.69743
979.371	24.2364
979.542	108.56086
979.713	11.59093
979.884	15.80599
980.055	1.05369
980.226	-9.48295
980.397	9.48343
980.568	79.04317
980.739	-30.55439
980.91	24.2364
981.081	66.39408
981.252	32.66719
981.423	9.48343
981.594	32.66719
981.765	13.69845
981.936	5.26851
982.106	15.80599
982.277	49.5299
982.448	3.16109
982.619	43.20621
982.79	-22.12611
982.96	32.66719
983.131	26.34407
983.302	7.37596
983.472	9.48343
983.643	-9.48295
983.814	53.7458
983.984	24.2364
984.155	70.61035
984.326	51.63784
984.496	-9.48295
984.667	68.5022
984.837	112.77803
985.008	-51.62336
985.178	-22.12611
985.349	-13.69743
985.519	-32.6614
985.69	100.12679
985.86	3.16109
986.031	108.56086
986.201	-7.37567
986.371	49.5299
986.542	22.12877
986.712	49.5299
986.882	15.80599
987.053	-1.05368
987.223	36.88273
987.393	3.16109
987.563	13.69845
987.734	41.09836
987.904	-32.6614
988.074	7.37596
988.244	89.5847
988.414	7.37596
988.585	55.85379
988.755	-34.76838
988.925	5.26851
989.095	-24.23321
989.265	15.80599
989.435	108.56086
989.605	1.05369
989.775	-9.48295
989.945	3.16109
990.115	-7.37567
990.285	28.45175
990.455	-60.05024
990.625	38.99053
990.795	49.5299
990.965	57.9618
991.134	-11.5902
991.304	-1.05368
991.474	15.80599
991.644	-26.3403
991.814	1.05369
991.984	-24.23321
992.153	15.80599
992.323	-1.05368
992.493	36.88273
992.662	26.34407
992.832	43.20621
993.002	7.37596
993.171	38.99053
993.341	15.80599
993.511	32.66719
993.68	9.48343
993.85	26.34407
994.019	-9.48295
994.189	70.61035
994.358	-7.37567
994.528	45.31408
994.697	5.26851
994.867	51.63784
995.036	79.04317
995.206	3.16109
995.375	60.06984
995.544	9.48343
995.714	17.91356
995.883	112.77803
996.052	102.23527
996.222	102.23527
996.391	26.34407
996.56	57.9618
996.73	83.25972
996.899	-22.12611
997.068	53.7458
997.237	91.69308
997.406	7.37596
997.576	36.88273
997.745	17.91356
997.914	57.9618
998.083	-26.3403
998.252	45.31408
998.421	-1.05368
998.59	68.5022
998.759	-1.05368
998.928	108.56086
999.097	7.37596
999.266	66.39408
999.435	-13.69743
999.604	15.80599
999.773	-13.69743
999.942	-9.48295
1000.111	-24.23321
1000.28	15.80599
1000.448	7.37596
1000.617	11.59093
1000.786	64.28597
1000.955	11.59093
1001.124	45.31408
1001.292	41.09836
1001.461	68.5022
1001.63	32.66719
1001.798	24.2364
1001.967	87.47635
1002.136	-1.05368
1002.304	87.47635
1002.473	95.90989
1002.642	24.2364
1002.81	83.25972
1002.979	-17.91182
1003.147	41.09836
1003.316	79.04317
1003.484	3.16109
1003.653	60.06984
1003.821	24.2364
1003.99	22.12877
1004.158	43.20621
1004.327	11.59093
1004.495	-26.3403
1004.663	53.7458
1004.832	32.66719
1005	41.09836
1005.168	-1.05368
1005.337	28.45175
1005.505	7.37596
1005.673	20.02115
1005.842	62.17789
1006.01	49.5299
1006.178	-22.12611
1006.346	-22.12611
1006.514	87.47635
1006.683	66.39408
1006.851	-11.5902
1007.019	-7.37567
1007.187	100.12679
1007.355	83.25972
1007.523	9.48343
1007.691	11.59093
1007.859	17.91356
1008.027	-3.16104
1008.195	43.20621
1008.363	60.06984
1008.531	64.28597
1008.699	1.05369
1008.867	17.91356
1009.035	3.16109
1009.203	51.63784
1009.37	-15.80464
1009.538	3.16109
1009.706	-28.44736
1009.874	28.45175
1010.042	15.80599
1010.209	26.34407
1010.377	49.5299
1010.545	17.91356
1010.713	85.36802
1010.88	-24.23321
1011.048	24.2364
1011.216	55.85379
1011.383	49.5299
1011.551	-81.11567
1011.718	41.09836
1011.886	20.02115
1012.054	51.63784
1012.221	-5.26836
1012.389	28.45175
1012.556	57.9618
1012.724	-9.48295
1012.891	-17.91182
1013.058	57.9618
1013.226	7.37596
1013.393	-13.69743
1013.561	34.77495
1013.728	5.26851
1013.895	-30.55439
1014.063	-22.12611
1014.23	-26.3403
1014.397	24.2364
1014.565	36.88273
1014.732	41.09836
1014.899	7.37596
1015.066	57.9618
1015.233	24.2364
1015.401	-7.37567
1015.568	-1.05368
1015.735	-28.44736
1015.902	17.91356
1016.069	7.37596
1016.236	-26.3403
1016.403	36.88273
1016.57	-20.01897
1016.737	-28.44736
1016.904	-7.37567
1017.071	-13.69743
1017.238	-15.80464
1017.405	49.5299
1017.572	-11.5902
1017.739	-1.05368
1017.906	9.48343
1018.073	-1.05368
1018.24	3.16109
1018.407	26.34407
1018.573	-81.11567
1018.74	28.45175
1018.907	66.39408
1019.074	100.12679
1019.241	114.88664
1019.407	60.06984
1019.574	-32.6614
1019.741	49.5299
1019.907	95.90989
1020.074	28.45175
1020.241	26.34407
1020.407	-51.62336
1020.574	45.31408
1020.74	7.37596
1020.907	34.77495
1021.073	38.99053
1021.24	60.06984
1021.406	3.16109
1021.573	76.93493
1021.739	-3.16104
1021.906	17.91356
1022.072	38.99053
1022.239	32.66719
1022.405	-45.30293
1022.571	-1.05368
1022.738	15.80599
1022.904	91.69308
1023.07	32.66719
1023.237	-57.94356
1023.403	-11.5902
1023.569	5.26851
1023.735	70.61035
1023.902	-7.37567
1024.068	1.05369
1024.234	66.39408
1024.4	45.31408
1024.566	20.02115
1024.732	-9.48295
1024.898	51.63784
1025.065	15.80599
1025.231	51.63784
1025.397	-30.55439
1025.563	32.66719
1025.729	-38.98228
1025.895	-7.37567
1026.061	36.88273
1026.227	119.10394
1026.392	-32.6614
1026.558	-51.62336
1026.724	-13.69743
1026.89	9.48343
1027.056	-17.91182
1027.222	60.06984
1027.388	22.12877
1027.553	62.17789
1027.719	9.48343
1027.885	32.66719
1028.051	-17.91182
1028.216	-13.69743
1028.382	-17.91182
1028.548	1.05369
1028.713	60.06984
1028.879	51.63784
1029.045	60.06984
1029.21	-1.05368
1029.376	-7.37567
1029.541	83.25972
1029.707	13.69845
1029.873	102.23527
1030.038	142.30062
1030.204	93.80147
1030.369	70.61035
1030.534	9.48343
1030.7	-1.05368
1030.865	-26.3403
1031.031	-1.05368
1031.196	-38.98228
1031.361	41.09836
1031.527	24.2364
1031.692	-11.5902
1031.857	60.06984
1032.023	32.66719
1032.188	47.42198
1032.353	-9.48295
1032.518	1.05369
1032.684	121.21262
1032.849	79.04317
1033.014	32.66719
1033.179	15.80599
1033.344	-49.51657
1033.509	-9.48295
1033.674	49.5299
1033.839	-26.3403
1034.004	20.02115
1034.17	-1.05368
1034.335	70.61035
1034.5	7.37596
1034.664	66.39408
1034.829	1.05369
1034.994	85.36802
1035.159	-9.48295
1035.324	57.9618
1035.489	-9.48295
1035.654	38.99053
1035.819	-51.62336
1035.984	9.48343
1036.148	7.37596
1036.313	-30.55439
1036.478	-17.91182
1036.643	-51.62336
1036.807	70.61035
1036.972	15.80599
1037.137	-9.48295
1037.301	-1.05368
1037.466	5.26851
1037.631	43.20621
1037.795	24.2364
1037.96	-15.80464
1038.124	36.88273
1038.289	17.91356
1038.454	-43.19607
1038.618	9.48343
1038.783	7.37596
1038.947	26.34407
1039.111	-34.76838
1039.276	26.34407
1039.44	-11.5902
1039.605	34.77495
1039.769	7.37596
1039.933	-1.05368
1040.098	34.77495
1040.262	11.59093
1040.426	1.05369
1040.591	20.02115
1040.755	-15.80464
1040.919	-13.69743
1041.083	-32.6614
1041.248	28.45175
1041.412	36.88273
1041.576	-45.30293
1041.74	22.12877
1041.904	15.80599
1042.068	-9.48295
1042.232	3.16109
1042.397	9.48343
1042.561	-34.76838
1042.725	62.17789
1042.889	34.77495
1043.053	68.5022
1043.217	-28.44736
1043.381	32.66719
1043.544	-13.69743
1043.708	32.66719
1043.872	17.91356
1044.036	60.06984
1044.2	17.91356
1044.364	-5.26836
1044.528	11.59093
1044.691	5.26851
1044.855	60.06984
1045.019	60.06984
1045.183	15.80599
1045.346	28.45175
1045.51	24.2364
1045.674	3.16109
1045.837	26.34407
1046.001	26.34407
1046.165	79.04317
1046.328	32.66719
1046.492	15.80599
1046.655	-5.26836
1046.819	57.9618
1046.983	45.31408
1047.146	11.59093
1047.31	22.12877
1047.473	-51.62336
1047.636	49.5299
1047.8	32.66719
1047.963	-81.11567
1048.127	-9.48295
1048.29	79.04317
