Data from absorb_only_2.23.25_USB4F045381__39__0144.txt Node

Date: Sun Feb 23 19:19:42 EST 2025
User: ssocol
Spectrometer: USB4F04538
Trigger mode: 4
Integration Time (sec): 2.600000E-3
Scans to average: 1
Electric dark correction enabled: true
Nonlinearity correction enabled: true
Boxcar width: 0
XAxis mode: Wavelengths
Number of Pixels in Spectrum: 3648
>>>>>Begin Spectral Data<<<<<
345.52	21.07496
345.736	21.07496
345.952	21.07496
346.168	10.53718
346.384	31.61332
346.6	12.64469
346.816	42.15228
347.032	42.15228
347.248	6.32224
347.464	10.53718
347.68	-75.84956
347.896	-21.07254
348.112	-42.14263
348.328	0
348.544	-27.39383
348.76	23.18258
348.975	29.5056
349.191	-25.28676
349.407	25.29023
349.623	2.10739
349.839	-33.71489
350.055	29.5056
350.27	-4.2147
350.486	21.07496
350.702	-25.28676
350.918	-8.42931
351.133	33.72107
351.349	18.96735
351.565	37.93663
351.781	-23.17966
351.996	42.15228
352.212	4.2148
352.428	-21.07254
352.644	-4.2147
352.859	48.47593
353.075	4.2148
353.291	82.20557
353.506	-8.42931
353.722	4.2148
353.938	-8.42931
354.153	-8.42931
354.369	33.72107
354.584	84.31387
354.8	59.01582
355.016	-8.42931
355.231	52.69182
355.447	-25.28676
355.662	8.4297
355.878	16.85977
356.093	0
356.309	33.72107
356.524	29.5056
356.74	-42.14263
356.955	-6.32202
357.171	-27.39383
357.386	33.72107
357.602	44.26014
357.817	21.07496
358.033	0
358.248	59.01582
358.464	-23.17966
358.679	48.47593
358.895	10.53718
359.11	-65.31684
359.325	-42.14263
359.541	33.72107
359.756	-25.28676
359.972	14.75222
360.187	37.93663
360.402	42.15228
360.618	67.44814
360.833	25.29023
361.048	8.4297
361.264	4.2148
361.479	-37.92881
361.694	77.98905
361.909	-37.92881
362.125	-21.07254
362.34	-33.71489
362.555	63.23193
362.77	-23.17966
362.986	4.2148
363.201	8.4297
363.416	80.0973
363.631	27.39791
363.847	35.82884
364.062	29.5056
364.277	-12.64382
364.492	33.72107
364.707	23.18258
364.922	-8.42931
365.138	33.72107
365.353	4.2148
365.568	-16.85823
365.783	29.5056
365.998	4.2148
366.213	-25.28676
366.428	-42.14263
366.643	-14.75104
366.858	21.07496
367.073	-65.31684
367.288	-25.28676
367.503	-33.71489
367.718	103.28953
367.933	16.85977
368.148	80.0973
368.363	42.15228
368.578	27.39791
368.793	-14.75104
369.008	46.36803
369.223	-4.2147
369.438	14.75222
369.653	16.85977
369.868	37.93663
370.083	56.90779
370.298	-14.75104
370.513	61.12386
370.728	-23.17966
370.943	33.72107
371.157	-37.92881
371.372	4.2148
371.587	-46.35635
371.802	18.96735
372.017	56.90779
372.232	-16.85823
372.446	-6.32202
372.661	-25.28676
372.876	75.88082
373.091	46.36803
373.306	12.64469
373.52	67.44814
373.735	-25.28676
373.95	-31.6079
374.165	-12.64382
374.379	37.93663
374.594	-25.28676
374.809	27.39791
375.023	-50.56997
375.238	42.15228
375.453	33.72107
375.667	4.2148
375.882	0
376.097	40.04444
376.311	35.82884
376.526	73.77262
376.741	-4.2147
376.955	80.0973
377.17	54.79979
377.384	27.39791
377.599	25.29023
377.813	52.69182
378.028	-10.53658
378.242	35.82884
378.457	25.29023
378.672	71.66443
378.886	101.18103
379.101	-21.07254
379.315	-14.75104
379.53	42.15228
379.744	52.69182
379.958	-80.06246
380.173	54.79979
380.387	44.26014
380.602	-27.39383
380.816	50.58386
381.031	-6.32202
381.245	42.15228
381.459	141.24617
381.674	-25.28676
381.888	-2.10736
382.103	-16.85823
382.317	31.61332
382.531	-10.53658
382.746	6.32224
382.96	120.15828
383.174	27.39791
383.388	-23.17966
383.603	-48.46317
383.817	44.26014
384.031	10.53718
384.246	44.26014
384.46	16.85977
384.674	-2.10736
384.888	-14.75104
385.103	-42.14263
385.317	-21.07254
385.531	52.69182
385.745	-16.85823
385.959	29.5056
386.174	56.90779
386.388	77.98905
386.602	33.72107
386.816	80.0973
387.03	4.2148
387.244	37.93663
387.458	-33.71489
387.672	14.75222
387.887	25.29023
388.101	-23.17966
388.315	61.12386
388.529	-10.53658
388.743	52.69182
388.957	33.72107
389.171	25.29023
389.385	16.85977
389.599	29.5056
389.813	63.23193
390.027	77.98905
390.241	16.85977
390.455	103.28953
390.669	-4.2147
390.883	59.01582
391.097	-12.64382
391.311	-54.78349
391.525	-4.2147
391.738	6.32224
391.952	-4.2147
392.166	42.15228
392.38	-8.42931
392.594	16.85977
392.808	61.12386
393.022	44.26014
393.236	37.93663
393.449	37.93663
393.663	-21.07254
393.877	25.29023
394.091	29.5056
394.305	-6.32202
394.518	-56.89021
394.732	4.2148
394.946	18.96735
395.16	-58.9969
395.373	59.01582
395.587	-33.71489
395.801	-37.92881
396.015	21.07496
396.228	4.2148
396.442	0
396.656	46.36803
396.869	-4.2147
397.083	59.01582
397.297	46.36803
397.51	61.12386
397.724	-18.9654
397.938	54.79979
398.151	10.53718
398.365	54.79979
398.578	-37.92881
398.792	-14.75104
399.005	50.58386
399.219	-25.28676
399.433	-4.2147
399.646	10.53718
399.86	16.85977
400.073	59.01582
400.287	25.29023
400.5	52.69182
400.714	35.82884
400.927	2.10739
401.141	35.82884
401.354	12.64469
401.567	59.01582
401.781	77.98905
401.994	-4.2147
402.208	42.15228
402.421	44.26014
402.635	82.20557
402.848	29.5056
403.061	69.55627
403.275	4.2148
403.488	-8.42931
403.701	-46.35635
403.915	-44.2495
404.128	44.26014
404.341	-4.2147
404.555	-12.64382
404.768	-23.17966
404.981	27.39791
405.195	56.90779
405.408	52.69182
405.621	33.72107
405.834	-67.42343
406.048	8.4297
406.261	73.77262
406.474	61.12386
406.687	0
406.9	109.61514
407.114	8.4297
407.327	8.4297
407.54	69.55627
407.753	23.18258
407.966	33.72107
408.179	77.98905
408.392	21.07496
408.605	-50.56997
408.819	-33.71489
409.032	-8.42931
409.245	105.39804
409.458	0
409.671	-8.42931
409.884	54.79979
410.097	50.58386
410.31	-8.42931
410.523	-2.10736
410.736	29.5056
410.949	31.61332
411.162	18.96735
411.375	48.47593
411.588	25.29023
411.801	16.85977
412.014	-4.2147
412.227	-16.85823
412.44	92.74727
412.653	67.44814
412.865	-4.2147
413.078	27.39791
413.291	-14.75104
413.504	0
413.717	113.83233
413.93	46.36803
414.143	48.47593
414.356	29.5056
414.568	14.75222
414.781	44.26014
414.994	-2.10736
415.207	25.29023
415.42	27.39791
415.632	44.26014
415.845	71.66443
416.058	-37.92881
416.271	77.98905
416.483	18.96735
416.696	8.4297
416.909	84.31387
417.121	42.15228
417.334	-37.92881
417.547	0
417.759	65.34002
417.972	2.10739
418.185	54.79979
418.397	8.4297
418.61	33.72107
418.823	52.69182
419.035	101.18103
419.248	-8.42931
419.46	23.18258
419.673	-4.2147
419.885	69.55627
420.098	12.64469
420.311	4.2148
420.523	35.82884
420.736	42.15228
420.948	52.69182
421.161	29.5056
421.373	6.32224
421.586	-18.9654
421.798	-10.53658
422.01	16.85977
422.223	25.29023
422.435	0
422.648	-6.32202
422.86	42.15228
423.073	2.10739
423.285	67.44814
423.497	46.36803
423.71	4.2148
423.922	25.29023
424.134	-16.85823
424.347	109.61514
424.559	-35.82187
424.771	59.01582
424.984	-42.14263
425.196	61.12386
425.408	-4.2147
425.621	42.15228
425.833	94.85568
426.045	37.93663
426.257	33.72107
426.47	33.72107
426.682	21.07496
426.894	8.4297
427.106	16.85977
427.318	-6.32202
427.531	16.85977
427.743	48.47593
427.955	-6.32202
428.167	18.96735
428.379	-25.28676
428.591	25.29023
428.804	16.85977
429.016	105.39804
429.228	-42.14263
429.44	16.85977
429.652	0
429.864	21.07496
430.076	92.74727
430.288	84.31387
430.5	27.39791
430.712	111.72373
430.924	27.39791
431.136	118.04961
431.348	4.2148
431.56	29.5056
431.772	88.53052
431.984	92.74727
432.196	33.72107
432.408	80.0973
432.62	46.36803
432.832	50.58386
433.044	77.98905
433.256	27.39791
433.468	-4.2147
433.679	56.90779
433.891	109.61514
434.103	59.01582
434.315	59.01582
434.527	0
434.739	54.79979
434.95	-8.42931
435.162	73.77262
435.374	14.75222
435.586	65.34002
435.798	29.5056
436.009	61.12386
436.221	8.4297
436.433	120.15828
436.645	59.01582
436.856	75.88082
437.068	92.74727
437.28	44.26014
437.491	50.58386
437.703	44.26014
437.915	134.91958
438.126	-23.17966
438.338	96.96411
438.55	4.2148
438.761	92.74727
438.973	86.42218
439.184	18.96735
439.396	35.82884
439.608	67.44814
439.819	59.01582
440.031	77.98905
440.242	33.72107
440.454	33.72107
440.665	42.15228
440.877	42.15228
441.088	37.93663
441.3	67.44814
441.511	92.74727
441.723	16.85977
441.934	92.74727
442.146	126.48442
442.357	-23.17966
442.569	92.74727
442.78	75.88082
442.991	84.31387
443.203	37.93663
443.414	63.23193
443.626	37.93663
443.837	86.42218
444.048	67.44814
444.26	67.44814
444.471	-12.64382
444.682	-56.89021
444.894	37.93663
445.105	75.88082
445.316	50.58386
445.528	96.96411
445.739	-6.32202
445.95	8.4297
446.161	105.39804
446.373	75.88082
446.584	84.31387
446.795	73.77262
447.006	75.88082
447.217	86.42218
447.429	69.55627
447.64	42.15228
447.851	50.58386
448.062	75.88082
448.273	118.04961
448.484	105.39804
448.695	122.26697
448.907	-8.42931
449.118	42.15228
449.329	86.42218
449.54	111.72373
449.751	42.15228
449.962	59.01582
450.173	111.72373
450.384	90.63889
450.595	101.18103
450.806	179.20971
451.017	63.23193
451.228	56.90779
451.439	139.13728
451.65	88.53052
451.861	29.5056
452.072	103.28953
452.283	94.85568
452.494	92.74727
452.705	86.42218
452.915	160.22709
453.126	181.31899
453.337	77.98905
453.548	67.44814
453.759	69.55627
453.97	126.48442
454.181	52.69182
454.391	153.89993
454.602	143.35507
454.813	145.464
455.024	88.53052
455.235	122.26697
455.445	134.91958
455.656	120.15828
455.867	113.83233
456.078	101.18103
456.288	126.48442
456.499	160.22709
456.71	109.61514
456.921	14.75222
457.131	115.94096
457.342	29.5056
457.553	82.20557
457.763	35.82884
457.974	-4.2147
458.184	147.57295
458.395	145.464
458.606	223.5089
458.816	170.77278
459.027	212.96067
459.237	46.36803
459.448	67.44814
459.659	25.29023
459.869	143.35507
460.08	153.89993
460.29	210.85109
460.501	113.83233
460.711	170.77278
460.922	77.98905
461.132	96.96411
461.343	177.10045
461.553	202.41294
461.764	149.68192
461.974	151.79091
462.184	196.08454
462.395	113.83233
462.605	204.52245
462.816	177.10045
463.026	105.39804
463.236	139.13728
463.447	206.63197
463.657	153.89993
463.867	187.64696
464.078	132.81075
464.288	265.70668
464.498	210.85109
464.709	274.14716
464.919	206.63197
465.129	143.35507
465.339	177.10045
465.55	253.04654
465.76	187.64696
465.97	115.94096
466.18	221.39921
466.391	244.60683
466.601	219.28955
466.811	286.80843
467.021	269.92688
467.231	280.47771
467.441	265.70668
467.651	208.74152
467.862	253.04654
468.072	312.13296
468.282	223.5089
468.492	320.57505
468.702	337.46008
468.912	360.67883
469.122	371.23349
469.332	379.67753
469.542	244.60683
469.752	400.78878
469.962	307.91202
470.172	299.47036
470.382	362.78973
470.592	379.67753
470.802	354.34623
471.012	381.78858
471.222	405.01123
471.432	375.45547
471.642	438.79314
471.852	464.13222
472.062	514.81688
472.272	569.73455
472.482	514.81688
472.691	582.40916
472.901	521.15305
473.111	525.37723
473.321	597.19681
473.531	582.40916
473.741	440.90465
473.95	753.55959
474.16	561.28507
474.37	751.44618
474.58	764.12683
474.79	838.10432
474.999	664.80534
475.209	734.53922
475.419	800.0573
475.628	781.03494
475.838	772.5808
476.048	884.61012
476.258	827.5354
476.467	1068.55471
476.677	1085.4715
476.886	1062.211
477.096	1030.4932
477.306	931.11986
477.515	1117.19135
477.725	1085.4715
477.935	918.43502
478.144	1091.81538
478.354	1081.24227
478.563	1290.60891
478.773	1237.73541
478.982	1301.18379
479.192	1322.33369
479.401	1218.70137
479.611	1480.96153
479.82	1453.46586
480.03	1508.45714
480.239	1582.483
480.449	1366.74902
480.658	1607.86289
480.868	1582.483
481.077	1732.64236
481.287	1713.60886
481.496	1741.10161
481.705	1662.85161
481.915	1876.4407
482.124	1753.79037
482.333	1810.88806
482.543	1774.938
482.752	1901.81463
482.961	1935.64533
483.171	2202.003
483.38	1910.27244
483.589	2225.25063
483.799	2182.98144
484.008	2189.32203
484.217	2197.77604
484.426	2497.79572
484.636	2352.03652
484.845	2297.10012
485.054	2322.4562
485.263	2472.44998
485.472	2493.57154
485.682	2586.49283
485.891	2493.57154
486.1	2660.39095
486.309	2670.94658
486.518	2616.05389
486.727	2670.94658
486.936	2780.70586
487.146	2706.83332
487.355	2698.38971
487.564	2725.83067
487.773	2884.09933
487.982	2806.0298
488.191	2869.3309
488.4	2884.09933
488.609	2976.91314
488.818	3118.18705
489.027	3213.03254
489.236	3210.92522
489.445	3480.52299
489.654	3371.03327
489.863	3324.69636
490.072	3352.07828
490.281	3451.04974
490.49	3307.8445
490.698	3528.93562
490.907	3440.52272
491.116	3613.10829
491.325	3455.26042
491.534	3701.45724
491.743	3564.71263
491.952	3793.97693
492.16	3592.06791
492.369	3890.66143
492.578	3878.0528
492.787	3917.97767
492.996	3875.95129
493.204	3871.74821
493.413	3915.87654
493.622	4086.0019
493.831	3915.87654
494.039	4146.87803
494.248	3949.49216
494.457	4251.79528
494.665	4272.77235
494.874	4321.01147
495.083	4291.64988
495.291	4430.03164
495.5	4356.65914
495.709	4306.3312
495.917	4125.88825
496.126	4478.23327
496.335	4430.03164
496.543	4450.9903
496.752	4394.3969
496.96	4622.76805
497.169	4557.84521
497.377	4524.32829
497.586	4597.63917
497.794	4765.10395
498.003	4788.11906
498.211	4940.78583
498.42	4781.84248
498.628	4848.78208
498.837	4840.4159
499.045	4731.62253
499.254	4834.14103
499.462	4936.6048
499.671	5003.49017
499.879	5155.98386
500.087	4984.68105
500.296	5064.08464
500.504	4924.06117
500.713	5160.16003
500.921	5051.54945
501.129	5224.87873
501.338	4901.06238
501.546	5243.66383
501.754	5162.24808
501.962	5206.09173
502.171	5316.699
502.379	5450.17478
502.587	5204.00417
502.795	5337.56092
503.004	5333.38873
503.212	5446.00512
503.42	5402.21799
503.628	5748.06139
503.837	5433.49557
504.045	5496.03485
504.253	5454.34435
504.461	5683.52551
504.669	5691.854
504.877	6049.62169
505.085	5537.71594
505.294	5920.73935
505.502	5716.83719
505.71	5866.66495
505.918	5664.78504
506.126	5629.38116
506.334	5612.71815
506.542	6001.82107
506.75	5902.02309
506.958	5933.21579
507.166	5912.42125
507.374	6043.38753
507.582	5879.14507
507.79	5941.53295
507.998	5908.26206
508.206	6323.71529
508.414	6049.62169
508.622	6107.79694
508.83	5966.48216
509.037	6375.581
509.245	5997.6639
509.453	6263.53278
509.661	6219.94004
509.869	6375.581
510.077	6323.71529
510.285	6522.80025
510.492	6408.7674
510.7	6593.2582
510.908	6311.26535
511.116	6199.17797
511.324	6124.41506
511.531	6508.29088
511.739	6383.87816
511.947	6458.53583
512.155	6336.16439
512.362	6390.10079
512.57	6448.16851
512.778	6531.09081
512.985	6327.86509
513.193	6394.24909
513.401	6630.54865
513.608	6651.26235
513.816	6510.36371
514.024	6582.89841
514.231	6541.45348
514.439	6779.63597
514.646	6589.11435
514.854	6727.88302
515.061	6754.79634
515.269	6705.10718
515.477	6674.04475
515.684	6932.74122
515.892	6976.1674
516.099	7025.78514
516.307	6957.5574
516.514	7093.98842
516.722	6949.2857
516.929	6949.2857
517.136	7034.0535
517.344	7127.04791
517.551	6982.37032
517.759	7288.13152
517.966	7217.93214
518.173	7176.62645
518.381	7145.64136
518.588	7102.25382
518.796	7222.06222
519.003	7304.64532
519.21	7217.93214
519.418	7329.4134
519.625	7207.60655
519.832	7189.01909
520.039	7360.36905
520.247	7626.3864
520.454	7222.06222
520.661	7743.81565
520.868	7399.5725
521.076	7772.64745
521.283	7467.64405
521.49	7725.27875
521.697	7682.01934
521.904	7632.5686
522.112	7465.58162
522.319	7807.65199
522.526	7692.32004
522.733	7933.20708
522.94	7927.03404
523.147	7902.34001
523.354	7595.47252
523.561	7949.66763
523.768	8110.08965
523.975	8003.15537
524.183	7846.76757
524.39	8027.83737
524.597	8114.20142
524.804	8140.92595
525.011	8062.79854
525.218	8151.20372
525.425	8066.91123
525.632	8009.32614
525.838	8198.47502
526.045	8301.20259
526.252	8064.8549
526.459	8288.87788
526.666	8060.74216
526.873	8284.76949
527.08	8101.86588
527.287	8157.37014
527.494	8110.08965
527.701	8256.00853
527.907	8186.1444
528.114	8397.72187
528.321	8424.41114
528.528	8496.25073
528.735	8453.14979
528.941	8785.4281
529.148	8428.51689
529.355	8719.83153
529.562	8615.248
529.768	8732.13231
529.975	8395.66871
530.182	8508.56374
530.388	8494.1985
530.595	8699.32875
530.802	8699.32875
531.008	9010.77546
531.215	8707.53008
531.422	8826.41648
531.628	8830.51492
531.835	8848.95701
532.042	8969.81922
532.248	9023.06096
532.455	8877.6418
532.661	9068.10244
532.868	9037.39326
533.074	9031.25095
533.281	9135.64893
533.487	9244.09374
533.694	8953.43475
533.9	9340.22228
534.107	9190.90035
534.313	9260.45865
534.52	9102.90146
534.726	9448.57887
534.933	9127.46247
535.139	9258.41309
535.345	9080.38501
535.552	9311.59209
535.758	9471.06225
535.965	9534.41408
536.171	9532.37071
536.377	9422.00507
536.584	9411.78365
536.79	9450.62289
536.996	9693.74838
537.203	9646.77505
537.409	9479.23754
537.615	9697.83263
537.821	9787.67073
538.028	9832.57881
538.234	9489.4563
538.44	9834.61991
538.646	9395.42853
538.853	9795.83638
539.059	9501.71828
539.265	9726.42068
539.471	9679.45301
539.677	10006.02007
539.883	9848.90722
540.09	9959.09931
540.296	9771.33872
540.502	9883.60195
540.708	9793.79499
540.914	10030.49745
541.12	10101.87809
541.326	10289.42592
541.532	10152.85372
541.738	10161.00901
541.944	10079.44604
542.15	10383.15688
542.356	10354.63303
542.562	10240.51157
542.768	10185.47356
542.974	10116.15215
543.18	10150.81486
543.386	10582.7528
543.592	10252.74088
543.798	10372.97009
544.004	10246.62629
544.21	10558.31904
544.415	10246.62629
544.621	10513.51912
544.827	10407.60384
545.033	10615.32835
545.239	10570.53614
545.445	10896.164
545.651	10660.11457
545.856	10629.57916
546.062	10330.18196
546.268	10790.3684
546.474	10635.68646
546.679	10489.08021
546.885	10700.82418
547.091	11014.13031
547.297	10507.40956
547.502	10694.71805
547.708	10745.59918
547.914	10761.87956
548.119	10674.36349
548.325	10711.00083
548.531	10497.22672
548.736	10584.78886
548.942	10670.29243
549.147	10855.4771
549.353	10918.53984
549.559	11003.96229
549.764	10924.6421
549.97	10965.32125
550.175	10680.46998
550.381	11219.46635
550.586	10928.71022
550.792	11270.27547
550.997	10912.43747
551.203	10908.36917
551.408	11327.17409
551.614	11103.59711
551.819	11026.33158
552.025	11605.45994
552.23	11262.14644
552.435	11449.07334
552.641	11363.7476
552.846	11481.57388
553.052	11286.53303
553.257	11599.368
553.462	11420.63335
553.668	11505.94767
553.873	11306.85406
554.078	11623.73529
554.283	11327.17409
554.489	11731.34198
554.694	11465.32392
554.899	11662.31417
555.105	11581.09166
555.31	11568.90701
555.515	11505.94767
555.72	11548.59853
555.925	11516.10302
556.131	11911.98503
556.336	11552.6603
556.541	12025.61445
556.746	11717.13121
556.951	11847.04244
557.156	11751.64233
557.361	11816.59765
557.567	11814.56793
557.772	11978.94827
557.977	12013.44107
558.182	11920.10226
558.387	11635.91845
558.592	11907.92637
558.797	11753.67232
559.002	12054.0179
559.207	11790.21061
559.412	11798.32985
559.617	11678.55693
559.822	12090.5344
560.027	11845.01285
560.232	12153.41811
560.437	11834.86475
560.642	12220.35095
560.847	12155.4465
561.051	12325.80488
561.256	11928.21935
561.461	12356.22075
561.666	12181.81484
561.871	12344.05459
562.076	11857.19028
562.281	12198.0409
562.485	12092.56302
562.69	12370.41429
562.895	12236.57589
563.1	12362.30374
563.305	12102.70601
563.509	12283.22003
563.714	12171.67332
563.919	12327.83266
564.123	12536.65713
564.328	12445.43179
564.533	12516.38596
564.737	12346.0823
564.942	12390.6902
565.147	12398.80038
565.351	12650.16411
565.556	12410.96543
565.761	12262.94044
565.965	12587.33228
566.17	12404.88293
566.374	12415.0204
566.579	12631.92322
566.784	12528.54873
566.988	12465.70522
567.193	12556.92766
567.397	12739.3349
567.602	12909.53948
567.806	12425.1577
568.011	12988.55017
568.215	13104.01358
568.42	12881.17473
568.624	12816.33704
568.828	12708.93704
569.033	12662.32444
569.237	12925.74745
569.442	13041.21967
569.646	12757.57299
569.85	12873.07032
570.055	12648.13737
570.259	12889.27905
570.463	12913.5915
570.668	13025.01403
570.872	13031.09118
571.076	12984.49853
571.281	13027.03975
571.485	12964.24002
571.689	12808.23193
571.893	13160.72673
572.098	12808.23193
572.302	12875.09643
572.506	12941.95508
572.71	12864.96583
572.914	13166.80293
573.119	13237.68885
573.323	13197.18328
573.527	13203.25923
573.731	13039.19398
573.935	13373.36998
574.139	13421.96769
574.343	13063.50191
574.547	13419.94283
574.751	13251.86538
574.955	13057.42499
575.159	13379.44482
575.364	13438.16642
575.568	13239.71408
575.772	13264.01653
575.976	13531.30444
576.18	13419.94283
576.383	13320.71983
576.587	13454.36491
576.791	13158.70133
576.995	13365.27013
577.199	13120.21771
577.403	13324.76994
577.607	13602.16516
577.811	13537.37839
578.015	13264.01653
578.219	13675.04609
578.422	13551.5508
578.626	13843.06141
578.83	13515.10709
579.034	13634.55722
579.238	13705.41188
579.442	13472.58792
579.645	13751.97138
579.849	13650.75293
580.053	13772.21413
580.257	13784.35963
580.46	13590.01792
580.664	13478.66219
580.868	13693.26565
581.071	13711.48495
581.275	13557.62464
581.479	13915.92927
581.682	13606.21422
581.886	13800.55347
582.09	13820.79551
582.293	14229.62925
582.497	13867.3511
582.7	13956.40991
582.904	14092.01278
583.107	14375.33109
583.311	14286.29218
583.515	14081.89353
583.718	14262.00825
583.922	14217.487
584.125	14134.51303
584.329	14011.05715
584.532	14055.58321
584.735	14128.44162
584.939	13982.72177
585.142	14069.75035
585.346	14108.20347
585.549	14387.47251
585.753	14351.04808
585.956	14219.51072
586.159	14096.06047
586.363	14334.85927
586.566	14284.26853
586.769	14512.93071
586.973	14476.50792
587.176	14788.11313
587.379	14276.1739
587.582	14436.03764
587.786	14415.80228
587.989	14460.31988
588.192	14338.90648
588.395	14466.39041
588.599	14512.93071
588.802	14751.69293
589.005	14264.03192
589.208	14555.42342
589.411	14599.93902
589.615	14618.14979
589.818	14413.77873
590.021	14634.33706
590.224	14620.1732
590.427	14862.97616
590.63	14664.68802
590.833	14581.72816
591.036	14561.49376
591.239	14632.31366
591.442	14344.97729
591.645	14612.07954
591.848	14877.13934
592.051	14911.53552
592.254	14395.56676
592.457	14775.97309
592.66	14747.64623
592.863	15174.56192
593.066	14931.7685
593.269	14879.16264
593.472	15004.60689
593.675	15237.28334
593.878	14978.30419
594.081	14923.67531
594.284	15168.49211
594.486	15134.09651
594.689	15004.60689
594.892	15130.04997
595.095	14978.30419
595.298	15140.16632
595.5	15188.72482
595.703	15506.38127
595.906	15018.76986
596.109	15170.51538
596.311	15002.58361
596.514	15152.30595
596.717	14990.4439
596.92	15322.26096
597.122	15190.74809
597.325	15336.42395
597.528	15257.51607
597.73	15641.94546
597.933	15718.83423
598.136	15637.89872
598.338	15318.2144
598.541	15399.14592
598.743	15658.13246
598.946	15285.84193
599.148	15528.63786
599.351	15599.45483
599.554	15775.48999
599.756	15348.56366
599.959	15698.60021
600.161	15449.72845
600.363	15441.63522
600.566	15540.77785
600.768	15585.29137
600.971	15609.57162
601.173	15490.1947
601.376	15544.82452
601.578	15548.87119
601.78	15469.96155
601.983	15664.2026
602.185	15921.18022
602.388	15830.12312
602.59	15913.08615
602.792	15817.98235
602.995	15803.81818
603.197	15672.29613
603.399	15892.85108
603.601	15670.27275
603.804	15702.64701
604.006	15484.12475
604.208	15791.6775
604.41	15546.84786
604.613	15605.5249
604.815	15611.59498
605.017	15834.17005
605.219	15714.78742
605.421	15658.13246
605.623	15775.48999
605.826	15973.79215
606.028	15662.17922
606.23	15712.76401
606.432	15973.79215
606.634	16141.75208
606.836	15714.78742
607.038	15977.83926
607.24	16204.48686
607.442	16214.60553
607.644	16287.4612
607.846	16070.92435
608.048	15955.58023
608.25	16038.54658
608.452	15753.23227
608.654	15937.36841
608.856	15779.53686
609.058	15706.69381
609.26	15799.77128
609.462	15561.01122
609.664	15927.25078
609.866	15915.10967
610.067	16068.90073
610.269	15913.08615
610.471	15739.06834
610.673	16042.59378
610.875	15933.32135
611.077	16259.12816
611.278	15601.47819
611.48	15998.07489
611.682	16123.53905
611.884	16159.96524
612.085	15923.20374
612.287	16188.29709
612.489	16117.46807
612.69	16157.94155
612.892	16325.91374
613.094	16265.1995
613.295	15765.37283
613.497	15947.48607
613.699	16054.73542
613.9	16289.485
614.102	15743.11517
614.304	16192.34452
614.505	15923.20374
614.707	16352.22376
614.908	16089.13701
615.11	16164.01263
615.311	16168.06002
615.513	15805.84163
615.714	16006.16919
615.916	16354.24763
616.117	16054.73542
616.319	16267.22328
616.52	15957.60377
616.722	16113.42076
616.923	16091.16065
617.124	16087.11338
617.326	15777.51342
617.527	16334.0091
617.729	16196.39196
617.93	16305.67548
618.131	16230.79548
618.333	15921.18022
618.534	16242.93801
618.735	16362.34309
618.937	16066.87711
619.138	16024.38142
619.339	15848.33434
619.54	16145.79944
619.742	15832.14658
619.943	16093.18429
620.144	15900.94509
620.345	16089.13701
620.546	16334.0091
620.748	16244.96178
620.949	15987.95706
621.15	16297.58022
621.351	16281.3898
621.552	16423.06006
621.753	16042.59378
621.954	16228.77173
622.155	15921.18022
622.356	16400.79697
622.558	16313.77076
622.759	16263.17572
622.96	15866.54566
623.161	16016.28708
623.362	16068.90073
623.563	16192.34452
623.764	15971.7686
623.965	15961.65086
624.166	16111.3971
624.366	16101.27886
624.567	15953.55669
624.768	16103.3025
624.969	16089.13701
625.17	16232.81923
625.371	16155.91786
625.572	16289.485
625.773	16425.08399
625.973	16499.97082
626.174	16050.6882
626.375	16382.58188
626.576	16168.06002
626.777	16396.74916
626.977	16210.55806
627.178	16259.12816
627.379	16202.46313
627.58	16244.96178
627.78	16020.33425
627.981	16368.41471
628.182	16068.90073
628.382	16046.64099
628.583	16293.53261
628.784	16512.11489
628.984	16083.06611
629.185	16386.62967
629.386	16139.7284
629.586	16554.61977
629.787	16639.6324
629.987	16240.91425
630.188	16216.62926
630.388	16483.77883
630.589	16447.34735
630.79	16257.10439
630.99	16649.75322
631.191	16661.89827
631.391	16726.67331
631.591	16767.15894
631.792	16526.28308
631.992	16882.54837
632.193	16688.21284
632.393	16516.16294
632.594	16287.4612
632.794	16188.29709
632.994	16558.6679
633.195	16526.28308
633.395	16499.97082
633.595	16463.53904
633.796	16441.2755
633.996	16777.2805
634.196	16178.17853
634.397	16854.20635
634.597	16514.13891
634.797	16819.79171
634.997	16240.91425
635.198	16767.15894
635.398	16311.74694
635.598	16611.29442
635.798	16425.08399
635.998	16259.12816
636.199	16338.05679
636.399	16759.06173
636.599	16669.99502
636.799	16534.37923
636.999	16313.77076
637.199	16406.8687
637.399	16277.34221
637.599	16732.74609
637.799	16119.49173
637.999	16599.14971
638.199	16637.60825
638.399	16819.79171
638.599	16489.85081
638.799	16759.06173
638.999	16518.18696
639.199	16708.45509
639.399	16838.01113
639.599	16846.10872
639.799	16526.28308
639.999	16821.81608
640.199	16809.66989
640.399	16702.38239
640.599	16188.29709
640.799	17038.43858
640.998	16722.6248
641.198	16540.45137
641.398	16771.20755
641.598	17072.85805
641.798	16801.57248
641.997	16617.36681
642.197	16546.52353
642.397	17097.15462
642.597	16769.18324
642.796	17089.05572
642.996	16690.23706
643.196	17139.67459
643.395	16580.93278
643.595	16603.19794
643.795	16663.92246
643.994	16690.23706
644.194	16708.45509
644.394	17050.58654
644.593	16617.36681
644.793	17010.09373
644.992	16453.41922
645.192	16708.45509
645.392	16888.62172
645.591	17010.09373
645.791	17105.25357
645.99	17303.69206
646.19	16475.68289
646.389	17012.11835
646.589	16872.42616
646.788	17068.80866
646.987	16991.87232
647.187	17135.62502
647.386	16783.35346
647.586	17496.0833
647.785	17234.84289
647.984	17044.51255
648.184	16773.23186
648.383	17080.95686
648.582	17050.58654
648.782	17508.23527
648.981	17064.75928
649.18	17325.96753
649.38	17210.54399
649.579	16825.86483
649.778	16929.11134
649.977	17143.72418
650.177	16597.1256
650.376	16955.43015
650.575	16925.06233
650.774	16997.9461
650.973	17155.873
651.173	16902.79297
651.372	16979.72484
651.571	16949.35654
651.77	16866.35287
651.969	16793.47511
652.168	16854.20635
652.367	16732.74609
652.566	16817.76734
652.765	17147.77378
652.964	17184.22066
653.163	17676.34939
653.362	17366.46931
653.561	17046.53721
653.76	17180.17096
653.959	16809.66989
654.158	17319.89236
654.357	17157.89782
654.556	16945.30748
654.755	17396.84645
654.954	17161.94746
655.153	16916.96435
655.352	16771.20755
655.551	17176.12127
655.749	17149.79858
655.948	17004.01991
656.147	17089.05572
656.346	17135.62502
656.545	16963.52834
656.743	17222.69339
656.942	16949.35654
657.141	17317.86731
657.34	17176.12127
657.538	16896.71956
657.737	17020.21683
657.936	17257.11725
658.135	16817.76734
658.333	17143.72418
658.532	16957.4547
658.731	16921.01333
658.929	16971.62657
659.128	16927.08684
659.326	16892.67064
659.525	17085.00628
659.724	17042.48789
659.922	16933.16036
660.121	17050.58654
660.319	17010.09373
660.518	16831.93797
660.716	16761.08603
660.915	16935.18487
661.113	17133.60023
661.312	17131.57545
661.51	17390.77097
661.709	17157.89782
661.907	17168.02193
662.105	17008.06912
662.304	17196.36983
662.502	17149.79858
662.701	17198.3947
662.899	17048.56187
663.097	17267.24207
663.296	16884.57281
663.494	17309.76715
663.692	17072.85805
663.891	17091.08044
664.089	16951.38108
664.287	17234.84289
664.485	16935.18487
664.684	17382.67037
664.882	17180.17096
665.08	17251.04239
665.278	17208.51911
665.476	17315.84227
665.675	17163.97228
665.873	17354.31865
666.071	16872.42616
666.269	17125.50113
666.467	16878.49948
666.665	16943.28295
666.863	16603.19794
667.061	16981.74941
667.259	17220.66848
667.457	17674.32379
667.655	17119.42683
667.853	17072.85805
668.051	17196.36983
668.249	17378.62008
668.447	17046.53721
668.645	17022.24146
668.843	17103.22883
669.041	16983.77399
669.239	16848.13312
669.437	17242.94261
669.635	16706.43085
669.833	17091.08044
670.031	16635.58409
670.229	16959.47924
670.426	16995.92151
670.624	17141.69938
670.822	16969.60201
671.02	17228.76813
671.218	16945.30748
671.415	17066.78397
671.613	16963.52834
671.811	16971.62657
672.009	17012.11835
672.206	17204.46934
672.404	16726.67331
672.602	17066.78397
672.799	17064.75928
672.997	17042.48789
673.195	16941.25843
673.392	17024.26609
673.59	16755.01315
673.788	16914.93986
673.985	16580.93278
674.183	17143.72418
674.38	17087.031
674.578	17157.89782
674.775	17097.15462
674.973	16738.8189
675.17	17170.04676
675.368	16570.81235
675.565	16781.32914
675.763	16710.47932
675.96	16643.68072
676.158	16542.47542
676.355	16546.52353
676.553	17026.29073
676.75	16625.46336
676.947	16402.82087
677.145	16704.40662
677.342	16629.51165
677.539	16641.65656
677.737	16916.96435
677.934	16690.23706
678.131	16973.65113
678.329	16663.92246
678.526	17202.44446
678.723	16605.22205
678.92	17066.78397
679.118	16746.916
679.315	16856.23076
679.512	16425.08399
679.709	16501.99482
679.906	16117.46807
680.104	16532.35519
680.301	16554.61977
680.498	16491.87481
680.695	16459.4911
680.892	16846.10872
681.089	16408.89261
681.286	16609.2703
681.483	16115.44441
681.68	16651.77739
681.877	16297.58022
682.075	16265.1995
682.272	16540.45137
682.469	16684.16442
682.665	16526.28308
682.862	16700.35816
683.059	16441.2755
683.256	16819.79171
683.453	16757.03744
683.65	16736.79463
683.847	16224.72423
684.044	16143.77576
684.241	16283.4136
684.438	16564.74011
684.635	16164.01263
684.831	16562.71604
685.028	16164.01263
685.225	16348.17605
685.422	16240.91425
685.619	16208.53432
685.815	16692.26127
686.012	16694.28549
686.209	16103.3025
686.405	16477.70687
686.602	16344.12834
686.799	16234.84298
686.996	16081.04248
687.192	16153.89417
687.389	16208.53432
687.586	16087.11338
687.782	16172.10742
687.979	16293.53261
688.175	15973.79215
688.372	16218.653
688.568	15998.07489
688.765	16135.68106
688.962	15884.75708
689.158	16022.35784
689.355	16103.3025
689.551	16040.57018
689.748	16028.4286
689.944	16265.1995
690.14	16038.54658
690.337	15884.75708
690.533	16032.47579
690.73	15880.71009
690.926	16050.6882
691.123	15860.47521
691.319	15828.09965
691.515	15858.45173
691.712	15561.01122
691.908	15615.6417
692.104	15735.02151
692.301	15998.07489
692.497	15389.02945
692.693	15688.48324
692.889	15775.48999
693.086	15854.40477
693.282	15595.40812
693.478	15704.67041
693.674	15813.93544
693.87	15757.27912
694.067	15480.07812
694.263	15911.06264
694.459	16103.3025
694.655	16186.27337
694.851	15735.02151
695.047	15664.2026
695.243	15799.77128
695.439	15791.6775
695.635	15474.00817
695.831	16010.21634
696.027	15783.58374
696.224	16060.80625
696.42	16115.44441
696.615	16097.23157
696.811	15542.80118
697.007	15569.10459
697.203	15461.8683
697.399	15686.45985
697.595	15378.91298
697.791	15643.96883
697.987	15417.3556
698.183	15666.22598
698.379	15463.89161
698.575	15397.12262
698.77	15484.12475
698.966	15674.31952
699.162	15297.9816
699.358	15370.81982
699.554	15152.30595
699.749	15480.07812
699.945	14943.90826
700.141	14860.95284
700.337	14858.92953
700.532	15182.655
700.728	15176.58519
700.924	15520.54454
701.119	15314.16784
701.315	15245.37643
701.511	15259.53935
701.706	15267.63245
701.902	15249.42298
702.097	14982.35076
702.293	15111.84053
702.489	15267.63245
702.684	15089.58453
702.88	15158.37576
703.075	14816.43979
703.271	15067.32852
703.466	14897.3724
703.662	14941.88497
703.857	14832.62639
704.053	15208.95753
704.248	15239.30661
704.443	15103.74744
704.639	15047.09576
704.834	15257.51607
705.03	14850.83627
705.225	14862.97616
705.42	14984.37405
705.616	14873.09272
705.811	14668.7348
706.006	14931.7685
706.202	14992.46719
706.397	15148.2594
706.592	14982.35076
706.787	14978.30419
706.983	14998.53704
707.178	14925.69861
707.373	15115.88707
707.568	15160.39903
707.763	14682.89849
707.959	14954.02473
708.154	14836.67303
708.349	15004.60689
708.544	14941.88497
708.739	14986.39734
708.934	14755.73964
709.129	15020.79314
709.324	14721.34257
709.519	14816.43979
709.714	14723.36593
709.909	14751.69293
710.104	14512.93071
710.299	14749.66958
710.494	15039.00265
710.689	14775.97309
710.884	14761.80968
711.079	15229.19025
711.274	14828.57974
711.469	14931.7685
711.664	14650.52427
711.859	14818.46312
712.054	14808.34647
712.249	14575.65785
712.443	14233.67665
712.638	14624.22002
712.833	14656.59446
713.028	14737.52945
713.223	14480.55492
713.417	14782.04312
713.612	14877.13934
713.807	14458.29637
714.002	14565.54065
714.196	14960.0946
714.391	14581.72816
714.586	14990.4439
714.78	14723.36593
714.975	14771.92641
715.17	14482.57842
715.364	14616.12637
715.559	14808.34647
715.754	14385.44895
715.948	14448.17878
716.143	14429.96705
716.337	14000.93743
716.532	14595.89217
716.726	14452.22582
716.921	14351.04808
717.115	14359.14244
717.31	14547.32961
717.504	14389.49608
717.699	14790.13647
717.893	14199.2735
718.088	14440.08469
718.282	14741.57617
718.476	14336.88287
718.671	14160.82223
718.865	14575.65785
719.059	14318.67035
719.254	14237.72405
719.448	13962.48192
719.642	14288.31583
719.837	13634.55722
720.031	14148.67956
720.225	13602.16516
720.419	14059.63098
720.614	13794.4808
720.808	14156.77468
721.002	13853.18216
721.196	14334.85927
721.39	14112.25111
721.585	13824.84388
721.779	13897.71264
721.973	13822.81969
722.167	13816.74712
722.361	13893.66447
722.555	13735.77695
722.749	13614.31229
722.943	13715.53365
723.137	13537.37839
723.331	13355.14524
723.525	13707.43624
723.719	13235.66362
723.913	13818.77132
724.107	13760.06851
724.301	13879.49579
724.495	13758.04423
724.689	13654.80182
724.883	13792.45657
725.077	13677.07049
725.271	13486.76116
725.465	13266.0417
725.659	13259.96616
725.853	13507.00832
726.046	13452.34011
726.24	13500.93421
726.434	13628.48378
726.628	13913.90521
726.822	13553.57542
727.015	13877.47168
727.209	13541.42767
727.403	13468.53839
727.596	13211.36043
727.79	13029.06547
727.984	13185.03126
728.177	13231.61313
728.371	13349.07025
728.565	13849.13387
728.758	13577.87054
728.952	13583.94424
729.146	13409.81847
729.339	13662.89956
729.533	13470.56316
729.726	13737.80127
729.92	13413.86823
730.113	13478.66219
730.307	13347.04525
730.5	13428.04224
730.694	13440.19125
730.887	13494.86007
731.081	13492.83535
731.274	13434.11676
731.468	13452.34011
731.661	13816.74712
731.854	13484.73642
732.048	13796.50503
732.241	13472.58792
732.435	13292.3686
732.628	13624.4348
732.821	13634.55722
733.014	13535.35374
733.208	13567.74764
733.401	13500.93421
733.594	13314.64464
733.788	13381.46975
733.981	13608.23874
734.174	13675.04609
734.367	13247.81497
734.56	13347.04525
734.754	13454.36491
734.947	13233.63837
735.14	13264.01653
735.333	13403.74381
735.526	13247.81497
735.719	13144.52335
735.912	13120.21771
736.105	13237.68885
736.298	13132.37061
736.491	13543.4523
736.684	13454.36491
736.877	13513.0824
737.07	13721.60667
737.263	13462.46406
737.456	13504.98362
737.649	13395.64421
737.842	13314.64464
738.035	13330.84508
738.228	13326.79499
738.421	13389.56947
738.614	13197.18328
738.807	13193.13263
739	13300.46903
739.192	13063.50191
739.385	13079.70681
739.578	13057.42499
739.771	13233.63837
739.964	13002.73075
740.156	13241.73931
740.349	12743.38785
740.542	13073.63001
740.735	12692.72432
740.927	13095.9114
741.12	12962.21415
741.313	12866.99196
741.505	12883.20082
741.698	12715.01672
741.891	12941.95508
742.083	12970.31763
742.276	12794.04778
742.468	12919.6695
742.661	12883.20082
742.854	12986.52435
743.046	12715.01672
743.239	12962.21415
743.431	13134.39608
743.624	12567.06269
743.816	12850.78276
744.009	13278.19267
744.201	12386.63507
744.393	12652.19085
744.586	12429.21257
744.778	12558.95468
744.971	12378.52474
745.163	12384.6075
745.355	12279.16417
745.548	12321.74932
745.74	12692.72432
745.932	12613.68183
746.125	12996.65339
746.317	12625.84281
746.509	12400.8279
746.702	12638.00357
746.894	12682.59117
747.086	12532.60294
747.278	12844.70422
747.471	12617.73552
747.663	12706.91047
747.855	12743.38785
748.047	12581.25147
748.239	12609.62812
748.431	12496.11415
748.623	12577.19756
748.815	12285.24795
749.008	12344.05459
749.2	12625.84281
749.392	12633.95001
749.584	12451.51389
749.776	12767.70506
749.968	12646.11062
750.16	12702.85732
750.352	12656.24431
750.544	12901.43537
750.736	12463.67791
750.928	12528.54873
751.12	12682.59117
751.311	12431.23999
751.503	12530.57584
751.695	12248.74429
751.887	12315.66591
752.079	12423.13025
752.271	12374.46953
752.463	12560.98169
752.654	12439.34963
752.846	12342.02687
753.038	11926.19009
753.23	12210.21013
753.421	12114.87735
753.613	12230.49159
753.805	12360.27608
753.997	12114.87735
754.188	12368.38667
754.38	12206.15375
754.572	11946.48235
754.763	12149.36132
754.955	12135.1623
755.146	12177.75826
755.338	12082.41984
755.53	12230.49159
755.721	12177.75826
755.913	12072.27646
756.104	11920.10226
756.296	11881.54425
756.487	11822.68676
756.679	11970.83198
756.87	11914.01435
757.062	11871.39691
757.253	11987.06443
757.445	11680.58724
757.636	12025.61445
757.827	11909.9557
758.019	12009.38321
758.21	11802.38942
758.401	11505.94767
758.593	11355.62043
758.784	11556.72204
758.975	11670.43562
759.167	11351.55679
759.358	11646.07083
759.549	11197.10829
759.74	11725.2517
759.932	11451.1047
760.123	11483.60508
760.314	11644.04037
760.505	11603.4293
760.696	11298.72577
760.888	11457.19871
761.079	11404.38106
761.27	11546.56763
761.461	11235.72597
761.652	11574.99938
761.843	11231.66113
762.034	11343.42938
762.225	10949.05013
762.416	11235.72597
762.607	10822.92424
762.798	11270.27547
762.989	11282.4687
763.18	11380.00146
763.371	11087.33199
763.562	10971.42274
763.753	11001.92865
763.944	11038.53245
764.135	11166.61798
764.326	11121.89455
764.517	10947.01619
764.708	11197.10829
764.899	10963.2874
765.089	11077.16593
765.28	10997.86134
765.471	11150.35551
765.662	11123.92755
765.853	11127.9935
766.043	11091.39833
766.234	11312.95018
766.425	10892.09551
766.615	11256.04957
766.806	11164.58521
766.997	11050.73292
767.187	11101.56401
767.378	10969.38892
767.569	10651.97206
767.759	10816.82025
767.95	10997.86134
768.141	10841.23559
768.331	10597.00499
768.522	10664.18575
768.712	10735.42355
768.903	10590.89698
769.093	10721.17718
769.284	10713.03612
769.474	10678.4345
769.665	10440.19687
769.855	10322.03118
770.046	10615.32835
770.236	10519.62856
770.426	10480.9335
770.617	10409.641
770.807	10546.10148
770.998	10375.00747
771.188	10537.9562
771.378	10277.19806
771.569	10468.71305
771.759	10179.35761
771.949	10436.12292
772.139	10672.32796
772.33	10322.03118
772.52	10544.06518
772.71	10448.34461
772.9	10487.04355
773.09	10446.30769
773.281	10383.15688
773.471	10097.79967
773.661	10393.34334
773.851	10199.74363
774.041	10279.23607
774.231	10252.74088
774.421	10260.89349
774.611	9979.50058
774.802	10048.85413
774.992	10018.25902
775.182	10081.48539
775.372	10299.61543
775.562	9767.25556
775.752	9991.74065
775.942	9887.68341
776.131	9869.31641
776.321	9732.5463
776.511	9852.98918
776.701	9979.50058
776.891	9789.71217
777.081	9722.33686
777.271	9779.50485
777.461	9620.22128
777.651	9757.04741
777.84	9681.49525
778.03	9728.46257
778.22	9718.25297
778.41	9820.33187
778.599	9795.83638
778.789	9585.49314
778.979	9767.25556
779.169	9681.49525
779.358	9528.28393
779.548	9469.01839
779.738	9434.27024
779.927	9379.07237
780.117	9581.40717
780.307	9182.71574
780.496	9305.45662
780.686	9389.29509
780.875	9266.59521
781.065	9528.28393
781.254	9444.49077
781.444	9614.09311
781.633	9047.63008
781.823	9440.40261
782.012	9070.14958
782.202	9350.44656
782.391	9280.91327
782.581	9109.04194
782.77	9125.41582
782.96	9252.27633
783.149	8932.95257
783.338	8963.67518
783.528	8873.54419
783.717	9113.13552
783.906	8937.04915
784.096	9035.34584
784.285	9047.63008
784.474	9029.20348
784.663	8789.52727
784.853	9072.1967
785.042	8756.7319
785.231	9051.72469
785.42	8955.48287
785.61	9035.34584
785.799	8871.49536
785.988	8986.20256
786.177	8750.58225
786.366	8691.12712
786.555	8730.08223
786.744	8781.32886
786.933	8623.45237
787.122	9035.34584
787.312	8906.32308
787.501	8865.34875
787.69	8879.69058
787.879	8957.53097
788.068	8828.46571
788.257	8867.39764
788.445	8506.51162
788.634	8769.03071
788.823	8715.73112
789.012	8844.8589
789.201	8689.07667
789.39	9002.58477
789.579	8446.99182
789.768	8670.62176
789.957	8510.61585
790.145	8668.57112
790.334	8529.08391
790.523	8551.65391
790.712	8631.65645
790.9	8801.82432
791.089	8617.29912
791.278	8625.50342
791.467	8225.18894
791.655	8288.87788
791.844	8383.34938
792.033	8364.86906
792.221	8227.24372
792.41	8190.25468
792.599	8023.72391
792.787	8516.77204
792.976	8159.42557
793.164	8165.59176
793.353	8105.9778
793.541	8362.8156
793.73	8444.93913
793.918	8231.35321
794.107	7879.70121
794.295	8116.25727
794.484	7836.47473
794.672	8192.3098
794.861	8142.98155
795.049	8397.72187
795.238	8095.69783
795.426	8190.25468
795.614	8120.36892
795.803	8105.9778
795.991	8105.9778
796.179	8463.41268
796.368	7902.34001
796.556	8241.62661
796.744	7885.87567
796.932	8118.31311
797.121	7976.41323
797.309	8157.37014
797.497	7912.62955
797.685	8145.03712
797.874	7978.47044
798.062	8142.98155
798.25	7729.39821
798.438	8177.92358
798.626	7957.89741
798.814	7848.82608
799.002	7968.18418
799.19	8251.89951
799.378	7762.35085
799.566	7957.89741
799.755	7762.35085
799.943	7791.18002
800.131	7616.08231
800.318	7920.86081
800.506	7914.68739
800.694	7772.64745
800.882	7729.39821
801.07	7574.8606
801.258	7737.63687
801.446	7712.91987
801.634	7659.35593
801.822	7675.83867
802.01	7846.76757
802.197	7805.59306
802.385	7395.44619
802.573	7560.43098
802.761	7420.20273
802.949	7743.81565
803.136	7560.43098
803.324	7838.53334
803.512	7780.88436
803.699	7646.993
803.887	7459.39421
804.075	7694.38012
804.262	7531.5686
804.45	7863.23505
804.638	7451.14402
804.825	7407.82485
805.013	7277.80968
805.201	7599.59465
805.388	7597.53359
805.576	7762.35085
805.763	7673.7784
805.951	7496.51576
806.138	7644.93243
806.326	7861.17669
806.513	7527.44506
806.701	7912.62955
806.888	7527.44506
807.075	7638.75061
807.263	7416.07686
807.45	7646.993
807.638	7368.62306
807.825	7785.00268
808.012	7403.69872
808.2	7881.75938
808.387	7581.0444
808.574	7679.95914
808.761	7502.70201
808.949	7754.11319
809.136	7539.81542
809.323	7644.93243
809.51	7504.76405
809.698	7494.45364
809.885	7539.81542
810.072	7896.16604
810.259	7405.7618
810.446	7387.19331
810.633	7449.08142
810.82	7972.29874
811.008	7799.41617
811.195	7852.94303
811.382	7852.94303
811.569	7824.12262
811.756	7393.383
811.943	7677.89891
812.13	7401.63562
812.317	7475.89354
812.504	7494.45364
812.691	7515.07392
812.878	7461.4567
813.064	7677.89891
813.251	7482.08043
813.438	7686.13969
813.625	7504.76405
813.812	7700.56023
813.999	7347.98738
814.186	7331.47726
814.372	7649.05354
814.559	7564.55384
814.746	7393.383
814.933	7428.45422
815.12	7325.2856
815.306	7589.28917
815.493	7263.35818
815.68	7428.45422
815.866	7323.22167
816.053	7418.13981
816.24	7304.64532
816.426	7461.4567
816.613	7440.8308
816.799	7611.96052
816.986	7583.10562
817.173	7840.59193
817.359	7581.0444
817.546	7770.58817
817.732	7550.12347
817.919	7758.23206
818.105	7737.63687
818.292	7745.8752
818.478	7556.30804
818.665	7949.66763
818.851	7782.94353
819.037	7731.4579
819.224	7480.01816
819.41	7457.33169
819.597	7135.31189
819.783	7405.7618
819.969	7261.29359
820.156	7277.80968
820.342	7162.16737
820.528	7370.68651
820.714	7281.93848
820.901	7312.9017
821.087	7180.75742
821.273	7508.88806
821.459	7048.52227
821.646	7228.25718
821.832	6945.14972
822.018	7498.57787
822.204	7013.38192
822.39	7325.2856
822.576	7079.52309
822.762	7463.51917
822.948	6969.96427
823.134	7178.69195
823.32	7106.38639
823.507	7195.21511
823.693	6924.46844
823.879	7023.71799
824.065	6835.51313
824.25	7071.2567
824.436	6638.83441
824.622	7003.04528
824.808	6889.30508
824.994	6864.47993
825.18	6868.61768
825.366	6961.69311
825.552	6905.85336
825.738	6978.23506
825.923	6866.54882
826.109	6978.23506
826.295	6756.86644
826.481	6945.14972
826.667	6897.5794
826.852	6947.21772
827.038	6692.68283
827.224	7011.31463
827.409	6870.68653
827.595	6829.30538
827.781	6611.90436
827.966	6684.39947
828.152	6609.83266
828.338	6823.09742
828.523	6473.0491
828.709	6605.68918
828.894	6444.02142
829.08	6591.18629
829.266	6385.95239
829.451	6792.05456
829.637	6613.97604
829.822	6806.54186
830.008	6870.68653
830.193	6754.79634
830.378	6499.9993
830.564	7003.04528
830.749	6713.38963
830.935	6605.68918
831.12	6383.87816
831.305	6566.32155
831.491	6452.31551
831.676	6533.16339
831.861	6529.0182
832.047	6649.19108
832.232	6379.72963
832.417	6217.86394
832.602	6082.86695
832.788	6195.02527
832.973	6136.87766
833.158	6433.65329
833.343	6062.08937
833.528	6468.90257
833.714	6118.18344
833.899	6317.49043
834.084	6147.26251
834.269	6491.70735
834.454	6288.43827
834.639	6460.60923
834.824	6251.07876
835.009	6446.09498
835.194	6265.60836
835.379	6485.48814
835.564	6114.02891
835.749	6278.06139
835.934	6066.24507
836.119	6230.3202
836.304	5827.13895
836.489	6012.21357
836.674	5985.19184
836.859	5999.7425
837.044	6005.97814
837.228	6082.86695
837.413	5752.22422
837.598	5864.58484
837.783	5477.27529
837.968	5808.41313
838.152	5704.34602
838.337	5675.19665
838.522	5808.41313
838.707	6041.30943
838.891	5641.87743
839.076	5829.21948
839.261	5760.54959
839.445	6016.3704
839.63	5908.26206
839.815	5895.78391
839.999	5783.44241
840.184	5883.30492
840.368	5754.3056
840.553	5983.11308
840.737	5641.87743
840.922	5775.11808
841.106	5646.04266
841.291	5704.34602
841.475	5568.97057
841.66	5806.33237
841.844	5635.6294
842.029	5908.26206
842.213	5666.86741
842.397	5978.9555
842.582	5489.78187
842.766	5760.54959
842.951	5343.81904
843.135	5706.42794
843.319	5191.47832
843.504	5433.49557
843.688	5279.14163
843.872	5443.92025
844.056	5489.78187
844.241	5274.96812
844.425	5235.31513
844.609	5099.59648
844.793	4999.31053
844.977	4995.13079
845.161	4942.87631
845.346	5260.36011
845.53	5170.60004
845.714	5391.79096
845.898	5039.01343
846.082	5341.73303
846.266	5034.83457
846.45	5345.90504
846.634	5072.44097
846.818	5151.8076
847.002	4976.32084
847.186	5016.02855
847.37	4871.78717
847.554	4986.77104
847.738	4882.24312
847.922	5183.12729
848.106	5087.06366
848.29	5231.14064
848.473	5183.12729
848.657	5061.9955
848.841	4932.42369
849.025	5061.9955
849.209	4926.15184
849.392	5149.71943
849.576	5153.89574
849.76	5149.71943
849.944	4823.68246
850.127	5030.65561
850.311	4748.36396
850.495	4976.32084
850.678	4940.78583
850.862	4867.60463
851.046	4530.61314
851.229	4723.25127
851.413	4507.5677
851.596	4913.60752
851.78	4765.10395
851.964	4890.60746
852.147	4618.58012
852.331	4882.24312
852.514	4467.75565
852.698	4679.29623
852.881	4386.01134
853.065	4629.04976
853.248	4480.32873
853.431	4673.01613
853.615	4228.71804
853.798	4599.73336
853.982	4471.94676
854.165	4685.57613
854.348	4436.31947
854.532	4543.18226
854.715	4379.72194
854.898	4505.47253
855.081	4329.39972
855.265	4358.75587
855.448	4396.49324
855.631	4425.83965
855.814	4228.71804
855.997	4505.47253
856.181	4178.35876
856.364	4274.86994
856.547	4178.35876
856.73	4142.68024
856.913	4018.80795
857.096	4075.50425
857.279	4180.45731
857.462	4245.50174
857.645	4161.56963
857.828	4155.27336
858.011	4102.79707
858.194	4272.77235
858.377	4025.10829
858.56	4371.33577
858.743	4115.39257
858.926	4344.07832
859.109	4006.20674
859.292	4186.75282
859.475	4211.93297
859.658	4264.38178
859.841	3913.77539
860.023	4060.80665
860.206	4018.80795
860.389	4247.59961
860.572	3812.89676
860.755	3917.97767
860.937	3836.01883
861.12	3892.7628
861.303	3846.52806
861.486	4117.49175
861.668	3878.0528
861.851	3770.85054
862.034	3617.31614
862.216	3947.39134
862.399	3655.18339
862.581	3829.71305
862.764	3547.87705
862.947	3783.46523
863.129	3549.98156
863.312	3693.0445
863.494	3528.93562
863.677	3674.11472
863.859	3632.04302
864.042	3791.87463
864.224	3427.88971
864.406	3522.62147
864.589	3312.05757
864.771	3543.66797
864.954	3406.83328
865.136	3491.04829
865.318	3282.56466
865.501	3423.67857
865.683	3429.99526
865.865	3526.83092
866.048	3324.69636
866.23	3387.88097
866.412	3223.56888
866.594	3299.41816
866.777	3179.31348
866.959	3316.27057
867.141	3073.91468
867.323	3103.43037
867.505	3337.33454
867.687	3499.46821
867.869	3299.41816
868.052	3429.99526
868.234	3088.67291
868.416	3619.42003
868.598	3177.2059
868.78	3402.62178
868.962	3366.82118
869.144	3429.99526
869.326	3303.63137
869.508	3257.28237
869.69	3198.28097
869.872	3385.77507
870.054	3231.99765
870.236	3467.89203
870.417	3269.92382
870.599	3366.82118
870.781	3092.8894
870.963	3375.2453
871.145	2985.34934
871.327	3202.49579
871.508	3012.76531
871.69	3280.45789
871.872	3042.28732
872.054	3111.86285
872.235	2858.7816
872.417	3130.83501
872.599	2983.24032
872.78	3349.97208
872.962	3185.63612
873.144	3111.86285
873.325	3027.52669
873.507	3265.71007
873.689	3160.34466
873.87	3337.33454
874.052	3109.75475
874.233	3042.28732
874.415	3101.3222
874.596	3373.1393
874.778	3160.34466
874.959	3168.77541
875.141	3010.65648
875.322	3286.77814
875.503	3236.21194
875.685	3238.31906
875.866	2976.91314
876.048	3109.75475
876.229	2662.5021
876.41	2789.14739
876.592	2620.2767
876.773	3002.22101
876.954	2552.70589
877.136	3035.96143
877.317	2801.80928
877.498	3078.13139
877.679	2995.89425
877.86	3118.18705
878.042	2974.80406
878.223	3349.97208
878.404	2856.67169
878.585	3101.3222
878.766	2995.89425
878.947	3059.15568
879.128	3042.28732
879.309	3160.34466
879.49	2924.18151
879.672	3451.04974
879.853	3044.39592
880.034	3082.34805
880.215	2852.45185
880.396	3130.83501
880.576	2907.30544
880.757	3225.6761
880.938	2934.72857
881.119	3269.92382
881.3	2913.63408
881.481	3331.01553
881.662	2976.91314
881.843	3227.7833
882.023	2966.36756
882.204	3113.97093
882.385	2841.90197
882.566	3050.72162
882.747	2732.16288
882.927	3050.72162
883.108	2858.7816
883.289	2970.58584
883.469	3016.98293
883.65	3092.8894
883.831	3008.54764
884.011	3265.71007
884.192	3092.8894
884.373	3014.87413
884.553	2953.71237
884.734	3059.15568
884.914	2953.71237
885.095	3050.72162
885.275	2930.50979
885.456	3002.22101
885.636	2839.79196
885.817	3101.3222
885.997	2892.53812
886.178	3126.61908
886.358	3010.65648
886.538	3177.2059
886.719	3046.5045
886.899	3126.61908
887.08	3299.41816
887.26	3406.83328
887.44	2945.27527
887.621	3227.7833
887.801	2806.0298
887.981	3194.06609
888.161	2926.29095
888.342	2900.97668
888.522	2656.16861
888.702	2945.27527
888.882	2985.34934
889.062	2998.00319
889.242	3073.91468
889.423	3120.29508
889.603	3035.96143
889.783	3172.99069
889.963	2926.29095
890.143	3246.74736
890.323	2941.05664
890.503	3086.56464
890.683	2886.20905
890.863	3103.43037
891.043	2791.25774
891.223	3132.94294
891.403	2829.24167
891.583	3219.35439
891.763	2922.07205
891.943	3094.99763
892.122	3021.20048
892.302	2970.58584
892.482	2919.96258
892.662	3016.98293
892.842	2651.94622
893.022	3050.72162
893.201	2673.05766
893.381	2957.93082
893.561	2632.94484
893.741	3010.65648
893.92	2736.38429
894.1	3029.6354
894.28	2698.38971
894.459	2913.63408
894.639	2888.31875
894.819	3025.41797
894.998	2922.07205
895.178	3014.87413
895.357	2689.9459
895.537	2867.22107
895.716	2683.61291
895.896	2808.14004
896.075	2635.05616
896.255	2679.39085
896.434	2425.97867
896.614	2698.38971
896.793	2451.32731
896.973	2670.94658
897.152	2343.5852
897.331	2611.83103
897.511	2409.07873
897.69	2537.92315
897.87	2569.59974
898.049	2637.16746
898.228	2491.45944
898.407	2504.1319
898.587	2396.40333
898.766	2535.81128
898.945	2406.96619
899.124	2506.24394
899.304	2189.32203
899.483	2464.00104
899.662	2193.54905
899.841	2491.45944
900.02	2185.09498
900.199	2459.77651
900.378	2290.76089
900.557	2379.50222
900.737	2294.98706
900.916	2476.67438
901.095	2051.92648
901.274	2216.79707
901.453	2039.24223
901.632	2231.59071
901.811	1842.60765
901.989	2070.95238
902.168	1937.7597
902.347	2233.70405
902.526	2003.30218
902.705	2206.22992
902.884	1846.83685
903.063	2269.62951
903.242	1954.67445
903.42	2070.95238
903.599	1806.6587
903.778	2109.00242
903.957	1920.84457
904.135	2185.09498
904.314	1829.91994
904.493	2015.98712
904.672	1808.77338
904.85	2081.52208
905.029	1677.65598
905.207	1933.53095
905.386	1853.18061
905.565	1895.47122
905.743	1652.27698
905.922	1783.39695
906.1	1554.98786
906.279	1749.5608
906.457	1521.14738
906.636	1703.03457
906.814	1658.62177
906.993	1622.6677
907.171	1529.60753
907.35	1626.89762
907.528	1529.60753
907.707	1624.78266
907.885	1447.12071
908.063	1603.63293
908.242	1377.32418
908.42	1597.28797
908.598	1364.63399
908.777	1480.96153
908.955	1328.6787
909.133	1337.13873
909.311	1199.66758
909.49	1330.79371
909.668	1244.08014
909.846	1447.12071
910.024	1148.91225
910.202	1275.80418
910.38	1208.12701
910.559	1244.08014
910.737	1277.91913
910.915	1402.70467
911.093	1282.14905
911.271	1406.93476
911.449	1309.64373
911.627	1385.78433
911.805	1244.08014
911.983	1411.16485
912.161	1404.81971
912.339	1470.38628
912.517	1286.37898
912.695	1464.04112
912.872	1241.96523
913.05	1453.46586
913.228	1322.33369
913.406	1326.5637
913.584	1335.02372
913.762	1453.46586
913.939	1258.88462
914.117	1275.80418
914.295	1275.80418
914.473	1381.55426
914.65	1343.48377
914.828	1360.40394
915.006	1225.04602
915.184	1286.37898
915.361	1461.92607
915.539	1487.30668
915.716	1151.02701
915.894	1478.84648
916.072	1284.26401
916.249	1375.20915
916.427	1271.57427
916.604	1345.59879
916.782	1186.97855
916.959	1364.63399
917.137	1184.86372
917.314	1292.72388
917.492	1091.81538
917.669	1250.4249
917.847	1157.37131
918.024	1284.26401
918.201	1057.98188
918.379	1066.44013
918.556	956.49035
918.733	1136.22377
918.911	1038.95115
919.088	1250.4249
919.265	990.31924
919.442	1148.91225
919.62	912.09269
919.797	1127.76487
919.974	1041.06565
920.151	1144.68274
920.328	990.31924
920.506	1286.37898
920.683	1064.32556
920.86	1195.43789
921.037	1036.83665
921.214	1051.63825
921.391	956.49035
921.568	1064.32556
921.745	948.03341
921.922	1072.78387
922.099	918.43502
922.276	1165.83045
922.453	1024.14979
922.63	1030.4932
922.807	886.72411
922.984	981.86185
923.161	844.44577
923.338	920.54914
923.514	859.24281
923.691	1024.14979
923.868	846.55961
924.045	924.77741
924.222	738.76589
924.399	821.19417
924.575	783.14849
924.752	882.49613
924.929	785.26206
925.105	869.81237
925.282	696.50105
925.459	861.3567
925.635	734.53922
925.812	781.03494
925.989	726.08599
926.165	916.3209
926.342	742.99261
926.518	804.2846
926.695	886.72411
926.871	781.03494
927.048	679.59635
927.224	787.37564
927.401	717.63293
927.577	753.55959
927.754	620.43582
927.93	671.14428
928.107	635.22506
928.283	700.72734
928.459	582.40916
928.636	787.37564
928.812	502.14492
928.988	633.11228
929.165	542.27454
929.341	683.82246
929.517	599.30939
929.693	766.24031
929.87	508.48083
930.046	554.94811
930.222	483.13796
930.398	607.75981
930.574	472.57906
930.751	599.30939
930.927	506.36885
931.103	540.16233
931.279	487.36163
931.455	557.06041
931.631	497.92105
931.807	573.95937
931.983	396.5664
932.159	516.92892
932.335	379.67753
932.511	481.02615
932.687	413.45632
932.863	443.01617
933.039	489.47348
933.215	443.01617
933.391	398.67758
933.566	350.12459
933.742	333.23872
933.918	358.56795
934.094	322.68561
934.27	436.68165
934.445	278.36751
934.621	356.45708
934.797	360.67883
934.973	383.89964
935.148	278.36751
935.324	337.46008
935.5	303.69116
935.675	322.68561
935.851	238.27725
936.027	234.05762
936.202	244.60683
936.378	206.63197
936.553	219.28955
936.729	181.31899
936.904	196.08454
937.08	227.72833
937.255	185.53762
937.431	208.74152
937.606	229.83807
937.782	164.4453
937.957	168.6636
938.133	139.13728
938.308	69.55627
938.483	202.41294
938.659	118.04961
938.834	143.35507
939.009	92.74727
939.185	126.48442
939.36	185.53762
939.535	103.28953
939.71	134.91958
939.886	162.33619
940.061	111.72373
940.236	109.61514
940.411	103.28953
940.586	73.77262
940.761	156.00896
940.937	82.20557
941.112	122.26697
941.287	44.26014
941.462	92.74727
941.637	84.31387
941.812	126.48442
941.987	-6.32202
942.162	37.93663
942.337	109.61514
942.512	151.79091
942.687	88.53052
942.862	118.04961
943.037	75.88082
943.212	134.91958
943.386	118.04961
943.561	10.53718
943.736	56.90779
943.911	63.23193
944.086	80.0973
944.26	71.66443
944.435	69.55627
944.61	109.61514
944.785	52.69182
944.959	69.55627
945.134	46.36803
945.309	115.94096
945.483	56.90779
945.658	59.01582
945.833	94.85568
946.007	126.48442
946.182	42.15228
946.357	37.93663
946.531	122.26697
946.706	105.39804
946.88	122.26697
947.055	92.74727
947.229	2.10739
947.404	109.61514
947.578	31.61332
947.752	18.96735
947.927	61.12386
948.101	75.88082
948.276	50.58386
948.45	94.85568
948.624	40.04444
948.799	42.15228
948.973	134.91958
949.147	52.69182
949.321	92.74727
949.496	92.74727
949.67	67.44814
949.844	56.90779
950.018	156.00896
950.193	107.50658
950.367	69.55627
950.541	105.39804
950.715	107.50658
950.889	103.28953
951.063	48.47593
951.237	134.91958
951.411	151.79091
951.585	143.35507
951.759	67.44814
951.933	120.15828
952.107	84.31387
952.281	52.69182
952.455	54.79979
952.629	115.94096
952.803	75.88082
952.977	50.58386
953.151	111.72373
953.325	59.01582
953.499	67.44814
953.672	168.6636
953.846	37.93663
954.02	139.13728
954.194	71.66443
954.368	94.85568
954.541	94.85568
954.715	103.28953
954.889	75.88082
955.062	111.72373
955.236	37.93663
955.41	65.34002
955.583	109.61514
955.757	101.18103
955.93	27.39791
956.104	12.64469
956.278	2.10739
956.451	118.04961
956.625	124.37568
956.798	130.70195
956.972	52.69182
957.145	77.98905
957.319	105.39804
957.492	71.66443
957.665	37.93663
957.839	35.82884
958.012	143.35507
958.185	168.6636
958.359	111.72373
958.532	84.31387
958.705	77.98905
958.879	71.66443
959.052	59.01582
959.225	67.44814
959.398	77.98905
959.572	63.23193
959.745	109.61514
959.918	111.72373
960.091	42.15228
960.264	109.61514
960.438	120.15828
960.611	77.98905
960.784	111.72373
960.957	71.66443
961.13	59.01582
961.303	113.83233
961.476	-2.10736
961.649	75.88082
961.822	71.66443
961.995	101.18103
962.168	84.31387
962.341	71.66443
962.514	27.39791
962.686	73.77262
962.859	111.72373
963.032	33.72107
963.205	63.23193
963.378	69.55627
963.551	67.44814
963.723	44.26014
963.896	54.79979
964.069	132.81075
964.242	75.88082
964.414	94.85568
964.587	-25.28676
964.76	139.13728
964.932	67.44814
965.105	46.36803
965.278	10.53718
965.45	67.44814
965.623	67.44814
965.795	33.72107
965.968	105.39804
966.14	35.82884
966.313	8.4297
966.485	37.93663
966.658	-8.42931
966.83	92.74727
967.003	44.26014
967.175	42.15228
967.348	25.29023
967.52	101.18103
967.692	37.93663
967.865	75.88082
968.037	122.26697
968.209	92.74727
968.382	111.72373
968.554	59.01582
968.726	42.15228
968.898	63.23193
969.071	67.44814
969.243	77.98905
969.415	94.85568
969.587	77.98905
969.759	42.15228
969.932	14.75222
970.104	120.15828
970.276	73.77262
970.448	69.55627
970.62	35.82884
970.792	130.70195
970.964	59.01582
971.136	56.90779
971.308	2.10739
971.48	99.07256
971.652	71.66443
971.824	50.58386
971.996	75.88082
972.168	75.88082
972.339	80.0973
972.511	71.66443
972.683	6.32224
972.855	6.32224
973.027	-63.21022
973.199	92.74727
973.37	88.53052
973.542	-12.64382
973.714	-4.2147
973.886	69.55627
974.057	126.48442
974.229	42.15228
974.401	52.69182
974.572	23.18258
974.744	75.88082
974.915	96.96411
975.087	84.31387
975.259	101.18103
975.43	52.69182
975.602	61.12386
975.773	71.66443
975.945	75.88082
976.116	37.93663
976.288	6.32224
976.459	164.4453
976.63	151.79091
976.802	10.53718
976.973	31.61332
977.145	75.88082
977.316	12.64469
977.487	16.85977
977.659	59.01582
977.83	73.77262
978.001	84.31387
978.172	63.23193
978.344	158.11802
978.515	92.74727
978.686	59.01582
978.857	61.12386
979.028	94.85568
979.2	59.01582
979.371	69.55627
979.542	10.53718
979.713	25.29023
979.884	-23.17966
980.055	65.34002
980.226	63.23193
980.397	96.96411
980.568	86.42218
980.739	33.72107
980.91	27.39791
981.081	33.72107
981.252	8.4297
981.423	21.07496
981.594	115.94096
981.765	-14.75104
981.936	75.88082
982.106	54.79979
982.277	80.0973
982.448	33.72107
982.619	33.72107
982.79	92.74727
982.96	109.61514
983.131	42.15228
983.302	37.93663
983.472	-8.42931
983.643	118.04961
983.814	42.15228
983.984	8.4297
984.155	37.93663
984.326	33.72107
984.496	8.4297
984.667	-8.42931
984.837	42.15228
985.008	25.29023
985.178	54.79979
985.349	25.29023
985.519	0
985.69	50.58386
985.86	63.23193
986.031	92.74727
986.201	99.07256
986.371	52.69182
986.542	80.0973
986.712	27.39791
986.882	35.82884
987.053	21.07496
987.223	73.77262
987.393	75.88082
987.563	109.61514
987.734	86.42218
987.904	-2.10736
988.074	71.66443
988.244	59.01582
988.414	27.39791
988.585	29.5056
988.755	63.23193
988.925	54.79979
989.095	71.66443
989.265	77.98905
989.435	16.85977
989.605	82.20557
989.775	73.77262
989.945	33.72107
990.115	35.82884
990.285	18.96735
990.455	12.64469
990.625	33.72107
990.795	-6.32202
990.965	25.29023
991.134	25.29023
991.304	61.12386
991.474	118.04961
991.644	27.39791
991.814	27.39791
991.984	151.79091
992.153	80.0973
992.323	48.47593
992.493	25.29023
992.662	54.79979
992.832	59.01582
993.002	101.18103
993.171	96.96411
993.341	130.70195
993.511	42.15228
993.68	61.12386
993.85	65.34002
994.019	-10.53658
994.189	18.96735
994.358	21.07496
994.528	25.29023
994.697	67.44814
994.867	10.53718
995.036	29.5056
995.206	103.28953
995.375	-10.53658
995.544	71.66443
995.714	8.4297
995.883	86.42218
996.052	0
996.222	71.66443
996.391	42.15228
996.56	-2.10736
996.73	16.85977
996.899	94.85568
997.068	-12.64382
997.237	69.55627
997.406	67.44814
997.576	-12.64382
997.745	50.58386
997.914	4.2148
998.083	16.85977
998.252	4.2148
998.421	71.66443
998.59	-37.92881
998.759	59.01582
998.928	59.01582
999.097	0
999.266	63.23193
999.435	40.04444
999.604	113.83233
999.773	92.74727
999.942	35.82884
1000.111	65.34002
1000.28	-21.07254
1000.448	18.96735
1000.617	75.88082
1000.786	27.39791
1000.955	-8.42931
1001.124	67.44814
1001.292	59.01582
1001.461	124.37568
1001.63	16.85977
1001.798	-6.32202
1001.967	50.58386
1002.136	59.01582
1002.304	8.4297
1002.473	21.07496
1002.642	50.58386
1002.81	27.39791
1002.979	4.2148
1003.147	50.58386
1003.316	59.01582
1003.484	84.31387
1003.653	25.29023
1003.821	35.82884
1003.99	59.01582
1004.158	8.4297
1004.327	8.4297
1004.495	46.36803
1004.663	-67.42343
1004.832	4.2148
1005	113.83233
1005.168	-33.71489
1005.337	2.10739
1005.505	-16.85823
1005.673	14.75222
1005.842	56.90779
1006.01	-16.85823
1006.178	56.90779
1006.346	75.88082
1006.514	-6.32202
1006.683	29.5056
1006.851	-25.28676
1007.019	10.53718
1007.187	25.29023
1007.355	59.01582
1007.523	-27.39383
1007.691	134.91958
1007.859	-31.6079
1008.027	10.53718
1008.195	37.93663
1008.363	59.01582
1008.531	27.39791
1008.699	14.75222
1008.867	-6.32202
1009.035	84.31387
1009.203	54.79979
1009.37	40.04444
1009.538	4.2148
1009.706	-12.64382
1009.874	25.29023
1010.042	44.26014
1010.209	23.18258
1010.377	12.64469
1010.545	29.5056
1010.713	25.29023
1010.88	-40.03573
1011.048	-42.14263
1011.216	67.44814
1011.383	73.77262
1011.551	27.39791
1011.718	77.98905
1011.886	33.72107
1012.054	-8.42931
1012.221	29.5056
1012.389	18.96735
1012.556	-33.71489
1012.724	4.2148
1012.891	8.4297
1013.058	16.85977
1013.226	75.88082
1013.393	63.23193
1013.561	-2.10736
1013.728	92.74727
1013.895	63.23193
1014.063	-14.75104
1014.23	21.07496
1014.397	29.5056
1014.565	16.85977
1014.732	67.44814
1014.899	35.82884
1015.066	29.5056
1015.233	-67.42343
1015.401	2.10739
1015.568	84.31387
1015.735	73.77262
1015.902	-54.78349
1016.069	12.64469
1016.236	63.23193
1016.403	59.01582
1016.57	8.4297
1016.737	2.10739
1016.904	29.5056
1017.071	14.75222
1017.238	-10.53658
1017.405	29.5056
1017.572	67.44814
1017.739	67.44814
1017.906	40.04444
1018.073	18.96735
1018.24	8.4297
1018.407	69.55627
1018.573	-23.17966
1018.74	25.29023
1018.907	-46.35635
1019.074	16.85977
1019.241	8.4297
1019.407	-25.28676
1019.574	8.4297
1019.741	-48.46317
1019.907	-8.42931
1020.074	71.66443
1020.241	-42.14263
1020.407	109.61514
1020.574	103.28953
1020.74	0
1020.907	50.58386
1021.073	50.58386
1021.24	-29.50088
1021.406	35.82884
1021.573	63.23193
1021.739	67.44814
1021.906	16.85977
1022.072	-8.42931
1022.239	21.07496
1022.405	50.58386
1022.571	18.96735
1022.738	86.42218
1022.904	42.15228
1023.07	84.31387
1023.237	59.01582
1023.403	29.5056
1023.569	65.34002
1023.735	2.10739
1023.902	-6.32202
1024.068	18.96735
1024.234	59.01582
1024.4	-21.07254
1024.566	-16.85823
1024.732	25.29023
1024.898	35.82884
1025.065	8.4297
1025.231	54.79979
1025.397	10.53718
1025.563	2.10739
1025.729	-18.9654
1025.895	40.04444
1026.061	-12.64382
1026.227	2.10739
1026.392	33.72107
1026.558	-8.42931
1026.724	75.88082
1026.89	-54.78349
1027.056	61.12386
1027.222	33.72107
1027.388	141.24617
1027.553	-29.50088
1027.719	31.61332
1027.885	14.75222
1028.051	65.34002
1028.216	-6.32202
1028.382	18.96735
1028.548	56.90779
1028.713	42.15228
1028.879	12.64469
1029.045	59.01582
1029.21	31.61332
1029.376	-50.56997
1029.541	50.58386
1029.707	27.39791
1029.873	-12.64382
1030.038	86.42218
1030.204	-6.32202
1030.369	-16.85823
1030.534	-18.9654
1030.7	67.44814
1030.865	42.15228
1031.031	46.36803
1031.196	33.72107
1031.361	-31.6079
1031.527	-4.2147
1031.692	-16.85823
1031.857	8.4297
1032.023	67.44814
1032.188	-58.9969
1032.353	52.69182
1032.518	-80.06246
1032.684	-31.6079
1032.849	-31.6079
1033.014	63.23193
1033.179	-10.53658
1033.344	10.53718
1033.509	29.5056
1033.674	21.07496
1033.839	16.85977
1034.004	14.75222
1034.17	-52.67674
1034.335	-42.14263
1034.5	-50.56997
1034.664	-12.64382
1034.829	35.82884
1034.994	0
1035.159	0
1035.324	25.29023
1035.489	0
1035.654	27.39791
1035.819	35.82884
1035.984	71.66443
1036.148	29.5056
1036.313	-10.53658
1036.478	42.15228
1036.643	50.58386
1036.807	18.96735
1036.972	-56.89021
1037.137	-18.9654
1037.301	25.29023
1037.466	-6.32202
1037.631	-56.89021
1037.795	92.74727
1037.96	10.53718
1038.124	52.69182
1038.289	-6.32202
1038.454	33.72107
1038.618	63.23193
1038.783	23.18258
1038.947	16.85977
1039.111	-31.6079
1039.276	-33.71489
1039.44	21.07496
1039.605	111.72373
1039.769	75.88082
1039.933	-23.17966
1040.098	-12.64382
1040.262	16.85977
1040.426	50.58386
1040.591	33.72107
1040.755	-33.71489
1040.919	-8.42931
1041.083	2.10739
1041.248	12.64469
1041.412	-16.85823
1041.576	50.58386
1041.74	-12.64382
1041.904	77.98905
1042.068	-8.42931
1042.232	-37.92881
1042.397	4.2148
1042.561	54.79979
1042.725	12.64469
1042.889	-33.71489
1043.053	46.36803
1043.217	-16.85823
1043.381	109.61514
1043.544	65.34002
1043.708	73.77262
1043.872	4.2148
1044.036	-16.85823
1044.2	-14.75104
1044.364	-16.85823
1044.528	-6.32202
1044.691	90.63889
1044.855	12.64469
1045.019	4.2148
1045.183	82.20557
1045.346	-21.07254
1045.51	-65.31684
1045.674	-37.92881
1045.837	-40.03573
1046.001	52.69182
1046.165	29.5056
1046.328	-44.2495
1046.492	44.26014
1046.655	42.15228
1046.819	25.29023
1046.983	61.12386
1047.146	2.10739
1047.31	-44.2495
1047.473	59.01582
1047.636	21.07496
1047.8	50.58386
1047.963	37.93663
1048.127	-71.63655
1048.29	-16.85823
