Data from absorb_only_2.23.25_USB4F045381__55__0160.txt Node

Date: Sun Feb 23 19:22:51 EST 2025
User: ssocol
Spectrometer: USB4F04538
Trigger mode: 4
Integration Time (sec): 2.600000E-3
Scans to average: 1
Electric dark correction enabled: true
Nonlinearity correction enabled: true
Boxcar width: 0
XAxis mode: Wavelengths
Number of Pixels in Spectrum: 3648
>>>>>Begin Spectral Data<<<<<
345.52	18.61609
345.736	18.61609
345.952	18.61609
346.168	20.72369
346.384	12.29343
346.6	24.93896
346.816	-29.85205
347.032	8.07845
347.248	-23.53085
347.464	27.04663
347.68	-31.95906
347.896	39.69314
348.112	-2.45859
348.328	39.69314
348.544	-25.63794
348.76	-15.10224
348.975	-10.88778
349.191	-69.8811
349.407	24.93896
349.623	-53.02787
349.839	56.55646
350.055	22.83131
350.27	16.50851
350.486	-57.24133
350.702	-103.58262
350.918	-25.63794
351.133	31.26204
351.349	22.83131
351.565	-40.38689
351.781	5.97099
351.996	1.75615
352.212	-10.88778
352.428	27.04663
352.644	-10.88778
352.859	12.29343
353.075	5.97099
353.291	10.18593
353.506	33.36978
353.722	1.75615
353.938	-21.42373
354.153	-34.06606
354.369	-0.35123
354.584	1.75615
354.8	73.42125
355.016	-80.41353
355.231	-17.20943
355.447	8.07845
355.662	14.40096
355.878	-34.06606
356.093	-10.88778
356.309	16.50851
356.524	-25.63794
356.74	-25.63794
356.955	-59.34802
357.171	14.40096
357.386	-95.15786
357.602	-27.74501
357.817	-44.60065
358.033	-74.09415
358.248	5.97099
358.464	-69.8811
358.679	-23.53085
358.895	60.77252
359.11	-4.56592
359.325	-42.49378
359.541	-82.51994
359.756	-42.49378
359.972	-0.35123
360.187	-38.27997
360.402	-53.02787
360.618	-15.10224
360.833	-36.17303
361.048	-78.3071
361.264	5.97099
361.479	-78.3071
361.694	5.97099
361.909	-10.88778
362.125	-34.06606
362.34	-15.10224
362.555	43.90883
362.77	-38.27997
362.986	18.61609
363.201	-19.31659
363.416	-2.45859
363.631	52.34049
363.847	-90.94533
364.062	24.93896
364.277	-17.20943
364.492	-34.06606
364.707	-29.85205
364.922	-44.60065
365.138	-101.47647
365.353	33.36978
365.568	5.97099
365.783	-55.13461
365.998	27.04663
366.213	-19.31659
366.428	48.12461
366.643	58.66448
366.858	-50.9211
367.073	-34.06606
367.288	14.40096
367.503	5.97099
367.718	12.29343
367.933	31.26204
368.148	-36.17303
368.363	-44.60065
368.578	8.07845
368.793	-25.63794
369.008	16.50851
369.223	-53.02787
369.438	52.34049
369.653	33.36978
369.868	-48.81431
370.083	1.75615
370.298	8.07845
370.513	8.07845
370.728	1.75615
370.943	56.55646
371.157	-48.81431
371.372	-8.78052
371.587	-63.56133
371.802	-10.88778
372.017	86.0708
372.232	-0.35123
372.446	-2.45859
372.661	-2.45859
372.876	-36.17303
373.091	-2.45859
373.306	-27.74501
373.52	-42.49378
373.735	-25.63794
373.95	27.04663
374.165	-42.49378
374.379	-42.49378
374.594	-44.60065
374.809	1.75615
375.023	46.01671
375.238	-8.78052
375.453	24.93896
375.667	-0.35123
375.882	-42.49378
376.097	-15.10224
376.311	-4.56592
376.526	-103.58262
376.741	-76.20064
376.955	37.58533
377.17	-8.78052
377.384	48.12461
377.599	-53.02787
377.813	-19.31659
378.028	-10.88778
378.242	60.77252
378.457	-53.02787
378.672	39.69314
378.886	-27.74501
379.101	27.04663
379.315	-19.31659
379.53	-8.78052
379.744	3.86356
379.958	56.55646
380.173	-2.45859
380.387	41.80097
380.602	-19.31659
380.816	48.12461
381.031	-69.8811
381.245	-2.45859
381.459	-17.20943
381.674	14.40096
381.888	-27.74501
382.103	16.50851
382.317	-36.17303
382.531	-25.63794
382.746	39.69314
382.96	83.96248
383.174	-2.45859
383.388	-17.20943
383.603	39.69314
383.817	22.83131
384.031	-44.60065
384.246	-25.63794
384.46	-2.45859
384.674	-120.43087
384.888	5.97099
385.103	18.61609
385.317	-42.49378
385.531	5.97099
385.745	-19.31659
385.959	64.98867
386.174	-48.81431
386.388	-17.20943
386.602	-2.45859
386.816	-53.02787
387.03	-25.63794
387.244	-10.88778
387.458	-21.42373
387.672	-19.31659
387.887	-2.45859
388.101	-82.51994
388.315	1.75615
388.529	22.83131
388.743	14.40096
388.957	-40.38689
389.171	-27.74501
389.385	-19.31659
389.599	-23.53085
389.813	18.61609
390.027	-17.20943
390.241	-4.56592
390.455	27.04663
390.669	-15.10224
390.883	1.75615
391.097	33.36978
391.311	-10.88778
391.525	20.72369
391.738	18.61609
391.952	-48.81431
392.166	-2.45859
392.38	8.07845
392.594	-34.06606
392.808	-15.10224
393.022	5.97099
393.236	-17.20943
393.449	-6.67324
393.663	5.97099
393.877	-31.95906
394.091	-8.78052
394.305	-61.45468
394.518	-25.63794
394.732	-101.47647
394.946	1.75615
395.16	-4.56592
395.373	-2.45859
395.587	43.90883
395.801	18.61609
396.015	-2.45859
396.228	-15.10224
396.442	-23.53085
396.656	20.72369
396.869	52.34049
397.083	67.09678
397.297	37.58533
397.51	3.86356
397.724	24.93896
397.938	58.66448
398.151	-46.70749
398.365	-12.99502
398.578	60.77252
398.792	39.69314
399.005	33.36978
399.219	56.55646
399.433	48.12461
399.646	-25.63794
399.86	-74.09415
400.073	-120.43087
400.287	39.69314
400.5	27.04663
400.714	8.07845
400.927	27.04663
401.141	3.86356
401.354	14.40096
401.567	-6.67324
401.781	16.50851
401.994	-0.35123
402.208	-10.88778
402.421	-25.63794
402.635	-27.74501
402.848	22.83131
403.061	8.07845
403.275	-17.20943
403.488	-21.42373
403.701	29.15432
403.915	22.83131
404.128	-46.70749
404.341	14.40096
404.555	5.97099
404.768	-109.90091
404.981	24.93896
405.195	10.18593
405.408	-48.81431
405.621	24.93896
405.834	-57.24133
406.048	-40.38689
406.261	-19.31659
406.474	-0.35123
406.687	14.40096
406.9	3.86356
407.114	-27.74501
407.327	-2.45859
407.54	-29.85205
407.753	14.40096
407.966	-34.06606
408.179	-53.02787
408.392	41.80097
408.605	1.75615
408.819	-29.85205
409.032	102.93811
409.245	5.97099
409.458	-42.49378
409.671	-23.53085
409.884	60.77252
410.097	16.50851
410.31	-23.53085
410.523	8.07845
410.736	-19.31659
410.949	20.72369
411.162	-44.60065
411.375	31.26204
411.588	29.15432
411.801	62.88058
412.014	39.69314
412.227	39.69314
412.44	1.75615
412.653	43.90883
412.865	-19.31659
413.078	-19.31659
413.291	8.07845
413.504	31.26204
413.717	-6.67324
413.93	10.18593
414.143	69.20492
414.356	-46.70749
414.568	-34.06606
414.781	-0.35123
414.994	56.55646
415.207	-8.78052
415.42	10.18593
415.632	-118.32493
415.845	-53.02787
416.058	1.75615
416.271	20.72369
416.483	16.50851
416.696	-31.95906
416.909	3.86356
417.121	-53.02787
417.334	-48.81431
417.547	-36.17303
417.759	14.40096
417.972	52.34049
418.185	-19.31659
418.397	31.26204
418.61	31.26204
418.823	18.61609
419.035	64.98867
419.248	-27.74501
419.46	14.40096
419.673	-27.74501
419.885	-31.95906
420.098	-48.81431
420.311	-82.51994
420.523	12.29343
420.736	-6.67324
420.948	-8.78052
421.161	-44.60065
421.373	-15.10224
421.586	-34.06606
421.798	54.44846
422.01	-8.78052
422.223	10.18593
422.435	56.55646
422.648	-10.88778
422.86	69.20492
423.073	58.66448
423.285	16.50851
423.497	18.61609
423.71	43.90883
423.922	-0.35123
424.134	35.47754
424.347	16.50851
424.559	-6.67324
424.771	-2.45859
424.984	-12.99502
425.196	5.97099
425.408	-15.10224
425.621	64.98867
425.833	33.36978
426.045	16.50851
426.257	14.40096
426.47	64.98867
426.682	-34.06606
426.894	-17.20943
427.106	41.80097
427.318	-15.10224
427.531	5.97099
427.743	-17.20943
427.955	-36.17303
428.167	-10.88778
428.379	5.97099
428.591	-2.45859
428.804	18.61609
429.016	60.77252
429.228	27.04663
429.44	-17.20943
429.652	48.12461
429.864	8.07845
430.076	52.34049
430.288	-25.63794
430.5	-19.31659
430.712	37.58533
430.924	-2.45859
431.136	-12.99502
431.348	1.75615
431.56	39.69314
431.772	-0.35123
431.984	-10.88778
432.196	22.83131
432.408	73.42125
432.62	-8.78052
432.832	-19.31659
433.044	-15.10224
433.256	35.47754
433.468	10.18593
433.679	10.18593
433.891	-40.38689
434.103	-15.10224
434.315	-59.34802
434.527	73.42125
434.739	-23.53085
434.95	-19.31659
435.162	-6.67324
435.374	-10.88778
435.586	10.18593
435.798	56.55646
436.009	41.80097
436.221	-8.78052
436.433	67.09678
436.645	-10.88778
436.856	-38.27997
437.068	5.97099
437.28	-25.63794
437.491	5.97099
437.703	29.15432
437.915	41.80097
438.126	5.97099
438.338	14.40096
438.55	-12.99502
438.761	35.47754
438.973	35.47754
439.184	43.90883
439.396	8.07845
439.608	5.97099
439.819	3.86356
440.031	-59.34802
440.242	20.72369
440.454	-36.17303
440.665	-17.20943
440.877	69.20492
441.088	43.90883
441.3	41.80097
441.511	43.90883
441.723	81.85419
441.934	41.80097
442.146	-6.67324
442.357	-19.31659
442.569	-34.06606
442.78	-8.78052
442.991	-34.06606
443.203	43.90883
443.414	-10.88778
443.626	88.17913
443.837	48.12461
444.048	73.42125
444.26	60.77252
444.471	-15.10224
444.682	35.47754
444.894	-0.35123
445.105	54.44846
445.316	22.83131
445.528	14.40096
445.739	16.50851
445.95	8.07845
446.161	-21.42373
446.373	20.72369
446.584	67.09678
446.795	24.93896
447.006	56.55646
447.217	37.58533
447.429	-19.31659
447.64	-50.9211
447.851	-40.38689
448.062	73.42125
448.273	50.23254
448.484	22.83131
448.695	22.83131
448.907	31.26204
449.118	64.98867
449.329	130.35049
449.54	-17.20943
449.751	100.82962
449.962	-17.20943
450.173	157.7665
450.384	52.34049
450.595	5.97099
450.806	67.09678
451.017	58.66448
451.228	5.97099
451.439	77.63768
451.65	39.69314
451.861	-27.74501
452.072	10.18593
452.283	67.09678
452.494	58.66448
452.705	94.50427
452.915	31.26204
453.126	50.23254
453.337	31.26204
453.548	73.42125
453.759	31.26204
453.97	64.98867
454.181	39.69314
454.391	14.40096
454.602	54.44846
454.813	-0.35123
455.024	71.31307
455.235	35.47754
455.445	75.52945
455.656	8.07845
455.867	86.0708
456.078	132.45929
456.288	56.55646
456.499	124.02423
456.71	22.83131
456.921	14.40096
457.131	81.85419
457.342	48.12461
457.553	33.36978
457.763	52.34049
457.974	14.40096
458.184	35.47754
458.395	22.83131
458.606	50.23254
458.816	64.98867
459.027	35.47754
459.237	77.63768
459.448	107.15516
459.659	126.13296
459.869	18.61609
460.08	174.63967
460.29	128.24171
460.501	69.20492
460.711	52.34049
460.922	81.85419
461.132	94.50427
461.343	102.93811
461.553	31.26204
461.764	115.58952
461.974	31.26204
462.184	130.35049
462.395	113.4809
462.605	73.42125
462.816	132.45929
463.026	109.26371
463.236	191.51415
463.447	60.77252
463.657	43.90883
463.867	79.74592
464.078	132.45929
464.288	140.89469
464.498	111.37229
464.709	117.69816
464.919	242.1453
465.129	193.62355
465.339	166.20292
465.55	140.89469
465.76	73.42125
465.97	191.51415
466.18	221.0476
466.391	143.00359
466.601	170.42125
466.811	168.31207
467.021	212.60907
467.231	191.51415
467.441	153.54842
467.651	218.93794
467.862	244.25518
468.072	161.98467
468.282	267.46509
468.492	149.33043
468.702	216.8283
468.912	269.5752
469.122	271.68532
469.332	178.85816
469.542	233.70599
469.752	309.67074
469.962	252.69488
470.172	221.0476
470.382	280.12601
470.592	275.90563
470.802	273.79547
471.012	320.22329
471.222	337.1083
471.432	259.02486
471.642	320.22329
471.852	385.65888
472.062	349.77279
472.272	349.77279
472.482	377.21465
472.691	362.43791
472.901	364.54882
473.111	432.10681
473.321	461.6686
473.531	413.10444
473.741	440.55273
473.95	474.33885
474.16	398.32572
474.37	520.80104
474.58	514.46487
474.79	546.14697
474.999	550.37148
475.209	446.88733
475.419	529.24946
475.628	698.262
475.838	582.05709
476.048	702.4883
476.258	677.13115
476.467	753.20736
476.677	694.03574
476.886	793.36416
477.096	806.04598
477.306	848.32114
477.515	719.39397
477.725	835.63822
477.935	850.435
478.144	854.66273
478.354	918.08266
478.563	909.62625
478.773	888.48578
478.982	981.50947
479.192	882.1438
479.401	1023.79738
479.611	1133.75658
479.82	905.3981
480.03	1021.68293
480.239	1220.46377
480.449	1129.52714
480.658	1281.79656
480.868	1305.06126
481.077	1222.57865
481.287	1224.69354
481.496	1429.84778
481.705	1216.23401
481.915	1343.13127
482.124	1376.97168
482.333	1527.13999
482.543	1404.4672
482.752	1510.21968
482.961	1582.1305
483.171	1806.30626
483.38	1436.19294
483.589	1764.01177
483.799	1683.64819
484.008	1818.99427
484.217	1804.19157
484.426	1857.05733
484.636	1698.45236
484.845	1992.37885
485.054	1952.20774
485.263	1835.91138
485.472	2013.52063
485.682	2062.14417
485.891	1977.57923
486.1	2104.42245
486.309	2110.76394
486.518	2220.67163
486.727	2248.14499
486.936	2212.21799
487.146	2136.12919
487.355	2254.48478
487.564	2212.21799
487.773	2533.34742
487.982	2262.93771
488.191	2560.80095
488.4	2419.28919
488.609	2501.66784
488.818	2391.82601
489.027	2550.24214
489.236	2579.80608
489.445	2748.69643
489.654	2453.08757
489.863	2765.58091
490.072	2641.03815
490.281	2904.84427
490.49	2831.00007
490.698	3006.0873
490.907	2725.47887
491.116	2841.55031
491.325	2968.12518
491.534	2900.62507
491.743	3050.3702
491.952	3178.96222
492.16	3098.86266
492.369	3041.93588
492.578	3168.42413
492.787	3419.11641
492.996	3204.25194
493.204	3134.69955
493.413	3223.21768
493.622	3309.59996
493.831	3522.27068
494.039	3730.54891
494.248	3438.06635
494.457	3587.50891
494.665	3539.10805
494.874	3654.8328
495.083	3560.15311
495.291	3734.75463
495.5	3629.5886
495.709	3701.10671
495.917	3480.17214
496.126	3646.41837
496.335	3650.62562
496.543	3919.72859
496.752	3604.34169
496.96	3999.5558
497.169	3793.62655
497.377	3848.27956
497.586	3827.26075
497.794	4028.9584
498.003	3818.85267
498.211	4261.93446
498.42	4016.35778
498.628	4245.1521
498.837	4169.61459
499.045	4169.61459
499.254	4010.05719
499.462	4295.49509
499.671	4108.74504
499.879	4226.2703
500.087	4152.82475
500.296	4423.39428
500.504	4194.79681
500.713	4394.04751
500.921	4456.92819
501.129	4234.66242
501.338	4238.85836
501.546	4530.26399
501.754	4326.95318
501.962	4536.54866
502.171	4412.91378
502.379	4875.62108
502.587	4377.27601
502.795	4720.80958
503.004	4716.62377
503.212	4771.03235
503.42	4536.54866
503.628	4827.51734
503.837	4683.13397
504.045	4817.0584
504.253	4712.43786
504.461	4806.5989
504.669	4750.10778
504.877	5011.5009
505.085	4783.586
505.294	5061.64731
505.502	4888.1679
505.71	5040.75459
505.918	4821.24205
506.126	5136.8419
506.334	4902.80481
506.542	5065.82557
506.75	5105.51447
506.958	5174.4279
507.166	5013.5906
507.374	5293.40041
507.582	5191.13037
507.79	5222.44348
507.998	5080.44877
508.206	5322.61011
508.414	5249.57726
508.622	5347.64335
508.83	5341.38536
509.037	5508.19281
509.245	5138.9302
509.453	5497.77175
509.661	5433.14807
509.869	5368.50179
510.077	5416.46732
510.285	5476.92787
510.492	5330.9549
510.7	5535.2848
510.908	5401.87043
511.116	5724.81721
511.324	5458.16637
511.531	5618.61981
511.739	5549.87115
511.947	5681.0963
512.155	5714.40841
512.362	5743.55156
512.57	5905.83582
512.778	5822.63106
512.985	5889.19789
513.193	5579.04038
513.401	5499.85601
513.608	5785.17659
513.816	5691.50698
514.024	5635.28228
514.231	5504.02446
514.439	6157.30064
514.646	5835.11418
514.854	5947.42404
515.061	5830.95323
515.269	6103.29595
515.477	6055.50931
515.684	6105.37334
515.892	5970.29355
516.099	6036.8068
516.307	5912.07465
516.514	6032.65043
516.722	5930.78989
516.929	6111.60539
517.136	6047.19732
517.344	6310.91951
517.551	6310.91951
517.759	6520.3821
517.966	6232.05017
518.173	6240.3538
518.381	6003.55319
518.588	6404.27376
518.796	6302.61906
519.003	6456.11684
519.21	6342.04284
519.418	6391.82926
519.625	6223.74617
519.832	6559.75947
520.039	6532.81796
520.247	6530.74537
520.454	6433.30768
520.661	6663.34427
520.868	6603.27211
521.076	6731.67872
521.283	6468.55702
521.49	6773.08139
521.697	6785.50041
521.904	6808.26647
522.112	6460.26366
522.319	6795.84896
522.526	6744.10048
522.733	6826.8912
522.94	6619.84568
523.147	6876.54812
523.354	6953.07694
523.561	6926.19197
523.768	6804.12739
523.975	7145.29706
524.183	6816.54435
524.39	6907.57705
524.597	6862.0662
524.804	7112.24072
525.011	7029.57485
525.218	7062.64549
525.425	7097.77677
525.632	7366.21568
525.838	7101.90944
526.045	7128.7696
526.252	7120.50534
526.459	7314.62173
526.666	7116.37307
526.873	7343.51603
527.08	7213.45778
527.287	7265.07865
527.494	7147.36289
527.701	7638.40717
527.907	7347.64343
528.114	7463.17543
528.321	7260.94949
528.528	7611.61703
528.735	7506.4824
528.941	7500.29627
529.148	7504.42038
529.355	7628.1037
529.562	7506.4824
529.768	7860.83363
529.975	7376.53283
530.182	7661.07295
530.388	7648.71012
530.595	7780.54116
530.802	7448.73765
531.008	7702.27689
531.215	7776.42274
531.422	7875.24175
531.628	7825.83824
531.835	7825.83824
532.042	7671.37473
532.248	7842.3074
532.455	7786.71863
532.661	8214.57227
532.868	7838.19024
533.074	8056.28661
533.281	8103.57919
533.487	7854.65841
533.694	8115.91463
533.9	8483.59498
534.107	8089.18692
534.313	8083.01851
534.52	8111.8029
534.726	8228.95602
534.933	8206.35255
535.139	8298.80617
535.345	8200.18756
535.552	8304.96833
535.758	8124.13786
535.965	8598.49646
536.171	8272.10144
536.377	8426.12188
536.584	8483.59498
536.79	8204.29757
536.996	8278.26437
537.203	8467.17562
537.409	8614.90614
537.615	8723.59017
537.821	8280.31864
538.028	8846.56645
538.234	8536.94947
538.44	8528.74192
538.646	8452.80768
538.853	8721.54001
539.059	8584.13701
539.265	8932.61119
539.471	8938.75604
539.677	9020.67217
539.883	8664.128
540.09	8838.37007
540.296	8873.20272
540.502	8686.68445
540.708	8639.51841
540.914	9192.60545
541.12	8936.70777
541.326	9014.52943
541.532	8942.85251
541.738	9000.19577
541.944	8879.34912
542.15	9127.12137
542.356	9010.43419
542.562	9061.61971
542.768	8854.76255
542.974	9166.00464
543.18	9245.79847
543.386	9278.52699
543.592	9268.29978
543.798	9354.19536
544.004	9098.46657
544.21	9239.66139
544.415	9229.4326
544.621	9276.48158
544.827	9211.01971
545.033	9523.85651
545.239	9243.75279
545.445	9830.1975
545.651	9278.52699
545.856	9532.03015
546.062	9666.85885
546.268	9298.98014
546.474	9331.70173
546.679	9208.97375
546.885	9229.4326
547.091	9589.23855
547.297	9401.22109
547.502	9662.77413
547.708	9474.80929
547.914	9813.86799
548.119	9595.36728
548.325	9689.3237
548.531	9417.57584
548.736	9721.99654
548.942	9605.58154
549.147	9419.62011
549.353	9634.17936
549.559	9928.15462
549.764	9521.81306
549.97	9797.53752
550.175	9879.18031
550.381	10044.43503
550.586	9707.70265
550.792	10046.47462
550.997	9944.47751
551.203	10013.83946
551.408	9919.99282
551.614	9909.79025
551.819	9787.33049
552.025	9919.99282
552.23	9842.44401
552.435	10134.16367
552.641	10217.75014
552.846	10050.55376
553.052	10126.00764
553.257	10046.47462
553.462	9881.22108
553.668	9938.35654
553.873	10307.42716
554.078	10287.04831
554.283	10474.48388
554.489	10450.04203
554.694	10415.41289
554.899	10234.05701
555.105	10448.00512
555.31	10492.81405
555.515	10496.88728
555.72	10445.9682
555.925	10285.01036
556.131	10771.71526
556.336	10303.3515
556.541	10604.80951
556.746	10496.88728
556.951	10564.08828
557.156	10539.65315
557.361	10376.70528
557.567	10617.0249
557.772	10698.44959
557.977	10382.81732
558.182	10580.37737
558.387	10490.77742
558.592	10531.5077
558.797	10505.03359
559.002	10714.73219
559.207	10637.38291
559.412	10610.91726
559.617	10494.85067
559.822	10692.34342
560.027	10568.16063
560.232	10936.50732
560.437	10743.22489
560.642	10897.85919
560.847	10922.26901
561.051	11023.95914
561.256	10855.13802
561.461	10910.0643
561.666	10867.34459
561.871	11080.89352
562.076	10977.18516
562.281	11101.22516
562.485	10928.37121
562.69	10893.79072
562.895	10981.25269
563.1	11034.12663
563.305	10910.0643
563.509	11322.7715
563.714	10942.60928
563.919	11178.47561
564.123	10920.23492
564.328	11034.12663
564.533	11009.7242
564.737	11050.39403
564.942	11007.6906
565.147	11178.47561
565.351	10828.68903
565.556	11210.99754
565.761	11204.89988
565.965	11109.35751
566.17	11032.09315
566.374	11406.07404
566.579	11235.38724
566.784	11217.0951
566.988	11178.47561
567.193	11121.55572
567.397	11204.89988
567.602	11345.12261
567.806	10785.95956
568.011	11387.78954
568.215	11316.67554
568.42	11150.0167
568.624	11452.79749
568.828	11397.94769
569.033	11367.4725
569.237	11542.16732
569.442	11529.9816
569.646	11497.48471
569.85	11554.3527
570.055	11596.99888
570.259	11304.48333
570.463	11469.04792
570.668	11412.16869
570.872	11702.58164
571.076	11479.20413
571.281	11808.14042
571.485	11469.04792
571.689	11594.96821
571.893	11998.90026
572.098	11659.94538
572.302	11680.24885
572.506	11647.76287
572.71	11568.56855
572.914	11923.82261
573.119	11726.94345
573.323	11907.58814
573.527	11523.88862
573.731	11980.63915
573.935	11897.44133
574.139	12045.56465
574.343	11952.23167
574.547	12171.33527
574.751	12033.39174
574.955	12151.05165
575.159	11860.9111
575.364	11710.70238
575.568	11666.03652
575.772	11913.67613
575.976	11844.67458
576.18	11806.11067
576.383	12142.938
576.587	12037.44941
576.791	12069.90965
576.995	11986.72626
577.199	11842.64498
577.403	11962.37738
577.607	12047.59345
577.811	12132.79576
578.015	11866.99966
578.219	12120.62483
578.422	11950.2025
578.626	12189.58989
578.83	12220.01293
579.034	12420.76489
579.238	12282.88204
579.442	12345.74435
579.645	12236.23788
579.849	12343.71664
580.053	12153.08005
580.257	12242.32211
580.46	12278.82618
580.664	12481.58562
580.868	12185.53336
581.071	12376.1592
581.275	12339.66119
581.479	12341.68892
581.682	12274.77029
581.886	12203.78751
582.09	12349.79975
582.293	12809.9205
582.497	12311.27231
582.7	12690.35993
582.904	12428.87466
583.107	12623.47819
583.311	12422.79234
583.515	12649.82632
583.718	12396.43492
583.922	12593.07522
584.125	12747.10303
584.329	12635.639
584.532	12467.39465
584.735	12799.78902
584.939	12536.31928
585.142	12793.71006
585.346	12520.10239
585.549	12840.31413
585.753	12763.31451
585.956	12890.96744
586.159	12528.21088
586.363	12824.10435
586.566	12791.68373
586.769	12996.31576
586.973	12933.51364
587.176	12947.6952
587.379	12584.96753
587.582	13079.36921
587.786	12957.82472
587.989	13227.22508
588.192	12899.07166
588.395	12933.51364
588.599	12919.33183
588.802	13022.65068
589.005	12730.89118
589.208	13368.98257
589.411	12978.08339
589.615	12892.9935
589.818	13204.94699
590.021	13253.55305
590.224	13065.18993
590.427	13051.01042
590.63	12959.85061
590.833	13032.77927
591.036	13328.48253
591.239	13520.84368
591.442	13136.08397
591.645	13190.76974
591.848	13208.99759
592.051	13178.61763
592.254	13125.9566
592.457	13490.47317
592.66	13083.42039
592.863	13308.23189
593.066	13208.99759
593.269	13449.97785
593.472	13545.13949
593.675	13846.77236
593.878	13458.07703
594.081	13377.08238
594.284	13176.59226
594.486	13733.41525
594.689	13421.63021
594.892	13425.67992
595.095	13425.67992
595.298	13684.8307
595.5	13484.39896
595.703	13480.34948
595.906	13579.55769
596.109	13585.63138
596.311	13630.17085
596.514	13644.34215
596.717	13725.31795
596.92	13939.88044
597.122	13662.56216
597.325	14028.93518
597.528	13703.05012
597.73	13765.80395
597.933	13747.58541
598.136	13856.89309
598.338	13532.99165
598.541	13806.28874
598.743	13832.60323
598.946	13958.09658
599.148	14004.648
599.351	13652.43997
599.554	13986.43239
599.756	13846.77236
599.959	14150.36605
600.161	13976.31251
600.363	14107.86616
600.566	14032.98301
600.768	13711.14756
600.971	13952.02456
601.173	14176.67503
601.376	14045.12644
601.578	13978.33649
601.78	14111.91381
601.983	13903.44753
602.185	14207.03112
602.388	13980.36047
602.59	14474.14717
602.792	14188.81752
602.995	14215.126
603.197	14124.05671
603.399	14273.81297
603.601	14002.62405
603.804	14012.74376
604.006	14132.15193
604.208	14294.04949
604.41	14134.17573
604.613	14138.22332
604.815	14004.648
605.017	14269.76564
605.219	14061.31754
605.421	14217.14972
605.623	14239.41046
605.826	14340.59282
606.028	14409.39438
606.23	14472.12367
606.432	14028.93518
606.634	14352.73441
606.836	14300.12041
607.038	14370.94668
607.24	14263.69464
607.442	14340.59282
607.644	14186.79378
607.846	14196.91248
608.048	14150.36605
608.25	14374.99383
608.452	14231.31567
608.654	14162.5087
608.856	13808.31295
609.058	14326.42755
609.26	14429.62979
609.462	14304.16768
609.664	14059.29366
609.866	13958.09658
610.067	14233.33937
610.269	14344.64002
610.471	14385.11169
610.673	14439.74744
610.875	14360.82876
611.077	14290.0022
611.278	14277.86029
611.48	14518.66388
611.682	14243.45784
611.884	14627.92961
612.085	14314.28583
612.287	14237.38676
612.489	14130.12813
612.69	14300.12041
612.892	14356.78159
613.094	14777.65921
613.295	14117.98527
613.497	14290.0022
613.699	14219.17343
613.9	14294.04949
614.102	14152.38983
614.304	14316.30946
614.505	14057.26978
614.707	14625.9062
614.908	14194.88874
615.11	14714.93525
615.311	14316.30946
615.513	14464.02965
615.714	14636.02323
615.916	14464.02965
616.117	14453.91208
616.319	14534.85162
616.52	14200.95994
616.722	14419.5121
616.923	14704.8184
617.124	14549.01582
617.326	14290.0022
617.527	14377.01741
617.729	14105.84233
617.93	14585.43779
618.131	14350.71081
618.333	14466.05315
618.534	14308.21495
618.735	14583.41435
618.937	14205.0074
619.138	14411.41793
619.339	14115.96145
619.54	14492.35863
619.742	14401.30017
619.943	14636.02323
620.144	14360.82876
620.345	14417.48856
620.546	14229.29197
620.748	14949.64093
620.949	14316.30946
621.15	14745.28565
621.351	14510.56998
621.552	14273.81297
621.753	14336.54561
621.954	14769.56584
622.155	14217.14972
622.356	14553.06273
622.558	14530.80469
622.759	14292.02584
622.96	14470.10017
623.161	14510.56998
623.362	14453.91208
623.563	14876.80212
623.764	14587.46122
623.965	14601.6252
624.166	14544.96891
624.366	14595.55493
624.567	14370.94668
624.768	14777.65921
624.969	14277.86029
625.17	14459.98263
625.371	14565.20341
625.572	14656.25722
625.773	14271.78931
625.973	14522.71082
626.174	14619.83596
626.375	14723.02871
626.576	14589.48465
626.777	14822.17255
626.977	14352.73441
627.178	14476.17067
627.379	14372.97025
627.58	14700.77166
627.78	14397.25306
627.981	14294.04949
628.182	14368.9231
628.382	14670.42096
628.583	14583.41435
628.784	14907.1517
628.984	14340.59282
629.185	14971.89712
629.386	14494.38212
629.586	14814.07924
629.787	14668.39757
629.987	14828.24252
630.188	14449.86505
630.388	14395.2295
630.589	14350.71081
630.79	14674.46773
630.99	14490.33514
631.191	14963.80396
631.391	14474.14717
631.591	14480.21767
631.792	14652.21043
631.992	14979.99026
632.193	14998.19983
632.393	14814.07924
632.594	14544.96891
632.794	14544.96891
632.994	14967.85054
633.195	14929.40799
633.395	14688.6314
633.595	14625.9062
633.796	14638.04664
633.996	15095.31714
634.196	14909.175
634.397	15251.10904
634.597	15028.54904
634.797	15079.13095
634.997	14648.16364
635.198	14927.38469
635.398	14714.93525
635.598	15121.61967
635.798	14905.1284
635.998	14538.89854
636.199	14609.71889
636.399	14832.28917
636.599	14638.04664
636.799	14882.87204
636.999	14636.02323
637.199	15062.94475
637.399	14897.03518
637.599	14684.58464
637.799	14368.9231
637.999	14876.80212
638.199	14984.03684
638.399	15240.99267
638.599	14704.8184
638.799	14903.10509
638.999	14795.86926
639.199	14959.75738
639.399	14969.87383
639.599	14876.80212
639.799	14785.75257
639.999	14818.1259
640.199	14899.05849
640.399	15147.92219
640.599	14617.81255
640.799	15249.08576
640.998	15101.38695
641.198	15042.71199
641.398	14727.07543
641.598	15143.87565
641.798	15166.13163
641.997	14919.2915
642.197	14862.63894
642.397	15186.36433
642.597	14973.9204
642.796	15285.50472
642.996	15028.54904
643.196	15060.92148
643.395	14975.94369
643.595	14686.60802
643.795	14895.01188
643.994	14672.44434
644.194	14971.89712
644.394	15285.50472
644.593	14905.1284
644.793	14907.1517
644.992	14915.2449
645.192	15279.43489
645.392	15206.59704
645.591	15493.90412
645.791	14961.78067
645.99	15317.87719
646.19	15176.24798
646.389	15085.20077
646.589	14984.03684
646.788	14990.10669
646.987	14862.63894
647.187	15174.22471
647.386	15099.36368
647.586	15275.38834
647.785	14850.49905
647.984	15330.01688
648.184	15394.76211
648.383	15384.64565
648.582	15368.45932
648.782	15384.64565
648.981	15164.10836
649.18	15228.85303
649.38	15338.11002
649.579	15572.81406
649.778	15388.69223
649.977	15963.33715
650.177	15206.59704
650.376	15240.99267
650.575	15204.57377
650.774	15386.66894
650.973	15384.64565
651.173	15145.89892
651.372	15145.89892
651.571	15449.39123
651.77	15665.88875
651.969	15489.85748
652.168	15149.94546
652.367	15708.37997
652.566	15240.99267
652.765	15485.81085
652.964	14941.54776
653.163	15204.57377
653.362	15489.85748
653.561	15315.85391
653.76	15295.62111
653.959	15501.9974
654.158	15188.3876
654.357	15295.62111
654.556	15064.96803
654.755	15463.55439
654.954	15384.64565
655.153	15321.92375
655.352	15485.81085
655.551	15433.20479
655.749	15281.45817
655.948	15321.92375
656.147	15071.03785
656.346	15238.9694
656.545	14967.85054
656.743	15338.11002
656.942	15346.20316
657.141	15712.42678
657.34	15574.8374
657.538	15607.21103
657.737	15540.44063
657.936	15906.67836
658.135	15641.60823
658.333	15392.73882
658.532	15214.69013
658.731	15645.65498
658.929	15083.1775
659.128	15497.95076
659.326	15216.7134
659.525	15676.00567
659.724	15475.69427
659.922	15461.53108
660.121	15402.85529
660.319	15309.78407
660.518	15368.45932
660.716	15463.55439
660.915	15518.184
661.113	15781.22306
661.312	15516.16067
661.51	15667.91213
661.709	15528.30064
661.907	15732.66086
662.105	15305.73751
662.304	15671.9589
662.502	15449.39123
662.701	15584.95414
662.899	15334.06345
663.097	15767.05902
663.296	15597.09425
663.494	15582.93079
663.692	15226.82976
663.891	15453.43785
664.089	15378.57577
664.287	15872.27888
664.485	15085.20077
664.684	15599.11761
664.882	15493.90412
665.08	15186.36433
665.278	15406.90189
665.476	15261.22541
665.675	15238.9694
665.873	15396.78541
666.071	15064.96803
666.269	15655.77185
666.467	15299.66767
666.665	15692.19279
666.863	15552.58064
667.061	15629.46802
667.259	15445.34462
667.457	15890.49032
667.655	15279.43489
667.853	15319.90047
668.051	15467.60102
668.249	15589.00084
668.447	15597.09425
668.645	15659.81861
668.843	15928.93705
669.041	15609.23439
669.239	15453.43785
669.437	15508.06737
669.635	15263.24868
669.833	15437.2514
670.031	15202.5505
670.229	15245.03922
670.426	15325.97032
670.624	15532.3473
670.822	15362.38945
671.02	15336.08673
671.218	15692.19279
671.415	15506.04405
671.613	15327.9936
671.811	15218.73667
672.009	15046.75855
672.206	15431.18149
672.404	15257.17886
672.602	15398.8087
672.799	15232.89958
672.997	15465.57771
673.195	15192.43415
673.392	15313.83063
673.59	15214.69013
673.788	15253.13231
673.985	15020.45593
674.183	15184.34106
674.38	15145.89892
674.578	15408.92519
674.775	15449.39123
674.973	15360.36616
675.17	15251.10904
675.368	15085.20077
675.565	15222.78322
675.763	15261.22541
675.96	15075.0844
676.158	15176.24798
676.355	14789.79925
676.553	15267.29524
676.75	14761.47246
676.947	15004.26968
677.145	14729.09879
677.342	15073.06113
677.539	15125.66621
677.737	15479.7409
677.934	15251.10904
678.131	15224.80649
678.329	15125.66621
678.526	15402.85529
678.723	15271.34179
678.92	15243.01594
679.118	14852.52236
679.315	14755.40241
679.512	14650.18704
679.709	14886.91866
679.906	14759.44911
680.104	15050.8051
680.301	14866.68556
680.498	14876.80212
680.695	14799.91592
680.892	14700.77166
681.089	14923.33809
681.286	14836.33581
681.483	14526.75776
681.68	14832.28917
681.877	14650.18704
682.075	14623.88279
682.272	14779.68255
682.469	15093.29386
682.665	14834.31249
682.862	14921.3148
683.059	14338.56921
683.256	14601.6252
683.453	14557.10962
683.65	14631.97642
683.847	14542.94546
684.044	14882.87204
684.241	14510.56998
684.438	14797.89259
684.635	14421.53564
684.831	14787.77591
685.028	14542.94546
685.225	14466.05315
685.422	14514.61693
685.619	14633.99983
685.815	14613.76572
686.012	14876.80212
686.209	14607.69547
686.405	14846.45241
686.602	14581.39092
686.799	14514.61693
686.996	14648.16364
687.192	15095.31714
687.389	14680.53788
687.586	14607.69547
687.782	14660.30401
687.979	14741.23894
688.175	14591.50808
688.372	14605.67205
688.568	14557.10962
688.765	14413.44147
688.962	14340.59282
689.158	14623.88279
689.355	14245.48153
689.551	14451.88857
689.748	14364.87593
689.944	14358.80518
690.14	14385.11169
690.337	14399.27662
690.533	14508.5465
690.73	14283.93125
690.926	14202.98367
691.123	14245.48153
691.319	14142.27091
691.515	14239.41046
691.712	13802.24032
691.908	14075.48464
692.104	14073.46078
692.301	14122.0329
692.497	13964.16858
692.693	14231.31567
692.889	14081.55622
693.086	14271.78931
693.282	14209.05484
693.478	14302.14405
693.674	14164.53247
693.87	14429.62979
694.067	14198.93621
694.263	14275.83663
694.459	13909.51974
694.655	14346.66362
694.851	13943.92849
695.047	14122.0329
695.243	13960.12058
695.439	14294.04949
695.635	13986.43239
695.831	14433.67685
696.027	14016.79163
696.224	14176.67503
696.42	13982.38444
696.615	14225.24456
696.811	13458.07703
697.007	13626.12187
697.203	13862.96549
697.399	14030.95909
697.595	13638.26875
697.791	13854.86895
697.987	13506.67087
698.183	13907.49567
698.379	13747.58541
698.575	13992.50428
698.77	13607.90132
698.966	13660.53773
699.162	13383.1572
699.358	13660.53773
699.554	13119.88013
699.749	13174.56689
699.945	13215.07346
700.141	13644.34215
700.337	13642.31769
700.532	13701.02575
700.728	13725.31795
700.924	13939.88044
701.119	13903.44753
701.315	13903.44753
701.511	13680.7819
701.706	13895.35121
701.902	13184.6937
702.097	13646.36661
702.293	13822.48233
702.489	13632.19533
702.684	13502.62147
702.88	13340.63271
703.075	13296.08131
703.271	13435.80412
703.466	13409.48099
703.662	13373.03248
703.857	13555.2626
704.053	13814.38556
704.248	13494.52262
704.443	13445.92823
704.639	13241.40177
704.834	13717.2206
705.03	13223.17456
705.225	13741.5125
705.42	13411.50587
705.616	13279.88029
705.811	13447.95304
706.006	13573.48396
706.202	13583.60682
706.397	13571.45938
706.592	13411.50587
706.787	13486.4237
706.983	13300.13152
707.178	13543.11486
707.373	13490.47317
707.568	13259.62863
707.763	13081.3948
707.959	13425.67992
708.154	13429.72961
708.349	13235.32608
708.544	13202.92168
708.739	13000.36734
708.934	13085.44597
709.129	13360.88269
709.324	13492.49789
709.519	13644.34215
709.714	13413.53075
709.909	13285.9557
710.104	12996.31576
710.299	13154.31293
710.494	12996.31576
710.689	13097.59936
710.884	13144.18577
711.079	13607.90132
711.274	13085.44597
711.469	13263.679
711.664	12972.00585
711.859	13340.63271
712.054	13034.80497
712.249	13121.90562
712.443	13103.67599
712.638	13433.77929
712.833	13071.26679
713.028	13006.44467
713.223	12826.13059
713.417	13012.52196
713.612	12789.65739
713.807	13065.18993
714.002	12850.44506
714.196	13164.43997
714.391	12670.09343
714.586	13200.89637
714.78	13109.75258
714.975	13160.38917
715.17	12969.97999
715.364	13036.83067
715.559	12870.70652
715.754	12797.7627
715.948	12495.77628
716.143	12704.54613
716.337	12799.78902
716.532	13032.77927
716.726	12734.94418
716.921	12880.83705
717.115	12759.26168
717.31	12826.13059
717.504	12627.53182
717.699	13040.88205
717.893	12566.72486
718.088	12860.57586
718.282	12868.6804
718.476	12895.01956
718.671	12745.07657
718.865	12818.02559
719.059	12925.40978
719.254	12826.13059
719.448	12313.30013
719.642	12621.45137
719.837	12368.04873
720.031	12487.66737
720.225	12406.57252
720.419	12534.29219
720.614	12250.43433
720.808	12187.56163
721.002	12009.04505
721.196	12217.98478
721.39	12439.01173
721.585	12244.35018
721.779	12234.20978
721.973	12572.8058
722.167	12096.28214
722.361	12144.96642
722.555	12293.02158
722.749	12159.16519
722.943	12331.55022
723.137	12242.32211
723.331	12086.13903
723.525	12075.99572
723.719	11911.64681
723.913	12266.65842
724.107	11836.55611
724.301	12136.85268
724.495	11919.76404
724.689	12009.04505
724.883	11700.55143
725.077	11944.11496
725.271	11816.25936
725.465	11970.4938
725.659	11824.37816
725.853	12185.53336
726.046	11881.20601
726.24	11984.69723
726.434	11785.81263
726.628	12333.57798
726.822	11881.20601
727.015	12217.98478
727.209	11946.14415
727.403	12049.62223
727.596	11996.87128
727.79	11838.58574
727.984	11869.02917
728.177	11966.4356
728.371	11625.42742
728.565	12067.88094
728.758	12132.79576
728.952	12451.176
729.146	12215.95662
729.339	12325.46692
729.533	12002.9582
729.726	12165.25026
729.92	12122.65333
730.113	12116.56779
730.307	11881.20601
730.5	12195.67463
730.694	12002.9582
730.887	11946.14415
731.081	11998.90026
731.274	12013.10291
731.468	11913.67613
731.661	12165.25026
731.854	11940.05655
732.048	12288.96579
732.241	11919.76404
732.435	12153.08005
732.628	12485.64013
732.821	12211.90028
733.014	12321.41135
733.208	11942.08576
733.401	12347.77206
733.594	11968.46471
733.788	12057.73729
733.981	12136.85268
734.174	12169.30694
734.367	11862.94063
734.56	12108.45362
734.754	11873.08815
734.947	11854.82247
735.14	11795.96176
735.333	11765.51374
735.526	11651.82374
735.719	11706.64203
735.912	11552.32182
736.105	11617.30516
736.298	11747.244
736.491	11905.5588
736.684	11998.90026
736.877	12126.71033
737.07	11698.52121
737.263	11970.4938
737.456	12033.39174
737.649	12167.2786
737.842	11897.44133
738.035	11649.79331
738.228	11779.72306
738.421	11834.52648
738.614	12002.9582
738.807	11881.20601
739	11905.5588
739.192	11599.02955
739.385	11562.4761
739.578	11743.18396
739.771	11674.15791
739.964	11408.1056
740.156	11523.88862
740.349	11278.06563
740.542	11668.06688
740.735	11609.18276
740.927	11651.82374
741.12	11592.93752
741.313	11619.33574
741.505	11408.1056
741.698	11631.51901
741.891	11497.48471
742.083	11298.38709
742.276	11495.45357
742.468	11536.0745
742.661	11084.95993
742.854	11302.45126
743.046	11160.18083
743.239	11154.08239
743.431	11292.29076
743.624	11089.0263
743.816	11009.7242
744.009	11066.66073
744.201	10960.91456
744.393	11233.35482
744.586	11393.88446
744.778	11318.70753
744.971	11076.82706
745.163	11066.66073
745.355	11139.8523
745.548	11156.11521
745.74	11194.73691
745.932	11397.94769
746.125	11206.93244
746.317	11251.64621
746.509	10818.51582
746.702	11150.0167
746.894	11025.99266
747.086	11190.67165
747.278	11072.76056
747.471	11050.39403
747.663	10995.48872
747.855	11103.25826
748.047	10983.28645
748.239	11099.19204
748.431	10991.42134
748.623	11178.47561
748.815	10796.13372
749.008	11164.24641
749.2	11251.64621
749.392	11245.54917
749.584	10908.03015
749.776	11328.86738
749.968	11182.54099
750.16	11172.37744
750.352	10767.64535
750.544	11164.24641
750.736	11308.54744
750.928	10901.9276
751.12	11001.58971
751.311	10975.15137
751.503	11152.04955
751.695	10928.37121
751.887	10895.82496
752.079	10787.99442
752.271	10936.50732
752.463	11030.05967
752.654	11389.82119
752.846	11253.67853
753.038	10918.20082
753.23	11137.81939
753.421	11030.05967
753.613	10969.04995
753.805	11091.05947
753.997	10804.27283
754.188	10954.8129
754.38	10682.16621
754.572	11129.68764
754.763	10938.54132
754.955	10769.68031
755.146	10775.78512
755.338	10667.91762
755.53	10619.06076
755.721	10792.06409
755.913	11005.65698
756.104	10726.94364
756.296	10492.81405
756.487	10337.99293
756.679	10470.41036
756.87	10305.38934
757.062	10329.84235
757.253	10307.42716
757.445	10468.37359
757.636	10384.85464
757.827	10474.48388
758.019	10358.36844
758.21	10244.24835
758.401	10301.31365
758.593	10435.78342
758.784	10403.18994
758.975	10331.88001
759.167	10295.20001
759.358	10287.04831
759.549	10107.65577
759.74	10121.92955
759.932	10278.8964
760.123	10172.90175
760.314	10317.61608
760.505	10193.28821
760.696	9944.47751
760.888	10038.31618
761.079	9638.26451
761.27	10323.72928
761.461	10103.57742
761.652	10217.75014
761.843	9977.12051
762.034	9891.42468
762.225	10083.18484
762.416	9926.11419
762.607	9754.66546
762.798	9819.99167
762.989	9922.03329
763.18	10203.48092
763.371	10144.35839
763.562	10187.17241
763.753	9883.26183
763.944	10327.80467
764.135	10058.71187
764.326	10083.18484
764.517	9909.79025
764.708	10150.47505
764.899	10042.39543
765.089	9866.93541
765.28	9715.87068
765.471	9562.67904
765.662	9511.59556
765.853	9850.60805
766.043	9478.89691
766.234	9922.03329
766.425	9907.74969
766.615	9699.53439
766.806	9607.62434
766.997	9642.3496
767.187	9323.52173
767.378	9838.3619
767.569	9364.41908
767.759	9384.8653
767.95	9642.3496
768.141	9589.23855
768.331	9542.24684
768.522	9442.10601
768.712	9460.50212
768.903	9482.98447
769.093	9157.8192
769.284	9301.02536
769.474	9227.38679
769.665	9229.4326
769.855	8983.81339
770.046	9329.65675
770.236	9108.70081
770.426	9464.58996
770.617	9499.33405
770.807	9442.10601
770.998	8932.61119
771.188	9037.05202
771.378	9159.86559
771.569	9084.1379
771.759	8955.14152
771.949	9147.58702
772.139	9376.68701
772.33	8942.85251
772.52	9008.38654
772.71	9198.74369
772.9	9123.02803
773.09	9213.06565
773.281	9294.88964
773.471	9129.16801
773.661	9307.16093
773.851	8930.56287
774.041	8598.49646
774.231	8901.88454
774.421	8651.82354
774.611	9020.67217
774.802	8815.82851
774.992	8678.48236
775.182	8862.95836
775.372	8869.10503
775.562	8944.90072
775.752	8961.28578
775.942	8758.44011
776.131	8883.44663
776.321	8653.87433
776.511	8809.68044
776.701	8479.49025
776.891	8465.12312
777.081	8389.16693
777.271	8450.75504
777.461	8401.48594
777.651	8335.77649
777.84	8327.56141
778.03	8267.99273
778.22	8109.747
778.41	8267.99273
778.599	8019.26756
778.789	8422.01608
778.979	8530.79384
779.169	8561.5703
779.358	8489.75192
779.548	8889.59276
779.738	8606.70145
779.927	8787.13609
780.117	8491.8042
780.307	8436.38603
780.496	8440.49156
780.686	8440.49156
780.875	8117.97047
781.065	8311.13032
781.254	8132.36077
781.444	8422.01608
781.633	8483.59498
781.823	8378.90055
782.012	8335.77649
782.202	8434.33324
782.391	8409.69823
782.581	8339.88391
782.77	8261.82951
782.96	8272.10144
783.149	7941.09459
783.338	8183.74669
783.528	7877.29997
783.717	8130.30507
783.906	8189.91216
784.096	8274.15577
784.285	7957.55451
784.474	7932.86414
784.663	7965.78398
784.853	7875.24175
785.042	7918.46006
785.231	7920.51784
785.42	8031.60797
785.61	8220.73685
785.799	7823.7795
785.988	7941.09459
786.177	7566.27167
786.366	7910.2287
786.555	7702.27689
786.744	7679.61577
786.933	7582.76209
787.122	7856.71683
787.312	7768.18566
787.501	7685.79633
787.69	7784.65949
787.879	7819.66196
788.068	7562.14885
788.257	7799.073
788.445	7677.55554
788.634	7897.88105
788.823	7675.49529
789.012	7912.28657
789.201	7260.94949
789.39	7440.48702
789.579	7578.63961
789.768	7595.129
789.957	7461.11295
790.145	7743.47239
790.334	7481.73672
790.523	7555.96446
790.712	7421.92182
790.9	7593.0679
791.089	7291.91606
791.278	7558.02594
791.467	7327.00553
791.655	7283.65879
791.844	7343.51603
792.033	7700.21689
792.221	7617.79969
792.41	7485.86122
792.599	7118.43921
792.787	7145.29706
792.976	7093.64402
793.164	7048.17779
793.353	7083.31173
793.541	7265.07865
793.73	7060.57875
793.918	7273.33671
794.107	6934.46467
794.295	6979.9581
794.484	6961.34847
794.672	7077.1121
794.861	7126.70357
795.049	7149.4287
795.238	7066.77892
795.426	6967.55188
795.614	7112.24072
795.803	6880.68561
795.991	6992.3635
796.179	7223.78306
796.368	6905.50862
796.556	6959.28062
796.744	6955.14486
796.932	6967.55188
797.121	6911.71386
797.309	6814.47492
797.497	6777.22115
797.685	6934.46467
797.874	6936.53279
798.062	6735.8194
798.25	6468.55702
798.438	6868.27287
798.626	6570.12054
798.814	6789.6399
799.002	6603.27211
799.19	6642.63192
799.378	6483.0695
799.566	6806.19694
799.755	6632.27488
799.943	6590.84097
800.131	6876.54812
800.318	6737.88971
800.506	6607.41564
800.694	6710.97395
800.882	6536.96306
801.07	6657.13081
801.258	6507.9454
801.446	6810.33598
801.634	6470.6303
801.822	6719.25613
802.01	6433.30768
802.197	6727.53795
802.385	6539.03558
802.573	6568.04837
802.761	6412.56963
802.949	6611.55908
803.136	6607.41564
803.324	6727.53795
803.512	6663.34427
803.699	6663.34427
803.887	6582.55307
804.075	6532.81796
804.262	6402.19974
804.45	6764.80159
804.638	6636.41777
804.825	6549.39781
805.013	6445.74939
805.201	6909.64547
805.388	6603.27211
805.576	6599.12849
805.763	6607.41564
805.951	6696.47925
806.138	6366.93773
806.326	6574.26481
806.513	6412.56963
806.701	6539.03558
806.888	6570.12054
807.075	6727.53795
807.263	6582.55307
807.45	6802.05782
807.638	6524.52748
807.825	6826.8912
808.012	6702.6914
808.2	6638.48917
808.387	6541.10807
808.574	6684.05432
808.761	6555.61487
808.949	6686.1252
809.136	6590.84097
809.323	6532.81796
809.51	6323.36947
809.698	6541.10807
809.885	6225.82221
810.072	6710.97395
810.259	6294.31825
810.446	6570.12054
810.633	6422.93895
810.82	6735.8194
811.008	6503.79965
811.195	6760.66155
811.382	6628.13191
811.569	6768.94153
811.756	6570.12054
811.943	6822.75253
812.13	6325.44439
812.317	6698.54999
812.504	6607.41564
812.691	6948.94104
812.878	6570.12054
813.064	6655.05961
813.251	6578.40899
813.438	6644.70326
813.625	6304.69421
813.812	6760.66155
813.999	6694.40848
814.186	6777.22115
814.372	6431.23398
814.559	6731.67872
814.746	6288.09239
814.933	6555.61487
815.12	6437.45501
815.306	6468.55702
815.493	6613.63076
815.68	6443.67583
815.866	6406.34776
816.053	6536.96306
816.24	6410.4957
816.426	6694.40848
816.613	6429.16026
816.799	6617.77406
816.986	6561.83173
817.173	6694.40848
817.359	6354.49071
817.546	6464.41039
817.732	6273.56456
817.919	6532.81796
818.105	6410.4957
818.292	6404.27376
818.478	6335.8186
818.665	6681.98342
818.851	6406.34776
819.037	6495.50787
819.224	6489.28879
819.41	6337.89337
819.597	6159.37743
819.783	6067.97659
819.969	6232.05017
820.156	6389.75509
820.342	6404.27376
820.528	6416.71743
820.714	6395.97752
820.901	6279.79091
821.087	6205.06079
821.273	6532.81796
821.459	6323.36947
821.646	6279.79091
821.832	6038.88495
822.018	6165.60765
822.204	6115.75998
822.39	6398.05161
822.576	6196.75557
822.762	6439.52864
822.948	6346.19222
823.134	6512.09106
823.32	6026.4157
823.507	6576.33691
823.693	6090.83107
823.879	6290.1677
824.065	6055.50931
824.25	6296.39349
824.436	6080.44302
824.622	6244.50547
824.808	5964.05669
824.994	6101.21852
825.18	5982.76662
825.366	6167.68434
825.552	5993.1602
825.738	6049.27535
825.923	5774.77122
826.109	6018.10239
826.295	5683.17848
826.481	5791.41954
826.667	5731.06221
826.852	5914.15422
827.038	5566.53985
827.224	5789.33858
827.409	5714.40841
827.595	5789.33858
827.781	5564.45634
827.966	5885.03817
828.152	5601.95582
828.338	5833.03372
828.523	5726.8989
828.709	5999.39607
828.894	5839.27503
829.08	5880.87835
829.266	5437.31802
829.451	5914.15422
829.637	5441.48788
829.822	5631.1168
830.008	5518.61328
830.193	5893.35751
830.378	5770.60891
830.564	5949.50321
830.749	5651.94325
830.935	5664.43798
831.12	5608.20499
831.305	5566.53985
831.491	5458.16637
831.676	5691.50698
831.861	5516.52923
832.047	5710.24473
832.232	5574.87363
832.417	5606.12196
832.602	5285.05394
832.788	5406.04109
832.973	5418.55249
833.158	5554.03847
833.343	5314.26495
833.528	5330.9549
833.714	5159.81202
833.899	5424.80788
834.084	5268.35988
834.269	5412.2969
834.454	5189.04264
834.639	5376.84452
834.824	5308.00584
835.009	5481.09684
835.194	5335.12715
835.379	5497.77175
835.564	5155.63584
835.749	5479.01236
835.934	5182.77932
836.119	5255.83834
836.304	4898.62295
836.489	5118.04607
836.674	4724.99531
836.859	5132.66521
837.044	5063.73645
837.228	5049.11195
837.413	4773.12468
837.598	4967.61189
837.783	4632.88849
837.968	4971.79223
838.152	4708.25186
838.337	5182.77932
838.522	4934.16583
838.707	5111.78037
838.891	4748.0152
839.076	4802.41494
839.261	4950.8896
839.445	4955.07031
839.63	5053.2905
839.815	4927.89404
839.999	4871.43863
840.184	5113.86896
840.368	4969.70207
840.553	5005.23167
840.737	4883.98572
840.922	5030.30736
841.106	5001.05206
841.291	5005.23167
841.475	4904.8957
841.66	4848.43349
841.844	4754.29287
842.029	4796.13883
842.213	4599.38433
842.397	4695.69332
842.582	4427.58632
842.766	4812.87467
842.951	4668.48038
843.135	4917.44059
843.319	4419.20214
843.504	4649.63842
843.688	4561.68533
843.872	4469.50196
844.056	4381.46902
844.241	4670.57382
844.425	4544.9279
844.609	4678.94734
844.793	4628.70078
844.977	4674.76063
845.161	4423.39428
845.346	4530.26399
845.53	4329.05021
845.714	4415.00992
845.898	4228.36836
846.082	4272.42275
846.266	4110.84429
846.45	4131.83557
846.634	4068.85546
846.818	4389.85477
847.002	4270.32514
847.186	4438.06605
847.37	3959.64586
847.554	4257.739
847.738	4085.65199
847.922	4293.39771
848.106	4257.739
848.29	4352.11616
848.473	4360.50312
848.657	4331.14723
848.841	4291.30031
849.025	4450.64101
849.209	4047.85794
849.392	4161.21984
849.576	3993.25472
849.76	3986.95346
849.944	3944.94035
850.127	4066.7558
850.311	3814.64852
850.495	4018.45793
850.678	3663.24692
850.862	4035.25843
851.046	3774.7051
851.229	4035.25843
851.413	3759.98733
851.596	4133.93458
851.78	3757.88471
851.964	3938.63768
852.147	3741.06307
852.331	3781.01243
852.514	3570.67495
852.698	3974.35038
852.881	3606.4457
853.065	3900.81786
853.248	3949.14203
853.431	4016.35778
853.615	3776.80756
853.798	4003.75642
853.982	3558.04869
854.165	3829.36272
854.348	3595.92545
854.532	3917.62748
854.715	3587.50891
854.898	3797.8311
855.081	3570.67495
855.265	3595.92545
855.448	3351.72725
855.631	3566.46627
855.814	3389.63587
855.997	3591.71722
856.181	3435.96088
856.364	3638.00364
856.547	3619.06938
856.73	3797.8311
856.913	3539.10805
857.096	3730.54891
857.279	3149.45456
857.462	3452.8042
857.645	3326.4517
857.828	3353.83343
858.011	3288.53373
858.194	3545.42177
858.377	3377.00029
858.56	3671.66074
858.743	3562.25752
858.926	3781.01243
859.109	3351.72725
859.292	3722.13724
859.475	3377.00029
859.658	3448.59347
859.841	3292.74711
860.023	3385.42408
860.206	3250.61025
860.389	3225.3249
860.572	3438.06635
860.755	3256.93121
860.937	3277.99998
861.12	3309.59996
861.303	3178.96222
861.486	3261.1451
861.668	3117.8357
861.851	3227.4321
862.034	2963.90687
862.216	3020.84902
862.399	3077.78
862.581	3170.53178
862.764	2871.08909
862.947	3006.0873
863.129	2613.59056
863.312	2999.76062
863.494	2740.25387
863.677	3022.95777
863.859	2790.90602
864.042	3022.95777
864.224	2797.23699
864.406	2761.35987
864.589	2548.13034
864.771	2816.22916
864.954	2725.47887
865.136	3048.26164
865.318	2710.70323
865.501	2831.00007
865.683	2740.25387
865.865	2972.34344
866.048	2856.32004
866.23	2951.25157
866.412	2879.52823
866.594	3092.53803
866.777	2651.59435
866.959	2898.51545
867.141	2596.69871
867.323	2826.77988
867.505	2508.00397
867.687	2600.92174
867.869	2560.80095
868.052	3031.39264
868.234	2668.48362
868.416	2913.28249
868.598	2723.36811
868.78	2558.68921
868.962	2655.81674
869.144	2942.81441
869.326	2605.14473
869.508	2476.32235
869.69	2518.56394
869.872	2676.92796
870.054	2410.83917
870.236	2607.25621
870.417	2358.02278
870.599	2740.25387
870.781	2527.01171
870.963	2702.25972
871.145	2560.80095
871.327	2503.7799
871.508	2339.00733
871.69	2725.47887
871.872	2541.79487
872.054	2660.03909
872.235	2567.1361
872.417	2600.92174
872.599	2423.51414
872.78	2687.48309
872.962	2474.21015
873.144	2486.88317
873.325	2527.01171
873.507	2744.47517
873.689	2347.45874
873.87	2556.57746
874.052	2339.00733
874.233	2488.9953
874.415	2484.77103
874.596	2706.48151
874.778	2277.72998
874.959	2368.58657
875.141	2262.93771
875.322	2427.73904
875.503	2275.61682
875.685	2548.13034
875.866	2322.10404
876.048	2586.1409
876.229	2345.34591
876.41	2546.01853
876.592	2391.82601
876.773	2476.32235
876.954	2345.34591
877.136	2579.80608
877.317	2273.50366
877.498	2385.48811
877.679	2317.87812
877.86	2440.4135
878.042	2472.09794
878.223	2307.31315
878.404	2345.34591
878.585	2427.73904
878.766	2341.1202
878.947	2600.92174
879.128	2307.31315
879.309	2311.53917
879.49	2393.93863
879.672	2706.48151
879.853	2431.96391
880.034	2558.68921
880.215	2197.4238
880.396	2630.48163
880.576	2216.44483
880.757	2495.33162
880.938	2199.53728
881.119	2484.77103
881.3	2423.51414
881.481	2833.11015
881.662	2385.48811
881.843	2419.28919
882.023	2307.31315
882.204	2355.90999
882.385	2358.02278
882.566	2425.6266
882.747	2210.10456
882.927	2619.9248
883.108	2495.33162
883.289	2590.36406
883.469	2305.20013
883.65	2455.19988
883.831	2440.4135
884.011	2533.34742
884.192	2332.66867
884.373	2501.66784
884.553	2178.40207
884.734	2465.76125
884.914	2256.59802
885.095	2465.76125
885.275	2271.39049
885.456	2459.42446
885.636	2265.05092
885.817	2453.08757
885.997	2237.57849
886.178	2533.34742
886.358	2210.10456
886.538	2260.82449
886.719	2315.76515
886.899	2516.45197
887.08	2355.90999
887.26	2706.48151
887.44	2081.16976
887.621	2434.07632
887.801	2216.44483
887.981	2372.81202
888.161	2300.97406
888.342	2495.33162
888.522	2440.4135
888.702	2537.57117
888.882	2334.78157
889.062	2634.70427
889.242	2330.55577
889.423	2427.73904
889.603	2505.89194
889.783	2575.5828
889.963	2296.74795
890.143	2474.21015
890.323	2064.25815
890.503	2408.72664
890.683	2068.48609
890.863	2412.95169
891.043	2163.60693
891.223	2472.09794
891.403	2123.4467
891.583	2415.0642
891.763	2243.91842
891.943	2341.1202
892.122	2229.12513
892.302	2491.10742
892.482	2222.78502
892.662	2298.86101
892.842	2309.42617
893.022	2622.03619
893.201	2292.5218
893.381	2229.12513
893.561	2180.51563
893.741	2254.48478
893.92	2085.39759
894.1	2214.33142
894.28	2178.40207
894.459	2315.76515
894.639	2237.57849
894.819	2313.65216
894.998	2237.57849
895.178	2448.86293
895.357	2169.94776
895.537	2246.03171
895.716	1996.60726
895.896	2273.50366
896.075	2191.0833
896.255	2114.99156
896.434	2131.90172
896.614	2047.34608
896.793	1958.55069
896.973	2288.29561
897.152	2009.29232
897.331	2104.42245
897.511	1901.46222
897.69	2066.37212
897.87	1865.51558
898.049	2024.09127
898.228	1882.43183
898.407	2032.54766
898.587	1833.79675
898.766	2053.68816
898.945	1848.59901
899.124	1962.7793
899.304	1474.26387
899.483	1920.49217
899.662	1696.33749
899.841	1933.17855
900.02	1664.61404
900.199	1755.55269
900.378	1670.95878
900.557	1802.07688
900.737	1687.87797
900.916	1886.66085
901.095	1759.78224
901.274	1789.38866
901.453	1637.11991
901.632	1721.71575
901.811	1603.28043
901.989	1764.01177
902.168	1673.07369
902.347	1730.17507
902.526	1510.21968
902.705	1603.28043
902.884	1421.38758
903.063	1580.0155
903.242	1393.89199
903.42	1628.66009
903.599	1349.47632
903.778	1531.37006
903.957	1393.89199
904.135	1683.64819
904.314	1522.90992
904.493	1429.84778
904.672	1434.07789
904.85	1476.37892
905.029	1370.62658
905.207	1575.78549
905.386	1313.52121
905.565	1404.4672
905.743	1241.61274
905.922	1421.38758
906.1	1302.94628
906.279	1163.36319
906.457	1129.52714
906.636	1334.67122
906.814	1148.55979
906.993	1247.95749
907.171	1053.40037
907.35	1315.63621
907.528	1051.28583
907.707	1102.03617
907.885	1133.75658
908.063	1161.24841
908.242	979.39514
908.42	1212.00427
908.598	877.91585
908.777	1013.22517
908.955	985.73814
909.133	1070.31686
909.311	820.84188
909.49	1011.11074
909.668	945.56682
909.846	1091.46294
910.024	918.08266
910.202	1190.85574
910.38	964.59503
910.559	1159.13363
910.737	1030.14078
910.915	1110.49485
911.093	1040.71324
911.271	1089.34831
911.449	1030.14078
911.627	1028.02631
911.805	924.42505
911.983	1006.88191
912.161	934.99584
912.339	1002.65311
912.517	1011.11074
912.695	1154.90408
912.872	1002.65311
913.05	1108.38017
913.228	1004.76751
913.406	1083.00445
913.584	1068.20228
913.762	1209.8894
913.939	867.34612
914.117	1002.65311
914.295	973.05219
914.473	1044.94226
914.65	970.93789
914.828	1061.85857
915.006	894.82784
915.184	1013.22517
915.361	888.48578
915.539	1028.02631
915.716	1002.65311
915.894	1017.45403
916.072	943.45261
916.249	1002.65311
916.427	1040.71324
916.604	1044.94226
916.782	985.73814
916.959	1085.11906
917.137	829.29687
917.314	1066.0877
917.492	732.07367
917.669	873.68793
917.847	926.53919
918.024	896.94188
918.201	979.39514
918.379	884.25779
918.556	793.36416
918.733	1036.48424
918.911	776.4556
919.088	1030.14078
919.265	816.61443
919.442	928.65334
919.62	858.89049
919.797	989.96684
919.974	791.25055
920.151	918.08266
920.328	683.47028
920.506	827.18311
920.683	799.70503
920.86	820.84188
921.037	738.41367
921.214	810.27334
921.391	706.71465
921.568	850.435
921.745	689.80952
921.922	727.84706
922.099	641.21136
922.276	776.4556
922.453	620.0837
922.63	706.71465
922.807	607.4077
922.984	647.5499
923.161	613.74564
923.338	765.88806
923.514	660.22729
923.691	736.30033
923.868	613.74564
924.045	584.16957
924.222	675.01812
924.399	628.53462
924.575	444.77578
924.752	710.94105
924.929	550.37148
925.105	664.45318
925.282	666.56615
925.459	554.59606
925.635	525.02522
925.812	537.6981
925.989	438.44123
926.165	512.35284
926.342	366.65975
926.518	622.19641
926.695	556.70836
926.871	563.04536
927.048	379.32569
927.224	478.56239
927.401	520.80104
927.577	423.66115
927.754	389.88109
927.93	590.50708
928.107	516.57691
928.283	455.33367
928.459	370.88166
928.636	328.66565
928.812	406.7706
928.988	453.22206
929.165	366.65975
929.341	520.80104
929.517	389.88109
929.693	406.7706
929.87	497.56906
930.046	326.55503
930.222	396.21454
930.398	343.44047
930.574	259.02486
930.751	520.80104
930.927	275.90563
931.103	423.66115
931.279	364.54882
931.455	377.21465
931.631	235.81579
931.807	305.44984
931.983	286.45672
932.159	404.65936
932.335	322.33385
932.511	377.21465
932.687	326.55503
932.863	292.78759
933.039	250.58493
933.215	278.01581
933.391	278.01581
933.566	221.0476
933.742	313.8917
933.918	345.55122
934.094	316.00221
934.27	242.1453
934.445	191.51415
934.621	174.63967
934.797	143.00359
934.973	231.59621
935.148	180.96744
935.324	267.46509
935.5	216.8283
935.675	210.49949
935.851	178.85816
936.027	168.31207
936.202	128.24171
936.378	94.50427
936.553	111.37229
936.729	132.45929
936.904	134.5681
937.08	134.5681
937.255	60.77252
937.431	128.24171
937.606	94.50427
937.782	75.52945
937.957	90.28749
938.133	143.00359
938.308	130.35049
938.483	81.85419
938.659	81.85419
938.834	81.85419
939.009	149.33043
939.185	79.74592
939.36	22.83131
939.535	54.44846
939.71	98.72115
939.886	48.12461
940.061	-8.78052
940.236	107.15516
940.411	18.61609
940.586	41.80097
940.761	73.42125
940.937	20.72369
941.112	176.7489
941.287	10.18593
941.462	20.72369
941.637	43.90883
941.812	33.36978
941.987	69.20492
942.162	77.63768
942.337	73.42125
942.512	-0.35123
942.687	128.24171
942.862	24.93896
943.037	39.69314
943.212	117.69816
943.386	3.86356
943.561	83.96248
943.736	62.88058
943.911	5.97099
944.086	39.69314
944.26	37.58533
944.435	79.74592
944.61	58.66448
944.785	3.86356
944.959	31.26204
945.134	60.77252
945.309	83.96248
945.483	46.01671
945.658	18.61609
945.833	20.72369
946.007	50.23254
946.182	60.77252
946.357	-2.45859
946.531	-34.06606
946.706	56.55646
946.88	52.34049
947.055	-0.35123
947.229	31.26204
947.404	-4.56592
947.578	20.72369
947.752	75.52945
947.927	48.12461
948.101	128.24171
948.276	-17.20943
948.45	77.63768
948.624	31.26204
948.799	56.55646
948.973	52.34049
949.147	83.96248
949.321	39.69314
949.496	124.02423
949.67	60.77252
949.844	-36.17303
950.018	60.77252
950.193	50.23254
950.367	86.0708
950.541	31.26204
950.715	14.40096
950.889	39.69314
951.063	64.98867
951.237	52.34049
951.411	29.15432
951.585	22.83131
951.759	31.26204
951.933	-0.35123
952.107	5.97099
952.281	69.20492
952.455	31.26204
952.629	117.69816
952.803	94.50427
952.977	83.96248
953.151	69.20492
953.325	48.12461
953.499	-10.88778
953.672	75.52945
953.846	56.55646
954.02	-48.81431
954.194	98.72115
954.368	5.97099
954.541	73.42125
954.715	39.69314
954.889	31.26204
955.062	60.77252
955.236	50.23254
955.41	27.04663
955.583	50.23254
955.757	48.12461
955.93	81.85419
956.104	8.07845
956.278	24.93896
956.451	107.15516
956.625	60.77252
956.798	35.47754
956.972	73.42125
957.145	5.97099
957.319	64.98867
957.492	119.80683
957.665	1.75615
957.839	92.39587
958.012	31.26204
958.185	73.42125
958.359	41.80097
958.532	83.96248
958.705	20.72369
958.879	41.80097
959.052	75.52945
959.225	90.28749
959.398	107.15516
959.572	69.20492
959.745	41.80097
959.918	79.74592
960.091	75.52945
960.264	58.66448
960.438	-21.42373
960.611	43.90883
960.784	96.6127
960.957	81.85419
961.13	98.72115
961.303	18.61609
961.476	60.77252
961.649	18.61609
961.822	58.66448
961.995	130.35049
962.168	98.72115
962.341	67.09678
962.514	-0.35123
962.686	48.12461
962.859	48.12461
963.032	16.50851
963.205	73.42125
963.378	119.80683
963.551	102.93811
963.723	16.50851
963.896	48.12461
964.069	98.72115
964.242	22.83131
964.414	35.47754
964.587	29.15432
964.76	5.97099
964.932	100.82962
965.105	52.34049
965.278	50.23254
965.45	20.72369
965.623	75.52945
965.795	18.61609
965.968	52.34049
966.14	75.52945
966.313	151.43941
966.485	5.97099
966.658	27.04663
966.83	-2.45859
967.003	14.40096
967.175	143.00359
967.348	60.77252
967.52	1.75615
967.692	88.17913
967.865	27.04663
968.037	50.23254
968.209	35.47754
968.382	119.80683
968.554	24.93896
968.726	107.15516
968.898	83.96248
969.071	3.86356
969.243	48.12461
969.415	166.20292
969.587	92.39587
969.759	98.72115
969.932	-0.35123
970.104	46.01671
970.276	16.50851
970.448	5.97099
970.62	22.83131
970.792	58.66448
970.964	5.97099
971.136	83.96248
971.308	-27.74501
971.48	-36.17303
971.652	1.75615
971.824	-10.88778
971.996	-19.31659
972.168	3.86356
972.339	8.07845
972.511	-4.56592
972.683	-15.10224
972.855	-2.45859
973.027	-23.53085
973.199	27.04663
973.37	83.96248
973.542	-65.66794
973.714	48.12461
973.886	16.50851
974.057	-27.74501
974.229	31.26204
974.401	39.69314
974.572	77.63768
974.744	-6.67324
974.915	27.04663
975.087	-8.78052
975.259	-34.06606
975.43	39.69314
975.602	-31.95906
975.773	77.63768
975.945	-29.85205
976.116	48.12461
976.288	-0.35123
976.459	41.80097
976.63	-6.67324
976.802	52.34049
976.973	20.72369
977.145	52.34049
977.316	-19.31659
977.487	81.85419
977.659	12.29343
977.83	-12.99502
978.001	-8.78052
978.172	14.40096
978.344	-36.17303
978.515	56.55646
978.686	16.50851
978.857	64.98867
979.028	58.66448
979.2	-10.88778
979.371	18.61609
979.542	-34.06606
979.713	1.75615
979.884	-19.31659
980.055	-2.45859
980.226	33.36978
980.397	-44.60065
980.568	14.40096
980.739	-17.20943
980.91	14.40096
981.081	-34.06606
981.252	5.97099
981.423	29.15432
981.594	8.07845
981.765	-44.60065
981.936	-38.27997
982.106	-10.88778
982.277	22.83131
982.448	1.75615
982.619	5.97099
982.79	33.36978
982.96	60.77252
983.131	31.26204
983.302	-25.63794
983.472	102.93811
983.643	-15.10224
983.814	-0.35123
983.984	27.04663
984.155	39.69314
984.326	48.12461
984.496	12.29343
984.667	10.18593
984.837	-12.99502
985.008	18.61609
985.178	-65.66794
985.349	48.12461
985.519	10.18593
985.69	-6.67324
985.86	-19.31659
986.031	-55.13461
986.201	48.12461
986.371	58.66448
986.542	39.69314
986.712	-10.88778
986.882	-6.67324
987.053	3.86356
987.223	39.69314
987.393	14.40096
987.563	-0.35123
987.734	18.61609
987.904	69.20492
988.074	22.83131
988.244	16.50851
988.414	35.47754
988.585	64.98867
988.755	8.07845
988.925	31.26204
989.095	50.23254
989.265	-44.60065
989.435	105.04662
989.605	14.40096
989.775	-74.09415
989.945	10.18593
990.115	20.72369
990.285	54.44846
990.455	-69.8811
990.625	10.18593
990.795	1.75615
990.965	-40.38689
991.134	18.61609
991.304	31.26204
991.474	-10.88778
991.644	-10.88778
991.814	1.75615
991.984	10.18593
992.153	-10.88778
992.323	12.29343
992.493	-6.67324
992.662	-48.81431
992.832	1.75615
993.002	27.04663
993.171	20.72369
993.341	73.42125
993.511	10.18593
993.68	-48.81431
993.85	75.52945
994.019	-40.38689
994.189	35.47754
994.358	-23.53085
994.528	-27.74501
994.697	128.24171
994.867	-19.31659
995.036	-57.24133
995.206	50.23254
995.375	1.75615
995.544	18.61609
995.714	-93.05161
995.883	-44.60065
996.052	8.07845
996.222	-27.74501
996.391	-17.20943
996.56	-0.35123
996.73	-0.35123
996.899	12.29343
997.068	54.44846
997.237	33.36978
997.406	33.36978
997.576	-19.31659
997.745	18.61609
997.914	39.69314
998.083	8.07845
998.252	29.15432
998.421	1.75615
998.59	-15.10224
998.759	-6.67324
998.928	41.80097
999.097	5.97099
999.266	37.58533
999.435	5.97099
999.604	-8.78052
999.773	8.07845
999.942	18.61609
1000.111	-19.31659
1000.28	5.97099
1000.448	-29.85205
1000.617	8.07845
1000.786	-50.9211
1000.955	-2.45859
1001.124	10.18593
1001.292	22.83131
1001.461	64.98867
1001.63	-0.35123
1001.798	27.04663
1001.967	1.75615
1002.136	-42.49378
1002.304	1.75615
1002.473	-78.3071
1002.642	-69.8811
1002.81	22.83131
1002.979	52.34049
1003.147	-15.10224
1003.316	-69.8811
1003.484	22.83131
1003.653	-10.88778
1003.821	31.26204
1003.99	-25.63794
1004.158	-23.53085
1004.327	29.15432
1004.495	67.09678
1004.663	56.55646
1004.832	-6.67324
1005	48.12461
1005.168	-50.9211
1005.337	-59.34802
1005.505	27.04663
1005.673	24.93896
1005.842	1.75615
1006.01	-2.45859
1006.178	-4.56592
1006.346	16.50851
1006.514	-21.42373
1006.683	-23.53085
1006.851	-42.49378
1007.019	-36.17303
1007.187	37.58533
1007.355	-61.45468
1007.523	-15.10224
1007.691	67.09678
1007.859	56.55646
1008.027	-36.17303
1008.195	-34.06606
1008.363	-40.38689
1008.531	-63.56133
1008.699	-59.34802
1008.867	-23.53085
1009.035	-10.88778
1009.203	-34.06606
1009.37	69.20492
1009.538	-48.81431
1009.706	1.75615
1009.874	-8.78052
1010.042	-29.85205
1010.209	77.63768
1010.377	-17.20943
1010.545	35.47754
1010.713	1.75615
1010.88	1.75615
1011.048	-90.94533
1011.216	-48.81431
1011.383	22.83131
1011.551	-19.31659
1011.718	-69.8811
1011.886	5.97099
1012.054	-34.06606
1012.221	10.18593
1012.389	-42.49378
1012.556	-69.8811
1012.724	24.93896
1012.891	-2.45859
1013.058	24.93896
1013.226	39.69314
1013.393	39.69314
1013.561	31.26204
1013.728	14.40096
1013.895	14.40096
1014.063	-27.74501
1014.23	-36.17303
1014.397	-6.67324
1014.565	-44.60065
1014.732	33.36978
1014.899	27.04663
1015.066	48.12461
1015.233	-27.74501
1015.401	14.40096
1015.568	90.28749
1015.735	35.47754
1015.902	52.34049
1016.069	-27.74501
1016.236	-8.78052
1016.403	18.61609
1016.57	-2.45859
1016.737	43.90883
1016.904	-40.38689
1017.071	35.47754
1017.238	-25.63794
1017.405	-42.49378
1017.572	-4.56592
1017.739	-8.78052
1017.906	-53.02787
1018.073	-10.88778
1018.24	-38.27997
1018.407	-38.27997
1018.573	33.36978
1018.74	33.36978
1018.907	-44.60065
1019.074	-86.73269
1019.241	-61.45468
1019.407	-15.10224
1019.574	31.26204
1019.741	5.97099
1019.907	-29.85205
1020.074	-50.9211
1020.241	18.61609
1020.407	-2.45859
1020.574	60.77252
1020.74	-29.85205
1020.907	-27.74501
1021.073	-44.60065
1021.24	39.69314
1021.406	-80.41353
1021.573	-10.88778
1021.739	5.97099
1021.906	-12.99502
1022.072	-55.13461
1022.239	-0.35123
1022.405	-63.56133
1022.571	41.80097
1022.738	81.85419
1022.904	64.98867
1023.07	-23.53085
1023.237	22.83131
1023.403	31.26204
1023.569	-34.06606
1023.735	5.97099
1023.902	-4.56592
1024.068	33.36978
1024.234	-6.67324
1024.4	107.15516
1024.566	18.61609
1024.732	-19.31659
1024.898	5.97099
1025.065	-53.02787
1025.231	-71.98763
1025.397	-19.31659
1025.563	-8.78052
1025.729	-0.35123
1025.895	18.61609
1026.061	27.04663
1026.227	-19.31659
1026.392	5.97099
1026.558	-59.34802
1026.724	-42.49378
1026.89	-6.67324
1027.056	-0.35123
1027.222	22.83131
1027.388	35.47754
1027.553	-95.15786
1027.719	-10.88778
1027.885	5.97099
1028.051	22.83131
1028.216	-15.10224
1028.382	-17.20943
1028.548	3.86356
1028.713	24.93896
1028.879	-10.88778
1029.045	-19.31659
1029.21	24.93896
1029.376	48.12461
1029.541	50.23254
1029.707	-36.17303
1029.873	-36.17303
1030.038	-61.45468
1030.204	10.18593
1030.369	-48.81431
1030.534	-6.67324
1030.7	-23.53085
1030.865	31.26204
1031.031	-61.45468
1031.196	20.72369
1031.361	1.75615
1031.527	-36.17303
1031.692	-4.56592
1031.857	48.12461
1032.023	16.50851
1032.188	31.26204
1032.353	8.07845
1032.518	-23.53085
1032.684	-12.99502
1032.849	-61.45468
1033.014	-10.88778
1033.179	39.69314
1033.344	58.66448
1033.509	-8.78052
1033.674	-36.17303
1033.839	-86.73269
1034.004	-25.63794
1034.17	-15.10224
1034.335	-10.88778
1034.5	39.69314
1034.664	24.93896
1034.829	-8.78052
1034.994	-10.88778
1035.159	-50.9211
1035.324	-53.02787
1035.489	-19.31659
1035.654	14.40096
1035.819	5.97099
1035.984	41.80097
1036.148	48.12461
1036.313	-40.38689
1036.478	14.40096
1036.643	5.97099
1036.807	-2.45859
1036.972	16.50851
1037.137	10.18593
1037.301	24.93896
1037.466	22.83131
1037.631	5.97099
1037.795	-15.10224
1037.96	-17.20943
1038.124	58.66448
1038.289	-40.38689
1038.454	-67.77453
1038.618	-63.56133
1038.783	8.07845
1038.947	-23.53085
1039.111	-6.67324
1039.276	56.55646
1039.44	33.36978
1039.605	75.52945
1039.769	-48.81431
1039.933	-59.34802
1040.098	35.47754
1040.262	41.80097
1040.426	-27.74501
1040.591	18.61609
1040.755	5.97099
1040.919	-0.35123
1041.083	16.50851
1041.248	-19.31659
1041.412	-6.67324
1041.576	-61.45468
1041.74	-29.85205
1041.904	-15.10224
1042.068	-0.35123
1042.232	-4.56592
1042.397	-10.88778
1042.561	-63.56133
1042.725	48.12461
1042.889	-36.17303
1043.053	-57.24133
1043.217	-50.9211
1043.381	-31.95906
1043.544	-40.38689
1043.708	22.83131
1043.872	-0.35123
1044.036	-50.9211
1044.2	18.61609
1044.364	-36.17303
1044.528	-44.60065
1044.691	-17.20943
1044.855	-67.77453
1045.019	-78.3071
1045.183	-44.60065
1045.346	52.34049
1045.51	-27.74501
1045.674	-4.56592
1045.837	52.34049
1046.001	-40.38689
1046.165	-25.63794
1046.328	-59.34802
1046.492	-27.74501
1046.655	-82.51994
1046.819	18.61609
1046.983	27.04663
1047.146	8.07845
1047.31	-109.90091
1047.473	-25.63794
1047.636	1.75615
1047.8	22.83131
1047.963	39.69314
1048.127	-23.53085
1048.29	-48.81431
