Data from absorb_only_2.23.25_USB4F045381__12__0117.txt Node

Date: Sun Feb 23 19:14:11 EST 2025
User: ssocol
Spectrometer: USB4F04538
Trigger mode: 4
Integration Time (sec): 2.600000E-3
Scans to average: 1
Electric dark correction enabled: true
Nonlinearity correction enabled: true
Boxcar width: 0
XAxis mode: Wavelengths
Number of Pixels in Spectrum: 3648
>>>>>Begin Spectral Data<<<<<
345.52	-12.46822
345.736	-12.46822
345.952	-12.46822
346.168	10.7128
346.384	2.283
346.6	44.4358
346.816	17.0354
347.032	54.97546
347.248	44.4358
347.464	-50.3944
347.68	-31.43231
347.896	44.4358
348.112	-20.89695
348.328	-73.56752
348.544	14.92785
348.76	-25.11117
348.975	-18.7898
349.191	86.59788
349.407	65.5157
349.623	27.57355
349.839	23.35822
350.055	52.86748
350.27	27.57355
350.486	14.92785
350.702	-44.07393
350.918	-56.71465
351.133	63.4076
351.349	-39.86016
351.565	19.14299
351.781	0.17561
351.996	-71.461
352.212	-14.57544
352.428	29.68125
352.644	-56.71465
352.859	61.29953
353.075	71.84011
353.291	-14.57544
353.506	-48.28761
353.722	36.00449
353.938	-29.32529
354.153	-14.57544
354.369	-27.21824
354.584	52.86748
354.8	-39.86016
355.016	73.9483
355.231	21.25059
355.447	-23.00407
355.662	6.49786
355.878	-46.18078
356.093	-23.00407
356.309	-29.32529
356.524	82.38126
356.74	-18.7898
356.955	0.17561
357.171	27.57355
357.386	4.39042
357.602	-10.36097
357.817	-18.7898
358.033	4.39042
358.248	-31.43231
358.464	57.08346
358.679	40.22009
358.895	36.00449
359.11	-44.07393
359.325	44.4358
359.541	67.62381
359.756	95.03138
359.972	23.35822
360.187	23.35822
360.402	4.39042
360.618	-6.14641
360.833	10.7128
361.048	-39.86016
361.264	73.9483
361.479	14.92785
361.694	-31.43231
361.909	-20.89695
362.125	-6.14641
362.34	27.57355
362.555	-20.89695
362.77	59.19149
362.986	-35.64629
363.201	52.86748
363.416	44.4358
363.631	-29.32529
363.847	-12.46822
364.062	-29.32529
364.277	-50.3944
364.492	17.0354
364.707	-67.24789
364.922	10.7128
365.138	10.7128
365.353	6.49786
365.568	14.92785
365.783	14.92785
365.998	10.7128
366.213	-12.46822
366.428	-71.461
366.643	-23.00407
366.858	-6.14641
367.073	10.7128
367.288	23.35822
367.503	46.54368
367.718	10.7128
367.933	23.35822
368.148	-75.67402
368.363	-65.14129
368.578	-52.50118
368.793	38.11228
369.008	-56.71465
369.223	10.7128
369.438	-1.93175
369.653	40.22009
369.868	-16.68263
370.083	-12.46822
370.298	6.49786
370.513	-4.03909
370.728	-90.41875
370.943	19.14299
371.157	14.92785
371.372	8.60532
371.587	6.49786
371.802	-1.93175
372.017	-14.57544
372.232	27.57355
372.446	12.82031
372.661	38.11228
372.876	-18.7898
373.091	-6.14641
373.306	29.68125
373.52	61.29953
373.735	69.73195
373.95	-98.84375
374.165	88.70622
374.379	-56.71465
374.594	-39.86016
374.809	-31.43231
375.023	-10.36097
375.238	25.46587
375.453	-12.46822
375.667	27.57355
375.882	-37.75323
376.097	6.49786
376.311	57.08346
376.526	10.7128
376.741	14.92785
376.955	50.75953
377.17	33.89672
377.384	-4.03909
377.599	54.97546
377.813	71.84011
378.028	29.68125
378.242	-46.18078
378.457	86.59788
378.672	57.08346
378.886	67.62381
379.101	-10.36097
379.315	2.283
379.53	65.5157
379.744	-25.11117
379.958	2.283
380.173	17.0354
380.387	-10.36097
380.602	-48.28761
380.816	23.35822
381.031	14.92785
381.245	-35.64629
381.459	-27.21824
381.674	21.25059
381.888	-60.92802
382.103	95.03138
382.317	76.05651
382.531	52.86748
382.746	-14.57544
382.96	42.32793
383.174	21.25059
383.388	73.9483
383.603	67.62381
383.817	27.57355
384.031	-1.93175
384.246	21.25059
384.46	-35.64629
384.674	90.81458
384.888	-1.93175
385.103	29.68125
385.317	-16.68263
385.531	4.39042
385.745	27.57355
385.959	-6.14641
386.174	36.00449
386.388	42.32793
386.602	21.25059
386.816	12.82031
387.03	-6.14641
387.244	17.0354
387.458	36.00449
387.672	23.35822
387.887	10.7128
388.101	-8.2537
388.315	-14.57544
388.529	-39.86016
388.743	25.46587
388.957	57.08346
389.171	54.97546
389.385	-4.03909
389.599	27.57355
389.813	10.7128
390.027	-54.60793
390.241	2.283
390.455	76.05651
390.669	-1.93175
390.883	-98.84375
391.097	69.73195
391.311	-46.18078
391.525	61.29953
391.738	14.92785
391.952	36.00449
392.166	73.9483
392.38	-31.43231
392.594	14.92785
392.808	-16.68263
393.022	31.78897
393.236	61.29953
393.449	69.73195
393.663	-27.21824
393.877	-41.96706
394.091	38.11228
394.305	23.35822
394.518	-4.03909
394.732	57.08346
394.946	0.17561
395.16	38.11228
395.373	78.16474
395.587	29.68125
395.801	12.82031
396.015	46.54368
396.228	99.24826
396.442	25.46587
396.656	29.68125
396.869	-16.68263
397.083	-4.03909
397.297	31.78897
397.51	44.4358
397.724	48.65159
397.938	10.7128
398.151	124.55141
398.365	44.4358
398.578	40.22009
398.792	52.86748
399.005	-14.57544
399.219	21.25059
399.433	71.84011
399.646	21.25059
399.86	27.57355
400.073	63.4076
400.287	33.89672
400.5	57.08346
400.714	124.55141
400.927	4.39042
401.141	4.39042
401.354	23.35822
401.567	-12.46822
401.781	14.92785
401.994	21.25059
402.208	63.4076
402.421	19.14299
402.635	78.16474
402.848	46.54368
403.061	76.05651
403.275	-63.03467
403.488	67.62381
403.701	54.97546
403.915	99.24826
404.128	12.82031
404.341	40.22009
404.555	40.22009
404.768	97.13981
404.981	54.97546
405.195	23.35822
405.408	10.7128
405.621	36.00449
405.834	19.14299
406.048	-23.00407
406.261	-16.68263
406.474	52.86748
406.687	69.73195
406.9	-23.00407
407.114	69.73195
407.327	59.19149
407.54	-18.7898
407.753	92.92297
407.966	38.11228
408.179	12.82031
408.392	-12.46822
408.605	63.4076
408.819	19.14299
409.032	116.11668
409.245	145.63975
409.458	69.73195
409.671	-1.93175
409.884	-10.36097
410.097	23.35822
410.31	27.57355
410.523	73.9483
410.736	67.62381
410.949	42.32793
411.162	17.0354
411.375	-14.57544
411.588	92.92297
411.801	65.5157
412.014	90.81458
412.227	69.73195
412.44	33.89672
412.653	23.35822
412.865	-23.00407
413.078	71.84011
413.291	-6.14641
413.504	69.73195
413.717	97.13981
413.93	54.97546
414.143	88.70622
414.356	2.283
414.568	44.4358
414.781	10.7128
414.994	61.29953
415.207	10.7128
415.42	-20.89695
415.632	31.78897
415.845	86.59788
416.058	80.27299
416.271	19.14299
416.483	29.68125
416.696	114.00805
416.909	21.25059
417.121	61.29953
417.334	82.38126
417.547	27.57355
417.759	27.57355
417.972	50.75953
418.185	-1.93175
418.397	-10.36097
418.61	63.4076
418.823	65.5157
419.035	103.46523
419.248	88.70622
419.46	59.19149
419.673	63.4076
419.885	67.62381
420.098	19.14299
420.311	38.11228
420.523	25.46587
420.736	36.00449
420.948	40.22009
421.161	71.84011
421.373	80.27299
421.586	17.0354
421.798	99.24826
422.01	54.97546
422.223	63.4076
422.435	105.57375
422.648	105.57375
422.86	31.78897
423.073	179.38548
423.285	103.46523
423.497	44.4358
423.71	27.57355
423.922	95.03138
424.134	38.11228
424.347	128.76891
424.559	12.82031
424.771	52.86748
424.984	132.98649
425.196	69.73195
425.408	54.97546
425.621	86.59788
425.833	63.4076
426.045	73.9483
426.257	99.24826
426.47	147.7487
426.682	86.59788
426.894	137.20416
427.106	111.89944
427.318	80.27299
427.531	103.46523
427.743	52.86748
427.955	90.81458
428.167	80.27299
428.379	90.81458
428.591	145.63975
428.804	137.20416
429.016	57.08346
429.228	120.334
429.44	69.73195
429.652	99.24826
429.864	95.03138
430.076	139.31302
430.288	99.24826
430.5	36.00449
430.712	130.87769
430.924	52.86748
431.136	31.78897
431.348	78.16474
431.56	149.85767
431.772	183.60407
431.984	92.92297
432.196	141.42191
432.408	151.96666
432.62	86.59788
432.832	95.03138
433.044	105.57375
433.256	158.29377
433.468	139.31302
433.679	149.85767
433.891	92.92297
434.103	86.59788
434.315	149.85767
434.527	168.83937
434.739	137.20416
434.95	236.34324
435.162	130.87769
435.374	145.63975
435.586	145.63975
435.798	149.85767
436.009	160.40285
436.221	130.87769
436.433	162.51195
436.645	69.73195
436.856	105.57375
437.068	111.89944
437.28	137.20416
437.491	189.93211
437.703	145.63975
437.915	107.68229
438.126	204.69824
438.338	137.20416
438.55	164.62107
438.761	249.00247
438.973	149.85767
439.184	173.05775
439.396	221.57502
439.608	177.27622
439.819	200.47924
440.031	154.07568
440.242	189.93211
440.454	249.00247
440.665	154.07568
440.877	196.26033
441.088	168.83937
441.3	158.29377
441.511	164.62107
441.723	213.13647
441.934	215.24608
442.146	276.43317
442.357	225.79441
442.569	187.82274
442.78	175.16697
442.991	232.12365
443.203	255.33235
443.414	225.79441
443.626	255.33235
443.837	232.12365
444.048	204.69824
444.26	213.13647
444.471	253.22237
444.682	259.55236
444.894	259.55236
445.105	200.47924
445.316	259.55236
445.528	240.56291
445.739	234.23344
445.95	305.97745
446.161	234.23344
446.373	232.12365
446.584	255.33235
446.795	301.75662
447.006	282.76378
447.217	230.01389
447.429	293.31517
447.64	297.53586
447.851	301.75662
448.062	274.323
448.273	305.97745
448.484	322.8615
448.695	282.76378
448.907	217.35571
449.118	291.20486
449.329	255.33235
449.54	249.00247
449.751	318.64038
449.962	297.53586
450.173	246.89255
450.384	270.10273
450.595	265.88252
450.806	303.86702
451.017	204.69824
451.228	312.30883
451.439	394.63116
451.65	403.07593
451.861	320.75093
452.072	314.41933
452.283	350.30049
452.494	356.63299
452.705	417.85491
452.915	417.85491
453.126	434.74613
453.337	367.18749
453.548	392.52001
453.759	424.189
453.97	434.74613
454.181	544.56279
454.391	386.18665
454.602	479.09034
454.813	525.55324
455.024	534.00179
455.235	358.74385
455.445	443.19213
455.656	487.53762
455.867	479.09034
456.078	470.64331
456.288	476.97856
456.499	451.63837
456.71	517.10492
456.921	536.11396
457.131	449.52678
457.342	493.87323
457.553	565.68581
457.763	574.1354
457.974	736.82866
458.184	536.11396
458.395	713.58257
458.606	664.98142
458.816	766.41643
459.027	745.2821
459.237	637.51393
459.448	738.94201
459.659	717.80903
459.869	709.35615
460.08	711.46935
460.29	848.84961
460.501	889.01429
460.711	827.71155
460.922	905.92662
461.132	829.82532
461.343	823.48405
461.553	789.66536
461.764	844.62192
461.974	817.14286
462.184	884.78628
462.395	914.38297
462.605	998.95292
462.816	889.01429
463.026	1020.09709
463.236	973.58077
463.447	1015.86821
463.657	914.38297
463.867	1180.81031
464.078	1146.97372
464.288	1269.63557
464.498	1254.831
464.709	1214.64785
464.919	1182.92513
465.129	1341.54501
465.339	1314.04996
465.55	1303.47502
465.76	1271.75052
465.97	1347.89006
466.18	1295.01511
466.391	1536.12888
466.601	1362.69522
466.811	1409.22606
467.021	1493.82808
467.231	1718.01479
467.441	1559.39415
467.651	1823.75224
467.862	1679.94712
468.072	1878.73143
468.282	1940.05026
468.492	1641.87854
468.702	1973.87927
468.912	2153.56714
469.122	1910.44864
469.332	2140.88505
469.542	2138.77134
469.752	2242.33344
469.962	2375.4529
470.172	2252.89984
470.382	2174.70332
470.592	2398.69197
470.802	2434.60442
471.012	2440.9416
471.222	2491.63544
471.432	2683.78883
471.642	2487.4112
471.852	2818.86687
472.062	2774.55044
472.272	2892.71392
472.482	2848.40777
472.691	2968.65247
472.901	2837.85776
473.111	2861.06731
473.321	3002.39675
473.531	3097.28152
473.741	3246.92295
473.95	3322.76548
474.16	3272.20624
474.37	3632.21833
474.58	3537.5296
474.79	3533.32034
474.999	3617.49146
475.209	3550.15694
475.419	3749.99972
475.628	3703.73563
475.838	3745.79428
476.048	3853.00851
476.258	3939.16291
476.467	4128.16224
476.677	4226.79482
476.886	4293.92206
477.096	4386.18604
477.306	4442.78175
477.515	4245.67657
477.725	4530.78772
477.935	4348.44675
478.144	4673.19058
478.354	4551.73578
478.563	4920.05401
478.773	4811.30575
478.982	4876.14388
479.192	4867.7789
479.401	4888.69066
479.611	5064.25873
479.82	5218.79056
480.03	5258.44707
480.239	5556.64299
480.449	5218.79056
480.658	5494.12424
480.868	5656.62887
481.077	5735.74581
481.287	5673.2879
481.496	5889.71784
481.705	5902.1964
481.915	6043.56071
482.124	6118.35654
482.333	6269.93243
482.543	6184.81616
482.752	6267.85689
482.961	6690.78459
483.171	6651.43495
483.38	6232.56916
483.589	6535.40866
483.799	6643.14976
484.008	6912.23095
484.217	6781.87828
484.426	7015.62145
484.636	6757.03894
484.845	7065.2289
485.054	6916.36766
485.263	7315.13774
485.472	7232.55911
485.682	7513.18382
485.891	7302.75319
486.1	7370.85846
486.309	7708.97173
486.518	7649.22525
486.727	7746.04683
486.936	7846.93912
487.146	7614.19316
487.355	8007.44065
487.564	7945.72408
487.773	7968.35562
487.982	7904.56945
488.191	7958.06886
488.4	8165.76304
488.609	8352.71911
488.818	8422.52931
489.027	8436.89923
489.236	8695.39884
489.445	8804.04456
489.654	8557.97993
489.863	9072.36729
490.072	8900.34811
490.281	8822.48874
490.49	8711.80149
490.698	9049.84801
490.907	9084.64965
491.116	9309.71738
491.325	9266.76567
491.534	9176.74762
491.743	9354.70656
491.952	9342.43757
492.16	9479.40786
492.369	9454.88122
492.578	9673.49639
492.787	9653.07267
492.996	9851.11829
493.204	9775.59194
493.413	9775.59194
493.622	10069.41904
493.831	9824.58434
494.039	10067.37961
494.248	9965.38986
494.457	10246.79614
494.665	10130.59544
494.874	10299.78525
495.083	10387.40128
495.291	10328.31409
495.5	10385.36397
495.709	10328.31409
495.917	10377.21462
496.126	10664.35538
496.335	10690.81685
496.543	10816.98981
496.752	10922.77753
496.96	10934.98181
497.169	10906.50452
497.377	10833.26688
497.586	10908.53869
497.794	11437.05429
498.003	11026.50104
498.211	11178.98378
498.42	11105.79963
498.628	11264.34807
498.837	11272.47705
499.045	11117.99795
499.254	11347.66243
499.462	11528.45837
499.671	11575.16861
499.879	11540.64412
500.087	11617.81281
500.296	11512.21016
500.504	11587.35308
500.713	11727.45098
500.921	11849.24116
501.129	11723.39077
501.338	11430.95999
501.546	12064.33069
501.754	11897.94868
501.962	12190.09695
502.171	11993.32055
502.379	12384.77647
502.587	12143.44511
502.795	12445.60074
503.004	12129.24593
503.212	12524.66343
503.42	12257.02542
503.628	12561.15061
503.837	12271.22136
504.045	12437.49118
504.253	12437.49118
504.461	12530.74477
504.669	12696.94642
504.877	12623.9849
505.085	12603.71642
505.294	12907.6823
505.502	12603.71642
505.71	13104.18237
505.918	12721.26522
506.126	13138.61579
506.334	12623.9849
506.542	12897.55212
506.75	13059.61944
506.958	13098.10574
507.166	13326.96375
507.374	13252.03415
507.582	13043.41416
507.79	13221.65561
507.998	13128.48845
508.206	13580.06383
508.414	13468.70712
508.622	13495.0288
508.83	13345.18899
509.037	13857.39912
509.245	13539.57175
509.453	13772.38281
509.661	13699.50747
509.869	14122.53885
510.077	13541.59639
510.285	13974.79453
510.492	13918.122
510.7	14171.1097
510.908	14031.46507
511.116	13893.83314
511.324	13875.61624
511.531	14124.56266
511.739	13717.72669
511.947	14069.91901
512.155	14357.28749
512.362	14183.25222
512.57	13867.51977
512.778	14130.63408
512.985	14126.58647
513.193	14158.9671
513.401	14163.01464
513.608	14446.32389
513.816	14215.63193
514.024	14318.83898
514.231	14567.73271
514.439	14972.40294
514.646	14620.34182
514.854	14695.20738
515.061	14264.20056
515.269	14664.85664
515.477	14622.36523
515.684	14798.39842
515.892	14816.6084
516.099	14946.10017
516.307	14970.37965
516.514	15130.21857
516.722	15008.82206
516.929	15126.17203
517.136	15192.93996
517.344	15029.05486
517.551	15114.0324
517.759	15308.26661
517.966	15464.06022
518.173	15393.24464
518.381	15261.73123
518.588	15413.47761
518.796	15462.03691
519.003	15858.62035
519.21	15162.5909
519.418	15757.44774
519.625	15498.45659
519.832	15812.08061
520.039	15763.51802
520.247	15992.17282
520.454	15913.25478
520.661	16255.24926
520.868	15939.56057
521.076	16293.70126
521.283	15947.6547
521.49	15919.32532
521.697	15963.84303
521.904	16283.58225
522.112	15810.05715
522.319	16307.86795
522.526	16330.13007
522.733	16494.06747
522.94	16338.22544
523.147	16198.58433
523.354	16089.30565
523.561	16409.06127
523.768	16437.39627
523.975	16815.91167
524.183	16315.96324
524.39	16933.32907
524.597	16686.35732
524.804	16538.59599
525.011	16672.1879
525.218	16579.07737
525.425	16919.15755
525.632	17058.85395
525.838	16803.76553
526.045	16797.69249
526.252	16917.13305
526.459	17360.56273
526.666	16937.3781
526.873	17129.71941
527.08	17024.43481
527.287	17447.64533
527.494	17127.69463
527.701	17293.73572
527.907	17099.34808
528.114	17358.53762
528.321	17301.83579
528.528	17702.85137
528.735	17326.13628
528.941	17370.68832
529.148	17569.16562
529.355	17688.6719
529.562	17324.11122
529.768	17613.72595
529.975	17283.6107
530.182	18065.49774
530.388	17654.23671
530.595	18081.70803
530.802	17721.08236
531.008	18353.26519
531.215	18187.08057
531.422	18576.23564
531.628	18024.97302
531.835	18424.20532
532.042	18276.24969
532.248	18507.31255
532.455	18288.40967
532.661	18120.20839
532.868	18513.39382
533.074	18347.18482
533.281	18489.06895
533.487	18377.587
533.694	18326.91717
533.9	18722.20527
534.107	18661.38213
534.313	19312.37679
534.52	19085.19111
534.726	18742.48043
534.933	18687.73839
535.139	18720.17777
535.345	18929.03061
535.552	18937.14225
535.758	19255.57554
535.965	19196.74908
536.171	19150.09606
536.377	19484.82899
536.584	19245.4328
536.79	19375.26765
536.996	19574.11016
537.203	19141.98272
537.409	19068.96553
537.615	19683.69354
537.821	19377.29646
538.028	19714.13553
538.234	19612.66588
538.44	19525.41034
538.646	19255.57554
538.853	19594.40246
539.059	19269.77555
539.265	19803.43748
539.471	19714.13553
539.677	19543.67249
539.883	19722.25355
540.09	19870.41928
540.296	19807.49686
540.502	20116.05836
540.708	19872.4491
540.914	20243.97747
541.12	20158.69621
541.326	20489.71014
541.532	20459.24408
541.738	20455.18201
541.944	20355.66653
542.15	20534.3954
542.356	20300.83577
542.562	20912.26952
542.768	20530.33302
542.974	20510.02137
543.18	20278.49819
543.386	20922.4294
543.592	21123.61624
543.798	21042.32379
544.004	21064.67857
544.21	21322.81021
544.415	21089.06615
544.621	21206.94776
544.827	20788.32724
545.033	21316.71186
545.239	20784.26382
545.445	21635.90711
545.651	20985.42298
545.856	21404.125
546.062	21178.49233
546.268	21296.38428
546.474	21312.64631
546.679	21091.09848
546.885	20757.85199
547.091	21129.71344
547.297	20902.10973
547.502	21717.2463
547.708	21444.78479
547.914	21511.87694
548.119	21578.9734
548.325	21585.0733
548.531	21572.87355
548.736	21320.77742
548.942	21369.56543
549.147	21056.5495
549.353	21672.50897
549.559	21833.16542
549.764	21402.09205
549.97	21566.77373
550.175	21928.75729
550.381	22168.79089
550.586	21839.26678
550.792	21999.9482
550.997	22014.18694
551.203	22343.76339
551.408	22441.43424
551.614	22193.20401
551.819	22368.18032
552.025	22486.20283
552.23	22292.89648
552.435	22443.46914
552.641	22815.91529
552.846	22791.48901
553.052	22687.68284
553.257	22256.27373
553.462	22883.09013
553.668	22661.2239
553.873	22710.07164
554.078	22512.65781
554.283	22644.94176
554.489	22848.48445
554.694	22714.14238
554.899	22616.44857
555.105	23359.52498
555.31	22903.44688
555.515	23184.40416
555.72	23377.85294
555.925	23168.11506
556.131	23416.54614
556.336	22911.58967
556.541	23842.24437
556.746	22927.87542
556.951	23196.62112
557.156	23141.64573
557.361	23278.07048
557.567	23526.52244
557.772	23369.70715
557.977	23031.70213
558.182	23451.16733
558.387	22968.59073
558.592	23665.02384
558.797	23243.45387
559.002	23284.17939
559.207	23125.35718
559.412	23652.80257
559.617	23471.53316
559.822	23722.05789
560.027	23968.55293
560.232	23858.54163
560.437	24060.23534
560.642	23923.7325
560.847	24402.56548
561.051	24007.26259
561.256	23880.95066
561.461	23899.28558
561.666	24011.33735
561.871	23842.24437
562.076	23801.50205
562.281	23815.76173
562.485	24135.6229
562.69	23758.72387
562.895	23722.05789
563.1	23789.27958
563.305	24196.75071
563.509	23917.62073
563.714	24092.8349
563.919	24172.29929
564.123	24015.41212
564.328	24600.25419
564.533	24227.31554
564.737	23760.76089
564.942	24184.52495
565.147	24636.94131
565.351	24685.85871
565.556	24477.96967
565.761	24158.03615
565.965	24722.5477
566.17	24557.45357
566.374	24280.296
566.579	24312.90027
566.784	24400.52757
566.988	24730.70091
567.193	24255.84326
567.397	24738.85417
567.602	24859.11912
567.806	24249.73013
568.011	25038.51257
568.215	25124.13839
568.42	24967.16076
568.624	24800.0048
568.828	24694.01175
569.033	24769.42921
569.237	25026.28063
569.442	24906.00431
569.646	24740.89249
569.85	25317.8302
570.055	25152.68121
570.259	25118.02213
570.463	25168.99159
570.668	24492.23573
570.872	24730.70091
571.076	25252.58446
571.281	25480.95399
571.485	25456.48457
571.689	25931.64976
571.893	25658.36591
572.098	25784.80646
572.302	25311.71332
572.506	25109.86715
572.71	25128.21591
572.914	25682.8377
573.119	25795.0036
573.323	25603.30542
573.527	25499.30624
573.731	25658.36591
573.935	25766.45173
574.139	25917.37291
574.343	25762.37292
574.547	25562.52081
574.751	25648.16942
574.955	25766.45173
575.159	25821.51638
575.364	25731.7821
575.568	25929.61021
575.772	26364.07537
575.976	26060.14543
576.18	25666.52314
576.383	26088.70098
576.587	26102.97889
576.791	26239.64312
576.995	26015.27312
577.199	25711.38847
577.403	25403.46853
577.607	25835.79262
577.811	26223.3246
578.015	25931.64976
578.219	26021.39202
578.422	26211.08578
578.626	26447.71358
578.83	26470.15357
579.034	26623.15852
579.238	26539.51472
579.442	26702.72452
579.645	26376.31493
579.849	26929.19395
580.053	26557.87533
580.257	26694.5638
580.46	26655.8007
580.664	26890.42764
580.868	26637.43943
581.071	26861.86333
581.275	27027.13214
581.479	26870.02453
581.682	26659.881
581.886	26806.77581
582.09	26600.71725
582.293	27176.08591
582.497	26965.92039
582.7	27080.18334
582.904	27265.86972
583.107	27512.78813
583.311	26988.36455
583.515	27316.88438
583.718	27182.20745
583.922	27194.45057
584.125	27184.24797
584.329	27118.9521
584.532	26906.75023
584.735	27457.68902
584.939	27090.3856
585.142	27414.8348
585.346	27284.23491
585.549	27286.27549
585.753	27253.62632
585.956	27292.39725
586.159	27525.0325
586.363	27904.62947
586.566	27700.53995
586.769	27335.24986
586.973	27492.38095
587.176	27525.0325
587.379	27447.48559
587.582	27571.96965
587.786	27678.09082
587.989	27496.46237
588.192	27722.98922
588.395	28004.63756
588.599	27927.08003
588.802	28257.73129
589.005	27818.91045
589.208	28443.48013
589.411	28116.89477
589.615	28016.88364
589.818	28118.93584
590.021	27520.95104
590.224	28347.5428
590.427	28323.04854
590.63	28510.84179
590.833	28290.38978
591.036	28180.1685
591.239	28663.94076
591.442	28290.38978
591.645	28908.91136
591.848	28908.91136
592.051	28653.73398
592.254	28398.573
592.457	28531.25464
592.66	28239.36101
592.863	28843.5844
593.066	28318.96618
593.269	28596.57648
593.472	28684.3544
593.675	29362.14642
593.878	29021.19456
594.081	28643.52722
594.284	28619.03111
594.486	29121.23132
594.689	28908.91136
594.892	29100.81545
595.095	29211.06237
595.298	28847.6673
595.5	29019.15301
595.703	29417.27311
595.906	28933.40924
596.109	29327.43742
596.311	29149.81371
596.514	29080.39969
596.717	29325.39572
596.92	29566.32321
597.122	29307.0205
597.325	29652.08063
597.528	29746.00761
597.73	29841.97887
597.933	29272.31197
598.136	29494.86013
598.338	29260.06198
598.541	30011.46601
598.743	29572.44868
598.946	29549.98868
599.148	29454.02467
599.351	29872.6085
599.554	29780.72034
599.756	29901.19639
599.959	29917.53242
600.161	29897.11239
600.363	29948.16268
600.566	29533.65421
600.768	29686.79251
600.971	29666.37372
601.173	29835.85297
601.376	29817.47534
601.578	29727.63041
601.78	30060.4758
601.983	30115.61259
602.185	29946.12066
602.388	29837.89493
602.59	29825.64316
602.792	30127.86533
602.995	30003.29778
603.197	29919.57443
603.399	30068.64416
603.601	29952.24673
603.804	29568.36503
604.006	30019.63427
604.208	29772.55261
604.41	29635.74574
604.613	29974.70911
604.815	30025.76047
605.017	30193.21396
605.219	29788.88809
605.421	29574.4905
605.623	29946.12066
605.826	30089.06514
606.028	29972.66707
606.23	30211.59348
606.432	30123.78108
606.634	30313.70368
606.836	30146.24451
607.038	30709.92049
607.24	30221.80437
607.442	30501.59438
607.644	30309.61921
607.846	30577.1621
608.048	30381.09806
608.25	30630.2648
608.452	30054.34954
608.654	30276.94366
608.856	30348.42183
609.058	30276.94366
609.26	30403.56314
609.462	30442.36683
609.664	30430.11299
609.866	30454.62072
610.067	30383.14033
610.269	30140.1181
610.471	29852.18872
610.673	30293.2814
610.875	30201.38262
611.077	30399.47857
611.278	29833.81101
611.48	30197.29829
611.682	30223.84655
611.884	30636.39209
612.085	30409.69001
612.287	30801.83342
612.489	30605.75575
612.69	31269.61238
612.892	30848.8122
613.094	30852.89735
613.295	30229.9731
613.497	30411.73231
613.699	30493.425
613.9	30695.62317
614.102	30532.22973
614.304	30358.63312
614.505	30080.89673
614.707	30771.19548
614.908	30091.10725
615.11	30217.72001
615.311	30473.00164
615.513	30152.37092
615.714	30532.22973
615.916	30409.69001
616.117	30072.72834
616.319	30581.24689
616.52	30650.68914
616.722	30736.47284
616.923	31002.009
617.124	30618.01025
617.326	30005.33984
617.527	30393.35172
617.729	30287.15474
617.93	30170.75023
618.131	30536.31447
618.333	30372.92897
618.534	30307.57698
618.735	30687.4533
618.937	30397.43629
619.138	30530.18737
619.339	30681.32591
619.54	30920.30306
619.742	30818.17379
619.943	30244.26842
620.144	30546.52633
620.345	30709.92049
620.546	30168.70808
620.748	30468.91698
620.949	30575.11971
621.15	31349.28563
621.351	30893.74911
621.552	30883.53612
621.753	30955.02781
621.954	30999.96632
622.155	30440.32452
622.356	30777.32304
622.558	31044.90554
622.759	30906.00475
622.96	30285.11252
623.161	30726.26037
623.362	30509.76378
623.563	30863.11024
623.764	30544.48395
623.965	30368.84443
624.166	31042.86283
624.366	30283.0703
624.567	30820.21634
624.768	30771.19548
624.969	30295.32362
625.17	30787.53568
625.371	30274.90145
625.572	30699.70811
625.773	30689.49576
625.973	31044.90554
626.174	31002.009
626.375	31181.77026
626.576	31155.2139
626.777	30983.62496
626.977	30650.68914
627.178	31067.37541
627.379	30669.07117
627.58	30115.61259
627.78	30274.90145
627.981	30697.66564
628.182	31437.1333
628.382	31181.77026
628.583	31095.97369
628.784	30969.32635
628.984	30803.87596
629.185	31522.94092
629.386	30810.00359
629.586	31077.58905
629.787	31198.11277
629.987	30877.40834
630.188	30975.45432
630.388	31024.47854
630.589	30871.28057
630.79	31124.57225
630.99	31390.14464
631.191	31735.42986
631.391	31394.23057
631.591	31079.63178
631.792	30718.09042
631.992	31627.13988
632.193	31406.48842
632.393	31020.39315
632.594	31136.82887
632.794	31529.07015
632.994	31251.22658
633.195	30709.92049
633.395	31081.67451
633.595	31077.58905
633.796	30899.87693
633.996	31396.27354
634.196	31316.59888
634.397	31647.57157
634.597	31563.80273
634.797	31447.34834
634.997	31251.22658
635.198	31112.31569
635.398	31153.17111
635.598	31731.34335
635.798	31365.62915
635.998	30940.72933
636.199	31251.22658
636.399	31453.47738
636.599	31175.64185
636.799	31334.98512
636.999	30969.32635
637.199	31273.69813
637.399	31142.9572
637.599	31267.56951
637.799	31384.01574
637.999	31927.50383
638.199	31594.44953
638.399	31482.07978
638.599	31582.19076
638.799	31892.76583
638.999	31616.9241
639.199	31633.26937
639.399	31469.82157
639.599	31770.16544
639.799	31241.01231
639.999	31567.88895
640.199	31445.30533
640.399	32101.20221
640.599	30879.45093
640.799	32113.46381
640.998	31537.24248
641.198	31600.57894
641.398	31721.12712
641.598	32281.04645
641.798	31790.59838
641.997	31735.42986
642.197	32209.51557
642.397	31921.37356
642.597	31968.37277
642.796	31880.50549
642.996	31234.88376
643.196	31706.82448
643.395	31355.41444
643.595	31371.758
643.795	31625.09672
643.994	31909.11306
644.194	31829.42147
644.394	31878.46211
644.593	32080.76637
644.793	32189.07864
644.992	31496.3811
645.192	31966.32931
645.392	31949.98166
645.591	31884.59227
645.791	31935.67756
645.99	31668.00344
646.19	31900.93943
646.389	31343.15683
646.589	31567.88895
646.788	31625.09672
646.987	31633.26937
647.187	31947.93821
647.386	31696.60835
647.586	32432.29182
647.785	32219.73411
647.984	32317.83477
648.184	31919.33014
648.383	31453.47738
648.582	31631.22621
648.782	32205.42817
648.981	31978.59013
649.18	32076.67922
649.38	32536.53558
649.579	32693.93463
649.778	32184.99128
649.977	32849.30361
650.177	32323.96622
650.376	32262.65255
650.575	32199.29708
650.774	32753.21848
650.973	32264.6963
651.173	32354.62379
651.372	32184.99128
651.571	32236.08388
651.77	32217.69039
651.969	32467.03909
652.168	32070.54852
652.367	32800.23817
652.566	32552.88808
652.765	32097.11503
652.964	32297.39673
653.163	32043.98236
653.362	32420.02824
653.561	32299.44052
653.76	32681.66926
653.959	32434.33576
654.158	32274.91513
654.357	31880.50549
654.556	31896.85263
654.755	32344.40455
654.954	32056.24362
655.153	31688.43549
655.352	32182.94761
655.551	32191.12233
655.749	32475.21501
655.948	32740.95269
656.147	32170.68559
656.346	32587.63764
656.545	32080.76637
656.743	32101.20221
656.942	32695.97887
657.141	32714.37711
657.34	32460.90717
657.538	32937.2162
657.737	32528.35938
657.936	32428.20395
658.135	32140.03087
658.333	32307.61572
658.532	32456.81923
658.731	32542.66775
658.929	32544.71181
659.128	32336.22919
659.326	32097.11503
659.525	32395.5013
659.724	32285.134
659.922	32281.04645
660.121	32368.93082
660.319	32487.47896
660.518	32518.13919
660.716	32575.37301
660.915	31819.2048
661.113	32424.11609
661.312	32176.81659
661.51	32532.44748
661.709	32236.08388
661.907	32131.85635
662.105	32434.33576
662.304	32589.68175
662.502	32264.6963
662.701	32724.59843
662.899	32507.91906
663.097	32747.08557
663.296	32268.78383
663.494	32640.78533
663.692	32681.66926
663.891	32720.5099
664.089	32307.61572
664.287	32432.29182
664.485	32360.75536
664.684	32618.29957
664.882	31866.20185
665.08	31527.02707
665.278	31913.19988
665.476	31862.11511
665.675	31884.59227
665.873	32407.76473
666.071	31839.63818
666.269	32211.55927
666.467	32454.77527
666.665	32256.52128
666.863	32187.03496
667.061	32753.21848
667.259	32581.50531
667.457	32879.97026
667.655	32207.47187
667.853	31982.67708
668.051	32238.12761
668.249	32712.33285
668.447	32373.01856
668.645	32041.93882
668.843	32411.85256
669.041	32520.18322
669.239	32099.15862
669.437	32121.63826
669.635	31761.99231
669.833	32422.07216
670.031	32160.4673
670.229	32225.86526
670.426	32236.08388
670.624	32152.2927
670.822	31653.70112
671.02	32219.73411
671.218	32052.15653
671.415	31815.11815
671.613	31557.67341
671.811	31298.21276
672.009	31349.28563
672.206	31537.24248
672.404	31498.42416
672.602	31672.08984
672.799	32242.21508
672.997	32101.20221
673.195	31815.11815
673.392	32462.95114
673.59	32334.18536
673.788	31345.19976
673.985	31559.71652
674.183	31843.72488
674.38	31717.04064
674.578	32027.63411
674.775	31923.41698
674.973	31878.46211
675.17	32009.24249
675.368	32321.9224
675.565	32164.55461
675.763	32058.28717
675.96	31768.12216
676.158	31059.20453
676.355	30930.51618
676.553	31580.14764
676.75	30918.26044
676.947	31020.39315
677.145	31473.90763
677.342	31506.59638
677.539	31355.41444
677.737	31886.63565
677.934	31553.58721
678.131	31545.41483
678.329	31165.42785
678.526	31324.77053
678.723	31247.14087
678.92	31567.88895
679.118	31469.82157
679.315	31388.10167
679.512	31118.44396
679.709	31294.12697
679.906	31008.13704
680.104	31559.71652
680.301	31512.72557
680.498	31226.71239
680.695	31345.19976
680.892	31269.61238
681.089	30887.62131
681.286	31187.89869
681.483	30720.13291
681.68	31214.45537
681.877	31124.57225
682.075	31159.29947
682.272	30830.42912
682.469	31361.54326
682.665	31093.93094
682.862	31359.50032
683.059	31042.86283
683.256	31610.79465
683.453	31100.05918
683.65	30867.1954
683.847	30791.62074
684.044	30564.90776
684.241	30483.2133
684.438	30930.51618
684.635	30703.79306
684.831	31492.295
685.028	30812.04614
685.225	30901.91953
685.422	30906.00475
685.619	31477.99371
685.815	30738.51533
686.012	30789.57821
686.209	30538.35684
686.405	30679.28345
686.602	30423.98608
686.799	30397.43629
686.996	30426.02838
687.192	30793.66327
687.389	30368.84443
687.586	30552.65346
687.782	30705.83554
687.979	30946.85724
688.175	30297.36584
688.372	30511.80613
688.568	30593.5013
688.765	30501.59438
688.962	30656.81647
689.158	30699.70811
689.355	30552.65346
689.551	30250.395
689.748	30066.60207
689.944	30011.46601
690.14	29905.28039
690.337	29984.91932
690.533	30626.17994
690.73	30005.33984
690.926	30771.19548
691.123	30417.85919
691.319	30078.85463
691.515	30319.83038
691.712	29811.34948
691.908	29725.58851
692.104	29645.95504
692.301	30029.84461
692.497	29117.14814
692.693	29637.7876
692.889	29862.3986
693.086	30252.4372
693.282	29903.23839
693.478	30021.67633
693.674	30109.48624
693.87	29588.7833
694.067	29844.02084
694.263	29598.99248
694.459	29500.98549
694.655	29921.61644
694.851	30035.97082
695.047	29543.86324
695.243	29817.47534
695.439	29556.11412
695.635	29437.6906
695.831	29329.47912
696.027	29290.68704
696.224	29449.94115
696.42	29284.56201
696.615	29741.92378
696.811	29494.86013
697.007	29280.47866
697.203	28825.21138
697.399	29074.27498
697.595	29386.64708
697.791	29019.15301
697.987	28694.56126
698.183	29652.08063
698.379	29215.14565
698.575	29198.81256
698.77	29217.18729
698.966	29505.06906
699.162	29264.14531
699.358	29531.61241
699.554	29074.27498
699.749	28710.89229
699.945	28755.80298
700.141	28384.28448
700.337	28694.56126
700.532	28872.16481
700.728	29141.64729
700.924	29088.56598
701.119	29057.94246
701.315	28616.98978
701.511	28821.1285
701.706	29327.43742
701.902	29008.94533
702.097	28731.30618
702.293	29059.98402
702.489	28335.29565
702.684	28372.03721
702.88	28416.94403
703.075	28641.48587
703.271	28490.42904
703.466	28810.92132
703.662	28953.82426
703.857	28572.08067
704.053	28551.6676
704.248	28084.23778
704.443	27890.34283
704.639	28265.89589
704.834	28392.44934
705.03	28292.43094
705.225	28176.08629
705.42	28076.07358
705.616	28412.86158
705.811	28231.19647
706.006	28167.92189
706.202	27939.32585
706.397	27790.3379
706.592	28292.43094
706.787	28559.83281
706.983	27922.9981
707.178	28445.52137
707.373	28165.88079
707.568	28527.17206
707.763	28298.55444
707.959	28461.85138
708.154	28610.86578
708.349	28090.36094
708.544	28178.1274
708.739	27627.07062
708.934	28012.80161
709.129	28186.29182
709.324	27974.02255
709.519	27676.05
709.714	27549.52137
709.909	28404.69667
710.104	27437.28218
710.299	27535.23617
710.494	27651.56023
710.689	27890.34283
710.884	27922.9981
711.079	28155.67532
711.274	28184.25071
711.469	28586.36987
711.664	28076.07358
711.859	28414.9028
712.054	28114.8537
712.249	28470.0164
712.443	27788.29701
712.638	27641.3562
712.833	27714.82583
713.028	27920.95714
713.223	27141.3974
713.417	27486.25882
713.612	27280.15375
713.807	27367.89986
714.002	27498.50309
714.196	28096.48412
714.391	27771.96995
714.586	28186.29182
714.78	28563.91543
714.975	27961.77662
715.17	27345.45295
715.364	27641.3562
715.559	27439.32286
715.754	27100.58789
715.948	27000.6069
716.143	27349.53419
716.337	27180.16694
716.532	27196.4911
716.726	27047.53634
716.921	27253.62632
717.115	27306.68139
717.31	27392.38757
717.504	27594.41809
717.699	27765.84732
717.893	27422.99746
718.088	27335.24986
718.282	27416.87546
718.476	26908.79056
718.671	26406.91411
718.865	26814.93685
719.059	26339.5964
719.254	26643.55984
719.448	26551.75512
719.642	26362.03544
719.837	26031.59022
720.031	26366.11529
720.225	26135.61442
720.419	26853.70215
720.614	26712.92546
720.808	26688.44328
721.002	26574.19598
721.196	26733.32744
721.39	26904.7099
721.585	26517.07415
721.779	26512.99407
721.973	26602.75736
722.167	26215.16538
722.361	26553.79519
722.555	27043.45549
722.749	26690.48345
722.943	26349.79594
723.137	26480.35362
723.331	26270.24064
723.525	26498.71382
723.719	25990.79768
723.913	26255.96175
724.107	25790.92474
724.301	26084.62159
724.495	25654.28731
724.689	25833.75315
724.883	25750.13654
725.077	25758.29412
725.271	25829.67422
725.465	25723.62463
725.659	25690.99502
725.853	26054.02643
726.046	26143.77337
726.24	26221.28479
726.434	25748.09715
726.628	26060.14543
726.822	25391.23426
727.015	25994.8769
727.209	25438.13271
727.403	25582.91302
727.596	25525.81534
727.79	25739.93961
727.984	26019.35238
728.177	26276.36019
728.371	25401.42948
728.565	25523.77617
728.758	25584.95225
728.952	25711.38847
729.146	25395.31234
729.339	25374.92201
729.533	25246.46779
729.726	25640.01226
729.92	25540.08961
730.113	25721.58526
730.307	26227.40422
730.5	25797.04303
730.694	25984.67886
730.887	25992.83729
731.081	25894.93804
731.274	25450.36727
731.468	25429.97638
731.661	25735.86085
731.854	25866.38488
732.048	25376.96103
732.241	25421.82008
732.435	25854.14793
732.628	25823.55584
732.821	25409.58569
733.014	25578.83456
733.208	25285.20706
733.401	25968.36208
733.594	25289.28492
733.788	25841.91104
733.981	26164.17087
734.174	26119.2966
734.367	25917.37291
734.56	25868.42438
734.754	25311.71332
734.947	25281.1292
735.14	24999.77838
735.333	25354.53189
735.526	25413.66381
735.719	24826.50408
735.912	24993.66253
736.105	25381.03909
736.298	25148.60364
736.491	25446.28907
736.684	25087.44113
736.877	25311.71332
737.07	24926.38956
737.263	24956.96787
737.456	25219.96242
737.649	25366.76594
737.842	25505.42369
738.035	25446.28907
738.228	25674.6804
738.421	25340.25893
738.614	25478.91486
738.807	24956.96787
739	24983.4695
739.192	25217.92356
739.385	25152.68121
739.578	24751.08412
739.771	25077.24757
739.964	24535.03465
740.156	24698.08829
740.349	24726.6243
740.542	25079.28628
740.735	25001.817
740.927	24877.46535
741.12	24563.56788
741.313	24545.22503
741.505	24685.85871
741.698	24469.8177
741.891	24200.82599
742.083	24227.31554
742.276	24074.49756
742.468	24035.78614
742.661	24465.74173
742.854	24229.35321
743.046	24200.82599
743.239	24730.70091
743.431	24891.73478
743.624	24217.1272
743.816	23760.76089
744.009	23946.14254
744.201	24235.46626
744.393	24333.27828
744.586	23927.80703
744.778	24282.33375
744.971	24496.31177
745.163	24512.61603
745.355	24449.43794
745.548	24369.95936
745.74	24272.14504
745.932	23832.05868
746.125	24025.5991
746.317	23811.68752
746.509	23756.68684
746.702	24530.95851
746.894	23937.99339
747.086	23968.55293
747.278	23463.38679
747.471	23669.09763
747.663	23607.99215
747.855	23758.72387
748.047	23832.05868
748.239	24037.82356
748.431	24017.44951
748.623	24239.54164
748.815	23618.17621
749.008	23972.62758
749.2	23954.29173
749.392	23862.61597
749.584	23921.69524
749.776	24488.1597
749.968	24208.97657
750.16	23905.39727
750.352	23453.2039
750.544	23709.83611
750.736	23840.20723
750.928	24239.54164
751.12	23766.87199
751.311	23634.47086
751.503	23722.05789
751.695	23697.61444
751.887	23371.74359
752.079	23793.35372
752.271	23408.40011
752.463	23797.42788
752.654	23432.83835
752.846	23498.0092
753.038	23200.69346
753.23	23612.06577
753.421	23522.44908
753.613	23473.56976
753.805	23815.76173
753.997	23585.58749
754.188	23546.88941
754.38	23952.25443
754.572	23791.31665
754.763	23559.10974
754.955	23559.10974
755.146	23538.74258
755.338	23243.45387
755.53	23180.33186
755.721	23066.31296
755.913	23546.88941
756.104	22646.97702
756.296	23098.88874
756.487	22978.76977
756.679	22966.55493
756.87	23023.55854
757.062	22858.66249
757.253	22988.94889
757.445	22649.01227
757.636	22968.59073
757.827	22964.51914
758.019	22990.98473
758.21	22626.62463
758.401	22358.00653
758.593	22254.23917
758.784	22459.74845
758.975	22327.48573
759.167	21774.18746
759.358	22703.96556
759.549	22561.49937
759.74	22522.83297
759.932	22622.5542
760.123	22095.55474
760.314	21987.74371
760.505	22006.0505
760.696	21914.51966
760.888	21670.4755
761.079	21965.36917
761.27	22018.25519
761.461	21959.26711
761.652	22044.69916
761.843	21825.03034
762.034	22044.69916
762.225	22093.52047
762.416	22006.0505
762.607	21564.74046
762.798	21849.43578
762.989	22187.10068
763.18	22278.65416
763.371	21959.26711
763.562	21999.9482
763.753	21377.69699
763.944	21766.05282
764.135	21656.24132
764.326	21892.14664
764.517	21398.02616
764.708	21454.94999
764.899	21389.89445
765.089	21300.44977
765.28	21269.95904
765.471	21322.81021
765.662	20774.10534
765.853	20999.64788
766.043	21064.67857
766.234	21391.92737
766.425	20735.50406
766.615	21060.61402
766.806	21497.64491
766.997	21454.94999
767.187	21168.32986
767.378	21182.55734
767.569	21215.07803
767.759	21332.9742
767.95	21243.53448
768.141	21442.75176
768.331	20926.49338
768.522	20601.42708
768.712	20696.90428
768.903	21091.09848
769.093	20479.55468
769.284	20627.83475
769.474	20491.74125
769.665	20491.74125
769.855	20577.0514
770.046	20621.74061
770.236	20499.8657
770.426	20382.06761
770.617	20347.54326
770.807	20150.57458
770.998	20503.92796
771.188	20174.93969
771.378	20185.092
771.569	20081.54337
771.759	20215.54956
771.949	20363.78986
772.139	20449.08894
772.33	20040.93905
772.52	20093.72499
772.71	20235.85513
772.9	19864.32984
773.09	20284.5902
773.281	19687.75242
773.471	19645.13503
773.661	19592.37321
773.851	19813.58595
774.041	19878.5386
774.231	19600.49023
774.421	19271.80414
774.611	19434.10465
774.802	19371.21006
774.992	19058.82467
775.182	19148.06772
775.372	19517.29394
775.562	19221.09065
775.752	19578.16858
775.942	19024.3465
776.131	19438.1625
776.321	18868.19532
776.511	19127.78452
776.701	19687.75242
776.891	19269.77555
777.081	19022.31841
777.271	19190.66378
777.461	19062.881
777.651	19168.35133
777.84	18997.98164
778.03	19050.71205
778.22	19411.78676
778.41	19249.48989
778.599	18703.95795
778.789	18880.36209
778.979	18823.58506
779.169	18557.99086
779.358	18655.30001
779.548	18985.81347
779.738	18918.89114
779.927	19263.68981
780.117	19004.06578
780.307	18783.03195
780.496	18653.27264
780.686	18602.58977
780.875	18474.8797
781.065	18726.26027
781.254	18377.587
781.444	18357.31879
781.633	18239.77055
781.823	17846.68107
782.012	18326.91717
782.202	18566.09962
782.391	18337.05095
782.581	18280.303
782.77	17994.58042
782.96	18211.39871
783.149	17680.56942
783.338	18069.55029
783.528	18106.0239
783.717	17686.64627
783.906	17761.59665
784.096	17838.57753
784.285	18006.73736
784.474	18164.7894
784.663	18085.76064
784.853	17721.08236
785.042	17972.29302
785.231	17984.44973
785.42	17619.80248
785.61	17607.64945
785.799	17599.54749
785.988	17771.72543
786.177	17548.91144
786.366	17674.49259
786.555	17577.26738
786.744	17326.13628
786.933	17143.89291
787.122	17526.63221
787.312	17287.6607
787.501	17097.32335
787.69	17326.13628
787.879	17390.93973
788.068	17305.88584
788.257	17508.40404
788.445	17172.24033
788.634	17627.90457
788.823	17413.21664
789.012	17593.47106
789.201	16927.25554
789.39	16963.69705
789.579	17143.89291
789.768	17125.66986
789.957	17151.99212
790.145	17052.77993
790.334	16684.33311
790.523	16702.55108
790.712	16487.99548
790.9	16617.53549
791.089	16585.14965
791.278	17147.94251
791.467	16886.76597
791.655	17010.26245
791.844	16769.35194
792.033	16846.27742
792.221	16512.28356
792.41	16603.36661
792.599	16542.64409
792.787	16597.29427
792.976	16305.84413
793.164	16694.45418
793.353	16494.06747
793.541	16651.94607
793.73	16935.35358
793.918	16801.74118
794.107	16178.34718
794.295	16297.74887
794.484	15953.72531
794.672	16619.55962
794.861	16283.58225
795.049	16765.30332
795.238	16044.78602
795.426	16400.96562
795.614	15899.09021
795.803	15945.63117
795.991	15975.98434
796.179	16004.31424
796.368	15941.5841
796.556	15963.84303
796.744	15640.0907
796.932	16299.77268
797.121	16060.97489
797.309	15955.74886
797.497	15975.98434
797.685	15860.64384
797.874	16036.69161
798.062	16445.49206
798.25	15998.24352
798.438	15828.26828
798.626	15474.17678
798.814	15704.83902
799.002	15761.49459
799.19	15810.05715
799.378	15658.30108
799.566	15884.92571
799.755	15528.80647
799.943	15569.27321
800.131	15765.54145
800.318	16101.44749
800.506	15670.44136
800.694	15868.73777
800.882	15437.75722
801.07	15749.35405
801.258	15769.58831
801.446	15789.82268
801.634	15476.2001
801.822	15551.06314
802.01	15209.12613
802.197	15530.8298
802.385	15041.19453
802.573	15522.73648
802.761	15690.67525
802.949	15583.43663
803.136	15158.54436
803.324	15506.54988
803.512	15221.26576
803.699	15259.70795
803.887	15542.9698
804.075	15075.59022
804.262	15377.0583
804.45	15601.6468
804.638	15575.34324
804.825	15751.37747
805.013	15482.27004
805.201	15646.16082
805.388	15636.04396
805.576	15457.99029
805.763	15640.0907
805.951	15587.48333
806.138	15470.13016
806.326	15773.63517
806.513	15243.52176
806.701	15399.31453
806.888	15385.15147
807.075	15318.38301
807.263	15022.98503
807.45	15627.95049
807.638	15502.50323
807.825	15472.15347
808.012	15524.75981
808.2	15640.0907
808.387	15544.99313
808.574	15577.36659
808.761	15484.29336
808.949	15419.5475
809.136	15255.6614
809.323	15492.38663
809.51	15557.13316
809.698	15579.38993
809.885	15057.38075
810.072	15302.19677
810.259	15069.5204
810.446	15105.93932
810.633	15235.42867
810.82	15565.22652
811.008	15405.38442
811.195	15502.50323
811.382	15217.21922
811.569	15154.49782
811.756	15308.26661
811.943	15381.10488
812.13	15166.63744
812.317	15601.6468
812.504	15486.31668
812.691	15747.33063
812.878	15405.38442
813.064	15508.5732
813.251	15476.2001
813.438	15504.52655
813.625	15243.52176
813.812	15043.21781
813.999	15324.45285
814.186	15631.99722
814.372	15494.40995
814.559	15648.18419
814.746	15453.94367
814.933	15334.56927
815.12	15429.66401
815.306	15223.28903
815.493	14800.42176
815.68	15237.45194
815.866	14958.23991
816.053	15427.64071
816.24	15455.96698
816.426	15352.77884
816.613	15354.80212
816.799	15383.12818
816.986	15283.98726
817.173	15358.8487
817.359	15134.26512
817.546	15271.84761
817.732	15215.19595
817.919	15464.06022
818.105	15008.82206
818.292	15328.49942
818.478	15146.40474
818.665	15255.6614
818.851	15109.98586
819.037	15269.82433
819.224	15387.17476
819.41	15488.33999
819.597	15075.59022
819.783	15194.96323
819.969	15304.22005
820.156	15045.24109
820.342	14869.2147
820.528	14911.70412
820.714	14638.55249
820.901	14855.05151
821.087	14725.55791
821.273	14950.14675
821.459	14879.33125
821.646	14891.4711
821.832	14755.90825
822.018	14687.11387
822.204	14126.58647
822.39	14687.11387
822.576	14794.35175
822.762	14691.16063
822.948	14470.60604
823.134	15085.70659
823.32	14598.08421
823.507	14761.97829
823.693	14555.59204
823.879	14515.1228
824.065	14458.46499
824.25	14367.40541
824.436	14420.01799
824.622	14656.76307
824.808	14500.95845
824.994	14547.49823
825.18	14446.32389
825.366	14719.48782
825.552	14171.1097
825.738	14547.49823
825.923	14306.69722
826.109	14112.41977
826.295	13944.4345
826.481	14417.99445
826.667	14446.32389
826.852	14484.77054
827.038	14138.72927
827.224	14401.80606
827.409	14118.49122
827.595	14328.95707
827.781	13885.73677
827.966	14158.9671
828.152	13956.57858
828.338	13972.77054
828.523	13604.3584
828.709	13679.2636
828.894	13535.52246
829.08	13766.31002
829.266	13808.819
829.451	14128.61027
829.637	13665.0927
829.822	13778.45558
830.008	14037.5368
830.193	14051.70409
830.378	13703.55621
830.564	13922.17011
830.749	13466.68235
830.935	13511.22644
831.12	13187.22539
831.305	13341.13897
831.491	12962.38297
831.676	13339.11395
831.861	13092.02907
832.047	13322.91365
832.232	13098.10574
832.417	13318.86353
832.602	13108.23343
832.788	12863.10854
832.973	12832.71584
833.158	12893.50002
833.343	12788.13764
833.528	13087.97794
833.714	13081.9012
833.899	13140.64124
834.084	12978.58985
834.269	13241.90808
834.454	13326.96375
834.639	13320.88859
834.824	13225.70614
835.009	12980.61569
835.194	13416.06184
835.379	13136.59033
835.564	13100.13129
835.749	13385.68836
835.934	13367.46385
836.119	13142.66669
836.304	13075.82441
836.489	12919.83833
836.674	12656.4132
836.859	12690.86659
837.044	13015.05415
837.228	12923.8903
837.413	12747.60964
837.598	12844.87306
837.783	12374.6385
837.968	12563.17761
838.152	12551.01549
838.337	12743.55672
838.522	12794.21664
838.707	12632.09212
838.891	12396.9418
839.076	12571.28557
839.261	12323.94609
839.445	12532.77187
839.63	12295.55644
839.815	12413.16188
839.999	12309.75143
840.184	12145.47353
840.368	12200.23814
840.553	12453.71019
840.737	12405.05189
840.922	12492.22865
841.106	12046.07185
841.291	11995.34954
841.475	11845.18198
841.66	12293.52855
841.844	12384.77647
842.029	12354.36205
842.213	12196.18169
842.397	12368.55563
842.582	12001.43648
842.766	12115.04639
842.951	11883.74281
843.135	11814.73707
843.319	11794.4394
843.504	12076.50289
843.688	11857.35941
843.872	11690.90782
844.056	12044.04306
844.241	12060.27322
844.425	11577.19938
844.609	12230.6606
844.793	11883.74281
844.977	11725.42087
845.161	11331.4073
845.346	11664.51374
845.53	11372.04392
845.714	11615.78222
845.898	11418.77114
846.082	11520.33434
846.266	11420.80264
846.45	11662.48337
846.634	11467.52447
846.818	11485.80554
847.002	11028.53454
847.186	11191.17981
847.37	11012.2662
847.554	10945.15174
847.738	10684.71054
847.922	10979.72737
848.106	11008.199
848.29	11006.16538
848.473	11030.56804
848.657	11016.33335
848.841	11008.199
849.025	11150.52491
849.209	11077.33537
849.392	11089.5346
849.576	11081.40182
849.76	11052.93574
849.944	10961.42303
850.127	11485.80554
850.311	11101.73343
850.495	11103.76654
850.678	10462.77239
850.862	10908.53869
851.046	10802.74676
851.229	10709.13513
851.413	10532.0168
851.596	10625.67721
851.78	10650.10604
851.964	10922.77753
852.147	10485.1766
852.331	10578.8503
852.514	10584.95853
852.698	10749.83894
852.881	10635.85611
853.065	10511.65232
853.248	10430.18165
853.431	10328.31409
853.615	10199.91351
853.798	10456.66188
853.982	10173.41143
854.165	10250.87255
854.348	10051.06365
854.532	10314.05
854.715	9977.63053
854.898	10682.67508
855.081	10352.76531
855.265	10307.93662
855.448	10028.62772
855.631	9855.20021
855.814	9702.087
855.997	10046.98452
856.181	9716.38117
856.364	9879.69051
856.547	9695.96069
856.73	9806.2132
856.913	9552.97395
857.096	9806.2132
857.279	9796.00649
857.462	9771.50885
857.645	9389.46547
857.828	9712.2972
858.011	9565.23296
858.194	9716.38117
858.377	9546.84423
858.56	9728.63273
858.743	9834.79
858.926	9771.50885
859.109	9262.67464
859.292	9409.90968
859.475	9397.64335
859.658	9626.51953
859.841	9326.078
860.023	9555.01715
860.206	9336.30286
860.389	9622.43419
860.572	9326.078
860.755	9199.2552
860.937	9209.48524
861.12	9094.88448
861.303	8955.65355
861.486	9350.61696
861.668	8869.61725
861.851	9193.11697
862.034	9010.9461
862.216	9049.84801
862.399	8877.81254
862.581	8777.40036
862.764	8492.31726
862.947	8832.73488
863.129	8660.53927
863.312	8900.34811
863.494	8822.48874
863.677	8822.48874
863.859	8631.82737
864.042	8765.102
864.224	8625.67434
864.406	8578.49555
864.589	8644.13292
864.771	8883.95881
864.954	8334.23619
865.136	8578.49555
865.318	8157.54143
865.501	8383.52048
865.683	8451.26821
865.865	8438.952
866.048	8254.12524
866.23	8340.39734
866.412	8225.36017
866.594	8268.50632
866.777	8097.9252
866.959	8085.5887
867.141	8118.48443
867.323	8237.68853
867.505	8492.31726
867.687	8490.26499
867.869	8401.99921
868.052	8471.79369
868.234	8332.18243
868.416	8510.78685
868.598	8130.819
868.78	8414.3175
868.962	8282.88645
869.144	8313.69776
869.326	7949.83909
869.508	8293.15737
869.69	7698.67188
869.872	7931.32089
870.054	8007.44065
870.236	7859.28984
870.417	8011.55443
870.599	8219.19572
870.781	7855.17302
870.963	8079.42018
871.145	7669.82949
871.327	7846.93912
871.508	7560.60277
871.69	7811.94134
871.872	7805.76464
872.054	8065.02626
872.235	7746.04683
872.417	7956.01145
872.599	7826.35292
872.78	8167.81839
872.962	7851.05611
873.144	7972.47018
873.325	7735.74887
873.507	7846.93912
873.689	7706.9118
873.87	7995.0988
874.052	7912.80103
874.233	7873.69807
874.415	7702.79188
874.596	7900.45353
874.778	7525.55508
874.959	7830.47033
875.141	7519.36954
875.322	7869.58154
875.503	7591.52207
875.685	7513.18382
875.866	7511.12187
876.048	7816.05904
876.229	7649.22525
876.41	7723.39063
876.592	7620.37574
876.773	7558.54131
876.954	7405.93372
877.136	7743.98728
877.317	7640.98296
877.498	8136.98601
877.679	7943.66654
877.86	7846.93912
878.042	7838.70489
878.223	7912.80103
878.404	7846.93912
878.585	7700.73189
878.766	7556.47983
878.947	7838.70489
879.128	7500.81179
879.309	7898.39555
879.49	7791.35161
879.672	8036.23544
879.853	7620.37574
880.034	7799.58775
880.215	7552.35681
880.396	7877.81453
880.576	7820.17665
880.757	7824.29419
880.938	7826.35292
881.119	8161.65227
881.3	7486.37677
881.481	7941.60898
881.662	7708.97173
881.843	7542.04888
882.023	7443.06538
882.204	7502.87385
882.385	7364.66806
882.566	7577.09366
882.747	7259.40103
882.927	7768.70048
883.108	7447.19068
883.289	7908.68528
883.469	7731.62954
883.65	8054.74428
883.831	7818.11786
884.011	7725.45039
884.192	7253.20707
884.373	7708.97173
884.553	7673.95009
884.734	7593.58318
884.914	7426.56329
885.095	8003.32678
885.275	7581.21617
885.456	7599.7664
885.636	7441.00269
885.817	7980.69906
885.997	7797.52875
886.178	7832.529
886.358	7682.19102
886.538	7921.03229
886.719	7706.9118
886.899	7865.46492
887.08	7916.9167
887.26	7999.21283
887.44	7558.54131
887.621	7958.06886
887.801	7667.76916
887.981	8097.9252
888.161	7921.03229
888.342	7978.64187
888.522	7797.52875
888.702	7807.82356
888.882	7828.41163
889.062	7923.09005
889.242	7756.34426
889.423	7984.81337
889.603	7640.98296
889.783	7888.10529
889.963	7560.60277
890.143	7735.74887
890.323	7405.93372
890.503	7575.03237
890.683	7350.22302
890.863	7564.72562
891.043	7346.09567
891.223	7883.98905
891.403	7655.40675
891.583	8147.26397
891.763	7698.67188
891.943	7661.58805
892.122	7647.16471
892.302	7494.62548
892.482	7426.56329
892.662	7626.55813
892.842	7410.05981
893.022	7626.55813
893.201	7490.50117
893.381	7801.64674
893.561	7509.0599
893.741	7801.64674
893.92	7222.2343
894.1	7612.13226
894.28	7263.53023
894.459	7593.58318
894.639	7191.25656
894.819	7698.67188
894.998	7360.54101
895.178	7620.37574
895.357	7226.36429
895.537	7626.55813
895.716	7323.39367
895.896	7529.67866
896.075	7344.03196
896.255	7358.47746
896.434	7236.68888
896.614	7228.42926
896.793	7038.3598
896.973	7162.3395
897.152	6732.19631
897.331	7048.69452
897.511	6976.3397
897.69	7102.42602
897.87	6814.99228
898.049	7094.16062
898.228	6705.27974
898.407	6792.22703
898.587	6467.00204
898.766	6783.94807
898.945	6398.57013
899.124	6429.67869
899.304	6549.91591
899.483	6719.77376
899.662	6512.60926
899.841	6684.57204
900.02	6504.31787
900.199	6790.15733
900.378	6645.22109
900.557	6692.8554
900.737	6578.92701
900.916	6554.06063
901.095	6591.35895
901.274	6315.58834
901.453	6211.80851
901.632	6400.6442
901.811	6454.56176
901.989	6591.35895
902.168	6249.17599
902.347	6549.91591
902.526	6072.6516
902.705	6355.00935
902.884	5993.67986
903.063	6265.78133
903.242	6024.85698
903.42	6161.97338
903.599	5827.31233
903.778	6105.89269
903.957	5735.74581
904.135	5898.03698
904.314	5912.59455
904.493	6296.91229
904.672	5731.58261
904.85	5846.03621
905.029	5419.07378
905.207	5473.27995
905.386	5321.04543
905.565	5373.19462
905.743	5047.54498
905.922	5385.70825
906.1	5051.72355
906.279	5239.66345
906.457	4892.87274
906.636	5273.05523
906.814	5189.56458
906.993	5364.85174
907.171	5108.12529
907.35	5281.40224
907.528	4874.05267
907.707	4951.41219
907.885	4834.31534
908.063	4604.0962
908.242	4474.21692
908.42	4842.68178
908.598	4633.41195
908.777	4828.04027
908.955	4599.90788
909.133	4752.72347
909.311	4398.76424
909.49	4723.42567
909.668	4664.81681
909.846	4740.16782
910.024	4784.10905
910.202	5009.93361
910.38	4754.81601
910.559	4669.00374
910.737	4591.53097
910.915	4821.765
911.093	4786.20124
911.271	4784.10905
911.449	4710.86812
911.627	4924.2354
911.805	4717.147
911.983	4645.9745
912.161	4532.88263
912.339	4853.13931
912.517	4604.0962
912.695	4972.31477
912.872	4727.61135
913.05	5089.32659
913.228	4788.29341
913.406	4880.32623
913.584	4662.72331
913.762	4980.67516
913.939	4834.31534
914.117	4970.22462
914.295	4723.42567
914.473	4878.23507
914.65	4719.23991
914.828	4844.77333
915.006	4520.31286
915.184	4817.58137
915.361	4377.80014
915.539	4756.90851
915.716	4373.60706
915.894	4618.75462
916.072	4323.28332
916.249	4604.0962
916.427	4428.11032
916.604	4689.93705
916.782	4415.53395
916.959	4742.26048
917.137	4415.53395
917.314	4583.1537
917.492	4264.55659
917.669	4511.93257
917.847	4180.63219
918.024	4308.60322
918.201	4436.49413
918.379	4381.99314
918.556	4300.21411
918.733	4398.76424
918.911	4220.50052
919.088	4490.98031
919.265	3857.21195
919.442	4428.11032
919.62	3886.63375
919.797	4264.55659
919.974	3966.47308
920.151	4251.9701
920.328	3878.22792
920.506	4144.95406
920.683	4140.75623
920.86	4325.38039
921.037	4287.62981
921.214	4235.18692
921.391	3981.17714
921.568	4044.18316
921.745	3970.67434
921.922	4266.65426
922.099	3836.19398
922.276	3953.86882
922.453	3913.95049
922.63	3983.27764
922.807	3577.51389
922.984	3724.76592
923.161	3459.64647
923.338	3646.94428
923.514	3430.17072
923.691	3520.69212
923.868	3588.03496
924.045	3625.90693
924.222	3529.11101
924.399	3508.06324
924.575	3409.11448
924.752	3596.45148
924.929	3432.27625
925.105	3508.06324
925.282	3310.12659
925.459	3661.6693
925.635	3103.60604
925.812	3487.01365
925.989	3156.30484
926.165	3181.59667
926.342	2861.06731
926.518	3213.20815
926.695	2926.46674
926.871	3139.44232
927.048	3063.54832
927.224	3282.74022
927.401	2991.85208
927.577	3251.137
927.754	2977.0889
927.93	3196.34916
928.107	3063.54832
928.283	2966.54332
928.459	2918.02888
928.636	2920.13837
928.812	2782.99213
928.988	2939.12308
929.165	2662.67803
929.341	2835.74772
929.517	2806.20565
929.693	2761.8875
929.87	2576.11071
930.046	2745.00283
930.222	2548.65829
930.398	2909.5908
930.574	2497.97173
930.751	2825.1973
930.927	2586.6688
931.103	2707.00922
931.279	2662.67803
931.455	2626.78678
931.631	2394.46678
931.807	2563.44061
931.983	2326.85816
932.159	2364.88927
932.335	2309.95442
932.511	2419.81731
932.687	2185.27111
932.863	2280.37141
933.039	2117.6338
933.215	2250.78658
933.391	1925.24959
933.566	2405.02969
933.742	2123.97514
933.918	2164.13534
934.094	1988.67897
934.27	2009.82086
934.445	1768.76998
934.621	1967.53645
934.797	1684.17691
934.973	1753.9666
935.148	1603.80918
935.324	1832.21079
935.5	1718.01479
935.675	1787.80262
935.851	1506.51835
936.027	1578.42925
936.202	1364.81025
936.378	1413.45615
936.553	1320.39495
936.729	1341.54501
936.904	1049.69993
937.08	1123.71168
937.255	1003.18171
937.431	1015.86821
937.606	922.83945
937.782	1024.326
937.957	878.44434
938.133	804.46074
938.308	622.72459
938.483	719.92228
938.659	567.79819
938.834	635.40113
939.009	576.24783
939.185	580.47273
939.36	622.72459
939.535	563.57345
939.71	599.48543
939.886	574.1354
940.061	485.42577
940.236	546.67503
940.411	396.74233
940.586	462.19651
940.761	339.74668
940.937	626.95005
941.112	388.29776
941.287	569.91058
941.462	358.74385
941.637	453.74996
941.812	339.74668
941.987	390.40887
942.162	373.52039
942.337	297.53586
942.512	331.30395
942.687	392.52001
942.862	386.18665
943.037	270.10273
943.212	333.4146
943.386	297.53586
943.561	335.52528
943.736	272.21286
943.911	348.18969
944.086	398.85351
944.26	251.11241
944.435	350.30049
944.61	324.97208
944.785	312.30883
944.959	305.97745
945.134	449.52678
945.309	352.41131
945.483	373.52039
945.658	333.4146
945.833	339.74668
946.007	263.77245
946.182	303.86702
946.357	179.38548
946.531	329.19331
946.706	331.30395
946.88	255.33235
947.055	257.44235
947.229	320.75093
947.404	305.97745
947.578	274.323
947.752	297.53586
947.927	303.86702
948.101	341.85741
948.276	379.85345
948.45	310.19835
948.624	346.07892
948.799	299.64623
948.973	373.52039
949.147	227.90414
949.321	350.30049
949.496	310.19835
949.67	424.189
949.844	263.77245
950.018	369.29844
950.193	331.30395
950.367	263.77245
950.541	301.75662
950.715	259.55236
950.889	284.87402
951.063	312.30883
951.237	301.75662
951.411	373.52039
951.585	305.97745
951.759	432.63468
951.933	339.74668
952.107	419.96626
952.281	360.85473
952.455	400.96472
952.629	284.87402
952.803	322.8615
952.977	255.33235
953.151	384.07557
953.325	346.07892
953.499	375.63139
953.672	331.30395
953.846	398.85351
954.02	390.40887
954.194	365.07655
954.368	265.88252
954.541	348.18969
954.715	232.12365
954.889	358.74385
955.062	280.65356
955.236	479.09034
955.41	314.41933
955.583	384.07557
955.757	284.87402
955.93	356.63299
956.104	390.40887
956.278	333.4146
956.451	409.40968
956.625	261.6624
956.798	333.4146
956.972	394.63116
957.145	379.85345
957.319	331.30395
957.492	305.97745
957.665	422.07762
957.839	293.31517
958.012	301.75662
958.185	352.41131
958.359	409.40968
958.532	322.8615
958.705	289.09456
958.879	339.74668
959.052	356.63299
959.225	348.18969
959.398	339.74668
959.572	310.19835
959.745	386.18665
959.918	305.97745
960.091	367.18749
960.264	324.97208
960.438	274.323
960.611	320.75093
960.784	390.40887
960.957	362.96564
961.13	453.74996
961.303	314.41933
961.476	373.52039
961.649	329.19331
961.822	390.40887
961.995	310.19835
962.168	358.74385
962.341	284.87402
962.514	348.18969
962.686	356.63299
962.859	305.97745
963.032	234.23344
963.205	441.0806
963.378	246.89255
963.551	255.33235
963.723	282.76378
963.896	265.88252
964.069	327.08269
964.242	352.41131
964.414	230.01389
964.587	308.08789
964.76	333.4146
964.932	301.75662
965.105	329.19331
965.278	409.40968
965.45	196.26033
965.623	335.52528
965.795	166.73021
965.968	310.19835
966.14	280.65356
966.313	238.45306
966.485	312.30883
966.658	348.18969
966.83	316.52984
967.003	234.23344
967.175	246.89255
967.348	208.91732
967.52	227.90414
967.692	331.30395
967.865	255.33235
968.037	322.8615
968.209	282.76378
968.382	312.30883
968.554	213.13647
968.726	297.53586
968.898	149.85767
969.071	234.23344
969.243	240.56291
969.415	322.8615
969.587	213.13647
969.759	331.30395
969.932	261.6624
970.104	240.56291
970.276	158.29377
970.448	246.89255
970.62	156.18471
970.792	257.44235
970.964	137.20416
971.136	230.01389
971.308	223.68471
971.48	297.53586
971.652	246.89255
971.824	230.01389
971.996	230.01389
972.168	173.05775
972.339	221.57502
972.511	192.04149
972.683	238.45306
972.855	183.60407
973.027	128.76891
973.199	158.29377
973.37	213.13647
973.542	137.20416
973.714	221.57502
973.886	213.13647
974.057	200.47924
974.229	164.62107
974.401	181.49477
974.572	230.01389
974.744	198.36978
974.915	238.45306
975.087	86.59788
975.259	166.73021
975.43	162.51195
975.602	249.00247
975.773	111.89944
975.945	170.94855
976.116	143.53082
976.288	263.77245
976.459	88.70622
976.63	189.93211
976.802	111.89944
976.973	156.18471
977.145	151.96666
977.316	225.79441
977.487	141.42191
977.659	170.94855
977.83	111.89944
978.001	185.7134
978.172	158.29377
978.344	147.7487
978.515	181.49477
978.686	103.46523
978.857	76.05651
979.028	181.49477
979.2	173.05775
979.371	160.40285
979.542	135.09531
979.713	160.40285
979.884	59.19149
980.055	132.98649
980.226	154.07568
980.397	179.38548
980.568	103.46523
980.739	145.63975
980.91	107.68229
981.081	162.51195
981.252	101.35674
981.423	105.57375
981.594	90.81458
981.765	114.00805
981.936	164.62107
982.106	69.73195
982.277	90.81458
982.448	137.20416
982.619	95.03138
982.79	147.7487
982.96	168.83937
983.131	120.334
983.302	97.13981
983.472	156.18471
983.643	21.25059
983.814	99.24826
983.984	-29.32529
984.155	97.13981
984.326	103.46523
984.496	162.51195
984.667	137.20416
984.837	82.38126
985.008	88.70622
985.178	124.55141
985.349	137.20416
985.519	38.11228
985.69	27.57355
985.86	8.60532
986.031	105.57375
986.201	67.62381
986.371	145.63975
986.542	40.22009
986.712	114.00805
986.882	103.46523
987.053	90.81458
987.223	19.14299
987.393	76.05651
987.563	46.54368
987.734	118.22533
987.904	116.11668
988.074	145.63975
988.244	76.05651
988.414	116.11668
988.585	95.03138
988.755	65.5157
988.925	33.89672
989.095	95.03138
989.265	61.29953
989.435	92.92297
989.605	114.00805
989.775	120.334
989.945	103.46523
990.115	78.16474
990.285	38.11228
990.455	97.13981
990.625	52.86748
990.795	78.16474
990.965	69.73195
991.134	52.86748
991.304	31.78897
991.474	21.25059
991.644	65.5157
991.814	95.03138
991.984	40.22009
992.153	36.00449
992.323	78.16474
992.493	46.54368
992.662	8.60532
992.832	103.46523
993.002	40.22009
993.171	73.9483
993.341	88.70622
993.511	31.78897
993.68	82.38126
993.85	65.5157
994.019	59.19149
994.189	2.283
994.358	36.00449
994.528	23.35822
994.697	23.35822
994.867	59.19149
995.036	27.57355
995.206	95.03138
995.375	12.82031
995.544	86.59788
995.714	27.57355
995.883	19.14299
996.052	57.08346
996.222	46.54368
996.391	4.39042
996.56	65.5157
996.73	78.16474
996.899	116.11668
997.068	78.16474
997.237	17.0354
997.406	50.75953
997.576	12.82031
997.745	-37.75323
997.914	2.283
998.083	31.78897
998.252	52.86748
998.421	6.49786
998.59	69.73195
998.759	-60.92802
998.928	69.73195
999.097	50.75953
999.266	17.0354
999.435	71.84011
999.604	73.9483
999.773	69.73195
999.942	44.4358
1000.111	27.57355
1000.28	40.22009
1000.448	46.54368
1000.617	-20.89695
1000.786	46.54368
1000.955	48.65159
1001.124	109.79086
1001.292	19.14299
1001.461	65.5157
1001.63	71.84011
1001.798	19.14299
1001.967	-27.21824
1002.136	61.29953
1002.304	61.29953
1002.473	31.78897
1002.642	44.4358
1002.81	-18.7898
1002.979	95.03138
1003.147	6.49786
1003.316	14.92785
1003.484	2.283
1003.653	84.48956
1003.821	4.39042
1003.99	21.25059
1004.158	46.54368
1004.327	48.65159
1004.495	-4.03909
1004.663	65.5157
1004.832	44.4358
1005	69.73195
1005.168	48.65159
1005.337	54.97546
1005.505	19.14299
1005.673	52.86748
1005.842	73.9483
1006.01	99.24826
1006.178	19.14299
1006.346	-1.93175
1006.514	29.68125
1006.683	23.35822
1006.851	-6.14641
1007.019	38.11228
1007.187	33.89672
1007.355	40.22009
1007.523	88.70622
1007.691	44.4358
1007.859	-96.73754
1008.027	40.22009
1008.195	14.92785
1008.363	10.7128
1008.531	73.9483
1008.699	52.86748
1008.867	40.22009
1009.035	-23.00407
1009.203	-1.93175
1009.37	57.08346
1009.538	-14.57544
1009.706	10.7128
1009.874	88.70622
1010.042	27.57355
1010.209	19.14299
1010.377	57.08346
1010.545	29.68125
1010.713	-29.32529
1010.88	6.49786
1011.048	63.4076
1011.216	31.78897
1011.383	4.39042
1011.551	14.92785
1011.718	-10.36097
1011.886	10.7128
1012.054	46.54368
1012.221	82.38126
1012.389	31.78897
1012.556	17.0354
1012.724	38.11228
1012.891	46.54368
1013.058	78.16474
1013.226	29.68125
1013.393	63.4076
1013.561	-25.11117
1013.728	76.05651
1013.895	14.92785
1014.063	-52.50118
1014.23	10.7128
1014.397	-27.21824
1014.565	61.29953
1014.732	-4.03909
1014.899	2.283
1015.066	61.29953
1015.233	19.14299
1015.401	36.00449
1015.568	36.00449
1015.735	36.00449
1015.902	61.29953
1016.069	-39.86016
1016.236	-46.18078
1016.403	73.9483
1016.57	-8.2537
1016.737	69.73195
1016.904	10.7128
1017.071	61.29953
1017.238	48.65159
1017.405	29.68125
1017.572	2.283
1017.739	78.16474
1017.906	73.9483
1018.073	4.39042
1018.24	-23.00407
1018.407	6.49786
1018.573	-27.21824
1018.74	-10.36097
1018.907	33.89672
1019.074	27.57355
1019.241	54.97546
1019.407	-14.57544
1019.574	44.4358
1019.741	67.62381
1019.907	-54.60793
1020.074	-35.64629
1020.241	-6.14641
1020.407	65.5157
1020.574	63.4076
1020.74	21.25059
1020.907	-1.93175
1021.073	71.84011
1021.24	6.49786
1021.406	-14.57544
1021.573	48.65159
1021.739	71.84011
1021.906	21.25059
1022.072	61.29953
1022.239	36.00449
1022.405	82.38126
1022.571	-44.07393
1022.738	-16.68263
1022.904	-31.43231
1023.07	65.5157
1023.237	48.65159
1023.403	86.59788
1023.569	31.78897
1023.735	46.54368
1023.902	4.39042
1024.068	54.97546
1024.234	40.22009
1024.4	19.14299
1024.566	33.89672
1024.732	80.27299
1024.898	52.86748
1025.065	57.08346
1025.231	69.73195
1025.397	73.9483
1025.563	-31.43231
1025.729	19.14299
1025.895	-41.96706
1026.061	59.19149
1026.227	2.283
1026.392	65.5157
1026.558	-31.43231
1026.724	-6.14641
1026.89	10.7128
1027.056	40.22009
1027.222	-10.36097
1027.388	57.08346
1027.553	25.46587
1027.719	65.5157
1027.885	-14.57544
1028.051	31.78897
1028.216	63.4076
1028.382	21.25059
1028.548	-27.21824
1028.713	-27.21824
1028.879	31.78897
1029.045	-10.36097
1029.21	-73.56752
1029.376	10.7128
1029.541	31.78897
1029.707	38.11228
1029.873	-23.00407
1030.038	-23.00407
1030.204	-41.96706
1030.369	-79.88693
1030.534	-12.46822
1030.7	40.22009
1030.865	42.32793
1031.031	31.78897
1031.196	-4.03909
1031.361	40.22009
1031.527	10.7128
1031.692	6.49786
1031.857	-1.93175
1032.023	10.7128
1032.188	61.29953
1032.353	67.62381
1032.518	31.78897
1032.684	-48.28761
1032.849	54.97546
1033.014	31.78897
1033.179	73.9483
1033.344	-4.03909
1033.509	-6.14641
1033.674	-10.36097
1033.839	52.86748
1034.004	69.73195
1034.17	10.7128
1034.335	12.82031
1034.5	-12.46822
1034.664	40.22009
1034.829	-6.14641
1034.994	111.89944
1035.159	52.86748
1035.324	48.65159
1035.489	25.46587
1035.654	-4.03909
1035.819	-14.57544
1035.984	59.19149
1036.148	-39.86016
1036.313	-18.7898
1036.478	52.86748
1036.643	29.68125
1036.807	-20.89695
1036.972	61.29953
1037.137	0.17561
1037.301	69.73195
1037.466	71.84011
1037.631	-6.14641
1037.795	-12.46822
1037.96	23.35822
1038.124	12.82031
1038.289	25.46587
1038.454	19.14299
1038.618	2.283
1038.783	46.54368
1038.947	86.59788
1039.111	-50.3944
1039.276	-48.28761
1039.44	-6.14641
1039.605	23.35822
1039.769	-14.57544
1039.933	44.4358
1040.098	21.25059
1040.262	21.25059
1040.426	10.7128
1040.591	-10.36097
1040.755	-48.28761
1040.919	-37.75323
1041.083	105.57375
1041.248	10.7128
1041.412	-6.14641
1041.576	-10.36097
1041.74	-27.21824
1041.904	36.00449
1042.068	-18.7898
1042.232	-77.78048
1042.397	36.00449
1042.561	2.283
1042.725	2.283
1042.889	2.283
1043.053	48.65159
1043.217	19.14299
1043.381	10.7128
1043.544	-18.7898
1043.708	21.25059
1043.872	78.16474
1044.036	-6.14641
1044.2	-8.2537
1044.364	78.16474
1044.528	19.14299
1044.691	48.65159
1044.855	-63.03467
1045.019	-29.32529
1045.183	23.35822
1045.346	-48.28761
1045.51	-1.93175
1045.674	-37.75323
1045.837	10.7128
1046.001	23.35822
1046.165	-27.21824
1046.328	69.73195
1046.492	-14.57544
1046.655	44.4358
1046.819	31.78897
1046.983	23.35822
1047.146	40.22009
1047.31	-6.14641
1047.473	65.5157
1047.636	-1.93175
1047.8	36.00449
1047.963	27.57355
1048.127	-31.43231
1048.29	-39.86016
