Data from absorb_only_2.23.25_USB4F045381__3__0108.txt Node

Date: Sun Feb 23 19:12:09 EST 2025
User: ssocol
Spectrometer: USB4F04538
Trigger mode: 4
Integration Time (sec): 2.600000E-3
Scans to average: 1
Electric dark correction enabled: true
Nonlinearity correction enabled: true
Boxcar width: 0
XAxis mode: Wavelengths
Number of Pixels in Spectrum: 3648
>>>>>Begin Spectral Data<<<<<
345.52	-46.53192
345.736	-46.53192
345.952	-46.53192
346.168	-12.81942
346.384	16.68414
346.6	-8.60492
346.816	-86.55716
347.032	-67.59898
347.248	-0.17561
347.464	16.68414
347.68	73.59693
347.896	-12.81942
348.112	12.46906
348.328	-40.21131
348.544	-21.24814
348.76	54.62413
348.975	79.92161
349.191	14.57659
349.407	-21.24814
349.623	48.30027
349.839	10.36155
350.055	48.30027
350.27	-6.49763
350.486	6.14661
350.702	48.30027
350.918	-52.8523
351.133	98.89685
351.349	-21.24814
351.565	29.32996
351.781	-52.8523
351.996	16.68414
352.212	-38.10439
352.428	-38.10439
352.644	-40.21131
352.859	46.19237
353.075	6.14661
353.291	-44.42508
353.506	-19.141
353.722	25.11459
353.938	41.97663
354.153	52.51615
354.369	-12.81942
354.584	6.14661
354.8	25.11459
355.016	-12.81942
355.231	-8.60492
355.447	-73.91861
355.662	-14.92664
355.878	18.79172
356.093	39.86879
356.309	-2.28298
356.524	-52.8523
356.74	-42.31821
356.955	-2.28298
357.171	48.30027
357.386	46.19237
357.602	-35.99745
357.817	-25.46235
358.033	20.89932
358.248	25.11459
358.464	-44.42508
358.679	-2.28298
358.895	82.02988
359.11	-12.81942
359.325	126.30869
359.541	65.16435
359.756	23.00695
359.972	16.68414
360.187	37.76098
360.402	-38.10439
360.618	-65.49239
360.833	-42.31821
361.048	39.86879
361.264	-38.10439
361.479	-29.67646
361.694	12.46906
361.909	-25.46235
362.125	-35.99745
362.34	37.76098
362.555	-82.34441
362.77	-14.92664
362.986	33.54542
363.201	-29.67646
363.416	-14.92664
363.631	4.03918
363.847	6.14661
364.062	18.79172
364.277	60.94819
364.492	4.03918
364.707	56.73213
364.922	20.89932
365.138	90.46319
365.353	-19.141
365.568	-27.56942
365.783	20.89932
365.998	48.30027
366.213	4.03918
366.428	63.05626
366.643	29.32996
366.858	46.19237
367.073	20.89932
367.288	-4.39031
367.503	67.27246
367.718	48.30027
367.933	107.33087
368.148	1.93177
368.363	60.94819
368.578	-38.10439
368.793	-12.81942
369.008	4.03918
369.223	63.05626
369.438	44.08449
369.653	6.14661
369.868	71.48875
370.083	-12.81942
370.298	54.62413
370.513	50.4082
370.728	-4.39031
370.943	-17.03383
371.157	-38.10439
371.372	-29.67646
371.587	71.48875
371.802	41.97663
372.017	-21.24814
372.232	-82.34441
372.446	-17.03383
372.661	31.43768
372.876	46.19237
373.091	20.89932
373.306	-31.78348
373.52	25.11459
373.735	-21.24814
373.95	4.03918
374.165	52.51615
374.379	-54.95905
374.594	63.05626
374.809	20.89932
375.023	31.43768
375.238	6.14661
375.453	-33.89048
375.667	10.36155
375.882	-21.24814
376.097	4.03918
376.311	-14.92664
376.526	-27.56942
376.741	18.79172
376.955	20.89932
377.17	29.32996
377.384	18.79172
377.599	67.27246
377.813	14.57659
378.028	-12.81942
378.242	-12.81942
378.457	-27.56942
378.672	-25.46235
378.886	4.03918
379.101	31.43768
379.315	31.43768
379.53	37.76098
379.744	65.16435
379.958	71.48875
380.173	10.36155
380.387	-2.28298
380.602	14.57659
380.816	-38.10439
381.031	-33.89048
381.245	25.11459
381.459	-0.17561
381.674	-46.53192
381.888	4.03918
382.103	-12.81942
382.317	16.68414
382.531	31.43768
382.746	-19.141
382.96	-54.95905
383.174	12.46906
383.388	-0.17561
383.603	-0.17561
383.817	65.16435
384.031	-69.70555
384.246	71.48875
384.46	-8.60492
384.674	-35.99745
384.888	37.76098
385.103	-4.39031
385.317	46.19237
385.531	-27.56942
385.745	37.76098
385.959	-46.53192
386.174	-12.81942
386.388	-40.21131
386.602	-2.28298
386.816	-21.24814
387.03	10.36155
387.244	-17.03383
387.458	-19.141
387.672	82.02988
387.887	-0.17561
388.101	-59.17246
388.315	20.89932
388.529	101.00532
388.743	-38.10439
388.957	52.51615
389.171	18.79172
389.385	35.65319
389.599	33.54542
389.813	-27.56942
390.027	48.30027
390.241	37.76098
390.455	16.68414
390.669	35.65319
390.883	20.89932
391.097	-10.71218
391.311	-23.35526
391.525	-35.99745
391.738	6.14661
391.952	-12.81942
392.166	27.22227
392.38	56.73213
392.594	12.46906
392.808	8.25407
393.022	-76.0251
393.236	54.62413
393.449	-19.141
393.663	23.00695
393.877	29.32996
394.091	63.05626
394.305	29.32996
394.518	12.46906
394.732	-23.35526
394.946	-12.81942
395.16	41.97663
395.373	46.19237
395.587	58.84015
395.801	23.00695
396.015	-38.10439
396.228	37.76098
396.442	60.94819
396.656	56.73213
396.869	29.32996
397.083	63.05626
397.297	52.51615
397.51	-4.39031
397.724	-12.81942
397.938	-29.67646
398.151	-38.10439
398.365	-0.17561
398.578	12.46906
398.792	4.03918
399.005	12.46906
399.219	-25.46235
399.433	23.00695
399.646	37.76098
399.86	14.57659
400.073	18.79172
400.287	-10.71218
400.5	46.19237
400.714	12.46906
400.927	-25.46235
401.141	-35.99745
401.354	37.76098
401.567	33.54542
401.781	29.32996
401.994	77.81336
402.208	4.03918
402.421	-59.17246
402.635	73.59693
402.848	-10.71218
403.061	56.73213
403.275	14.57659
403.488	46.19237
403.701	29.32996
403.915	-44.42508
404.128	73.59693
404.341	33.54542
404.555	79.92161
404.768	23.00695
404.981	14.57659
405.195	-33.89048
405.408	-44.42508
405.621	33.54542
405.834	39.86879
406.048	16.68414
406.261	46.19237
406.474	20.89932
406.687	10.36155
406.9	29.32996
407.114	79.92161
407.327	50.4082
407.54	-4.39031
407.753	33.54542
407.966	12.46906
408.179	48.30027
408.392	25.11459
408.605	29.32996
408.819	-38.10439
409.032	54.62413
409.245	-4.39031
409.458	12.46906
409.671	-31.78348
409.884	27.22227
410.097	20.89932
410.31	33.54542
410.523	44.08449
410.736	46.19237
410.949	35.65319
411.162	31.43768
411.375	-61.27913
411.588	6.14661
411.801	31.43768
412.014	6.14661
412.227	56.73213
412.44	-17.03383
412.653	71.48875
412.865	46.19237
413.078	8.25407
413.291	37.76098
413.504	-19.141
413.717	92.57157
413.93	33.54542
414.143	-8.60492
414.356	-4.39031
414.568	69.38059
414.781	65.16435
414.994	92.57157
415.207	-4.39031
415.42	79.92161
415.632	44.08449
415.845	122.09124
416.058	-21.24814
416.271	31.43768
416.483	-19.141
416.696	54.62413
416.909	-0.17561
417.121	54.62413
417.334	37.76098
417.547	37.76098
417.759	29.32996
417.972	-25.46235
418.185	54.62413
418.397	12.46906
418.61	50.4082
418.823	12.46906
419.035	41.97663
419.248	25.11459
419.46	29.32996
419.673	10.36155
419.885	-0.17561
420.098	122.09124
420.311	122.09124
420.523	86.24649
420.736	46.19237
420.948	37.76098
421.161	25.11459
421.373	4.03918
421.586	50.4082
421.798	16.68414
422.01	18.79172
422.223	10.36155
422.435	126.30869
422.648	54.62413
422.86	20.89932
423.073	39.86879
423.285	29.32996
423.497	48.30027
423.71	124.19996
423.922	37.76098
424.134	29.32996
424.347	14.57659
424.559	63.05626
424.771	79.92161
424.984	-35.99745
425.196	63.05626
425.408	35.65319
425.621	67.27246
425.833	77.81336
426.045	63.05626
426.257	37.76098
426.47	54.62413
426.682	113.65661
426.894	50.4082
427.106	4.03918
427.318	29.32996
427.531	29.32996
427.743	82.02988
427.955	44.08449
428.167	20.89932
428.379	20.89932
428.591	63.05626
428.804	79.92161
429.016	67.27246
429.228	73.59693
429.44	54.62413
429.652	90.46319
429.864	115.76524
430.076	71.48875
430.288	63.05626
430.5	27.22227
430.712	75.70514
430.924	71.48875
431.136	200.12766
431.348	79.92161
431.56	-4.39031
431.772	33.54542
431.984	56.73213
432.196	37.76098
432.408	147.39721
432.62	63.05626
432.832	29.32996
433.044	27.22227
433.256	37.76098
433.468	58.84015
433.679	71.48875
433.891	115.76524
434.103	155.83321
434.315	54.62413
434.527	69.38059
434.739	157.94226
434.95	48.30027
435.162	41.97663
435.374	166.37868
435.586	174.81543
435.798	-8.60492
436.009	181.14322
436.221	134.74384
436.433	109.43943
436.645	105.22233
436.856	71.48875
437.068	79.92161
437.28	92.57157
437.491	82.02988
437.703	176.92467
437.915	174.81543
438.126	157.94226
438.338	166.37868
438.55	117.87389
438.761	138.96154
438.973	136.85268
439.184	138.96154
439.396	149.50617
439.608	115.76524
439.819	119.98255
440.031	115.76524
440.242	198.0182
440.454	168.48784
440.665	130.52622
440.877	164.26954
441.088	105.22233
441.3	162.16043
441.511	111.54801
441.723	138.96154
441.934	172.70621
442.146	172.70621
442.357	219.11374
442.569	176.92467
442.78	126.30869
442.991	206.45618
443.203	198.0182
443.414	183.25252
443.626	122.09124
443.837	126.30869
444.048	126.30869
444.26	174.81543
444.471	214.89448
444.682	141.07043
444.894	191.68993
445.105	185.36184
445.316	219.11374
445.528	107.33087
445.739	117.87389
445.95	189.58055
446.161	168.48784
446.373	257.09068
446.584	191.68993
446.795	164.26954
447.006	185.36184
447.217	168.48784
447.429	187.47118
447.64	240.21127
447.851	231.77202
448.062	189.58055
448.273	316.17809
448.484	138.96154
448.695	164.26954
448.907	259.20069
449.118	181.14322
449.329	134.74384
449.54	162.16043
449.751	286.63257
449.962	254.98069
450.173	269.75104
450.384	208.56572
450.595	233.8818
450.806	282.41208
451.017	210.67529
451.228	235.99161
451.439	261.31072
451.65	181.14322
451.861	311.95708
452.072	223.33309
452.283	276.08147
452.494	273.97131
452.705	257.09068
452.915	267.64093
453.126	341.50562
453.337	265.53084
453.548	257.09068
453.759	305.62571
453.97	307.73615
454.181	343.61636
454.391	265.53084
454.602	341.50562
454.813	362.61382
455.024	419.61437
455.235	267.64093
455.445	411.16909
455.656	328.84154
455.867	368.94661
456.078	400.61285
456.288	354.17033
456.499	337.28419
456.71	413.28038
456.921	341.50562
457.131	411.16909
457.342	358.39204
457.553	447.06329
457.763	400.61285
457.974	451.28643
458.184	430.17133
458.395	447.06329
458.606	487.18564
458.816	453.39803
459.027	544.21075
459.237	575.89576
459.448	506.19285
459.659	404.83529
459.869	628.71068
460.08	561.10904
460.29	679.42027
460.501	696.32496
460.711	603.35852
460.922	571.67092
461.132	575.89576
461.343	683.64637
461.553	673.0812
461.764	675.19421
461.974	673.0812
462.184	654.06461
462.395	738.58978
462.605	692.09872
462.816	563.22139
463.026	768.17767
463.236	763.95071
463.447	837.92817
463.657	730.13647
463.867	924.60123
464.078	825.2455
464.288	880.20598
464.498	850.61115
464.709	890.77596
464.919	968.99979
465.129	1000.71491
465.339	1076.83684
465.55	1068.37849
465.76	1013.40137
465.97	1017.63024
466.18	1009.17253
466.391	1078.95145
466.601	1100.09774
466.811	1277.74289
467.021	1127.58865
467.231	1193.14681
467.441	1131.81809
467.651	1451.17456
467.862	1275.62793
468.072	1474.44013
468.282	1476.55518
468.492	1334.84747
468.702	1605.57166
468.912	1444.8294
469.122	1626.72138
469.332	1660.56045
469.542	1540.00643
469.752	1702.85834
469.962	1614.03157
470.172	1918.55396
470.382	1694.39885
470.592	1990.44082
470.802	1950.2696
471.012	2049.63629
471.222	2172.23748
471.432	2222.96114
471.642	2039.06605
471.852	2201.82687
472.062	2157.44217
472.272	2206.0538
472.482	2370.87536
472.691	2645.4366
472.901	2288.4717
473.111	2499.73179
473.321	2444.81427
473.531	2666.54844
473.741	2691.88096
473.95	2942.99019
474.16	2746.76169
474.37	3084.28066
474.58	2959.86426
474.79	3151.73801
474.999	3042.1116
475.209	2953.5366
475.419	3071.6306
475.628	3410.86923
475.838	3084.28066
476.048	3219.17879
476.258	3318.20151
476.467	3640.28266
476.677	3539.28344
476.886	3690.766
477.096	3840.04743
477.306	3739.13551
477.515	3732.82702
477.725	3720.20952
477.935	3789.59712
478.144	4035.43343
478.354	3974.52543
478.563	4400.51115
478.773	4157.19724
478.982	4419.37682
479.192	4132.01049
479.401	4459.19851
479.611	4362.77453
479.82	4513.6785
480.03	4505.29793
480.239	4710.51929
480.449	4551.38666
480.658	4815.14087
480.868	4921.79626
481.077	5007.49558
481.287	5091.06729
481.496	5109.86581
481.705	5422.89653
481.915	5450.00104
482.124	5182.95331
482.333	5345.73121
482.543	5304.00685
482.752	5429.15177
482.961	5374.93268
483.171	5704.17252
483.38	5812.4012
483.589	6055.68247
483.799	6034.90181
484.008	6236.37503
484.217	6061.91621
484.426	6136.70457
484.636	6005.80493
484.845	6145.01251
485.054	6199.00494
485.263	6452.14272
485.472	6352.589
485.682	6624.16147
485.891	6719.42868
486.1	6694.58105
486.309	6847.7556
486.518	6804.29985
486.727	6729.78088
486.936	6980.1304
487.146	7004.94037
487.355	6942.90935
487.564	6967.7242
487.773	7294.15234
487.982	7116.54525
488.191	7296.21658
488.4	7240.47442
488.609	7564.38205
488.818	7455.09728
489.027	7434.47071
489.236	7525.21144
489.445	7708.62841
489.654	7481.90858
489.863	7930.97795
490.072	7865.12187
490.281	8058.5144
490.49	8066.73987
490.698	8389.33803
490.907	7953.61111
491.116	8072.90877
491.325	8231.18198
491.534	8276.38127
491.743	8448.87344
491.952	8633.53651
492.16	8475.55649
492.369	8672.50149
492.578	8518.65306
492.787	8695.0571
492.996	8832.39335
493.204	8885.66609
493.413	9051.55409
493.622	8940.97497
493.831	8969.64855
494.039	9047.45947
494.248	9082.26147
494.457	9319.60205
494.665	9311.42166
494.874	9278.69744
495.083	9389.12472
495.291	9571.02174
495.5	9466.80418
495.709	9335.96204
495.917	9370.72351
496.126	9652.73227
496.335	9779.33472
496.543	9709.91485
496.752	9546.50368
496.96	9681.32507
497.169	9771.16859
497.377	9842.61409
497.586	10026.24805
497.794	10162.8779
498.003	9942.60723
498.211	10258.68551
498.42	10285.18019
498.628	10244.41821
498.837	10138.41151
499.045	10452.24866
499.254	10236.26516
499.462	10309.63479
499.671	10429.84215
499.879	10429.84215
500.087	10509.27638
500.296	10531.6774
500.504	10649.76677
500.713	10834.96236
500.921	10924.4726
501.129	10855.30756
501.338	10584.61919
501.546	11111.55999
501.754	10963.11791
501.962	11253.84789
502.171	11109.52693
502.379	11154.25179
502.587	10830.89319
502.795	11243.68617
503.004	11040.39644
503.212	11225.39442
503.42	11324.9728
503.628	11617.47438
503.837	11245.71854
504.045	11625.59663
504.253	11540.30564
504.461	11444.84132
504.669	11257.91251
504.877	11934.13799
505.085	11879.34568
505.294	11779.89221
505.502	11461.09206
505.71	11737.263
505.918	11556.5528
506.126	11777.86234
506.334	11635.74924
506.542	11909.78659
506.75	11844.84371
506.958	12139.05016
507.166	12074.1361
507.374	11923.99172
507.582	12047.76251
507.79	12299.27421
507.998	12232.35069
508.206	12061.96384
508.414	12274.93928
508.622	12506.0812
508.83	12354.0241
509.037	12775.64175
509.245	12502.02683
509.453	12583.1095
509.661	12483.78182
509.869	12872.90148
510.077	12579.05561
510.285	12658.10213
510.492	12599.32484
510.7	12702.68843
510.908	12591.21722
511.116	12684.44893
511.324	12854.66624
511.531	12866.82312
511.739	12720.92746
511.947	12913.42267
512.155	12856.6924
512.362	13091.69148
512.57	12741.1925
512.778	13261.82258
512.985	13109.92137
513.193	12996.48457
513.401	13330.67632
513.608	13573.65268
513.816	13286.12446
514.024	13375.22618
514.231	13545.30821
514.439	13585.80009
514.646	13450.14658
514.854	13229.41911
515.061	13357.00148
515.269	13612.11906
515.477	13385.35088
515.684	13727.51098
515.892	13715.36495
516.099	13792.28789
516.307	13695.12133
516.514	13893.4958
516.722	13699.17008
516.929	13857.06176
517.136	13897.54397
517.344	13812.53004
517.551	13804.43322
517.759	14035.17558
517.966	13992.67294
518.173	14057.43844
518.381	13956.24124
518.588	14000.76877
518.796	14197.08112
519.003	14401.4688
519.21	14209.22349
519.418	14217.31836
519.625	14134.34438
519.832	14711.05713
520.039	14387.30388
520.247	14836.50442
520.454	14897.20379
520.661	14832.45778
520.868	14431.82195
521.076	15004.43828
521.283	14941.71636
521.49	14982.18216
521.697	14848.64434
521.904	14785.92118
522.112	14868.87748
522.319	15137.97445
522.526	14735.33748
522.733	15192.60275
522.94	14917.43681
523.147	15437.42001
523.354	15063.11336
523.561	15342.32519
523.768	15237.11473
523.975	15496.09605
524.183	15301.85955
524.39	15144.04426
524.597	15350.41833
524.804	15368.62792
525.011	15409.09379
525.218	15562.86595
525.425	15471.81625
525.632	15447.53653
525.838	15469.79294
526.045	15425.28019
526.252	15510.2593
526.459	15751.04023
526.666	15459.67638
526.873	16003.97698
527.08	15779.36824
527.287	16072.77934
527.494	15921.01159
527.701	15997.90626
527.907	16159.7966
528.114	16178.00989
528.321	16119.32309
528.528	16206.34195
528.735	16309.55446
528.941	16327.76892
529.148	16088.96838
529.355	16598.98103
529.562	16256.93574
529.768	16248.84066
529.975	15925.05863
530.182	16540.2827
530.388	16404.67612
530.595	16459.32244
530.802	16293.36396
531.008	16811.52555
531.215	17018.02349
531.422	16878.33077
531.628	17026.12201
531.835	16669.82634
532.042	16756.86875
532.248	16864.15974
532.455	17036.24521
532.661	17026.12201
532.868	16953.2369
533.074	16947.1633
533.281	16987.65444
533.487	17305.54833
533.694	16924.89362
533.9	17558.70092
534.107	17070.66463
534.313	17337.94918
534.52	17447.30779
534.726	17439.20684
534.933	17232.64922
535.139	17514.14251
535.345	17119.2581
535.552	17483.76267
535.758	17524.26929
535.965	17813.92961
536.171	17860.52474
536.377	18020.58293
536.584	17828.11054
536.79	17570.85348
536.996	17777.46511
537.203	18087.44923
537.409	17996.26888
537.615	18079.34401
537.821	18478.59591
538.028	18271.85862
538.234	18061.10749
538.44	18196.87531
538.646	18059.08123
538.853	18028.68773
539.059	18296.17862
539.265	18604.27916
539.471	18385.35658
539.677	18375.22235
539.883	18020.58293
540.09	18221.19367
540.296	18448.1909
540.502	18953.02774
540.708	18723.89485
540.914	18790.80451
541.12	18683.34563
541.326	19086.88129
541.532	18640.77064
541.738	19107.16368
541.944	18815.13637
542.15	19224.80955
542.356	18967.2235
542.562	19032.12089
542.768	18906.38594
542.974	18892.19103
543.18	19141.64466
543.386	19255.23745
543.592	19109.19194
543.798	19385.07358
544.004	19220.75257
544.21	19758.44723
544.415	19232.92357
544.621	19742.21065
544.827	19701.62037
545.033	19539.27601
545.239	19632.62075
545.445	20172.57083
545.651	19638.70876
545.856	19851.81277
546.062	19861.96173
546.268	19590.00575
546.474	19563.62596
546.679	19389.13123
546.885	19449.99799
547.091	19502.75221
547.297	19352.61296
547.502	19608.2691
547.708	19397.24658
547.914	19805.12889
548.119	19969.5472
548.325	19713.79728
548.531	19610.29838
548.736	19953.30713
548.942	19922.85772
549.147	20326.89692
549.353	20052.7818
549.559	20091.35633
549.764	20117.75031
549.97	20050.75161
550.175	20359.38971
550.381	20408.13092
550.586	19983.75749
550.792	20410.16185
550.997	20247.70024
551.203	20641.71598
551.408	20676.25063
551.614	20404.06906
551.819	20629.52757
552.025	21041.98509
552.23	20871.29236
552.435	20997.27705
552.641	21200.51134
552.846	20680.31361
553.052	20662.03034
553.257	20737.19707
553.462	20853.00558
553.668	20934.28273
553.873	21119.21273
554.078	21291.98003
554.283	21271.65295
554.489	21533.90308
554.694	21485.10733
554.899	21267.58758
555.105	21625.40125
555.31	21558.30181
555.515	21212.70669
555.72	21615.23439
555.925	21350.93085
556.131	21578.63452
556.336	21188.31614
556.541	21751.47842
556.746	21552.20208
556.951	21418.01691
557.156	21318.40584
557.361	21540.00271
557.567	22103.3528
557.772	21834.86024
557.977	21877.57052
558.182	21859.26591
558.387	21861.29974
558.592	21830.79268
558.797	21745.37756
559.002	21798.25279
559.207	21918.24855
559.412	21684.37096
559.617	21733.17596
559.822	22378.01506
560.027	22247.79641
560.232	22190.83049
560.437	22198.9683
560.642	22260.00377
560.847	22469.58398
561.051	22182.69274
561.256	21830.79268
561.461	22292.55738
561.666	22304.76522
561.871	22329.18131
562.076	22196.93384
562.281	22137.93618
562.485	22205.0717
562.69	22150.14233
562.895	22087.07864
563.1	22573.37089
563.305	22544.87944
563.509	22487.89864
563.714	22394.29344
563.919	22327.14661
564.123	22787.07876
564.328	22884.78651
564.533	22485.86367
564.737	22414.64175
564.942	22251.86551
565.147	22958.07248
565.351	22689.37895
565.556	22844.07399
565.761	22616.10937
565.965	22778.9368
566.17	22685.3083
566.374	22664.95525
566.579	22929.57186
566.784	22943.82209
566.988	22982.50211
567.193	22858.32322
567.397	22811.50496
567.602	23269.58593
567.806	23137.23422
568.011	23177.95637
568.215	23797.08836
568.42	23265.51337
568.624	23638.20508
568.828	23249.22324
569.033	23080.22543
569.237	23776.7177
569.442	23528.21967
569.646	23226.82465
569.85	23344.93067
570.055	23813.3851
570.259	23173.88409
570.463	23397.87823
570.668	23173.88409
570.872	23389.73231
571.076	23485.44998
571.281	23660.61059
571.485	23568.95397
571.689	23966.17605
571.893	23986.5494
572.098	23984.51205
572.302	23322.53043
572.506	23381.58644
572.71	23876.53673
572.914	23815.42221
573.119	23876.53673
573.323	24035.44657
573.527	24013.03517
573.731	24243.27741
573.935	24198.44874
574.139	23976.36269
574.343	23367.3313
574.547	23933.57929
574.751	24176.0349
574.955	24094.53282
575.159	23937.65385
575.364	24041.55883
575.568	24432.79466
575.772	24049.70856
575.976	23882.64832
576.18	23666.72125
576.383	24451.13624
576.587	24192.33584
576.791	24006.92302
576.995	24208.63696
577.199	24457.25015
577.403	24253.46593
577.607	24430.75672
577.811	24679.40425
578.015	24284.03187
578.219	24646.79262
578.422	24518.39049
578.626	24754.82107
578.83	24750.7444
579.034	24728.32289
579.238	24308.48507
579.442	24740.55277
579.645	24583.60937
579.849	24738.51445
580.053	24740.55277
580.257	24504.1242
580.46	25072.83038
580.664	25178.84584
580.868	24944.39673
581.071	25156.41899
581.275	24595.8382
581.479	24858.77938
581.682	24738.51445
581.886	25207.38949
582.09	25370.50413
582.293	25770.19064
582.497	25545.86732
582.7	25358.27006
582.904	25596.84781
583.107	25425.55838
583.311	25315.45141
583.515	25254.28354
583.718	25478.575
583.922	25749.79664
584.125	25250.20575
584.329	25297.10085
584.532	25015.74764
584.735	25429.63653
584.939	24875.08713
585.142	25462.26205
585.346	25107.48862
585.549	26133.23473
585.753	25519.35796
585.956	26076.1229
586.159	25749.79664
586.363	26312.73782
586.566	25578.49469
586.769	25878.28199
586.973	25762.03302
587.176	25935.38895
587.379	25957.82423
587.582	25649.86883
587.786	25829.33431
587.989	26002.69543
588.192	25947.62635
588.395	26480.01362
588.599	26439.21364
588.802	26482.05364
589.005	25753.87543
589.208	26078.16258
589.411	25968.02215
589.615	25515.27963
589.818	26282.13978
590.021	26257.66161
590.224	26412.694
590.427	26649.34024
590.63	26771.75158
590.833	26524.89433
591.036	26641.17968
591.239	26514.6941
591.442	26261.74129
591.645	26582.01633
591.848	26688.10325
592.051	26761.55043
592.254	26200.54685
592.457	26783.99301
592.66	25992.49735
592.863	26934.97493
593.066	26600.37723
593.269	27108.40967
593.472	26947.21705
593.675	27130.85489
593.878	26883.96664
594.081	26630.97901
594.284	26575.89606
594.486	26963.53996
594.689	27088.00507
594.892	26755.42976
595.095	26684.0229
595.298	27251.24567
595.5	27061.47928
595.703	27630.81208
595.906	27232.88068
596.109	27088.00507
596.311	27051.27712
596.514	26859.48298
596.717	27224.71849
596.92	27447.14547
597.122	27328.78792
597.325	27808.36579
597.528	27265.52963
597.73	27663.46496
597.933	27306.34129
598.136	27696.11814
598.338	26981.90334
598.541	27263.48906
598.743	27802.2431
598.946	27716.52654
599.148	27573.67029
599.351	27492.04083
599.554	28077.77445
599.756	27900.20741
599.959	27814.48849
600.161	27812.44759
600.363	27734.8942
600.566	27630.81208
600.768	27992.05136
600.971	28071.65131
601.173	27504.28512
601.376	28222.69176
601.578	28081.85655
601.78	28090.02077
601.983	28322.70835
602.185	28198.19831
602.388	27955.3135
602.59	28041.03574
602.792	28220.65064
602.995	27883.87984
603.197	27900.20741
603.399	28375.77943
603.601	28134.92427
603.804	27712.44485
604.006	27630.81208
604.208	27908.37122
604.41	28024.70754
604.613	27998.17437
604.815	28112.47245
605.017	28500.29519
605.219	27896.12551
605.421	28085.93866
605.623	28124.71888
605.826	28606.4429
606.028	28224.73289
606.23	28471.71745
606.432	28400.27402
606.634	28363.53219
606.836	28263.51454
607.038	28632.98027
607.24	28312.50245
607.442	28592.15362
607.644	28437.01619
607.846	28351.28499
608.048	28824.87114
608.25	28506.41902
608.452	27975.72338
608.654	28257.3911
608.856	27892.04362
609.058	28071.65131
609.26	28365.57339
609.462	28502.33647
609.664	28355.36739
609.866	28541.12089
610.067	28355.36739
610.269	28351.28499
610.471	27618.56733
610.673	28185.95164
610.875	28122.67781
611.077	28524.79056
611.278	28141.04752
611.48	28543.16219
611.682	28681.9728
611.884	29096.39203
612.085	28610.52556
612.287	28971.85761
612.489	28894.28075
612.69	28879.99044
612.892	28957.56703
613.094	28804.45678
613.295	28659.51782
613.497	28534.99701
613.699	28624.8149
613.9	28512.54286
614.102	28373.73822
614.304	27936.94471
614.505	28177.78721
614.707	28047.15883
614.908	27969.6004
615.11	28651.3524
615.311	28375.77943
615.513	28502.33647
615.714	28308.4201
615.916	28608.48423
616.117	28792.20822
616.319	29178.05603
616.52	28806.49821
616.722	28890.1978
616.923	28904.48815
617.124	29051.47753
617.326	28481.92376
617.527	28447.22241
617.729	28190.03386
617.93	28826.91259
618.131	28628.89758
618.333	28120.63674
618.534	28586.02965
618.735	28994.31435
618.937	28202.28054
619.138	28837.11981
619.339	28065.52817
619.54	28586.02965
619.742	28443.13992
619.943	28210.44502
620.144	28257.3911
620.345	28712.59345
620.546	28918.77855
620.748	28890.1978
620.949	28610.52556
621.15	29423.05806
621.351	29086.18414
621.552	28843.24416
621.753	28612.56689
621.954	29180.09765
622.155	28812.62252
622.356	28618.69089
622.558	28804.45678
622.759	28706.4693
622.96	28418.64506
623.161	28432.93371
623.362	28586.02965
623.563	28875.9075
623.764	28965.73307
623.965	28982.06521
624.166	28908.57111
624.366	28663.60053
624.567	28835.07836
624.768	28873.86604
624.969	28455.38741
625.17	28390.06792
625.371	28761.58696
625.572	28679.93144
625.773	28841.20271
625.973	28820.78826
626.174	28910.6126
626.375	28720.75899
626.576	29147.43183
626.777	29335.26393
626.977	28743.21432
627.178	29137.22382
627.379	29075.97628
627.58	29312.80528
627.78	29282.18005
627.981	29151.51505
628.182	29249.5134
628.382	28837.11981
628.583	29151.51505
628.784	28824.87114
628.984	28712.59345
629.185	28839.16126
629.386	28788.12537
629.586	28955.52552
629.787	28767.7112
629.987	28788.12537
630.188	28755.46274
630.388	29131.09903
630.589	29022.89584
630.79	29339.34734
630.99	28857.53434
631.191	29308.72191
631.391	29120.89105
631.591	29412.84934
631.792	29327.09714
631.992	29453.68437
632.193	29173.97279
632.393	28967.77458
632.594	29075.97628
632.794	28939.19349
632.994	29114.76628
633.195	29286.2634
633.395	29061.68533
633.595	29245.43009
633.796	29286.2634
633.996	29766.0865
634.196	29629.27986
634.397	30337.8702
634.597	29547.60656
634.797	29343.43075
634.997	29161.7231
635.198	29167.84794
635.398	29200.51392
635.598	29508.81234
635.798	29960.07452
635.998	29222.97194
636.199	29786.50582
636.399	29700.74541
636.599	29614.98691
636.799	29447.55909
636.999	29137.22382
637.199	29600.69401
637.399	29398.55718
637.599	29621.11245
637.799	28920.82004
637.999	29365.88957
638.199	29129.05743
638.399	29911.06607
638.599	29206.63883
638.799	29410.8076
638.999	29482.26915
639.199	29551.69019
639.399	29359.76442
639.599	29465.93497
639.799	29155.59826
639.999	29212.76374
640.199	28830.99547
640.399	29862.05827
640.599	28879.99044
640.799	29764.04458
640.998	29557.81563
641.198	29484.31093
641.398	29398.55718
641.598	29806.92525
641.798	30007.04155
641.997	29935.57021
642.197	29762.00265
642.397	30194.91576
642.597	29955.99045
642.796	29617.02876
642.996	29329.13883
643.196	29645.61473
643.395	29806.92525
643.595	29337.30564
643.795	29239.30513
643.994	29592.52666
644.194	29749.75113
644.394	30011.12567
644.593	29882.47811
644.793	30233.7171
644.992	30313.3633
645.192	30364.41953
645.392	30164.28343
645.591	30092.809
645.791	29786.50582
645.99	30029.50426
646.19	29839.59657
646.389	29474.10205
646.589	29823.26088
646.788	29588.443
646.987	29304.63853
647.187	29860.01629
647.386	30000.91538
647.586	30658.51851
647.785	30374.63086
647.984	30354.20822
648.184	30419.5611
648.383	30327.65897
648.582	29966.20062
648.782	30507.38104
648.981	29882.47811
649.18	30004.99949
649.38	30186.74712
649.579	30721.83498
649.778	30337.8702
649.977	30433.85721
650.177	29888.60408
650.376	30335.82795
650.575	29749.75113
650.774	29845.72248
650.973	30417.51881
651.173	30384.84223
651.372	30513.50809
651.571	30742.25992
651.77	30546.18593
651.969	30458.36497
652.168	30525.76225
652.367	30468.57659
652.566	30235.75929
652.765	31026.18078
652.964	30403.22276
653.163	30540.05881
653.362	30327.65897
653.561	30258.22343
653.76	29862.05827
653.959	29884.5201
654.158	29962.11655
654.357	29629.27986
654.556	30007.04155
654.755	30419.5611
654.954	29543.52294
655.153	29860.01629
655.352	30137.73562
655.551	29923.31812
655.749	30019.29392
655.948	29788.54776
656.147	29927.40215
656.346	30335.82795
656.545	30423.6457
656.743	30248.01244
656.942	30325.61673
657.141	30644.22142
657.34	30658.51851
657.538	30362.37726
657.737	30572.73692
657.936	30828.04613
658.135	30386.8845
658.333	30215.33747
658.532	29776.29615
658.731	29682.36843
658.929	29941.69627
659.128	30217.37964
659.326	30152.03057
659.525	30299.0677
659.724	30538.01644
659.922	30335.82795
660.121	29847.76445
660.319	29857.97431
660.518	29829.38676
660.716	30013.16773
660.915	30750.42993
661.113	30703.45265
661.312	30131.60923
661.51	30309.27884
661.709	30495.12695
661.907	30795.36539
662.105	30570.69453
662.304	30897.49389
662.502	30868.89756
662.701	30464.49194
662.899	30533.93171
663.097	30284.77215
663.296	30448.15339
663.494	30225.54836
663.692	30260.26563
663.891	30476.74591
664.089	30542.10119
664.287	30589.07609
664.485	30223.50618
664.684	30642.17898
664.882	30194.91576
665.08	30356.25048
665.278	30572.73692
665.476	30346.0392
665.675	30094.85111
665.873	30056.05127
666.071	30080.55638
666.269	29994.78922
666.467	29355.681
666.665	29643.57287
666.863	29329.13883
667.061	29902.89806
667.259	29939.65425
667.457	30499.21164
667.655	30335.82795
667.853	30403.22276
668.051	30237.80148
668.249	30656.47607
668.447	30517.59281
668.645	30452.23802
668.843	30513.50809
669.041	30758.59996
669.239	29990.70512
669.437	29962.11655
669.635	30123.44072
669.833	30603.37294
670.031	30717.75001
670.229	30164.28343
670.426	30086.68269
670.624	29974.36877
670.822	29976.41081
671.02	30252.09683
671.218	30047.88294
671.415	30158.15699
671.613	30068.30381
671.811	29600.69401
672.009	29753.83496
672.206	29947.82234
672.404	29367.93129
672.602	29902.89806
672.799	29866.14223
672.997	30676.90058
673.195	30074.43009
673.392	30284.77215
673.59	29696.66163
673.788	29429.1833
673.985	29572.10837
674.183	29770.17036
674.38	30037.67255
674.578	29872.26817
674.775	29962.11655
674.973	29837.55461
675.17	29851.84839
675.368	29510.85413
675.565	30382.79995
675.763	30587.03369
675.96	30439.98414
676.158	29798.75747
676.355	29243.38843
676.553	29919.2341
676.75	29084.14257
676.947	29267.88836
677.145	29284.22173
677.342	29502.68697
677.539	29731.37391
677.737	30190.83144
677.934	29617.02876
678.131	29555.77381
678.329	29629.27986
678.526	29580.27568
678.723	29666.03341
678.92	29629.27986
679.118	29271.9717
679.315	29388.34852
679.512	29133.14062
679.709	29418.97457
679.906	29474.10205
680.104	29527.1885
680.301	29261.76336
680.498	29100.47519
680.695	29157.63987
680.892	29529.2303
681.089	29588.443
681.286	29245.43009
681.483	29186.22252
681.68	29259.7217
681.877	29186.22252
682.075	29459.80967
682.272	29106.59994
682.469	29308.72191
682.665	29470.01851
682.862	29253.59672
683.059	29108.64152
683.256	29176.01441
683.453	28935.11049
683.65	29204.59719
683.847	29325.05544
684.044	29208.68046
684.241	29280.13838
684.438	29602.73585
684.635	28733.00734
684.831	28788.12537
685.028	28767.7112
685.225	29031.06202
685.422	29045.35287
685.619	29235.22183
685.815	29206.63883
686.012	28710.55206
686.209	28898.36371
686.405	29061.68533
686.602	28632.98027
686.799	28581.94702
686.996	28812.62252
687.192	29296.4718
687.389	28984.10673
687.586	29290.34676
687.782	29220.9303
687.979	28679.93144
688.175	28549.28608
688.372	28549.28608
688.568	28728.92455
688.765	28561.5339
688.962	28308.4201
689.158	28398.2328
689.355	28341.07902
689.551	28324.74953
689.748	28296.17308
689.944	28159.41732
690.14	28426.81
690.337	28800.37392
690.533	28108.39032
690.73	28047.15883
690.926	28226.77402
691.123	27861.42955
691.319	27965.51843
691.515	28051.2409
691.712	28061.44609
691.908	27585.91488
692.104	27602.24106
692.301	27779.79332
692.497	27694.07731
692.693	27943.06763
692.889	28079.8155
693.086	28122.67781
693.282	28177.78721
693.478	29069.85158
693.674	28559.4926
693.87	28620.73223
694.067	28216.56839
694.263	28255.34995
694.459	27728.77163
694.655	27516.52946
694.851	27673.66904
695.047	27549.18124
695.243	28053.28194
695.439	28157.37623
695.635	28173.70501
695.831	28171.66391
696.027	27930.8218
696.224	27761.42543
696.42	27551.22199
696.615	27841.02032
696.811	27557.34424
697.007	27518.57019
697.203	27649.17928
697.399	27304.30069
697.595	27459.3896
697.791	27069.64104
697.987	26571.81588
698.183	27261.44849
698.379	26996.18604
698.575	27579.79258
698.77	26998.22644
698.966	27475.71517
699.162	26939.05563
699.358	27275.73249
699.554	26857.44269
699.749	26943.13634
699.945	26828.8787
700.141	26800.31499
700.337	27314.50368
700.532	27534.89605
700.728	27532.85531
700.924	27630.81208
701.119	27312.46308
701.315	27541.01827
701.511	27179.82685
701.706	27710.40401
701.902	27094.12643
702.097	26849.28152
702.293	26881.92633
702.489	27271.65134
702.684	27094.12643
702.88	27096.16689
703.075	27169.6243
703.271	27161.46228
703.466	26553.45518
703.662	26822.75788
703.857	26804.39551
704.053	26743.18845
704.248	26843.16066
704.443	27183.90788
704.639	27039.03457
704.834	27036.99415
705.03	26951.29777
705.225	26730.9472
705.42	26826.83842
705.616	26643.21982
705.811	26345.37614
706.006	26608.53767
706.202	26365.7753
706.397	26414.73396
706.592	26692.18359
706.787	26504.49391
706.983	26755.42976
707.178	26732.98741
707.373	26686.06308
707.568	26888.04727
707.763	26416.77393
707.959	26539.17471
708.154	26337.21652
708.349	26339.25642
708.544	26626.89875
708.739	26288.25935
708.934	25819.13701
709.129	26127.11554
709.324	26153.63214
709.519	26180.14904
709.714	26033.28993
709.909	26602.41734
710.104	25961.90339
710.299	25984.33892
710.494	26035.32957
710.689	25892.55859
710.884	25931.30984
711.079	26471.85357
711.274	25568.29858
711.469	26398.41431
711.664	26267.86082
711.859	26443.29361
712.054	26074.08321
712.249	26096.51982
712.443	25639.67237
712.638	26057.76581
712.833	25855.8475
713.028	26363.73538
713.223	25507.12299
713.417	25668.22257
713.612	25570.3378
713.807	25384.77731
714.002	25460.22294
714.196	25719.206
714.391	25350.11406
714.586	25713.08793
714.78	25619.27962
714.975	25833.41324
715.17	25864.00547
715.364	26210.74581
715.559	26157.71165
715.754	25329.72419
715.948	25305.25663
716.143	25301.17874
716.337	24954.58954
716.532	25231.85581
716.726	25470.41851
716.921	25570.3378
717.115	25686.57647
717.31	25702.89117
717.504	25407.20679
717.699	25554.02411
717.893	25464.30116
718.088	25486.73153
718.282	25301.17874
718.476	25543.82813
718.671	25131.95365
718.865	25619.27962
719.059	25240.01132
719.254	25388.85538
719.448	25309.33454
719.642	25309.33454
719.837	24940.31962
720.031	25046.32746
720.225	24186.22297
720.419	24799.66507
720.614	24742.59109
720.808	24873.04865
721.002	24408.33955
721.196	24603.9908
721.39	24251.42822
721.585	24281.99413
721.779	24479.66801
721.973	24377.77118
722.167	24184.18535
722.361	24522.46659
722.555	24868.9717
722.749	24400.18792
722.943	24567.30441
723.137	24165.8469
723.331	24108.79536
723.525	24954.58954
723.719	24133.24576
723.913	24493.93408
724.107	24145.4711
724.301	24634.56341
724.495	24043.59626
724.689	24328.86302
724.883	24233.08896
725.077	23984.51205
725.271	24550.99961
725.465	24465.40206
725.659	24284.03187
725.853	24656.98368
726.046	24504.1242
726.24	24461.3261
726.434	24367.58185
726.628	24795.58829
726.822	24339.05209
727.015	24461.3261
727.209	24163.80931
727.403	24339.05209
727.596	24312.56063
727.79	24642.71621
727.984	24379.80905
728.177	24952.55097
728.371	24489.85804
728.565	24337.01427
728.758	24121.02051
728.952	24587.68564
729.146	24991.28415
729.339	24080.27041
729.533	24139.35842
729.726	24072.12052
729.92	24121.02051
730.113	24302.37173
730.307	24147.50867
730.5	24396.11213
730.694	24532.6569
730.887	24057.85832
731.081	23939.69113
731.274	23907.09496
731.468	24127.13312
731.661	23955.98949
731.854	23966.17605
732.048	24159.73413
732.241	23754.31032
732.435	24002.84827
732.628	23972.28803
732.821	23953.95218
733.014	23709.49662
733.208	24000.81091
733.401	23573.02747
733.594	23632.09454
733.788	23548.58667
733.981	23332.71231
734.174	23520.07296
734.367	23744.12526
734.56	23884.68553
734.754	23754.31032
734.947	23833.75629
735.14	23837.83056
735.333	23795.05128
735.526	23758.38436
735.719	23915.24394
735.912	24194.37347
736.105	23972.28803
736.298	24025.25953
736.491	23880.61112
736.684	23884.68553
736.877	23788.94006
737.07	23913.20669
737.263	23939.69113
737.456	23707.45967
737.649	23886.72273
737.842	24004.88565
738.035	23982.4747
738.228	23709.49662
738.421	23903.0205
738.614	23693.20109
738.807	23619.87356
739	23381.58644
739.192	23147.41464
739.385	23002.8605
739.578	23501.74304
739.771	23483.41337
739.964	23550.62339
740.156	23760.42139
740.349	23548.58667
740.542	23760.42139
740.735	23566.91723
740.927	23680.97956
741.12	23770.60656
741.313	23687.09031
741.505	23856.16493
741.698	23387.69584
741.891	23165.73959
742.083	23212.57121
742.276	23208.49883
742.468	23764.49545
742.661	23098.5494
742.854	23049.68607
743.046	22774.86584
743.239	22945.85785
743.431	22980.46629
743.624	22974.35884
743.816	23051.722
744.009	23243.1145
744.201	22870.53697
744.393	23031.36281
744.586	23019.14745
744.778	23070.04556
744.971	22937.71483
745.163	22791.14976
745.355	22723.98005
745.548	22760.6176
745.74	23027.29101
745.932	23226.82465
746.125	23436.57201
746.317	23334.7487
746.509	22915.3218
746.702	23100.58542
746.894	22701.59099
747.086	22467.54904
747.278	22799.29179
747.471	22819.64713
747.663	22610.00378
747.855	22764.68851
748.047	22426.85091
748.239	22954.00092
748.431	22548.94961
748.623	23057.82982
748.815	22290.52275
749.008	22262.03834
749.2	22097.24996
749.392	22243.72732
749.584	21948.75807
749.776	22410.57206
749.968	22404.46755
750.16	22312.90386
750.352	22148.10797
750.544	22009.77969
750.736	22115.55857
750.928	22219.31309
751.12	21639.63502
751.311	22223.38209
751.503	22546.91452
751.695	22156.24546
751.887	21830.79268
752.079	21981.30251
752.271	21678.27049
752.463	22164.38302
752.654	22070.80473
752.846	22251.86551
753.038	22355.63266
753.23	22522.4938
753.421	21910.11282
753.613	22044.36013
753.805	22026.0527
753.997	22292.55738
754.188	21954.86008
754.38	22375.98028
754.572	22481.79372
754.763	22131.83315
754.955	22013.84792
755.146	21893.84155
755.338	21470.87567
755.53	21418.01691
755.721	21572.53467
755.913	21611.16768
756.104	21594.90098
756.296	21560.33507
756.487	21562.36832
756.679	21537.9695
756.87	21605.06764
757.062	21706.73964
757.253	21418.01691
757.445	21601.00096
757.636	21690.47146
757.827	21403.78617
758.019	21334.66821
758.21	21123.27751
758.401	21430.21485
758.593	21277.75103
758.784	21031.824
758.975	20450.78145
759.167	20741.2603
759.358	20993.21278
759.549	20818.46479
759.74	20529.99449
759.932	20826.59193
760.123	20735.16546
760.314	20956.6351
760.505	20686.40811
760.696	20550.30655
760.888	20747.35517
761.079	20824.56014
761.27	21302.14372
761.461	20779.8618
761.652	20725.00748
761.843	20207.08903
762.034	20434.53341
762.225	20302.52803
762.416	20069.02353
762.607	19736.122
762.798	20251.76145
762.989	20379.69825
763.18	20664.0618
763.371	20383.76001
763.562	20402.03813
763.753	20142.11461
763.944	20513.74514
764.135	20205.05852
764.326	20639.68457
764.517	20460.93661
764.708	20408.13092
764.899	20136.02348
765.089	20170.54039
765.28	20105.56838
765.471	20075.11424
765.662	19888.34953
765.853	19906.61842
766.043	19750.3289
766.234	19620.44485
766.425	19770.62484
766.615	19460.14282
766.806	19640.7381
766.997	19776.7137
767.187	19547.3926
767.378	19861.96173
767.569	19758.44723
767.759	19622.47416
767.95	19861.96173
768.141	19675.2376
768.331	19638.70876
768.522	19506.81035
768.712	19301.89536
768.903	19364.78557
769.093	18910.44166
769.284	18900.30238
769.474	19186.26887
769.665	19328.26819
769.855	19370.87193
770.046	19559.5676
770.236	19214.66712
770.426	19401.30428
770.617	19452.02695
770.807	18950.99979
770.998	18963.16755
771.188	18916.52528
771.378	18634.68864
771.569	19147.72966
771.759	18910.44166
771.949	18652.93475
772.139	19074.71206
772.33	18630.63399
772.52	18843.52426
772.71	19015.89615
772.9	18837.44107
773.09	18766.47323
773.281	18429.9483
773.471	18480.62295
773.661	18671.18117
773.851	18565.76175
774.041	18460.3528
774.231	18361.0346
774.421	18040.84503
774.611	18515.08307
774.802	18281.99189
774.992	18227.27334
775.182	17976.00755
775.372	18367.11504
775.562	17888.88789
775.752	18209.03442
775.942	17633.64358
776.131	17686.30867
776.321	17414.9043
776.511	17913.1997
776.701	17976.00755
776.891	17785.56824
777.081	17773.41357
777.271	17799.74884
777.461	17903.06972
777.651	17957.77267
777.84	17931.43389
778.03	18117.8443
778.22	17852.42111
778.41	17923.32977
778.599	18030.71393
778.789	17834.18814
778.979	17909.1477
779.169	17957.77267
779.358	17959.79875
779.548	17911.1737
779.738	17967.90313
779.927	17564.77719
780.117	17826.08468
780.307	17366.30055
780.496	17094.96116
780.686	17218.47484
780.875	17099.01063
781.065	17263.02339
781.254	17175.95254
781.444	17315.67351
781.633	17335.9241
781.823	17655.92469
782.012	17094.96116
782.202	17406.80355
782.391	16854.03765
782.581	17188.10164
782.77	16926.91813
782.96	16961.33508
783.149	16596.95692
783.338	16657.68123
783.528	16576.71593
783.717	16989.67902
783.906	16888.45302
784.096	16542.30675
784.285	16491.70614
784.474	16831.76927
784.663	16864.15974
784.853	16596.95692
785.042	16750.79588
785.231	16552.42703
785.42	16574.69184
785.61	16708.2864
785.799	16633.39126
785.988	16574.69184
786.177	16265.03085
786.366	16544.3308
786.555	16143.60712
786.744	16145.6308
786.933	16275.14977
787.122	16677.92313
787.312	16497.77814
787.501	16532.18652
787.69	16317.64976
787.879	16469.44229
788.068	16303.48301
788.257	16192.17588
788.445	16020.16562
788.634	16184.08102
788.823	15993.85913
789.012	16232.65058
789.201	16206.34195
789.39	16137.53609
789.579	15868.40053
789.768	16078.85021
789.957	15967.55287
790.145	15884.58846
790.334	15916.96455
790.523	16030.28356
790.712	15779.36824
790.9	15947.31744
791.089	15639.75347
791.278	15821.86065
791.467	15233.06818
791.655	15332.20877
791.844	15807.69646
792.033	15935.17625
792.221	15651.89371
792.41	15577.02936
792.599	15287.69661
792.787	15649.87034
792.976	15483.95614
793.164	15797.57921
793.353	15789.48544
793.541	15643.80022
793.73	15670.10413
793.918	15538.58591
794.107	15415.16369
794.295	15370.65121
794.484	15125.83482
794.672	15320.06908
794.861	15346.37176
795.049	15585.12275
795.238	15358.51148
795.426	15235.09146
795.614	14816.27118
795.803	14802.10787
795.991	14895.18049
796.179	15050.9737
796.368	14866.85417
796.556	15101.55556
796.744	14984.20544
796.932	15075.25301
797.121	14620.00458
797.309	14832.45778
797.497	14749.50097
797.685	14959.92599
797.874	15026.69437
798.062	14844.5977
798.25	14634.16844
798.438	14927.5533
798.626	14802.10787
798.814	14575.48923
799.002	14363.02098
799.19	14569.41891
799.378	14431.82195
799.566	14615.95775
799.755	14557.27825
799.943	14532.99678
800.131	14749.50097
800.318	14585.6064
800.506	14626.07481
800.694	14620.00458
800.882	14587.62984
801.07	14895.18049
801.258	14704.98702
801.446	14840.55106
801.634	14462.17476
801.822	14506.69165
802.01	14452.05719
802.197	14690.8234
802.385	14557.27825
802.573	14528.94985
802.761	14375.16246
802.949	14860.78423
803.136	14476.3393
803.324	14818.29451
803.512	14771.7578
803.699	14868.87748
803.887	14937.66977
804.075	14591.67669
804.262	14259.81593
804.45	14593.70012
804.638	14257.79226
804.825	14686.77664
805.013	14864.83086
805.201	15057.04353
805.388	14599.7704
805.576	14992.29858
805.763	14970.04243
805.951	14816.27118
806.138	14808.17786
806.326	14741.40755
806.513	14624.0514
806.701	14642.26206
806.888	14302.31268
807.075	14753.54767
807.263	14300.28905
807.45	14630.12163
807.638	14630.12163
807.825	14808.17786
808.012	14496.57423
808.2	14751.52432
808.387	14755.57102
808.574	14832.45778
808.761	14411.58656
808.949	14613.93434
809.136	14640.23865
809.323	14642.26206
809.51	14267.91061
809.698	14142.43955
809.885	14184.93868
810.072	14692.84677
810.259	14753.54767
810.446	14541.09062
810.633	14688.80002
810.82	14579.5361
811.008	14672.61296
811.195	15123.81155
811.382	14846.62102
811.569	14864.83086
811.756	14508.71513
811.943	14664.51941
812.13	14425.75135
812.317	14579.5361
812.504	14205.17604
812.691	14176.84368
812.878	13968.38524
813.064	14083.74873
813.251	14063.51008
813.438	14379.20961
813.625	14225.4132
813.812	14595.72355
813.999	14338.73785
814.186	14498.59772
814.372	14269.93428
814.559	14565.37203
814.746	14504.66817
814.933	14551.2079
815.12	14751.52432
815.306	14484.43329
815.493	14170.77241
815.68	14219.34207
815.866	14306.35995
816.053	14399.44525
816.24	14257.79226
816.426	14535.02024
816.613	14620.00458
816.799	14680.7065
816.986	14745.45426
817.173	14603.81724
817.359	14579.5361
817.546	14456.10423
817.732	14235.53171
817.919	14180.89118
818.105	14282.07624
818.292	14348.85585
818.478	14184.93868
818.665	14638.21525
818.851	14583.58297
819.037	14739.3842
819.224	14371.11531
819.41	14170.77241
819.597	13895.51988
819.783	13873.25478
819.969	13652.60867
820.156	13589.8492
820.342	13555.43131
820.528	13751.80268
820.714	13765.97264
820.901	13693.09695
821.087	13571.62809
821.273	13954.21724
821.459	13409.64973
821.646	14223.38949
821.832	13705.24318
822.018	14057.43844
822.204	13533.16037
822.39	13804.43322
822.576	13786.21518
822.762	14043.2712
822.948	13442.04733
823.134	13780.14245
823.32	13646.53531
823.507	14201.12858
823.693	13820.62682
823.879	13551.38208
824.065	13387.3758
824.25	13419.77409
824.436	13529.11106
824.622	13286.12446
824.808	13399.52528
824.994	13464.32011
825.18	13448.12177
825.366	13541.25895
825.552	13357.00148
825.738	13403.57507
825.923	13233.4696
826.109	13069.40998
826.295	12777.66812
826.481	12856.6924
826.667	13109.92137
826.852	13310.42573
827.038	13144.35456
827.224	13132.20182
827.409	12852.64008
827.595	13036.99948
827.781	12872.90148
827.966	13059.28183
828.152	12846.56155
828.338	13241.57054
828.523	12765.50979
828.709	13051.17923
828.894	13034.97378
829.08	13063.33311
829.266	12844.53537
829.451	13241.57054
829.637	12929.63055
829.822	12718.90093
830.008	12591.21722
830.193	12846.56155
830.378	12609.45922
830.564	12710.79473
830.749	12698.63525
830.935	12579.05561
831.12	12039.6473
831.305	12690.52882
831.491	12435.12588
831.676	12581.08256
831.861	12441.20808
832.047	12647.96848
832.232	12686.47556
832.417	12333.74695
832.602	12145.13546
832.788	12552.70468
832.973	12570.94774
833.158	12633.78111
833.343	12418.90638
833.528	12481.75456
833.714	12212.06929
833.899	12502.02683
834.084	12331.7192
834.269	12465.53628
834.454	12305.35778
834.639	12005.15624
834.824	12132.9648
835.009	12323.60812
835.194	12329.69144
835.379	12613.51293
835.564	12151.22069
835.749	12181.64582
835.934	12110.65122
836.119	12039.6473
836.304	11852.96204
836.489	11599.19877
836.674	11988.92436
836.859	11974.72105
837.044	11739.29305
837.228	12051.82007
837.413	11919.93315
837.598	11958.48821
837.783	11692.59969
837.968	11863.10976
838.152	11656.05378
838.337	11759.59307
838.522	11329.03671
838.707	11532.18183
838.891	11532.18183
839.076	11702.75082
839.261	11651.99295
839.445	12082.25078
839.63	11601.22943
839.815	11645.90162
839.999	11140.02171
840.184	11367.64181
840.368	11574.83015
840.553	11660.11458
840.737	11440.77854
840.922	11623.56608
841.106	11838.75488
841.291	11591.07605
841.475	11253.84789
841.66	11879.34568
841.844	11582.95317
842.029	11507.8095
842.213	11306.68473
842.397	11056.66357
842.582	11072.93
842.766	11314.81286
842.951	10967.18561
843.135	11483.43581
843.319	11176.61229
843.504	11264.00936
843.688	11552.49106
843.872	11428.58997
844.056	11392.02214
844.241	11392.02214
844.425	11294.49222
844.609	11308.71678
844.793	10940.74481
844.977	10883.78889
845.161	10666.05169
845.346	11182.71038
845.53	10676.22937
845.714	11003.79282
845.898	10476.69034
846.082	10562.22178
846.266	10488.91049
846.45	10716.93707
846.634	10643.65972
846.818	10657.90933
847.002	10203.6508
847.186	10598.87131
847.37	10240.34171
847.554	10309.63479
847.738	10069.07914
847.922	10527.6046
848.106	10205.6893
848.29	10566.29415
848.473	10694.54844
848.657	10627.37371
848.841	10590.72731
849.025	10710.83122
849.209	10287.21814
849.392	10706.7606
849.576	10462.43292
849.76	10484.83716
849.944	10248.49465
850.127	10317.7859
850.311	9926.28423
850.495	9873.228
850.678	10046.64459
850.862	10213.84316
851.046	10140.45045
851.229	10517.42238
851.413	10038.48615
851.596	10211.80472
851.78	10058.88183
851.964	10215.88159
852.147	10028.28777
852.331	9738.50163
852.514	9595.53753
852.698	9832.40872
852.881	9724.20862
853.065	9775.25168
853.248	9544.46041
853.431	9746.66874
853.615	9419.79046
853.798	9603.70895
853.982	9354.36576
854.165	9685.40951
854.348	9560.80616
854.532	9413.65761
854.715	9139.57151
854.898	9411.61329
855.081	9149.80403
855.265	9188.68371
855.448	8811.90059
855.631	9194.82205
855.814	9313.46678
855.997	9256.19706
856.181	8811.90059
856.364	8981.93617
856.547	9014.70006
856.73	8850.83529
856.913	8779.10841
857.096	9029.03286
857.279	8979.88828
857.462	9127.29192
857.645	9098.63714
857.828	9096.59024
858.011	9041.31742
858.194	9137.52495
858.377	8789.35647
858.56	9162.08249
858.743	9047.45947
858.926	9180.49903
859.109	8701.20825
859.292	8746.31157
859.475	8455.03135
859.658	8824.19647
859.841	8557.63799
860.023	8508.39273
860.206	8377.01833
860.389	8920.49171
860.572	8873.37346
860.755	8846.73721
860.937	8826.24571
861.12	8670.45087
861.303	8760.66076
861.486	8567.89605
861.668	8465.29416
861.851	8296.92326
862.034	8506.34061
862.216	8403.71013
862.399	8381.12498
862.581	8450.9261
862.764	8153.08792
862.947	8077.02126
863.129	8196.24871
863.312	7873.35503
863.494	8276.38127
863.677	8210.6337
863.859	8444.76807
864.042	8489.92295
864.224	8278.43556
864.406	8325.67875
864.589	8114.0301
864.771	8173.64178
864.954	7811.5982
865.136	7941.26605
865.318	7898.05255
865.501	8177.75231
865.683	7916.57373
865.865	7883.64602
866.048	7609.72785
866.23	7739.52485
866.412	7570.56618
866.594	7667.42577
866.777	7240.47442
866.959	7782.77193
867.141	7436.53347
867.323	7628.27543
867.505	7704.50853
867.687	7889.82037
867.869	7749.82261
868.052	7758.06045
868.234	7708.62841
868.416	7875.41327
868.598	7580.87263
868.78	7700.38856
868.962	7490.15747
869.144	7801.30357
869.326	7349.87907
869.508	7510.77821
869.69	7679.78745
869.872	7885.70416
870.054	7784.83109
870.236	7922.74709
870.417	7852.7715
870.599	7636.51824
870.781	7564.38205
870.963	7535.52025
871.145	7725.1071
871.327	7815.7159
871.508	7527.27324
871.69	7605.60593
871.872	7389.08463
872.054	7640.63952
872.235	7422.09373
872.417	7380.83148
872.599	7077.28431
872.78	7106.21421
872.962	7122.74361
873.144	7285.89517
873.325	7149.60085
873.507	6942.90935
873.689	6760.83405
873.87	7040.08229
874.052	7164.06088
874.233	7306.53744
874.415	7131.00778
874.596	7347.81541
874.778	6942.90935
874.959	7308.60155
875.141	7356.06995
875.322	7337.49674
875.503	7434.47071
875.685	7446.84691
875.866	7333.36911
876.048	7221.89013
876.229	6893.2699
876.41	7147.53504
876.592	7064.88444
876.773	7240.47442
876.954	7197.1083
877.136	7240.47442
877.317	6771.18397
877.498	7124.80968
877.679	6932.56888
877.86	7296.21658
878.042	7279.70206
878.223	7329.24141
878.404	7118.61139
878.585	7387.02137
878.766	7040.08229
878.947	7422.09373
879.128	7186.78159
879.309	7250.79826
879.49	7081.41742
879.672	7176.45433
879.853	7038.0153
880.034	6982.19802
880.215	6967.7242
880.396	7073.15111
880.576	6837.4099
880.757	7215.69497
880.938	7031.81419
881.119	7283.83082
881.3	7250.79826
881.481	7345.75172
881.662	7331.30527
881.843	7461.28482
882.023	7374.64139
882.204	7562.32063
882.385	7488.09528
882.566	7516.96401
882.747	7287.95949
882.927	7720.98755
883.108	7300.34499
883.289	7523.14961
883.469	7223.95514
883.65	7131.00778
883.831	7174.38881
884.011	7424.15662
884.192	7221.89013
884.373	7329.24141
884.553	7211.56476
884.734	7492.21964
884.914	7271.44427
885.095	7378.76814
885.275	7131.00778
885.456	7087.61692
885.636	7071.08448
885.817	7221.89013
885.997	7199.17357
886.178	7479.8463
886.358	7023.54573
886.538	7382.8948
886.719	7192.97768
886.899	7492.21964
887.08	7294.15234
887.26	7415.90495
887.44	6961.52079
887.621	7436.53347
887.801	7069.01782
887.981	7327.17752
888.161	7015.27691
888.342	7147.53504
888.522	7337.49674
888.702	7399.40057
888.882	7354.00635
889.062	7702.44855
889.242	7436.53347
889.423	7207.43445
889.603	7304.47331
889.783	7539.64362
889.963	7370.51456
890.143	7378.76814
890.323	7320.98573
890.503	7782.77193
890.683	7502.53017
890.863	7440.65891
891.043	7190.91234
891.223	7428.28232
891.403	7296.21658
891.583	7566.44345
891.763	7166.12651
891.943	7329.24141
892.122	6909.81783
892.302	7304.47331
892.482	6804.29985
892.662	6984.26562
892.842	6754.62383
893.022	7124.80968
893.201	6899.47555
893.381	7417.9679
893.561	7091.74981
893.741	7403.5268
893.92	6936.70514
894.1	7455.09728
894.28	7223.95514
894.459	7095.8826
894.639	6973.9274
894.819	7267.31524
894.998	7075.21772
895.178	7085.55044
895.357	7102.08163
895.537	6796.02143
895.716	6684.2269
895.896	6911.88622
896.075	6814.64737
896.255	7064.88444
896.434	6713.21708
896.614	6849.82467
896.793	6566.14887
896.973	6835.34069
897.152	6582.72574
897.331	7019.41136
897.511	6733.9216
897.69	6754.62383
897.87	6671.80115
898.049	6980.1304
898.228	6928.43253
898.407	6932.56888
898.587	6849.82467
898.766	6928.43253
898.945	6653.16099
899.124	6626.23301
899.304	6499.82655
899.483	6696.65181
899.662	6673.87217
899.841	6827.06364
900.02	6630.37603
900.199	6913.95459
900.378	6588.94169
900.557	6387.85375
900.737	6762.90408
900.916	6418.96411
901.095	6396.15036
901.274	6545.42569
901.453	6402.37257
901.632	6555.78757
901.811	6294.49118
901.989	6338.06627
902.168	6217.69093
902.347	6506.04528
902.526	6439.70144
902.705	6539.20829
902.884	6128.39626
903.063	6447.99572
903.242	6394.07624
903.42	6485.31538
903.599	6315.24251
903.778	6271.66202
903.957	6111.7785
904.135	6279.96386
904.314	6242.60263
904.493	6296.56642
904.672	6292.41592
904.85	6136.70457
905.029	5947.59731
905.207	6061.91621
905.386	6022.43228
905.565	6225.99521
905.743	5945.51812
905.922	5999.56928
906.1	5620.87627
906.279	5970.46679
906.457	5756.21351
906.636	6091.0042
906.814	5862.33137
906.993	5912.24795
907.171	5804.07818
907.35	5737.48045
907.528	5650.03425
907.707	5978.78226
907.885	5602.12941
908.063	5858.17104
908.242	5685.43416
908.42	5633.37312
908.598	5608.37858
908.777	5901.84978
908.955	5747.88794
909.133	5862.33137
909.311	5564.62997
909.49	5666.69388
909.668	5351.98905
909.846	5374.93268
910.024	5249.75118
910.202	5566.71347
910.38	5278.96774
910.559	5420.81141
910.737	5124.48559
910.915	5182.95331
911.093	5013.76474
911.271	5358.24668
911.449	5180.86549
911.627	5495.86116
911.805	4980.32682
911.983	5345.73121
912.161	4999.13638
912.339	5239.31559
912.517	4896.70623
912.695	5249.75118
912.872	4980.32682
913.05	4965.69587
913.228	4802.58928
913.406	4829.78336
913.584	4871.6129
913.762	4741.91171
913.939	4670.74827
914.117	4697.9609
914.295	4630.96914
914.473	4856.9736
914.65	4691.6814
914.828	4748.18958
915.006	4457.10283
915.184	4714.70524
915.361	4245.32692
915.539	4739.81904
915.716	4442.43244
915.894	4685.40169
916.072	4492.72642
916.249	4536.72323
916.427	4467.58101
916.604	4610.0295
916.782	4220.15083
916.959	4469.67659
917.137	4142.50533
917.314	4434.04889
917.492	4314.54529
917.669	4274.69514
917.847	4274.69514
918.024	4148.80199
918.201	4041.73327
918.379	4285.18277
918.556	4283.08529
918.733	4228.5432
918.911	3966.12298
919.088	4215.95452
919.265	3928.30792
919.442	3999.73083
919.62	3837.94556
919.797	3995.53013
919.974	3720.20952
920.151	4029.1334
920.328	3688.66274
920.506	3997.63049
920.683	3856.86167
920.86	3884.18209
921.037	3825.33393
921.214	4123.61423
921.391	3728.62127
921.568	4014.43262
921.745	3798.00629
921.922	3831.63983
922.099	3720.20952
922.276	3734.92987
922.453	3442.45271
922.63	3612.93296
922.807	3158.06129
922.984	3217.07152
923.161	2886.03324
923.338	3335.05269
923.514	3048.43736
923.691	3303.45582
923.868	3332.94635
924.045	3396.12891
924.222	3276.06875
924.399	3518.23656
924.575	3126.44342
924.752	3354.00895
924.929	3200.21277
925.105	3195.99792
925.282	2928.22459
925.459	3086.38895
925.635	2710.87914
925.812	3092.71372
925.989	2845.94613
926.165	2942.99019
926.342	2761.53575
926.518	2856.49587
926.695	2655.99268
926.871	2883.92352
927.048	2734.0977
927.224	2681.32597
927.401	2558.86519
927.577	2658.10385
927.754	2453.2636
927.93	2795.30254
928.107	2822.73548
928.283	2919.78679
928.459	2687.659
928.636	2793.19222
928.812	2539.85902
928.988	2780.53
929.165	2425.80264
929.341	2508.17997
929.517	2383.5515
929.693	2641.21409
929.87	2535.63529
930.046	2554.64168
930.222	2362.42439
930.398	2626.43488
930.574	2212.39411
930.751	2430.02752
930.927	2195.48643
931.103	2425.80264
931.279	2326.506
931.455	2398.33988
931.631	2206.0538
931.807	2398.33988
931.983	2079.23199
932.159	2299.03709
932.335	2017.92508
932.511	2322.28012
932.687	2030.60975
932.863	2123.62285
933.039	1943.92658
933.215	2060.20634
933.391	1821.28515
933.566	2094.02931
933.742	1814.94117
933.918	1994.66924
934.094	1736.69576
934.27	1755.72892
934.445	1584.42175
934.621	1724.00682
934.797	1468.09497
934.973	1495.59062
935.148	1394.06824
935.324	1561.15666
935.5	1334.84747
935.675	1381.378
935.851	1239.67408
936.027	1281.9728
936.202	1205.83591
936.378	1305.23751
936.553	975.34269
936.729	1078.95145
936.904	949.97145
937.08	907.68835
937.255	738.58978
937.431	721.68333
937.606	605.47113
937.782	833.70058
937.957	618.14706
938.133	825.2455
938.308	656.17752
938.483	601.24592
938.659	470.29135
938.834	548.43524
939.009	548.43524
939.185	493.52124
939.36	461.84457
939.535	451.28643
939.71	455.50964
939.886	474.51483
940.061	436.5057
940.236	425.9485
940.411	379.50161
940.586	425.9485
940.761	392.16815
940.937	396.39047
941.112	278.19166
941.287	354.17033
941.462	324.62032
941.637	371.05758
941.812	290.85314
941.987	354.17033
942.162	318.28862
942.337	265.53084
942.512	276.08147
942.687	309.84661
942.862	278.19166
943.037	335.1735
943.212	316.17809
943.386	337.28419
943.561	206.45618
943.736	231.77202
943.911	261.31072
944.086	286.63257
944.26	200.12766
944.435	307.73615
944.61	290.85314
944.785	265.53084
944.959	231.77202
945.134	235.99161
945.309	225.4428
945.483	316.17809
945.658	223.33309
945.833	257.09068
946.007	214.89448
946.182	307.73615
946.357	316.17809
946.531	337.28419
946.706	269.75104
946.88	316.17809
947.055	200.12766
947.229	276.08147
947.404	198.0182
947.578	269.75104
947.752	238.10143
947.927	193.79933
948.101	113.65661
948.276	261.31072
948.45	231.77202
948.624	295.07378
948.799	206.45618
948.973	307.73615
949.147	271.86117
949.321	303.51529
949.496	244.431
949.67	307.73615
949.844	295.07378
950.018	181.14322
950.193	225.4428
950.367	322.50973
950.541	257.09068
950.715	301.40489
950.889	337.28419
951.063	335.1735
951.237	193.79933
951.411	276.08147
951.585	257.09068
951.759	328.84154
951.933	333.06283
952.107	343.61636
952.281	276.08147
952.455	301.40489
952.629	250.76076
952.803	269.75104
952.977	267.64093
953.151	347.8379
953.325	286.63257
953.499	307.73615
953.672	290.85314
953.846	318.28862
954.02	299.2945
954.194	358.39204
954.368	299.2945
954.541	371.05758
954.715	198.0182
954.889	345.72712
955.062	278.19166
955.236	352.0595
955.41	187.47118
955.583	406.94654
955.757	244.431
955.93	282.41208
956.104	273.97131
956.278	341.50562
956.451	267.64093
956.625	250.76076
956.798	219.11374
956.972	358.39204
957.145	206.45618
957.319	314.06758
957.492	288.74285
957.665	318.28862
957.839	358.39204
958.012	409.05781
958.185	341.50562
958.359	299.2945
958.532	328.84154
958.705	345.72712
958.879	352.0595
959.052	377.39057
959.225	240.21127
959.398	366.83566
959.572	265.53084
959.745	354.17033
959.918	254.98069
960.091	316.17809
960.264	341.50562
960.438	430.17133
960.611	343.61636
960.784	271.86117
960.957	265.53084
961.13	259.20069
961.303	248.65082
961.476	269.75104
961.649	273.97131
961.822	352.0595
961.995	271.86117
962.168	324.62032
962.341	273.97131
962.514	337.28419
962.686	257.09068
962.859	324.62032
963.032	229.66226
963.205	316.17809
963.378	244.431
963.551	347.8379
963.723	269.75104
963.896	314.06758
964.069	309.84661
964.242	252.87071
964.414	257.09068
964.587	290.85314
964.76	267.64093
964.932	295.07378
965.105	231.77202
965.278	292.96345
965.45	227.55252
965.623	242.32113
965.795	181.14322
965.968	219.11374
966.14	212.78487
966.313	297.18413
966.485	214.89448
966.658	181.14322
966.83	328.84154
967.003	200.12766
967.175	202.23715
967.348	174.81543
967.52	284.52232
967.692	265.53084
967.865	269.75104
968.037	164.26954
968.209	282.41208
968.382	301.40489
968.554	176.92467
968.726	299.2945
968.898	105.22233
969.071	217.0041
969.243	181.14322
969.415	214.89448
969.587	242.32113
969.759	244.431
969.932	233.8818
970.104	324.62032
970.276	185.36184
970.448	191.68993
970.62	248.65082
970.792	155.83321
970.964	130.52622
971.136	168.48784
971.308	164.26954
971.48	271.86117
971.652	164.26954
971.824	231.77202
971.996	242.32113
972.168	214.89448
972.339	115.76524
972.511	250.76076
972.683	189.58055
972.855	299.2945
973.027	122.09124
973.199	134.74384
973.37	219.11374
973.542	217.0041
973.714	164.26954
973.886	124.19996
974.057	198.0182
974.229	225.4428
974.401	176.92467
974.572	136.85268
974.744	132.63502
974.915	208.56572
975.087	202.23715
975.259	189.58055
975.43	195.90876
975.602	164.26954
975.773	79.92161
975.945	166.37868
976.116	151.61516
976.288	149.50617
976.459	195.90876
976.63	168.48784
976.802	92.57157
976.973	136.85268
977.145	147.39721
977.316	113.65661
977.487	164.26954
977.659	132.63502
977.83	174.81543
978.001	189.58055
978.172	117.87389
978.344	172.70621
978.515	134.74384
978.686	172.70621
978.857	63.05626
979.028	141.07043
979.2	134.74384
979.371	107.33087
979.542	141.07043
979.713	113.65661
979.884	73.59693
980.055	79.92161
980.226	143.17933
980.397	109.43943
980.568	107.33087
980.739	115.76524
980.91	122.09124
981.081	46.19237
981.252	168.48784
981.423	122.09124
981.594	136.85268
981.765	174.81543
981.936	79.92161
982.106	56.73213
982.277	46.19237
982.448	88.35483
982.619	75.70514
982.79	111.54801
982.96	109.43943
983.131	107.33087
983.302	71.48875
983.472	109.43943
983.643	143.17933
983.814	164.26954
983.984	67.27246
984.155	103.11382
984.326	50.4082
984.496	31.43768
984.667	132.63502
984.837	109.43943
985.008	143.17933
985.178	46.19237
985.349	71.48875
985.519	20.89932
985.69	103.11382
985.86	124.19996
986.031	130.52622
986.201	134.74384
986.371	79.92161
986.542	117.87389
986.712	71.48875
986.882	98.89685
987.053	75.70514
987.223	105.22233
987.393	63.05626
987.563	101.00532
987.734	88.35483
987.904	143.17933
988.074	90.46319
988.244	79.92161
988.414	92.57157
988.585	94.67998
988.755	39.86879
988.925	67.27246
989.095	107.33087
989.265	18.79172
989.435	48.30027
989.605	-4.39031
989.775	126.30869
989.945	75.70514
990.115	46.19237
990.285	33.54542
990.455	46.19237
990.625	75.70514
990.795	101.00532
990.965	20.89932
991.134	-17.03383
991.304	65.16435
991.474	113.65661
991.644	122.09124
991.814	48.30027
991.984	117.87389
992.153	113.65661
992.323	141.07043
992.493	126.30869
992.662	48.30027
992.832	86.24649
993.002	48.30027
993.171	-6.49763
993.341	33.54542
993.511	77.81336
993.68	73.59693
993.85	90.46319
994.019	-4.39031
994.189	37.76098
994.358	56.73213
994.528	96.7884
994.697	8.25407
994.867	117.87389
995.036	-27.56942
995.206	84.13817
995.375	98.89685
995.544	-4.39031
995.714	41.97663
995.883	65.16435
996.052	1.93177
996.222	98.89685
996.391	48.30027
996.56	73.59693
996.73	37.76098
996.899	75.70514
997.068	33.54542
997.237	20.89932
997.406	-44.42508
997.576	58.84015
997.745	35.65319
997.914	50.4082
998.083	92.57157
998.252	65.16435
998.421	14.57659
998.59	31.43768
998.759	33.54542
998.928	33.54542
999.097	-23.35526
999.266	-25.46235
999.435	79.92161
999.604	82.02988
999.773	-54.95905
999.942	20.89932
1000.111	113.65661
1000.28	101.00532
1000.448	58.84015
1000.617	54.62413
1000.786	46.19237
1000.955	50.4082
1001.124	48.30027
1001.292	37.76098
1001.461	101.00532
1001.63	41.97663
1001.798	48.30027
1001.967	130.52622
1002.136	88.35483
1002.304	71.48875
1002.473	20.89932
1002.642	-21.24814
1002.81	-2.28298
1002.979	25.11459
1003.147	79.92161
1003.316	25.11459
1003.484	37.76098
1003.653	84.13817
1003.821	14.57659
1003.99	27.22227
1004.158	29.32996
1004.327	16.68414
1004.495	16.68414
1004.663	56.73213
1004.832	63.05626
1005	-21.24814
1005.168	14.57659
1005.337	50.4082
1005.505	90.46319
1005.673	37.76098
1005.842	73.59693
1006.01	29.32996
1006.178	14.57659
1006.346	-17.03383
1006.514	90.46319
1006.683	46.19237
1006.851	-38.10439
1007.019	58.84015
1007.187	54.62413
1007.355	37.76098
1007.523	14.57659
1007.691	54.62413
1007.859	-2.28298
1008.027	-2.28298
1008.195	31.43768
1008.363	8.25407
1008.531	71.48875
1008.699	-10.71218
1008.867	12.46906
1009.035	39.86879
1009.203	-8.60492
1009.37	-12.81942
1009.538	37.76098
1009.706	31.43768
1009.874	14.57659
1010.042	79.92161
1010.209	35.65319
1010.377	23.00695
1010.545	58.84015
1010.713	14.57659
1010.88	-0.17561
1011.048	29.32996
1011.216	-80.238
1011.383	-46.53192
1011.551	-8.60492
1011.718	31.43768
1011.886	44.08449
1012.054	6.14661
1012.221	-25.46235
1012.389	37.76098
1012.556	86.24649
1012.724	75.70514
1012.891	-69.70555
1013.058	18.79172
1013.226	58.84015
1013.393	8.25407
1013.561	-10.71218
1013.728	71.48875
1013.895	39.86879
1014.063	12.46906
1014.23	14.57659
1014.397	-12.81942
1014.565	-17.03383
1014.732	-25.46235
1014.899	29.32996
1015.066	31.43768
1015.233	41.97663
1015.401	63.05626
1015.568	41.97663
1015.735	8.25407
1015.902	-0.17561
1016.069	37.76098
1016.236	-29.67646
1016.403	14.57659
1016.57	101.00532
1016.737	-2.28298
1016.904	-21.24814
1017.071	14.57659
1017.238	25.11459
1017.405	25.11459
1017.572	94.67998
1017.739	-12.81942
1017.906	33.54542
1018.073	94.67998
1018.24	46.19237
1018.407	60.94819
1018.573	56.73213
1018.74	-2.28298
1018.907	20.89932
1019.074	31.43768
1019.241	-42.31821
1019.407	12.46906
1019.574	-29.67646
1019.741	-19.141
1019.907	37.76098
1020.074	23.00695
1020.241	4.03918
1020.407	-21.24814
1020.574	58.84015
1020.74	-17.03383
1020.907	-31.78348
1021.073	79.92161
1021.24	31.43768
1021.406	-44.42508
1021.573	8.25407
1021.739	12.46906
1021.906	37.76098
1022.072	-0.17561
1022.239	4.03918
1022.405	-0.17561
1022.571	-48.63874
1022.738	71.48875
1022.904	-25.46235
1023.07	-38.10439
1023.237	-46.53192
1023.403	12.46906
1023.569	4.03918
1023.735	10.36155
1023.902	10.36155
1024.068	25.11459
1024.234	-67.59898
1024.4	39.86879
1024.566	48.30027
1024.732	23.00695
1024.898	-21.24814
1025.065	-29.67646
1025.231	12.46906
1025.397	37.76098
1025.563	20.89932
1025.729	39.86879
1025.895	-40.21131
1026.061	31.43768
1026.227	71.48875
1026.392	6.14661
1026.558	-52.8523
1026.724	41.97663
1026.89	48.30027
1027.056	-8.60492
1027.222	8.25407
1027.388	-25.46235
1027.553	39.86879
1027.719	12.46906
1027.885	20.89932
1028.051	-8.60492
1028.216	-29.67646
1028.382	12.46906
1028.548	-40.21131
1028.713	-8.60492
1028.879	-4.39031
1029.045	44.08449
1029.21	39.86879
1029.376	41.97663
1029.541	12.46906
1029.707	16.68414
1029.873	29.32996
1030.038	-0.17561
1030.204	-19.141
1030.369	31.43768
1030.534	50.4082
1030.7	56.73213
1030.865	10.36155
1031.031	33.54542
1031.196	1.93177
1031.361	37.76098
1031.527	46.19237
1031.692	50.4082
1031.857	107.33087
1032.023	-67.59898
1032.188	-61.27913
1032.353	73.59693
1032.518	29.32996
1032.684	-40.21131
1032.849	14.57659
1033.014	33.54542
1033.179	73.59693
1033.344	12.46906
1033.509	-8.60492
1033.674	-42.31821
1033.839	35.65319
1034.004	52.51615
1034.17	44.08449
1034.335	31.43768
1034.5	29.32996
1034.664	6.14661
1034.829	35.65319
1034.994	-8.60492
1035.159	65.16435
1035.324	65.16435
1035.489	-19.141
1035.654	-4.39031
1035.819	25.11459
1035.984	37.76098
1036.148	-103.40711
1036.313	37.76098
1036.478	-69.70555
1036.643	-27.56942
1036.807	-19.141
1036.972	37.76098
1037.137	-2.28298
1037.301	33.54542
1037.466	-71.81209
1037.631	-19.141
1037.795	1.93177
1037.96	48.30027
1038.124	48.30027
1038.289	8.25407
1038.454	-27.56942
1038.618	56.73213
1038.783	-78.13156
1038.947	46.19237
1039.111	14.57659
1039.276	14.57659
1039.44	-8.60492
1039.605	20.89932
1039.769	-21.24814
1039.933	-14.92664
1040.098	-0.17561
1040.262	-105.51324
1040.426	-4.39031
1040.591	79.92161
1040.755	20.89932
1040.919	35.65319
1041.083	16.68414
1041.248	-82.34441
1041.412	6.14661
1041.576	-17.03383
1041.74	31.43768
1041.904	-12.81942
1042.068	20.89932
1042.232	-4.39031
1042.397	18.79172
1042.561	39.86879
1042.725	-10.71218
1042.889	4.03918
1043.053	-23.35526
1043.217	16.68414
1043.381	-65.49239
1043.544	33.54542
1043.708	-21.24814
1043.872	6.14661
1044.036	-8.60492
1044.2	29.32996
1044.364	-10.71218
1044.528	39.86879
1044.691	48.30027
1044.855	-46.53192
1045.019	12.46906
1045.183	-31.78348
1045.346	-6.49763
1045.51	-2.28298
1045.674	31.43768
1045.837	75.70514
1046.001	-0.17561
1046.165	6.14661
1046.328	31.43768
1046.492	-67.59898
1046.655	39.86879
1046.819	41.97663
1046.983	-12.81942
1047.146	71.48875
1047.31	-8.60492
1047.473	-21.24814
1047.636	-52.8523
1047.8	6.14661
1047.963	-46.53192
1048.127	63.05626
1048.29	14.57659
