Data from absorb_only_2.23.25_USB4F045381__32__0137.txt Node

Date: Sun Feb 23 19:17:36 EST 2025
User: ssocol
Spectrometer: USB4F04538
Trigger mode: 4
Integration Time (sec): 2.600000E-3
Scans to average: 1
Electric dark correction enabled: true
Nonlinearity correction enabled: true
Boxcar width: 0
XAxis mode: Wavelengths
Number of Pixels in Spectrum: 3648
>>>>>Begin Spectral Data<<<<<
345.52	-4.91714
345.736	-4.91714
345.952	-4.91714
346.168	30.91075
346.384	-30.20322
346.6	-19.66778
346.816	-47.05863
347.032	22.48004
347.248	20.37242
347.464	-40.73804
347.68	89.9361
347.896	-7.02445
348.112	-63.91243
348.328	-30.20322
348.544	56.20513
348.76	5.61975
348.975	14.04971
349.191	-13.34623
349.407	35.12624
349.623	9.83468
349.839	70.96171
350.055	7.72721
350.27	1.40492
350.486	-2.80981
350.702	62.52924
350.918	-4.91714
351.133	16.15725
351.349	-13.34623
351.565	-4.91714
351.781	7.72721
351.996	11.94218
352.212	87.82774
352.428	11.94218
352.644	49.88122
352.859	11.94218
353.075	-55.48573
353.291	-80.7646
353.506	3.51233
353.722	22.48004
353.938	20.37242
354.153	-4.91714
354.369	-9.13173
354.584	-72.33872
354.8	45.6654
355.016	16.15725
355.231	39.34183
355.447	45.6654
355.662	33.01848
355.878	-17.56062
356.093	28.80304
356.309	-30.20322
356.524	-17.56062
356.74	-25.98912
356.955	37.23403
357.171	7.72721
357.386	70.96171
357.602	37.23403
357.817	20.37242
358.033	75.17808
358.248	-15.45344
358.464	37.23403
358.679	-4.91714
358.895	-7.02445
359.11	20.37242
359.325	49.88122
359.541	18.26482
359.756	24.58768
359.972	16.15725
360.187	22.48004
360.402	11.94218
360.618	7.72721
360.833	64.63732
361.048	70.96171
361.264	87.82774
361.479	11.94218
361.694	54.09713
361.909	24.58768
362.125	3.51233
362.34	-44.95179
362.555	73.06989
362.77	-28.09618
362.986	30.91075
363.201	16.15725
363.416	-4.91714
363.631	47.77329
363.847	75.17808
364.062	16.15725
364.277	11.94218
364.492	-2.80981
364.707	-15.45344
364.922	3.51233
365.138	7.72721
365.353	-2.80981
365.568	11.94218
365.783	3.51233
365.998	14.04971
366.213	81.50281
366.428	-21.77492
366.643	-44.95179
366.858	7.72721
367.073	56.20513
367.288	54.09713
367.503	47.77329
367.718	20.37242
367.933	28.80304
368.148	-13.34623
368.363	-36.52418
368.578	64.63732
368.793	-21.77492
369.008	3.51233
369.223	-17.56062
369.438	-21.77492
369.653	-11.23899
369.868	-55.48573
370.083	-36.52418
370.298	73.06989
370.513	3.51233
370.728	-72.33872
370.943	54.09713
371.157	45.6654
371.372	14.04971
371.587	-21.77492
371.802	24.58768
372.017	-34.41722
372.232	-2.80981
372.446	62.52924
372.661	47.77329
372.876	56.20513
373.091	66.74543
373.306	43.55752
373.52	3.51233
373.735	64.63732
373.95	24.58768
374.165	45.6654
374.379	9.83468
374.594	16.15725
374.809	22.48004
375.023	45.6654
375.238	7.72721
375.453	14.04971
375.667	22.48004
375.882	11.94218
376.097	26.69535
376.311	62.52924
376.526	-4.91714
376.741	28.80304
376.955	-17.56062
377.17	37.23403
377.384	54.09713
377.599	39.34183
377.813	75.17808
378.028	-23.88203
378.242	-61.80579
378.457	-0.70246
378.672	-34.41722
378.886	-2.80981
379.101	66.74543
379.315	20.37242
379.53	64.63732
379.744	11.94218
379.958	-63.91243
380.173	3.51233
380.387	-21.77492
380.602	-13.34623
380.816	28.80304
381.031	41.44967
381.245	24.58768
381.459	9.83468
381.674	1.40492
381.888	5.61975
382.103	45.6654
382.317	-51.27223
382.531	-17.56062
382.746	-44.95179
382.96	-36.52418
383.174	-55.48573
383.388	45.6654
383.603	3.51233
383.817	28.80304
384.031	-0.70246
384.246	33.01848
384.46	22.48004
384.674	79.39455
384.888	-0.70246
385.103	51.98916
385.317	43.55752
385.531	-13.34623
385.745	43.55752
385.959	24.58768
386.174	-36.52418
386.388	9.83468
386.602	64.63732
386.816	98.36974
387.03	54.09713
387.244	58.31314
387.458	-4.91714
387.672	-21.77492
387.887	33.01848
388.101	66.74543
388.315	3.51233
388.529	62.52924
388.743	3.51233
388.957	-9.13173
389.171	-28.09618
389.385	11.94218
389.599	30.91075
389.813	83.6111
390.027	37.23403
390.241	-23.88203
390.455	-47.05863
390.669	20.37242
390.883	-38.63112
391.097	41.44967
391.311	20.37242
391.525	49.88122
391.738	28.80304
391.952	-0.70246
392.166	-15.45344
392.38	26.69535
392.594	62.52924
392.808	58.31314
393.022	-4.91714
393.236	24.58768
393.449	-36.52418
393.663	45.6654
393.877	11.94218
394.091	87.82774
394.305	9.83468
394.518	5.61975
394.732	79.39455
394.946	-19.66778
395.16	81.50281
395.373	-13.34623
395.587	49.88122
395.801	28.80304
396.015	104.6952
396.228	45.6654
396.442	24.58768
396.656	54.09713
396.869	45.6654
397.083	28.80304
397.297	28.80304
397.51	14.04971
397.724	-13.34623
397.938	28.80304
398.151	56.20513
398.365	20.37242
398.578	-21.77492
398.792	37.23403
399.005	18.26482
399.219	-11.23899
399.433	62.52924
399.646	-2.80981
399.86	-4.91714
400.073	39.34183
400.287	62.52924
400.5	11.94218
400.714	104.6952
400.927	-21.77492
401.141	-4.91714
401.354	7.72721
401.567	54.09713
401.781	-4.91714
401.994	43.55752
402.208	56.20513
402.421	41.44967
402.635	3.51233
402.848	-17.56062
403.061	75.17808
403.275	20.37242
403.488	-63.91243
403.701	98.36974
403.915	39.34183
404.128	-32.31023
404.341	87.82774
404.555	54.09713
404.768	33.01848
404.981	11.94218
405.195	66.74543
405.408	43.55752
405.621	-15.45344
405.834	-2.80981
406.048	-28.09618
406.261	64.63732
406.474	81.50281
406.687	62.52924
406.9	87.82774
407.114	54.09713
407.327	60.42118
407.54	-42.84492
407.753	7.72721
407.966	30.91075
408.179	66.74543
408.392	-13.34623
408.605	73.06989
408.819	11.94218
409.032	43.55752
409.245	-2.80981
409.458	-17.56062
409.671	89.9361
409.884	45.6654
410.097	92.04447
410.31	60.42118
410.523	-2.80981
410.736	5.61975
410.949	11.94218
411.162	39.34183
411.375	111.02086
411.588	-34.41722
411.801	-25.98912
412.014	24.58768
412.227	14.04971
412.44	-25.98912
412.653	-30.20322
412.865	70.96171
413.078	16.15725
413.291	41.44967
413.504	66.74543
413.717	33.01848
413.93	7.72721
414.143	-2.80981
414.356	-32.31023
414.568	39.34183
414.781	87.82774
414.994	39.34183
415.207	-25.98912
415.42	64.63732
415.632	20.37242
415.845	-34.41722
416.058	62.52924
416.271	3.51233
416.483	62.52924
416.696	18.26482
416.909	-4.91714
417.121	-15.45344
417.334	45.6654
417.547	73.06989
417.759	-55.48573
417.972	73.06989
418.185	24.58768
418.397	113.12946
418.61	16.15725
418.823	66.74543
419.035	7.72721
419.248	33.01848
419.46	33.01848
419.673	54.09713
419.885	-9.13173
420.098	22.48004
420.311	26.69535
420.523	22.48004
420.736	-61.80579
420.948	-47.05863
421.161	3.51233
421.373	49.88122
421.586	3.51233
421.798	-19.66778
422.01	79.39455
422.223	45.6654
422.435	3.51233
422.648	47.77329
422.86	41.44967
423.073	47.77329
423.285	30.91075
423.497	45.6654
423.71	45.6654
423.922	16.15725
424.134	37.23403
424.347	-13.34623
424.559	45.6654
424.771	104.6952
424.984	45.6654
425.196	77.2863
425.408	11.94218
425.621	51.98916
425.833	-9.13173
426.045	108.91229
426.257	5.61975
426.47	20.37242
426.682	62.52924
426.894	-4.91714
427.106	51.98916
427.318	41.44967
427.531	37.23403
427.743	89.9361
427.955	24.58768
428.167	113.12946
428.379	41.44967
428.591	3.51233
428.804	18.26482
429.016	-36.52418
429.228	11.94218
429.44	89.9361
429.652	51.98916
429.864	45.6654
430.076	26.69535
430.288	54.09713
430.5	-30.20322
430.712	-7.02445
430.924	47.77329
431.136	18.26482
431.348	14.04971
431.56	75.17808
431.772	20.37242
431.984	24.58768
432.196	89.9361
432.408	39.34183
432.62	24.58768
432.832	18.26482
433.044	16.15725
433.256	45.6654
433.468	20.37242
433.679	62.52924
433.891	66.74543
434.103	-7.02445
434.315	-19.66778
434.527	14.04971
434.739	56.20513
434.95	-51.27223
435.162	60.42118
435.374	37.23403
435.586	11.94218
435.798	3.51233
436.009	33.01848
436.221	125.7815
436.433	-19.66778
436.645	39.34183
436.856	87.82774
437.068	37.23403
437.28	7.72721
437.491	-61.80579
437.703	30.91075
437.915	-4.91714
438.126	28.80304
438.338	64.63732
438.55	54.09713
438.761	79.39455
438.973	28.80304
439.184	9.83468
439.396	87.82774
439.608	35.12624
439.819	66.74543
440.031	96.26129
440.242	41.44967
440.454	62.52924
440.665	64.63732
440.877	24.58768
441.088	89.9361
441.3	108.91229
441.511	58.31314
441.723	11.94218
441.934	11.94218
442.146	89.9361
442.357	41.44967
442.569	-0.70246
442.78	87.82774
442.991	41.44967
443.203	39.34183
443.414	81.50281
443.626	60.42118
443.837	117.34672
444.048	60.42118
444.26	66.74543
444.471	5.61975
444.682	144.76102
444.894	64.63732
445.105	121.56407
445.316	73.06989
445.528	104.6952
445.739	28.80304
445.95	73.06989
446.161	58.31314
446.373	144.76102
446.584	73.06989
446.795	89.9361
447.006	58.31314
447.217	79.39455
447.429	96.26129
447.64	7.72721
447.851	54.09713
448.062	47.77329
448.273	98.36974
448.484	70.96171
448.695	79.39455
448.907	47.77329
449.118	33.01848
449.329	37.23403
449.54	119.45538
449.751	62.52924
449.962	87.82774
450.173	37.23403
450.384	41.44967
450.595	79.39455
450.806	129.99903
451.017	98.36974
451.228	-4.91714
451.439	22.48004
451.65	33.01848
451.861	60.42118
452.072	26.69535
452.283	16.15725
452.494	104.6952
452.705	117.34672
452.915	-4.91714
453.126	60.42118
453.337	94.15287
453.548	87.82774
453.759	113.12946
453.97	113.12946
454.181	51.98916
454.391	60.42118
454.602	45.6654
454.813	115.23808
455.024	54.09713
455.235	-4.91714
455.445	81.50281
455.656	54.09713
455.867	100.4782
456.078	49.88122
456.288	37.23403
456.499	98.36974
456.71	54.09713
456.921	138.43433
457.131	70.96171
457.342	64.63732
457.553	75.17808
457.763	41.44967
457.974	20.37242
458.184	62.52924
458.395	24.58768
458.606	113.12946
458.816	96.26129
459.027	79.39455
459.237	54.09713
459.448	106.80373
459.659	28.80304
459.869	56.20513
460.08	148.97893
460.29	146.86997
460.501	45.6654
460.711	79.39455
460.922	62.52924
461.132	96.26129
461.343	43.55752
461.553	102.58669
461.764	157.41499
461.974	117.34672
462.184	148.97893
462.395	89.9361
462.605	148.97893
462.816	163.74226
463.026	87.82774
463.236	79.39455
463.447	163.74226
463.657	100.4782
463.867	163.74226
464.078	136.32547
464.288	121.56407
464.498	108.91229
464.709	113.12946
464.919	87.82774
465.129	193.27198
465.339	144.76102
465.55	193.27198
465.76	121.56407
465.97	94.15287
466.18	138.43433
466.391	157.41499
466.601	184.83451
466.811	113.12946
467.021	167.96055
467.231	113.12946
467.441	178.50662
467.651	148.97893
467.862	155.30595
468.072	189.0532
468.282	216.47669
468.492	180.61589
468.702	220.69599
468.912	140.5432
469.122	210.14789
469.332	231.24458
469.542	227.02509
469.752	281.88452
469.962	258.67319
470.172	294.5462
470.382	235.46415
470.592	212.25747
470.802	317.76099
471.012	290.32557
471.222	214.36707
471.432	292.43587
471.642	273.44377
471.852	302.98769
472.062	378.97385
472.272	292.43587
472.482	286.10501
472.691	421.19789
472.901	368.41887
473.111	387.41813
473.321	328.31388
473.531	332.53516
473.741	400.08505
473.95	429.64347
474.16	383.19595
474.37	425.42065
474.58	404.30748
474.79	516.2249
474.999	484.54585
475.209	465.54001
475.419	467.65171
475.628	552.13172
475.838	467.65171
476.048	526.78531
476.258	526.78531
476.467	672.55294
476.677	594.38007
476.886	708.47565
477.096	623.95701
477.306	738.06144
477.515	714.81528
477.725	681.00505
477.935	828.94458
478.144	795.1255
478.354	697.90981
478.563	869.10773
478.773	790.89829
478.982	820.48959
479.192	873.33561
479.401	881.79147
479.611	890.24746
479.82	957.89985
480.03	940.98604
480.239	995.95755
480.449	940.98604
480.658	1116.48645
480.868	1150.32209
481.077	1152.43685
481.287	1053.04795
481.496	1139.74833
481.705	1241.26026
481.915	1122.83055
482.124	1177.81432
482.333	1313.16871
482.543	1281.44406
482.752	1416.80498
482.961	1389.3094
483.171	1401.99965
483.38	1391.42444
483.589	1520.44237
483.799	1541.59271
484.008	1621.96271
484.217	1681.18081
484.426	1621.96271
484.636	1621.96271
484.845	1638.88236
485.054	1643.11225
485.263	1767.88883
485.472	1715.01876
485.682	2006.8258
485.891	1776.34783
486.1	1799.60974
486.309	1924.36859
486.518	1867.27771
486.727	1886.30843
486.936	1937.05491
487.146	1795.38034
487.355	2057.56384
487.564	1841.90278
487.773	2237.22627
487.982	2070.24773
488.191	2120.98063
488.4	1994.14069
488.609	2319.63893
488.818	2378.79799
489.027	2446.39853
489.236	2374.57261
489.445	2469.63369
489.654	2399.92431
489.863	2484.419
490.072	2336.54231
490.281	2685.02025
490.49	2602.68133
490.698	2509.76398
490.907	2568.89585
491.116	2803.21613
491.325	2685.02025
491.534	2657.57606
491.743	2685.02025
491.952	2902.38308
492.16	2655.46488
492.369	2870.73745
492.578	2682.90924
492.787	3022.60632
492.996	3022.60632
493.204	2870.73745
493.413	3012.06237
493.622	3056.34436
493.831	2948.79076
494.039	3157.53436
494.248	3045.80164
494.457	3113.26824
494.665	3151.21106
494.874	3298.71595
495.083	3296.60932
495.291	3191.25613
495.5	3157.53436
495.709	3458.76926
495.917	3355.58857
496.126	3496.6616
496.335	3391.39076
496.543	3635.54928
496.752	3389.28489
496.96	3725.99263
497.169	3551.38456
497.377	3641.86043
497.586	3545.07101
497.794	3669.20674
498.003	3612.40697
498.211	3686.03365
498.42	3519.81514
498.628	3841.62382
498.837	3797.48072
499.045	3873.14924
499.254	3734.40416
499.462	4074.80438
499.671	3757.53427
499.879	3950.8927
500.087	3816.40026
500.296	4079.00352
500.504	3929.88368
500.713	4030.70842
500.921	4165.06748
501.129	4135.68374
501.338	4058.007
501.546	4288.85332
501.754	4190.25025
501.962	4181.85633
502.171	4129.38669
502.379	4454.4832
502.587	4177.65924
502.795	4244.80245
503.004	4217.52814
503.212	4601.12948
503.42	4257.38937
503.628	4376.92659
503.837	4307.72937
504.045	4500.58371
504.253	4326.60367
504.461	4672.31833
504.669	4649.28948
504.877	4630.44567
505.085	4678.59845
505.294	4546.67354
505.502	4488.0119
505.71	4745.57383
505.918	4651.38312
506.126	4643.00841
506.334	4619.97611
506.542	4638.82092
506.75	4542.48399
506.958	4998.61391
507.166	4653.47675
507.374	4831.35214
507.582	4789.51383
507.79	4877.36374
507.998	4791.60596
508.206	4967.26353
508.414	4795.79015
508.622	5105.16636
508.83	4894.0925
509.037	5111.43227
509.245	4898.27445
509.453	5188.69469
509.661	5094.7227
509.869	5144.84695
510.077	5021.6009
510.285	5282.61948
510.492	5341.03768
510.7	5055.03153
510.908	5073.83365
511.116	5197.04547
511.324	5274.27253
511.531	5236.7066
511.739	5336.86556
511.947	5399.4375
512.155	5330.60721
512.362	5564.10909
512.57	5303.48523
512.778	5295.13921
512.985	5399.4375
513.193	5534.93749
513.401	5265.9252
513.608	5562.02556
513.816	5407.77883
514.024	5424.46036
514.231	5545.35645
514.439	5570.35955
514.646	5499.50863
514.854	5603.69172
515.061	5599.52553
515.269	5745.28612
515.477	5449.47984
515.684	5709.89775
515.892	5507.84545
516.099	5761.93711
516.307	5728.63362
516.514	5836.84788
516.722	5734.87849
516.929	5955.39404
517.136	5849.33003
517.344	5992.81376
517.551	5780.66767
517.759	6036.46044
517.966	5922.12566
518.173	6040.61673
518.381	5880.5317
518.588	5868.05167
518.796	5813.96172
519.003	5947.07752
519.21	5949.15668
519.418	6219.24801
519.625	5816.0424
519.832	6379.0382
520.039	6132.03119
520.247	6310.57366
520.454	6080.09674
520.661	6561.48635
520.868	6159.0313
521.076	6393.55771
521.283	6289.82181
521.49	6341.69706
521.697	6352.07035
521.904	6316.79876
522.112	6453.69782
522.319	6528.32733
522.526	6420.51949
522.733	6617.42879
522.94	6592.56756
523.147	6604.99859
523.354	6578.06365
523.561	6741.68521
523.768	6586.35174
523.975	6898.95842
524.183	6667.14129
524.39	6869.99691
524.597	6638.14394
524.804	6704.41696
525.011	6702.34629
525.218	6679.56734
525.425	6698.20487
525.632	6967.20725
525.838	6830.6849
526.045	6698.20487
526.252	6865.85919
526.459	6989.9514
526.666	7023.02894
526.873	7091.2332
527.08	7060.23429
527.287	7058.16751
527.494	6911.36913
527.701	7147.01858
527.907	7049.9002
528.114	7122.22709
528.321	7085.03382
528.528	7190.396
528.735	7281.25035
528.941	7384.44228
529.148	7122.22709
529.355	7118.09486
529.562	7190.396
529.768	7330.78931
529.975	7056.10072
530.182	7355.55405
530.388	7213.1136
530.595	7419.5151
530.802	7293.63628
531.008	7446.33125
531.215	7473.14375
531.422	7668.97103
531.628	7590.66326
531.835	7856.37376
532.042	7446.33125
532.248	7683.3928
532.455	7485.51751
532.661	7745.18869
532.868	7561.80528
533.074	7983.95623
533.281	7757.54559
533.487	7844.02287
533.694	7846.0814
533.9	8107.34843
534.107	7623.63869
534.313	7897.53805
534.52	7780.19796
534.726	8115.57199
534.933	7761.66439
535.139	8058.00029
535.345	7932.5212
535.552	8062.11308
535.758	8173.12795
535.965	8025.09507
536.171	7739.00995
536.377	8127.90673
536.584	7918.11709
536.79	8053.88742
536.996	8292.30148
537.203	8029.20851
537.409	8138.18513
537.615	8253.26919
537.821	8162.85125
538.028	8360.07761
538.234	8031.2652
538.44	8419.62099
538.646	8343.64898
538.853	8555.0734
539.059	8045.66144
539.265	8641.2275
539.471	8212.17489
539.677	8431.93829
539.883	8302.57196
540.09	8349.80986
540.296	8464.78103
540.502	8686.3427
540.708	8343.64898
540.914	8651.48174
541.12	8618.66652
541.326	8942.51114
541.532	8499.67108
541.738	8844.17587
541.944	8454.5182
542.15	8817.53628
542.356	8686.3427
542.562	8950.7039
542.768	8825.7334
542.974	8868.76355
543.18	8997.80674
543.386	9120.64022
543.592	9222.95414
543.798	9282.27685
544.004	9194.31053
544.21	9280.23148
544.415	8764.24792
544.621	9083.79673
544.827	9016.23576
545.033	9153.38531
545.239	9218.8624
545.445	9441.76533
545.651	9157.47814
545.856	9270.00435
546.062	9296.59402
546.268	9407.01352
546.474	9051.04226
546.679	9145.19945
546.885	8956.84828
547.091	9235.22897
547.297	9151.33887
547.502	9276.14068
547.708	9161.5709
547.914	9439.72124
548.119	9229.09163
548.325	9310.91037
548.531	9132.92014
548.736	9245.45752
548.942	9145.19945
549.147	9419.2794
549.353	9210.67871
549.559	9721.65621
549.764	9576.64014
549.97	9635.88151
550.175	9464.24931
550.381	9750.24177
550.586	9331.3609
550.792	9607.28387
550.997	9599.11256
551.203	9597.06969
551.408	9817.61026
551.614	9889.04388
551.819	9760.45017
552.025	10042.05549
552.23	9840.06278
552.435	9915.57175
552.641	9938.01648
552.846	10088.96288
553.052	9815.56903
553.257	9778.82434
553.462	9958.41925
553.668	10040.01587
553.873	9984.94068
554.078	10292.82246
554.283	10007.37998
554.489	9976.7805
554.694	10003.30024
554.899	10327.46506
555.105	10076.72689
555.31	10174.60067
555.515	10168.4845
555.72	10007.37998
555.925	10133.82384
556.131	10445.62872
556.336	10241.8704
556.541	10408.96195
556.746	10303.01186
556.951	10472.10767
557.156	10117.51155
557.361	10461.92371
557.567	10292.82246
557.772	10439.51788
557.977	10351.91634
558.182	10508.76725
558.387	10543.38641
558.592	10541.35009
558.797	10358.02886
559.002	10541.35009
559.207	10382.47777
559.412	10447.66564
559.617	10484.32799
559.822	10683.86244
560.027	10445.62872
560.232	10704.21643
560.437	10893.45168
560.642	10820.21137
560.847	10736.78032
561.051	10706.25177
561.256	10645.18649
561.461	10948.37215
561.666	10582.07411
561.871	10919.89591
562.076	10744.92081
562.281	10854.79894
562.485	10478.21789
562.69	10624.82895
562.895	10746.95591
563.1	10852.76447
563.305	10427.29586
563.509	10976.84619
563.714	10769.34115
563.919	10928.0322
564.123	10824.28067
564.328	11190.33287
564.533	10781.55067
564.737	11005.31804
564.942	10869.03991
565.147	11102.91941
565.351	11235.0485
565.556	11045.98834
565.761	10734.74517
565.965	10958.54171
566.17	11045.98834
566.374	11273.66251
566.579	11167.97316
566.784	11153.74358
566.988	11306.17671
567.193	11119.18387
567.397	11117.15085
567.602	11257.40444
567.806	10991.08239
568.011	11206.59368
568.215	11037.85463
568.42	11265.53356
568.624	11271.63029
568.828	10899.55437
569.033	11015.48603
569.237	11440.27069
569.442	11383.3876
569.646	11098.85319
569.85	11141.54639
570.055	11566.19927
570.259	11296.01631
570.463	11480.89681
570.668	11338.68832
570.872	11328.52872
571.076	11304.14465
571.281	11688.03161
571.485	11417.92468
571.689	11606.8137
571.893	11584.47622
572.098	11588.53766
572.302	11480.89681
572.506	11602.75242
572.71	11409.79856
572.914	11679.91047
573.119	11551.98334
573.323	11621.02788
573.527	11558.07594
573.731	11915.36722
573.935	12069.57153
574.139	11923.4844
574.343	11574.32245
574.547	11899.13248
574.751	11639.3026
574.955	11714.42434
575.159	11868.69092
575.364	11411.8301
575.568	11618.99731
575.772	12095.94404
575.976	11899.13248
576.18	11915.36722
576.383	11854.48421
576.587	11897.1031
576.791	11740.81558
576.995	11832.15856
577.199	11941.74756
577.403	12014.79368
577.607	12142.59993
577.811	12142.59993
578.015	11868.69092
578.219	12231.84367
578.422	12045.22652
578.626	12063.48538
578.83	12162.88385
579.034	12110.14408
579.238	11834.1882
579.442	12205.47768
579.645	12057.39917
579.849	12118.25822
580.053	12183.16703
580.257	12195.33659
580.46	12006.67795
580.664	12529.90014
580.868	12262.26444
581.071	12527.87303
581.275	12213.59042
581.479	12312.96216
581.682	12471.11136
581.886	12215.61859
582.09	12351.4895
582.293	12402.17958
582.497	12270.37637
582.7	12495.43841
582.904	12191.2801
583.107	12744.73882
583.311	12183.16703
583.515	12659.62217
583.718	12197.36482
583.922	12617.0599
584.125	12357.57253
584.329	12653.542
584.532	12584.62971
584.735	12815.66162
584.939	12606.92564
585.142	12791.34601
585.346	12694.07539
585.549	12850.10737
585.753	13083.08279
585.956	12969.64234
586.159	12785.26698
586.363	12787.29333
586.566	12765.00319
586.769	12683.94227
586.973	12568.41402
587.176	12860.23817
587.379	13091.18509
587.582	12862.26431
587.786	13028.39023
587.989	12927.09809
588.192	12866.31658
588.395	13237.01377
588.599	13068.90358
588.802	13125.61902
589.005	12850.10737
589.208	13111.44051
589.411	13002.05549
589.615	13014.21009
589.818	13115.49154
590.021	13083.08279
590.224	13226.88754
590.427	13145.87364
590.63	13040.54444
590.833	13350.42025
591.036	12941.27976
591.239	13366.62011
591.442	13129.66998
591.645	13166.1278
591.848	13368.64508
592.051	13688.54208
592.254	13287.64331
592.457	13394.96924
592.66	13255.24072
592.863	13350.42025
593.066	13322.06987
593.269	13287.64331
593.472	13425.34245
593.675	13605.53938
593.878	13522.5309
594.081	13563.02358
594.284	13508.35812
594.486	13631.85792
594.689	13581.24483
594.892	13629.83343
595.095	13403.06885
595.298	13368.64508
595.5	13315.99469
595.703	13840.36253
595.906	13892.98977
596.109	13635.90687
596.311	13494.18516
596.514	13607.5639
596.717	13565.04818
596.92	13957.75925
597.122	13743.19942
597.325	13747.24802
597.528	13767.49084
597.73	14194.55145
597.933	13698.66399
598.136	14176.33774
598.338	13722.95623
598.541	14198.59892
598.743	14050.8608
598.946	13998.23883
599.148	13935.49505
599.351	13907.15833
599.554	14024.55002
599.756	14006.33462
599.959	13998.23883
600.161	14012.40644
600.363	14168.2427
600.566	14079.19505
600.768	14119.67178
600.971	14156.10009
601.173	14042.76522
601.376	14032.64569
601.578	13864.65226
601.78	14137.88602
601.983	14226.93098
602.185	14063.00411
602.388	14097.40969
602.59	14366.56225
602.792	14063.00411
602.995	14156.10009
603.197	14107.52886
603.399	14338.23194
603.601	14056.93247
603.804	14200.62265
604.006	13982.04712
604.208	14127.76702
604.41	14077.17119
604.613	14299.78314
604.815	14038.71741
605.017	14119.67178
605.219	14030.62177
605.421	13990.14299
605.623	14075.14733
605.826	14348.34995
606.028	14311.92493
606.23	14423.22193
606.432	14350.37355
606.634	14587.12398
606.836	14322.04305
607.038	14542.60821
607.24	14216.81243
607.442	14532.49091
607.644	14564.86617
607.846	14566.88961
608.048	14556.77238
608.25	14587.12398
608.452	14522.37358
608.654	14473.80992
608.856	14394.89224
609.058	14315.97218
609.26	14160.14764
609.462	14224.90728
609.664	14228.95468
609.866	14494.04487
610.067	14285.61763
610.269	14487.9744
610.471	14390.84512
610.673	14623.54555
610.875	14443.45723
611.077	15018.09543
611.278	14447.50428
611.48	14453.57483
611.682	14320.01943
611.884	14742.92507
612.085	14447.50428
612.287	14692.34093
612.489	14550.70203
612.69	14301.80677
612.892	14249.19162
613.094	14374.65657
613.295	14040.74132
613.497	14710.55128
613.699	14552.72548
613.9	14664.01356
614.102	14342.27915
614.304	14483.92741
614.505	14439.41018
614.707	14546.65513
614.908	14362.51509
615.11	14346.32635
615.311	14534.51437
615.513	14712.57465
615.714	14524.39705
615.916	14886.58144
616.117	14599.26454
616.319	14311.92493
616.52	14686.27079
616.722	14876.4649
616.923	14755.06519
617.124	14941.21054
617.326	14530.46745
617.527	14599.26454
617.729	14597.24112
617.93	14937.16395
618.131	14595.21769
618.333	14392.86868
618.534	14625.56896
618.735	14878.48821
618.937	14605.33481
619.138	14728.76157
619.339	14661.99017
619.54	14846.11519
619.742	14969.53661
619.943	14767.20527
620.144	14751.01848
620.345	14746.97178
620.546	14564.86617
620.748	15103.07301
620.949	14874.44159
621.15	15125.329
621.351	14599.26454
621.552	14878.48821
621.753	14342.27915
621.954	14916.93098
622.155	14572.95993
622.356	15143.53844
622.558	14779.34533
622.759	14908.83778
622.96	14633.66259
623.161	14684.24741
623.362	14666.03695
623.563	15010.00231
623.764	14431.31607
623.965	14842.06855
624.166	14874.44159
624.366	14882.53482
624.567	14945.25713
624.768	14823.85865
624.969	14601.28797
625.17	14829.92863
625.371	14568.91305
625.572	14829.92863
625.773	14562.84272
625.973	15171.86423
626.174	14878.48821
626.375	14840.04523
626.576	14864.32503
626.777	15159.7246
626.977	14781.36867
627.178	15230.53909
627.379	14694.36431
627.58	15119.25919
627.78	14767.20527
627.981	14771.25196
628.182	14838.02191
628.382	14866.34834
628.583	14722.69148
628.784	14880.51152
628.984	14728.76157
629.185	15123.30573
629.386	14556.77238
629.586	15032.25839
629.787	14775.29865
629.987	14929.07077
630.188	14854.20846
630.388	14955.37359
630.589	14538.5613
630.79	15042.37478
630.99	14904.79118
631.191	15398.47149
631.391	15177.93404
631.591	15283.14423
631.792	14793.5087
631.992	15364.07552
632.193	15333.72623
632.393	15092.95665
632.594	14965.49004
632.794	14831.95195
632.994	14910.86108
633.195	15139.4919
633.395	14720.66812
633.595	15001.90918
633.796	14995.83933
633.996	15078.79374
634.196	14929.07077
634.397	15430.84427
634.597	14979.65305
634.797	15325.6331
634.997	14777.32199
635.198	14969.53661
635.398	14494.04487
635.598	14833.97527
635.798	14807.67203
635.998	15137.46863
636.199	14931.09407
636.399	15157.70133
636.599	14973.58319
636.799	15204.23656
636.999	14825.88198
637.199	15060.58427
637.399	15018.09543
637.599	15062.60754
637.799	14908.83778
637.999	15305.40029
638.199	15430.84427
638.399	15343.84266
638.599	15216.37619
638.799	15465.24049
638.999	15076.77046
639.199	15408.58797
639.399	15339.79609
639.599	15440.96079
639.799	14985.72291
639.999	15212.32965
640.199	15090.93338
640.399	15608.89716
640.599	14833.97527
640.799	15685.78538
640.998	15301.35373
641.198	15285.16751
641.398	15161.74787
641.598	15562.36012
641.798	15054.51444
641.997	15436.91418
642.197	14935.14066
642.397	15521.89343
642.597	15418.70446
642.796	15382.28514
642.996	15127.35227
643.196	15523.91676
643.395	15192.09693
643.595	15447.03071
643.795	15303.37701
643.994	15485.47363
644.194	15552.24342
644.394	15756.60465
644.593	15398.47149
644.793	15770.76865
644.992	15374.19197
645.192	15400.49478
645.392	15675.66844
645.591	15847.65985
645.791	15327.65638
645.99	15590.68697
646.19	15258.86492
646.389	15428.82097
646.589	15554.26676
646.788	15477.38036
646.987	15355.98237
647.187	15447.03071
647.386	15222.446
647.586	15481.42699
647.785	15351.9358
647.984	15574.50018
648.184	15716.13635
648.383	15875.98861
648.582	15438.93748
648.782	15637.22426
648.981	15621.03733
649.18	15849.68333
649.38	16086.43883
649.579	15932.64684
649.778	15896.22358
649.977	16126.91182
650.177	15969.07053
650.376	15960.97634
650.575	15649.3645
650.774	15756.60465
650.973	15764.69835
651.173	15693.87896
651.372	15489.52026
651.571	15782.90926
651.77	15829.44863
651.969	16147.14856
652.168	15774.81551
652.367	15845.63638
652.566	15849.68333
652.765	15960.97634
652.964	15940.74096
653.163	16201.78856
653.362	15772.79208
653.561	15823.37824
653.76	15532.01008
653.959	15681.73861
654.158	15529.98675
654.357	15568.43015
654.556	15309.44685
654.755	15786.95614
654.954	15900.27059
655.153	15521.89343
655.352	15671.62167
655.551	16007.51824
655.749	15873.96512
655.948	15754.58122
656.147	15604.85045
656.346	15914.43516
656.545	15734.34703
656.743	15973.11764
656.942	15602.82709
657.141	16062.15533
657.34	15724.22998
657.538	16066.20257
657.737	15758.62807
657.936	15797.07335
658.135	15641.271
658.333	15647.34112
658.532	15610.92052
658.731	15801.12025
658.929	15406.56467
659.128	15843.61291
659.326	15643.29437
659.525	16041.91925
659.724	15916.45868
659.922	15967.04698
660.121	15989.3061
660.319	16264.5249
660.518	15795.04991
660.716	16151.19593
660.915	15637.22426
661.113	16282.739
661.312	16244.28719
661.51	16052.03727
661.709	15999.42394
661.907	16058.1081
662.105	15908.36462
662.304	16434.52902
662.502	15936.6939
662.701	16116.79352
662.899	16100.60431
663.097	16286.7866
663.296	15967.04698
663.494	16021.68331
663.692	15770.76865
663.891	15855.75376
664.089	15981.21186
664.287	15938.71743
664.485	15758.62807
664.684	16157.26699
664.882	15663.52814
665.08	15776.83895
665.278	15797.07335
665.476	15797.07335
665.675	15614.96724
665.873	15977.16474
666.071	15623.06069
666.269	15975.14119
666.467	15950.85863
666.665	16001.44751
666.863	15803.14369
667.061	15867.89465
667.259	15695.90235
667.457	16298.92943
667.655	15815.28441
667.853	16112.74621
668.051	15776.83895
668.249	16072.27343
668.447	15873.96512
668.645	15608.89716
668.843	15873.96512
669.041	15956.92926
669.239	15760.6515
669.437	15594.73367
669.635	15637.22426
669.833	15669.59829
670.031	15829.44863
670.229	15987.28254
670.426	15764.69835
670.624	15764.69835
670.822	15473.33374
671.02	15714.11295
671.218	15600.80374
671.415	15795.04991
671.613	15697.92575
671.811	15805.16714
672.009	15481.42699
672.206	15756.60465
672.404	15888.12958
672.602	15758.62807
672.799	15596.75703
672.997	15728.2768
673.195	15491.54358
673.392	15788.97958
673.59	15791.00302
673.788	15671.62167
673.985	15404.54137
674.183	15843.61291
674.38	15657.458
674.578	15695.90235
674.775	15938.71743
674.973	15710.06614
675.17	15823.37824
675.368	16056.08449
675.565	15582.59357
675.763	15863.84768
675.96	15576.52353
676.158	15697.92575
676.355	15333.72623
676.553	15639.24763
676.75	15351.9358
676.947	15536.05674
677.145	15311.47013
677.342	15685.78538
677.539	15600.80374
677.737	16104.6516
677.934	15756.60465
678.131	15880.03559
678.329	15360.02895
678.526	15457.14725
678.723	15313.49341
678.92	15855.75376
679.118	15459.17055
679.315	15394.4249
679.512	15250.77183
679.709	15576.52353
679.906	15275.05113
680.104	15560.33678
680.301	15337.7728
680.498	15113.18937
680.695	15410.61127
680.892	15536.05674
681.089	15208.2831
681.286	15455.12394
681.483	14955.37359
681.68	15305.40029
681.877	14967.51332
682.075	15489.52026
682.272	15291.23734
682.469	15513.80012
682.665	15202.21329
682.862	15453.10063
683.059	15586.64027
683.256	15616.9906
683.453	15313.49341
683.65	15024.16527
683.847	15040.3515
684.044	14856.23178
684.241	15283.14423
684.438	15564.38346
684.635	15074.74719
684.831	15135.44536
685.028	15177.93404
685.225	15343.84266
685.422	15200.19002
685.619	15234.58564
685.815	14835.99859
686.012	15109.14283
686.209	14868.37166
686.405	15216.37619
686.602	14961.44346
686.799	15024.16527
686.996	15188.05039
687.192	15299.33045
687.389	15493.5669
687.586	15131.39881
687.782	14983.69962
687.979	14880.51152
688.175	14738.87836
688.372	15147.58498
688.568	14674.1305
688.765	14916.93098
688.962	15016.07215
689.158	14759.11188
689.355	14716.62139
689.551	14635.686
689.748	14835.99859
689.944	14876.4649
690.14	14844.09187
690.337	15105.09629
690.533	14744.94843
690.73	14696.38768
690.926	15196.14348
691.123	14884.55813
691.319	14759.11188
691.515	14902.76788
691.712	14724.71484
691.908	14969.53661
692.104	14599.26454
692.301	14676.15388
692.497	14666.03695
692.693	14589.14741
692.889	14819.812
693.086	14953.35029
693.282	14481.90392
693.478	14864.32503
693.674	14920.97758
693.87	14961.44346
694.067	14643.77961
694.263	14706.50454
694.459	14856.23178
694.655	14696.38768
694.851	14583.07711
695.047	14538.5613
695.243	14394.89224
695.439	14564.86617
695.635	14528.44398
695.831	14510.23274
696.027	14380.72729
696.224	14534.51437
696.42	14380.72729
696.615	14396.9158
696.811	14441.43371
697.007	14827.9053
697.203	14560.81928
697.399	14550.70203
697.595	14402.98647
697.791	14224.90728
697.987	14018.47824
698.183	14394.89224
698.379	13967.87924
698.575	14362.51509
698.77	14510.23274
698.966	14419.17485
699.162	14127.76702
699.358	14216.81243
699.554	13892.98977
699.749	13971.92722
699.945	14127.76702
700.141	14332.16112
700.337	14111.57651
700.532	14265.38103
700.728	14164.19517
700.924	14492.02138
701.119	14386.79799
701.315	14216.81243
701.511	14384.77443
701.706	14572.95993
701.902	14089.31432
702.097	14174.31398
702.293	14206.69383
702.489	14196.57519
702.684	14063.00411
702.88	14054.90858
703.075	14089.31432
703.271	14309.90131
703.466	14228.95468
703.662	14279.54667
703.857	13998.23883
704.053	14101.45736
704.248	13779.63639
704.443	14162.17141
704.639	13990.14299
704.834	14336.20834
705.03	13897.03795
705.225	14164.19517
705.42	13854.53159
705.616	13878.82109
705.811	14156.10009
706.006	14374.65657
706.202	14079.19505
706.397	14299.78314
706.592	14206.69383
706.787	14148.00497
706.983	13771.53937
707.178	14097.40969
707.373	14204.67011
707.568	14320.01943
707.763	14293.71221
707.959	14415.12776
708.154	13975.97518
708.349	13706.76145
708.544	13856.55573
708.739	13698.66399
708.934	13682.4689
709.129	13722.95623
709.324	13633.88239
709.519	13783.68488
709.714	13682.4689
709.909	13868.70051
710.104	13520.50623
710.299	13820.12078
710.494	13830.24169
710.689	13945.61518
710.884	13698.66399
711.079	13903.11018
711.274	13720.93189
711.469	13907.15833
711.664	13662.22475
711.859	14079.19505
712.054	13820.12078
712.249	13787.73336
712.443	13716.88321
712.638	13662.22475
712.833	13475.96252
713.028	13973.9512
713.223	13619.71097
713.417	13836.3142
713.612	13447.61557
713.807	13953.71123
714.002	13886.9175
714.196	13684.4933
714.391	13556.94977
714.586	13597.44125
714.78	13569.09736
714.975	13706.76145
715.17	13589.34306
715.364	13587.31851
715.559	13526.58024
715.754	13384.84464
715.948	13125.61902
716.143	13362.57017
716.337	13226.88754
716.532	13439.51631
716.726	13315.99469
716.921	13482.03676
717.115	13162.077
717.31	13399.01905
717.504	13354.47024
717.699	13330.17006
717.893	13052.69847
718.088	13249.16511
718.282	13344.34524
718.476	13522.5309
718.671	13079.03161
718.865	13158.02619
719.059	13192.45752
719.254	13313.96961
719.448	13137.77185
719.642	13178.28007
719.837	12714.3412
720.031	13172.20395
720.225	12823.76664
720.419	13062.8267
720.614	12945.33162
720.808	13178.28007
721.002	12923.04614
721.196	12937.22788
721.39	12904.8121
721.585	13079.03161
721.779	13066.87795
721.973	12979.77159
722.167	12756.89751
722.361	12896.70794
722.555	13117.51704
722.749	12890.62976
722.943	12641.38152
723.137	12833.8978
723.331	12825.79288
723.525	12894.68188
723.719	12586.65664
723.913	12868.34271
724.107	12653.542
724.301	12781.21427
724.495	12671.78232
724.689	12908.86414
724.883	12700.1552
725.077	13028.39023
725.271	12596.79122
725.465	12769.05599
725.659	12566.38703
725.853	12655.56873
726.046	12610.97936
726.24	12645.43504
726.434	12653.542
726.628	12985.84908
726.822	12540.03559
727.015	12835.92401
727.209	12471.11136
727.403	12700.1552
727.596	12566.38703
727.79	12730.55343
727.984	12746.76529
728.177	12949.38346
728.371	12718.39429
728.565	12712.31465
728.758	12669.75565
728.952	12633.27441
729.146	12598.81811
729.339	12846.05501
729.533	12527.87303
729.726	12706.23495
729.92	12698.1286
730.113	12615.03306
730.307	12732.57993
730.5	12675.83566
730.694	12600.845
730.887	12426.50932
731.081	12665.70227
731.274	12649.48853
731.468	12645.43504
731.661	12963.56473
731.854	12649.48853
732.048	12574.49495
732.241	12548.14384
732.435	12625.16721
732.628	12900.76003
732.821	12754.87108
733.014	12211.56225
733.208	12219.6749
733.401	12286.5999
733.594	12223.73119
733.788	12631.24762
733.981	12509.62876
734.174	12548.14384
734.367	12582.60277
734.56	12426.50932
734.754	12651.51527
734.947	12722.44736
735.14	12819.71414
735.333	13018.26158
735.526	12702.18179
735.719	12473.13865
735.912	12538.00851
736.105	12325.12896
736.298	12497.46562
736.491	12341.35097
736.684	12250.09632
736.877	12183.16703
737.07	12239.95603
737.263	12158.82713
737.456	12396.097
737.649	12402.17958
737.842	12339.32324
738.035	12450.8381
738.228	12168.96888
738.421	12398.12453
738.614	12432.59161
738.807	12471.11136
739	12404.2071
739.192	12337.29551
739.385	12420.42698
739.578	12116.2297
739.771	12197.36482
739.964	11899.13248
740.156	12264.29243
740.349	12110.14408
740.542	12231.84367
740.735	12004.649
740.927	11996.53312
741.12	12028.99589
741.313	12102.02982
741.505	12112.17263
741.698	12031.02475
741.891	12108.11553
742.083	12037.11127
742.276	12158.82713
742.468	12213.59042
742.661	12304.85082
742.854	12065.51411
743.046	11937.68914
743.239	12012.76476
743.431	12132.45768
743.624	11947.83513
743.816	12004.649
744.009	11998.5621
744.201	11809.83188
744.393	11878.83831
744.586	11846.36591
744.778	11791.56383
744.971	11842.30671
745.163	11939.71835
745.355	11850.42508
745.548	11446.36485
745.74	11377.29253
745.932	11586.50695
746.125	11893.04432
746.317	11817.95079
746.509	11503.23954
746.702	11738.78554
746.894	11527.61212
747.086	11876.80885
747.278	11897.1031
747.471	12053.34165
747.663	11805.77237
747.855	11750.96567
748.047	12085.80092
748.239	12108.11553
748.431	11541.82883
748.623	12124.34375
748.815	11761.11553
749.008	11690.06187
749.2	11535.73601
749.392	11777.35487
749.584	11671.78918
749.776	12041.16891
749.968	11854.48421
750.16	11982.33002
750.352	11795.62346
750.544	11791.56383
750.736	11671.78918
750.928	11941.74756
751.12	11822.01019
751.311	11789.534
751.503	11998.5621
751.695	11844.33631
751.887	11149.67789
752.079	11424.01916
752.271	11562.13762
752.463	11651.48534
752.654	11604.78307
752.846	11608.84432
753.038	11511.36389
753.23	11614.93614
753.421	11468.70938
753.613	11541.82883
753.805	11472.77189
753.997	11549.95246
754.188	11602.75242
754.38	11637.27211
754.572	11322.43284
754.763	11391.51423
754.955	11454.49027
755.146	11551.98334
755.338	11566.19927
755.53	11665.69812
755.721	11513.39495
755.913	11501.20843
756.104	11369.16562
756.296	11342.75209
756.487	11558.07594
756.679	11692.09213
756.87	10987.01496
757.062	11074.45494
757.253	11235.0485
757.445	11094.78692
757.636	10982.94749
757.827	11184.23489
758.019	11196.43075
758.21	10834.45372
758.401	11170.00591
758.593	10976.84619
758.784	11135.44765
758.975	10997.18345
759.167	10873.10865
759.358	10944.30426
759.549	10895.48592
759.74	10814.10733
759.932	10810.03791
760.123	10948.37215
760.314	11017.51959
760.505	10877.17735
760.696	10706.25177
760.888	11165.94039
761.079	10871.07429
761.27	11098.85319
761.461	10885.31461
761.652	10936.16832
761.843	10761.20123
762.034	10838.52286
762.225	10698.11036
762.416	10836.48829
762.607	10659.43604
762.798	10848.6955
762.989	10610.57794
763.18	10771.3761
763.371	10347.84126
763.562	10610.57794
763.753	10730.67483
763.944	10757.1312
764.135	10600.39828
764.326	10722.534
764.517	10606.50612
764.708	10746.95591
764.899	10315.2387
765.089	10366.17871
765.28	10415.07337
765.471	10362.10381
765.662	10364.14127
765.853	10435.44392
766.043	10284.6707
766.234	10598.36231
766.425	10321.35194
766.615	10260.21412
766.806	10199.06412
766.997	10345.8037
767.187	10160.32941
767.378	10327.46506
767.569	9962.49963
767.759	10256.13783
767.95	10294.86036
768.141	10402.85041
768.331	10256.13783
768.522	10164.40698
768.712	10123.62876
768.903	10056.33245
769.093	9868.63612
769.284	10154.21295
769.474	9829.85731
769.665	9874.75861
769.855	9835.98064
770.046	9972.70032
770.236	10007.37998
770.426	10003.30024
770.617	10027.77784
770.807	9844.14487
770.998	9980.86061
771.188	9674.68772
771.378	9858.43169
771.569	10021.65863
771.759	9799.23866
771.949	9958.41925
772.139	9858.43169
772.33	9592.9839
772.52	9721.65621
772.71	9703.27821
772.9	9552.1226
773.09	9527.60279
773.281	9433.58886
773.471	9570.51097
773.661	9415.19084
773.851	9492.86246
774.041	9570.51097
774.231	9744.11654
774.421	9374.30163
774.611	9474.46865
774.802	9198.40268
774.992	9317.04571
775.182	9048.99496
775.372	9449.94155
775.562	9132.92014
775.752	9496.9498
775.942	9349.76496
776.131	9576.64014
776.321	9157.47814
776.511	9139.05987
776.701	9292.50349
776.891	9378.39084
777.081	9288.41288
777.271	9294.54876
777.461	9161.5709
777.651	9143.15294
777.84	9040.80558
778.03	9366.123
778.22	9370.21234
778.41	9206.58677
778.599	9005.99759
778.789	9235.22897
778.979	9048.99496
779.169	9001.9022
779.358	9216.81651
779.548	9253.64007
779.738	8967.08855
779.927	8883.10517
780.117	9014.18816
780.307	9020.33091
780.496	8932.2698
780.686	8710.94722
780.875	8696.59491
781.065	8893.34865
781.254	8772.44693
781.444	8850.32303
781.633	8879.00766
781.823	9055.13682
782.012	8764.24792
782.202	9096.07851
782.391	8794.99271
782.581	8647.3801
782.77	8555.0734
782.96	8522.24407
783.149	8372.39827
783.338	8641.2275
783.528	8374.45164
783.717	8655.58331
783.906	8477.0958
784.096	8526.348
784.285	8532.50375
784.474	8538.65934
784.663	8292.30148
784.853	8682.24169
785.042	8409.35605
785.231	8610.46197
785.42	8263.54153
785.61	8294.35562
785.799	8360.07761
785.988	8694.5445
786.177	8290.24733
786.366	8226.55879
786.555	8300.5179
786.744	8382.66495
786.933	8292.30148
787.122	8277.92199
787.312	8323.11145
787.501	8162.85125
787.69	8160.79585
787.879	8481.20057
788.068	8201.90007
788.257	8140.24075
788.445	8271.75905
788.634	8569.43472
788.823	8505.82758
789.012	8349.80986
789.201	7986.01337
789.39	7975.72748
789.579	7778.13876
789.768	8325.16529
789.957	7889.30585
790.145	7883.13149
790.334	8175.18323
790.523	8072.3947
790.712	7971.61299
790.9	8121.73945
791.089	8016.86795
791.278	7905.76991
791.467	7948.9818
791.655	7973.67025
791.844	7876.95694
792.033	7955.15419
792.221	7633.9424
792.41	7854.31533
792.599	7835.78852
792.787	8162.85125
792.976	8033.32186
793.164	7802.8478
793.353	7767.84244
793.541	7827.55384
793.73	7823.43637
793.918	7944.86677
794.107	7574.1735
794.295	7681.33261
794.484	7506.13873
794.672	7600.96867
794.861	7701.93356
795.049	7825.49512
795.238	7699.87356
795.426	7547.37471
795.614	7403.01102
795.803	7436.01778
795.991	7332.85316
796.179	7388.56882
796.368	7184.19982
796.556	7567.98948
796.744	7330.78931
796.932	7386.50556
797.121	7223.43889
797.309	7590.66326
797.497	7390.63205
797.685	7701.93356
797.874	7357.61764
798.062	7790.49366
798.25	7266.79911
798.438	7450.45649
798.626	7262.66998
798.814	7306.02141
799.002	7221.37388
799.19	7596.84657
799.378	7384.44228
799.566	7528.81958
799.755	7099.49873
799.943	7252.34678
800.131	7398.88479
800.318	7306.02141
800.506	7378.2523
800.694	7126.35923
800.882	6917.57418
801.07	7132.55727
801.258	7018.89456
801.446	7312.21368
801.634	7000.28875
801.822	7037.49855
802.01	7149.0844
802.197	7157.34743
802.385	7167.67572
802.573	7171.80688
802.761	7002.35615
802.949	7147.01858
803.136	7178.00345
803.324	7105.69764
803.512	7116.02871
803.699	7107.7639
803.887	7076.76767
804.075	7256.47613
804.262	7018.89456
804.45	7035.43153
804.638	7256.47613
804.825	7254.41147
805.013	6965.13947
805.201	7250.28208
805.388	7194.52667
805.576	7452.51907
805.763	7339.04457
805.951	7380.31565
806.138	7246.1526
806.326	7070.56782
806.513	7097.43238
806.701	7180.06893
806.888	7113.96254
807.075	7279.18596
807.263	7033.36448
807.45	7295.70052
807.638	6932.05184
807.825	7266.79911
808.012	7246.1526
808.2	7324.59763
808.387	7341.10833
808.574	7173.87242
808.761	7283.31473
808.949	7425.70376
809.136	7124.29317
809.323	7182.13439
809.51	7109.83013
809.698	7372.06213
809.885	7006.49089
810.072	7163.54447
810.259	7025.09609
810.446	7248.21735
810.633	6913.4375
810.82	7497.8905
811.008	7326.66154
811.195	7388.56882
811.382	7173.87242
811.569	7320.46973
811.756	7266.79911
811.943	7464.89414
812.13	7369.9987
812.317	7343.17207
812.504	7270.92815
812.691	7514.38661
812.878	7204.85296
813.064	7499.95259
813.251	7169.74131
813.438	7394.75846
813.625	7025.09609
813.812	7316.34175
813.999	7128.42526
814.186	7411.26323
814.372	7194.52667
814.559	7343.17207
814.746	7023.02894
814.933	7237.89338
815.12	7097.43238
815.306	7151.15019
815.493	7045.7664
815.68	6929.98367
815.866	6816.19945
816.053	7047.83331
816.24	7031.29742
816.426	7264.73456
816.613	6989.9514
816.799	7080.90079
816.986	6975.47817
817.173	7006.49089
817.359	6915.50585
817.546	7002.35615
817.732	6929.98367
817.919	7343.17207
818.105	6981.68112
818.292	7289.50772
818.478	6958.93598
818.665	7219.30884
818.851	6830.6849
819.037	7041.63252
819.224	6975.47817
819.41	7165.6101
819.597	6737.54466
819.783	6596.71133
819.969	6824.47698
820.156	6905.16388
820.342	6973.41047
820.528	6876.20333
820.714	6917.57418
820.901	7188.33063
821.087	7029.23033
821.273	7113.96254
821.459	6826.54631
821.646	6863.7903
821.832	6708.55825
822.018	7066.43447
822.204	6484.7971
822.39	6932.05184
822.576	6646.42936
822.762	6977.54584
822.948	7004.42353
823.134	6961.00383
823.32	6685.78005
823.507	6836.8926
823.693	6522.10935
823.879	6727.19288
824.065	6478.57767
824.25	6513.81839
824.436	6287.7465
824.622	6679.56734
824.808	6584.27975
824.994	6816.19945
825.18	6592.56756
825.366	6694.06335
825.552	6441.25665
825.738	6752.03618
825.923	6542.83513
826.109	6638.14394
826.295	6055.16298
826.481	6293.97237
826.667	6248.31109
826.852	6368.66642
827.038	6325.09857
827.224	6453.69782
827.409	6318.87375
827.595	6368.66642
827.781	6194.33315
827.966	6335.4728
828.152	6048.92902
828.338	6092.56235
828.523	5969.94706
828.709	6146.5702
828.894	6352.07035
829.08	6262.84091
829.266	6119.56826
829.451	6264.9165
829.637	6061.39674
829.822	6410.15004
830.008	6335.4728
830.193	6314.72375
830.378	6200.56218
830.564	6343.77176
830.749	6156.95451
830.935	6179.79791
831.12	5965.78918
831.305	6445.4038
831.491	6113.33648
831.676	6281.52042
831.861	6067.63029
832.047	6123.72267
832.232	5972.02597
832.417	6244.1595
832.602	5811.88102
832.788	6069.70809
832.973	5828.52597
833.158	6061.39674
833.343	5994.89241
833.528	6086.32965
833.714	5863.89147
833.899	6088.40724
834.084	5955.39404
834.269	6102.94971
834.454	5824.36487
834.639	6069.70809
834.824	5909.64847
835.009	6277.36958
835.194	6113.33648
835.379	6217.1719
835.564	5878.45175
835.749	6105.02711
835.934	5741.12314
836.119	5849.33003
836.304	5589.10964
836.489	5630.76968
836.674	5487.00271
836.859	5557.85842
837.044	5520.34996
837.228	5647.43105
837.413	5507.84545
837.598	5739.04161
837.783	5439.05547
837.968	5559.942
838.152	5499.50863
838.337	5634.93516
838.522	5722.38854
838.707	5745.28612
838.891	5549.52387
839.076	5545.35645
839.261	5132.31715
839.445	5657.84364
839.63	5363.98266
839.815	5545.35645
839.999	5474.49593
840.184	5747.36758
840.368	5274.27253
840.553	5776.50549
840.737	5699.48811
840.922	5782.74873
841.106	5395.2667
841.291	5428.63051
841.475	5349.38164
841.66	5528.68584
841.844	5253.4035
842.029	5507.84545
842.213	5036.22753
842.397	5278.44605
842.582	5268.01207
842.766	5703.65204
842.951	5376.49691
843.135	5265.9252
843.319	5240.88097
843.504	5528.68584
843.688	5405.69354
843.872	5190.78242
844.056	5386.92481
844.241	5307.6581
844.425	4960.99283
844.609	5278.44605
844.793	4910.81978
844.977	4946.36039
845.161	4674.41173
845.346	4804.15827
845.53	4730.92494
845.714	5111.43227
845.898	4935.90796
846.082	5213.74592
846.266	5017.42166
846.45	5038.31696
846.634	4787.42167
846.818	4979.8043
847.002	4783.2373
847.186	4875.27255
847.37	4695.34446
847.554	4837.6271
847.738	4747.66643
847.922	4697.43761
848.106	4659.75748
848.29	4822.9852
848.473	4517.34488
848.657	4718.36787
848.841	4559.24163
849.025	4636.72714
849.209	4575.99784
849.392	4703.71693
849.576	4657.66392
849.76	4701.62384
849.944	4609.50598
850.127	4697.43761
850.311	4542.48399
850.495	4772.77596
850.678	4383.21608
850.862	4536.19952
851.046	4167.16616
851.229	4471.24825
851.413	4297.24289
851.596	4580.18667
851.78	4326.60367
851.964	4592.75262
852.147	4169.26482
852.331	4475.43929
852.514	4269.97553
852.698	4406.27585
852.881	4188.1518
853.065	4374.83005
853.248	4221.72442
853.431	4297.24289
853.615	4240.60664
853.798	4278.36587
853.982	4167.16616
854.165	4259.48712
854.348	4066.40586
854.532	4257.38937
854.715	4064.30617
854.898	4066.40586
855.081	3946.69106
855.265	4234.31276
855.448	3963.49714
855.631	4209.13533
855.814	4158.77131
855.997	4146.17841
856.181	3913.075
856.364	4204.93879
856.547	3887.85958
856.73	4152.47495
856.913	3879.45379
857.096	4005.50665
857.279	3791.17386
857.462	3976.10085
857.645	3883.65672
857.828	4127.28763
858.011	3974.00028
858.194	4083.20258
858.377	3866.84452
858.56	4102.0973
858.743	3833.21628
858.926	3963.49714
859.109	3873.14924
859.292	3730.19843
859.475	3810.09392
859.658	3795.37846
859.841	3709.16864
860.023	3526.12935
860.206	3490.34662
860.389	3740.71261
860.572	3597.67886
860.755	3871.04769
860.937	3837.42009
861.12	3736.50699
861.303	3587.15822
861.486	3738.60981
861.668	3515.60557
861.851	3620.82262
862.034	3439.82091
862.216	3488.24159
862.399	3281.86241
862.581	3610.30301
862.764	3319.78135
862.947	3408.23709
863.129	3429.29341
863.312	3410.34281
863.494	3254.47307
863.677	3526.12935
863.859	3454.55864
864.042	3465.08506
864.224	3256.58005
864.406	3429.29341
864.589	3113.26824
864.771	3477.71617
864.954	3239.72379
865.136	3452.45331
865.318	3007.84469
865.501	3267.11466
865.683	3165.96519
865.865	3471.40069
866.048	3302.92917
866.23	3412.4485
866.412	3033.14988
866.594	3218.65197
866.777	3075.32026
866.959	3307.14232
867.141	3071.1035
867.323	3140.67191
867.505	2995.19127
867.687	3269.22153
867.869	2885.50581
868.052	3172.28814
868.234	3031.0412
868.416	3269.22153
868.598	2971.99192
868.78	3028.9325
868.962	2955.11853
869.144	3241.83089
869.326	2851.74853
869.508	3206.00808
869.69	2906.60225
869.872	3100.61948
870.054	2923.47836
870.236	3138.56403
870.417	3138.56403
870.599	3157.53436
870.781	3077.42861
870.963	3100.61948
871.145	2896.05421
871.327	3113.26824
871.508	2836.97858
871.69	2784.22319
871.872	2883.39609
872.054	2986.75535
872.235	2609.01576
872.417	2934.02545
872.599	2820.0978
872.78	3227.0809
872.962	2915.04042
873.144	3050.01877
873.325	2870.73745
873.507	3028.9325
873.689	2792.66463
873.87	2824.31808
874.052	2796.88527
874.233	2978.31919
874.415	2896.05421
874.596	2870.73745
874.778	2860.18819
874.959	2653.35369
875.141	2642.79754
875.322	2841.19864
875.503	2792.66463
875.685	2663.90953
875.866	2699.797
876.048	2780.00239
876.229	2687.13125
876.41	2902.38308
876.592	2602.68133
876.773	2868.62763
876.954	2855.96839
877.136	2938.24418
877.317	2855.96839
877.498	2862.29807
877.679	2828.5383
877.86	2980.42826
878.042	2847.52862
878.223	3087.97015
878.404	2733.57002
878.585	3047.91022
878.766	2657.57606
878.947	2885.50581
879.128	2735.68072
879.309	2936.13482
879.49	2820.0978
879.672	2936.13482
879.853	2699.797
880.034	2864.40794
880.215	2640.68627
880.396	2841.19864
880.576	2590.01213
880.757	2807.43663
880.938	2583.67737
881.119	2969.8828
881.3	2742.01275
881.481	2942.46286
881.662	2756.78702
881.843	2938.24418
882.023	2693.46418
882.204	2742.01275
882.385	2790.55429
882.566	2860.18819
882.747	2786.33357
882.927	3003.62694
883.108	2737.79141
883.289	2936.13482
883.469	2737.79141
883.65	2921.3689
883.831	2718.79473
884.011	2923.47836
884.192	2714.57311
884.373	2961.44616
884.553	2505.53993
884.734	2845.41864
884.914	2834.86853
885.095	3094.29489
885.275	2957.22775
885.456	2843.30864
885.636	2697.68607
885.817	2898.16385
885.997	2877.06683
886.178	2946.68147
886.358	2809.54686
886.538	2997.30021
886.719	2733.57002
886.899	2957.22775
887.08	3005.73582
887.26	2877.06683
887.44	2657.57606
887.621	2803.21613
887.801	2587.90056
887.981	3031.0412
888.161	2820.0978
888.342	2950.90003
888.522	2936.13482
888.702	2921.3689
888.882	2834.86853
889.062	2959.33696
889.242	2896.05421
889.423	2923.47836
889.603	2860.18819
889.783	2944.57217
889.963	2796.88527
890.143	2917.14993
890.323	2792.66463
890.503	2809.54686
890.683	2725.12708
890.863	2965.66451
891.043	2630.12974
891.223	2891.8349
891.403	2809.54686
891.583	2820.0978
891.763	2739.90209
891.943	2807.43663
892.122	2522.43586
892.302	2758.89757
892.482	2693.46418
892.662	2731.4593
892.842	2824.31808
893.022	3014.17119
893.201	2773.67109
893.381	2691.35322
893.561	2826.4282
893.741	2832.75847
893.92	2655.46488
894.1	2765.22916
894.28	2541.4429
894.459	2836.97858
894.639	2663.90953
894.819	2727.23783
894.998	2440.06144
895.178	2668.13177
895.357	2486.53114
895.537	2720.90553
895.716	2501.31583
895.896	2556.2255
896.075	2383.02334
896.255	2444.28618
896.434	2440.06144
896.614	2706.12969
896.793	2543.55474
896.973	2513.98799
897.152	2499.20377
897.331	2488.64328
897.511	2323.86483
897.69	2682.90924
897.87	2330.20361
898.049	2368.23445
898.228	2482.30685
898.407	2522.43586
898.587	2395.69913
898.766	2304.84796
898.945	2243.5662
899.124	2298.50883
899.304	2205.52543
899.483	2347.1066
899.662	2330.20361
899.841	2235.11294
900.02	2192.84455
900.199	2311.187
900.378	2015.28241
900.557	2222.43279
900.737	2008.93996
900.916	2104.07014
901.095	2008.93996
901.274	2110.41163
901.453	1896.88087
901.632	2133.66317
901.811	1915.91093
901.989	2057.56384
902.168	1934.94053
902.347	2243.5662
902.526	1808.06849
902.705	2021.6248
902.884	1805.95381
903.063	2032.19531
903.242	1818.64183
903.42	2061.79183
903.599	1721.36328
903.778	1852.47575
903.957	1778.46257
904.135	1896.88087
904.314	1643.11225
904.493	1918.02535
904.672	1630.42255
904.85	1780.57731
905.029	1533.13258
905.207	1761.54455
905.386	1490.83176
905.565	1609.27288
905.743	1495.06186
905.922	1695.98501
906.1	1374.50414
906.279	1666.37647
906.457	1499.29195
906.636	1676.95101
906.814	1465.45116
906.993	1626.19264
907.171	1429.49528
907.35	1461.22106
907.528	1167.24031
907.707	1385.07932
907.885	1317.3987
908.063	1330.0887
908.242	1112.25708
908.42	1292.01889
908.598	1258.17964
908.777	1330.0887
908.955	1099.56908
909.133	1241.26026
909.311	1055.16249
909.49	1319.5137
909.668	1182.04396
909.846	1222.22617
910.024	1053.04795
910.202	1450.64579
910.38	1256.06471
910.559	1230.68574
910.737	1008.64392
910.915	1342.77877
911.093	1222.22617
911.271	1327.9737
911.449	1055.16249
911.627	1366.04401
911.805	1283.55902
911.983	1213.76666
912.161	1205.3072
912.339	1300.4788
912.517	1283.55902
912.695	1287.78895
912.872	1245.49009
913.05	1336.43373
913.228	1237.03044
913.406	1275.09919
913.584	1304.70876
913.762	1311.05372
913.939	1294.13387
914.117	1556.39787
914.295	1237.03044
914.473	1342.77877
914.65	1194.73294
914.828	1321.6287
915.006	1143.97782
915.184	1283.55902
915.361	1135.51886
915.539	1270.86929
915.716	1184.15878
915.894	1408.34479
916.072	1088.99587
916.249	1226.45595
916.427	1222.22617
916.604	1450.64579
916.782	1103.79839
916.959	1363.92898
917.137	1188.38843
917.314	1247.60501
917.492	1059.39158
917.669	1239.14535
917.847	1046.70436
918.024	1241.26026
918.201	1118.60115
918.379	1122.83055
918.556	1101.68373
918.733	1237.03044
918.911	995.95755
919.088	1182.04396
919.265	1053.04795
919.442	1148.20733
919.62	945.21445
919.797	1182.04396
919.974	1021.33052
920.151	949.44289
920.328	843.74116
920.506	924.07269
920.683	957.89985
920.86	1110.1424
921.037	926.18683
921.214	1110.1424
921.391	877.56352
921.568	962.12838
921.745	953.67136
921.922	1088.99587
922.099	881.79147
922.276	974.81412
922.453	754.96854
922.63	1000.18632
922.807	790.89829
922.984	816.26215
923.161	824.71707
923.338	771.8763
923.514	687.34425
923.691	911.388
923.868	702.13611
924.045	744.40153
924.222	731.72145
924.399	822.60332
924.575	655.64929
924.752	866.9938
924.929	742.28816
925.105	831.05835
925.282	653.53639
925.459	666.21399
925.635	621.84429
925.812	681.00505
925.989	632.40802
926.165	759.19542
926.342	659.87514
926.518	805.69371
926.695	670.43995
926.871	835.28592
927.048	645.0849
927.224	754.96854
927.401	619.73158
927.577	721.15502
927.754	543.68269
927.93	577.48009
928.107	543.68269
928.283	613.39353
928.459	471.87515
928.636	564.80566
928.812	560.58096
928.988	681.00505
929.165	564.80566
929.341	778.21687
929.517	628.18249
929.693	594.38007
929.87	454.98174
930.046	545.79493
930.222	406.41873
930.398	528.89743
930.574	505.66485
930.751	628.18249
930.927	435.97783
931.103	554.24401
931.279	440.20081
931.455	585.92998
931.631	383.19595
931.807	412.75256
931.983	492.99327
932.159	421.19789
932.335	328.31388
932.511	473.9869
932.687	336.75651
932.863	389.52924
933.039	376.86282
933.215	340.97794
933.391	402.19626
933.566	359.9752
933.742	279.77431
933.918	332.53516
934.094	368.41887
934.27	315.65046
934.445	248.12334
934.621	302.98769
934.797	290.32557
934.973	332.53516
935.148	311.42946
935.324	317.76099
935.5	239.6838
935.675	294.5462
935.851	302.98769
936.027	315.65046
936.202	176.39736
936.378	243.90353
936.553	214.36707
936.729	167.96055
936.904	138.43433
937.08	182.72519
937.255	180.61589
937.431	138.43433
937.606	123.67278
937.782	142.6521
937.957	172.17891
938.133	92.04447
938.308	125.7815
938.483	104.6952
938.659	151.08791
938.834	144.76102
939.009	75.17808
939.185	108.91229
939.36	111.02086
939.535	134.21663
939.71	96.26129
939.886	144.76102
940.061	113.12946
940.236	146.86997
940.411	151.08791
940.586	54.09713
940.761	98.36974
940.937	73.06989
941.112	121.56407
941.287	87.82774
941.462	146.86997
941.637	62.52924
941.812	138.43433
941.987	104.6952
942.162	79.39455
942.337	11.94218
942.512	83.6111
942.687	62.52924
942.862	16.15725
943.037	125.7815
943.212	49.88122
943.386	43.55752
943.561	56.20513
943.736	157.41499
943.911	20.37242
944.086	113.12946
944.26	104.6952
944.435	113.12946
944.61	62.52924
944.785	117.34672
944.959	33.01848
945.134	111.02086
945.309	22.48004
945.483	79.39455
945.658	49.88122
945.833	75.17808
946.007	45.6654
946.182	68.85356
946.357	115.23808
946.531	197.49084
946.706	66.74543
946.88	75.17808
947.055	45.6654
947.229	108.91229
947.404	96.26129
947.578	62.52924
947.752	70.96171
947.927	7.72721
948.101	54.09713
948.276	62.52924
948.45	47.77329
948.624	79.39455
948.799	87.82774
948.973	96.26129
949.147	96.26129
949.321	155.30595
949.496	184.83451
949.67	96.26129
949.844	104.6952
950.018	129.99903
950.193	62.52924
950.367	79.39455
950.541	79.39455
950.715	75.17808
950.889	49.88122
951.063	45.6654
951.237	151.08791
951.411	104.6952
951.585	104.6952
951.759	79.39455
951.933	56.20513
952.107	45.6654
952.281	138.43433
952.455	129.99903
952.629	16.15725
952.803	134.21663
952.977	41.44967
953.151	155.30595
953.325	47.77329
953.499	92.04447
953.672	96.26129
953.846	148.97893
954.02	49.88122
954.194	89.9361
954.368	129.99903
954.541	81.50281
954.715	87.82774
954.889	39.34183
955.062	117.34672
955.236	146.86997
955.41	3.51233
955.583	92.04447
955.757	115.23808
955.93	104.6952
956.104	75.17808
956.278	106.80373
956.451	-4.91714
956.625	73.06989
956.798	119.45538
956.972	62.52924
957.145	123.67278
957.319	70.96171
957.492	125.7815
957.665	79.39455
957.839	3.51233
958.012	64.63732
958.185	180.61589
958.359	58.31314
958.532	30.91075
958.705	142.6521
958.879	140.5432
959.052	113.12946
959.225	20.37242
959.398	47.77329
959.572	104.6952
959.745	87.82774
959.918	92.04447
960.091	125.7815
960.264	24.58768
960.438	60.42118
960.611	37.23403
960.784	123.67278
960.957	64.63732
961.13	100.4782
961.303	-13.34623
961.476	30.91075
961.649	64.63732
961.822	83.6111
961.995	35.12624
962.168	189.0532
962.341	157.41499
962.514	87.82774
962.686	165.85139
962.859	117.34672
963.032	35.12624
963.205	106.80373
963.378	41.44967
963.551	47.77329
963.723	98.36974
963.896	47.77329
964.069	125.7815
964.242	104.6952
964.414	121.56407
964.587	142.6521
964.76	11.94218
964.932	43.55752
965.105	92.04447
965.278	121.56407
965.45	127.89025
965.623	58.31314
965.795	89.9361
965.968	64.63732
966.14	56.20513
966.313	102.58669
966.485	70.96171
966.658	108.91229
966.83	51.98916
967.003	43.55752
967.175	54.09713
967.348	47.77329
967.52	111.02086
967.692	96.26129
967.865	75.17808
968.037	102.58669
968.209	98.36974
968.382	115.23808
968.554	73.06989
968.726	7.72721
968.898	62.52924
969.071	68.85356
969.243	83.6111
969.415	146.86997
969.587	70.96171
969.759	47.77329
969.932	81.50281
970.104	81.50281
970.276	45.6654
970.448	58.31314
970.62	37.23403
970.792	70.96171
970.964	92.04447
971.136	100.4782
971.308	28.80304
971.48	108.91229
971.652	-19.66778
971.824	58.31314
971.996	56.20513
972.168	70.96171
972.339	-7.02445
972.511	83.6111
972.683	96.26129
972.855	106.80373
973.027	70.96171
973.199	81.50281
973.37	115.23808
973.542	16.15725
973.714	60.42118
973.886	64.63732
974.057	77.2863
974.229	24.58768
974.401	54.09713
974.572	-9.13173
974.744	-21.77492
974.915	77.2863
975.087	33.01848
975.259	30.91075
975.43	43.55752
975.602	45.6654
975.773	64.63732
975.945	66.74543
976.116	43.55752
976.288	37.23403
976.459	-21.77492
976.63	81.50281
976.802	79.39455
976.973	70.96171
977.145	104.6952
977.316	106.80373
977.487	98.36974
977.659	134.21663
977.83	39.34183
978.001	37.23403
978.172	41.44967
978.344	22.48004
978.515	35.12624
978.686	47.77329
978.857	77.2863
979.028	41.44967
979.2	56.20513
979.371	115.23808
979.542	54.09713
979.713	22.48004
979.884	18.26482
980.055	-2.80981
980.226	24.58768
980.397	64.63732
980.568	66.74543
980.739	58.31314
980.91	37.23403
981.081	20.37242
981.252	-21.77492
981.423	-51.27223
981.594	62.52924
981.765	104.6952
981.936	-15.45344
982.106	26.69535
982.277	49.88122
982.448	43.55752
982.619	62.52924
982.79	85.71941
982.96	66.74543
983.131	-7.02445
983.302	92.04447
983.472	24.58768
983.643	142.6521
983.814	79.39455
983.984	37.23403
984.155	87.82774
984.326	45.6654
984.496	96.26129
984.667	49.88122
984.837	28.80304
985.008	79.39455
985.178	102.58669
985.349	9.83468
985.519	85.71941
985.69	39.34183
985.86	-0.70246
986.031	39.34183
986.201	11.94218
986.371	43.55752
986.542	-23.88203
986.712	79.39455
986.882	45.6654
987.053	54.09713
987.223	11.94218
987.393	20.37242
987.563	60.42118
987.734	77.2863
987.904	94.15287
988.074	56.20513
988.244	49.88122
988.414	62.52924
988.585	56.20513
988.755	28.80304
988.925	62.52924
989.095	-19.66778
989.265	28.80304
989.435	-53.37899
989.605	58.31314
989.775	94.15287
989.945	-21.77492
990.115	83.6111
990.285	-30.20322
990.455	41.44967
990.625	-47.05863
990.795	104.6952
990.965	45.6654
991.134	24.58768
991.304	54.09713
991.474	45.6654
991.644	98.36974
991.814	54.09713
991.984	-28.09618
992.153	79.39455
992.323	68.85356
992.493	28.80304
992.662	54.09713
992.832	100.4782
993.002	-7.02445
993.171	62.52924
993.341	60.42118
993.511	96.26129
993.68	70.96171
993.85	56.20513
994.019	70.96171
994.189	54.09713
994.358	45.6654
994.528	37.23403
994.697	20.37242
994.867	92.04447
995.036	-0.70246
995.206	45.6654
995.375	28.80304
995.544	-21.77492
995.714	62.52924
995.883	-13.34623
996.052	37.23403
996.222	28.80304
996.391	-0.70246
996.56	81.50281
996.73	66.74543
996.899	39.34183
997.068	3.51233
997.237	28.80304
997.406	54.09713
997.576	41.44967
997.745	-34.41722
997.914	68.85356
998.083	81.50281
998.252	11.94218
998.421	41.44967
998.59	-4.91714
998.759	56.20513
998.928	54.09713
999.097	70.96171
999.266	56.20513
999.435	-34.41722
999.604	16.15725
999.773	5.61975
999.942	28.80304
1000.111	79.39455
1000.28	77.2863
1000.448	60.42118
1000.617	16.15725
1000.786	81.50281
1000.955	41.44967
1001.124	37.23403
1001.292	37.23403
1001.461	-21.77492
1001.63	30.91075
1001.798	14.04971
1001.967	7.72721
1002.136	79.39455
1002.304	58.31314
1002.473	70.96171
1002.642	20.37242
1002.81	37.23403
1002.979	-7.02445
1003.147	-21.77492
1003.316	83.6111
1003.484	28.80304
1003.653	28.80304
1003.821	-17.56062
1003.99	83.6111
1004.158	37.23403
1004.327	11.94218
1004.495	26.69535
1004.663	54.09713
1004.832	22.48004
1005	87.82774
1005.168	79.39455
1005.337	7.72721
1005.505	85.71941
1005.673	-21.77492
1005.842	24.58768
1006.01	106.80373
1006.178	28.80304
1006.346	11.94218
1006.514	-36.52418
1006.683	37.23403
1006.851	70.96171
1007.019	70.96171
1007.187	-61.80579
1007.355	11.94218
1007.523	49.88122
1007.691	45.6654
1007.859	22.48004
1008.027	75.17808
1008.195	-15.45344
1008.363	62.52924
1008.531	-11.23899
1008.699	62.52924
1008.867	-4.91714
1009.035	79.39455
1009.203	7.72721
1009.37	-21.77492
1009.538	11.94218
1009.706	14.04971
1009.874	37.23403
1010.042	73.06989
1010.209	-118.67593
1010.377	98.36974
1010.545	37.23403
1010.713	54.09713
1010.88	28.80304
1011.048	-25.98912
1011.216	77.2863
1011.383	39.34183
1011.551	96.26129
1011.718	20.37242
1011.886	51.98916
1012.054	7.72721
1012.221	77.2863
1012.389	54.09713
1012.556	22.48004
1012.724	11.94218
1012.891	35.12624
1013.058	77.2863
1013.226	-13.34623
1013.393	16.15725
1013.561	62.52924
1013.728	3.51233
1013.895	20.37242
1014.063	85.71941
1014.23	20.37242
1014.397	73.06989
1014.565	39.34183
1014.732	30.91075
1014.899	37.23403
1015.066	134.21663
1015.233	-7.02445
1015.401	28.80304
1015.568	68.85356
1015.735	-23.88203
1015.902	43.55752
1016.069	-13.34623
1016.236	81.50281
1016.403	-2.80981
1016.57	-53.37899
1016.737	9.83468
1016.904	115.23808
1017.071	87.82774
1017.238	66.74543
1017.405	-17.56062
1017.572	106.80373
1017.739	3.51233
1017.906	41.44967
1018.073	-63.91243
1018.24	-30.20322
1018.407	11.94218
1018.573	7.72721
1018.74	-21.77492
1018.907	-28.09618
1019.074	41.44967
1019.241	-28.09618
1019.407	18.26482
1019.574	5.61975
1019.741	-32.31023
1019.907	66.74543
1020.074	-34.41722
1020.241	87.82774
1020.407	-17.56062
1020.574	14.04971
1020.74	5.61975
1020.907	14.04971
1021.073	9.83468
1021.24	45.6654
1021.406	20.37242
1021.573	3.51233
1021.739	47.77329
1021.906	-70.23219
1022.072	35.12624
1022.239	-17.56062
1022.405	5.61975
1022.571	-47.05863
1022.738	-25.98912
1022.904	11.94218
1023.07	-28.09618
1023.237	1.40492
1023.403	16.15725
1023.569	-47.05863
1023.735	54.09713
1023.902	28.80304
1024.068	-28.09618
1024.234	39.34183
1024.4	100.4782
1024.566	54.09713
1024.732	1.40492
1024.898	77.2863
1025.065	24.58768
1025.231	62.52924
1025.397	45.6654
1025.563	11.94218
1025.729	14.04971
1025.895	-28.09618
1026.061	33.01848
1026.227	79.39455
1026.392	62.52924
1026.558	-89.19007
1026.724	41.44967
1026.89	68.85356
1027.056	66.74543
1027.222	54.09713
1027.388	20.37242
1027.553	28.80304
1027.719	20.37242
1027.885	47.77329
1028.051	28.80304
1028.216	87.82774
1028.382	-93.40265
1028.548	-17.56062
1028.713	54.09713
1028.879	51.98916
1029.045	20.37242
1029.21	28.80304
1029.376	39.34183
1029.541	24.58768
1029.707	51.98916
1029.873	28.80304
1030.038	-28.09618
1030.204	-11.23899
1030.369	45.6654
1030.534	-11.23899
1030.7	-4.91714
1030.865	11.94218
1031.031	14.04971
1031.196	-11.23899
1031.361	7.72721
1031.527	30.91075
1031.692	54.09713
1031.857	-13.34623
1032.023	11.94218
1032.188	18.26482
1032.353	66.74543
1032.518	47.77329
1032.684	41.44967
1032.849	37.23403
1033.014	24.58768
1033.179	-13.34623
1033.344	33.01848
1033.509	-47.05863
1033.674	3.51233
1033.839	20.37242
1034.004	60.42118
1034.17	14.04971
1034.335	3.51233
1034.5	-82.87101
1034.664	35.12624
1034.829	28.80304
1034.994	16.15725
1035.159	102.58669
1035.324	117.34672
1035.489	24.58768
1035.654	54.09713
1035.819	39.34183
1035.984	16.15725
1036.148	54.09713
1036.313	62.52924
1036.478	16.15725
1036.643	51.98916
1036.807	-47.05863
1036.972	79.39455
1037.137	-25.98912
1037.301	-4.91714
1037.466	30.91075
1037.631	33.01848
1037.795	20.37242
1037.96	20.37242
1038.124	35.12624
1038.289	18.26482
1038.454	98.36974
1038.618	9.83468
1038.783	3.51233
1038.947	37.23403
1039.111	64.63732
1039.276	37.23403
1039.44	56.20513
1039.605	37.23403
1039.769	11.94218
1039.933	28.80304
1040.098	-21.77492
1040.262	96.26129
1040.426	39.34183
1040.591	18.26482
1040.755	-21.77492
1040.919	41.44967
1041.083	-30.20322
1041.248	43.55752
1041.412	28.80304
1041.576	-23.88203
1041.74	-17.56062
1041.904	47.77329
1042.068	-13.34623
1042.232	45.6654
1042.397	20.37242
1042.561	-17.56062
1042.725	54.09713
1042.889	20.37242
1043.053	-11.23899
1043.217	54.09713
1043.381	-23.88203
1043.544	28.80304
1043.708	41.44967
1043.872	9.83468
1044.036	62.52924
1044.2	-57.59244
1044.364	-84.97739
1044.528	-4.91714
1044.691	-28.09618
1044.855	16.15725
1045.019	-36.52418
1045.183	43.55752
1045.346	35.12624
1045.51	-7.02445
1045.674	87.82774
1045.837	56.20513
1046.001	56.20513
1046.165	-4.91714
1046.328	45.6654
1046.492	28.80304
1046.655	-47.05863
1046.819	-11.23899
1046.983	64.63732
1047.146	-17.56062
1047.31	87.82774
1047.473	28.80304
1047.636	104.6952
1047.8	37.23403
1047.963	-19.66778
1048.127	24.58768
1048.29	22.48004
