Data from absorb_only_2.23.25_USB4F045381__30__0135.txt Node

Date: Sun Feb 23 19:17:30 EST 2025
User: ssocol
Spectrometer: USB4F04538
Trigger mode: 4
Integration Time (sec): 2.600000E-3
Scans to average: 1
Electric dark correction enabled: true
Nonlinearity correction enabled: true
Boxcar width: 0
XAxis mode: Wavelengths
Number of Pixels in Spectrum: 3648
>>>>>Begin Spectral Data<<<<<
345.52	-16.85823
345.736	-16.85823
345.952	-16.85823
346.168	12.64469
346.384	23.18258
346.6	-29.50088
346.816	111.72373
347.032	33.72107
347.248	-29.50088
347.464	-29.50088
347.68	6.32224
347.896	23.18258
348.112	4.2148
348.328	-25.28676
348.544	-52.67674
348.76	-29.50088
348.975	16.85977
349.191	-12.64382
349.407	0
349.623	-29.50088
349.839	12.64469
350.055	29.5056
350.27	-42.14263
350.486	71.66443
350.702	-25.28676
350.918	-2.10736
351.133	-2.10736
351.349	42.15228
351.565	-21.07254
351.781	21.07496
351.996	31.61332
352.212	12.64469
352.428	-16.85823
352.644	4.2148
352.859	73.77262
353.075	40.04444
353.291	-10.53658
353.506	29.5056
353.722	-21.07254
353.938	-12.64382
354.153	-21.07254
354.369	-21.07254
354.584	-16.85823
354.8	-10.53658
355.016	-48.46317
355.231	-96.91306
355.447	12.64469
355.662	-52.67674
355.878	52.69182
356.093	37.93663
356.309	29.5056
356.524	23.18258
356.74	-25.28676
356.955	4.2148
357.171	-14.75104
357.386	0
357.602	-8.42931
357.817	54.79979
358.033	-16.85823
358.248	25.29023
358.464	-77.95602
358.679	4.2148
358.895	54.79979
359.11	46.36803
359.325	-25.28676
359.541	29.5056
359.756	-2.10736
359.972	-80.06246
360.187	-12.64382
360.402	0
360.618	-35.82187
360.833	8.4297
361.048	-50.56997
361.264	-12.64382
361.479	0
361.694	25.29023
361.909	-16.85823
362.125	10.53718
362.34	14.75222
362.555	21.07496
362.77	54.79979
362.986	0
363.201	-4.2147
363.416	-37.92881
363.631	31.61332
363.847	-4.2147
364.062	-40.03573
364.277	-4.2147
364.492	-37.92881
364.707	12.64469
364.922	-12.64382
365.138	56.90779
365.353	-8.42931
365.568	-46.35635
365.783	6.32224
365.998	63.23193
366.213	8.4297
366.428	-21.07254
366.643	0
366.858	12.64469
367.073	46.36803
367.288	-12.64382
367.503	-25.28676
367.718	-35.82187
367.933	-23.17966
368.148	-10.53658
368.363	21.07496
368.578	-16.85823
368.793	-35.82187
369.008	6.32224
369.223	-10.53658
369.438	-4.2147
369.653	-33.71489
369.868	-54.78349
370.083	21.07496
370.298	56.90779
370.513	-16.85823
370.728	-29.50088
370.943	-4.2147
371.157	-63.21022
371.372	69.55627
371.587	29.5056
371.802	-63.21022
372.017	-80.06246
372.232	-88.48797
372.446	52.69182
372.661	0
372.876	8.4297
373.091	12.64469
373.306	90.63889
373.52	-10.53658
373.735	-25.28676
373.95	61.12386
374.165	8.4297
374.379	96.96411
374.594	-18.9654
374.809	18.96735
375.023	4.2148
375.238	46.36803
375.453	18.96735
375.667	21.07496
375.882	21.07496
376.097	-2.10736
376.311	77.98905
376.526	-42.14263
376.741	-77.95602
376.955	-42.14263
377.17	18.96735
377.384	65.34002
377.599	12.64469
377.813	16.85977
378.028	-12.64382
378.242	-80.06246
378.457	-4.2147
378.672	50.58386
378.886	6.32224
379.101	-44.2495
379.315	96.96411
379.53	48.47593
379.744	65.34002
379.958	-4.2147
380.173	-29.50088
380.387	-48.46317
380.602	31.61332
380.816	14.75222
381.031	23.18258
381.245	37.93663
381.459	-10.53658
381.674	-80.06246
381.888	-2.10736
382.103	-37.92881
382.317	-54.78349
382.531	21.07496
382.746	-12.64382
382.96	42.15228
383.174	-4.2147
383.388	-50.56997
383.603	29.5056
383.817	14.75222
384.031	40.04444
384.246	-54.78349
384.46	37.93663
384.674	-8.42931
384.888	-21.07254
385.103	-12.64382
385.317	33.72107
385.531	-37.92881
385.745	10.53718
385.959	-31.6079
386.174	-27.39383
386.388	-10.53658
386.602	-46.35635
386.816	-16.85823
387.03	-21.07254
387.244	-54.78349
387.458	33.72107
387.672	-6.32202
387.887	-29.50088
388.101	-52.67674
388.315	-21.07254
388.529	6.32224
388.743	42.15228
388.957	-25.28676
389.171	-14.75104
389.385	-52.67674
389.599	50.58386
389.813	8.4297
390.027	71.66443
390.241	-21.07254
390.455	59.01582
390.669	-44.2495
390.883	-25.28676
391.097	-8.42931
391.311	16.85977
391.525	52.69182
391.738	10.53718
391.952	-27.39383
392.166	-23.17966
392.38	25.29023
392.594	18.96735
392.808	12.64469
393.022	29.5056
393.236	4.2148
393.449	63.23193
393.663	-12.64382
393.877	-2.10736
394.091	23.18258
394.305	37.93663
394.518	14.75222
394.732	-4.2147
394.946	40.04444
395.16	-18.9654
395.373	4.2148
395.587	48.47593
395.801	-69.53
396.015	-40.03573
396.228	46.36803
396.442	-27.39383
396.656	-12.64382
396.869	-96.91306
397.083	75.88082
397.297	37.93663
397.51	21.07496
397.724	-25.28676
397.938	-52.67674
398.151	12.64469
398.365	-29.50088
398.578	29.5056
398.792	-46.35635
399.005	73.77262
399.219	80.0973
399.433	54.79979
399.646	16.85977
399.86	-27.39383
400.073	-10.53658
400.287	6.32224
400.5	12.64469
400.714	-27.39383
400.927	71.66443
401.141	29.5056
401.354	0
401.567	-10.53658
401.781	27.39791
401.994	4.2148
402.208	-25.28676
402.421	-44.2495
402.635	-21.07254
402.848	31.61332
403.061	90.63889
403.275	37.93663
403.488	-27.39383
403.701	-27.39383
403.915	40.04444
404.128	52.69182
404.341	29.5056
404.555	42.15228
404.768	-4.2147
404.981	-73.74306
405.195	-10.53658
405.408	-27.39383
405.621	29.5056
405.834	16.85977
406.048	18.96735
406.261	-54.78349
406.474	29.5056
406.687	21.07496
406.9	33.72107
407.114	-4.2147
407.327	18.96735
407.54	-12.64382
407.753	-25.28676
407.966	46.36803
408.179	29.5056
408.392	-12.64382
408.605	31.61332
408.819	-29.50088
409.032	12.64469
409.245	50.58386
409.458	-8.42931
409.671	-50.56997
409.884	-25.28676
410.097	-52.67674
410.31	33.72107
410.523	-4.2147
410.736	-2.10736
410.949	-16.85823
411.162	-2.10736
411.375	-8.42931
411.588	-50.56997
411.801	21.07496
412.014	-10.53658
412.227	46.36803
412.44	-67.42343
412.653	29.5056
412.865	-2.10736
413.078	25.29023
413.291	-4.2147
413.504	12.64469
413.717	12.64469
413.93	-12.64382
414.143	-8.42931
414.356	-4.2147
414.568	-2.10736
414.781	8.4297
414.994	33.72107
415.207	-52.67674
415.42	31.61332
415.632	12.64469
415.845	21.07496
416.058	21.07496
416.271	25.29023
416.483	-37.92881
416.696	50.58386
416.909	14.75222
417.121	4.2148
417.334	-4.2147
417.547	50.58386
417.759	46.36803
417.972	-10.53658
418.185	6.32224
418.397	40.04444
418.61	21.07496
418.823	-25.28676
419.035	-67.42343
419.248	-42.14263
419.46	40.04444
419.673	86.42218
419.885	71.66443
420.098	23.18258
420.311	46.36803
420.523	-44.2495
420.736	-27.39383
420.948	-2.10736
421.161	6.32224
421.373	88.53052
421.586	-2.10736
421.798	50.58386
422.01	-16.85823
422.223	42.15228
422.435	8.4297
422.648	-31.6079
422.86	-29.50088
423.073	10.53718
423.285	25.29023
423.497	4.2148
423.71	14.75222
423.922	33.72107
424.134	46.36803
424.347	-50.56997
424.559	75.88082
424.771	-21.07254
424.984	14.75222
425.196	33.72107
425.408	-77.95602
425.621	33.72107
425.833	21.07496
426.045	14.75222
426.257	-16.85823
426.47	59.01582
426.682	-4.2147
426.894	31.61332
427.106	-8.42931
427.318	-8.42931
427.531	16.85977
427.743	21.07496
427.955	37.93663
428.167	-2.10736
428.379	46.36803
428.591	61.12386
428.804	25.29023
429.016	23.18258
429.228	-2.10736
429.44	31.61332
429.652	29.5056
429.864	12.64469
430.076	-4.2147
430.288	29.5056
430.5	-37.92881
430.712	-4.2147
430.924	8.4297
431.136	-29.50088
431.348	21.07496
431.56	23.18258
431.772	21.07496
431.984	77.98905
432.196	40.04444
432.408	16.85977
432.62	-2.10736
432.832	40.04444
433.044	-37.92881
433.256	-33.71489
433.468	37.93663
433.679	29.5056
433.891	4.2148
434.103	-21.07254
434.315	71.66443
434.527	33.72107
434.739	-18.9654
434.95	14.75222
435.162	42.15228
435.374	8.4297
435.586	29.5056
435.798	14.75222
436.009	21.07496
436.221	12.64469
436.433	25.29023
436.645	65.34002
436.856	16.85977
437.068	25.29023
437.28	88.53052
437.491	46.36803
437.703	75.88082
437.915	-8.42931
438.126	-12.64382
438.338	29.5056
438.55	12.64469
438.761	40.04444
438.973	65.34002
439.184	82.20557
439.396	65.34002
439.608	99.07256
439.819	63.23193
440.031	-12.64382
440.242	65.34002
440.454	54.79979
440.665	-4.2147
440.877	54.79979
441.088	37.93663
441.3	-50.56997
441.511	29.5056
441.723	109.61514
441.934	21.07496
442.146	-42.14263
442.357	14.75222
442.569	63.23193
442.78	4.2148
442.991	29.5056
443.203	75.88082
443.414	-6.32202
443.626	-2.10736
443.837	-50.56997
444.048	-44.2495
444.26	12.64469
444.471	31.61332
444.682	33.72107
444.894	12.64469
445.105	77.98905
445.316	73.77262
445.528	54.79979
445.739	44.26014
445.95	21.07496
446.161	35.82884
446.373	-10.53658
446.584	31.61332
446.795	73.77262
447.006	23.18258
447.217	-8.42931
447.429	-29.50088
447.64	63.23193
447.851	37.93663
448.062	4.2148
448.273	-4.2147
448.484	88.53052
448.695	42.15228
448.907	141.24617
449.118	-31.6079
449.329	21.07496
449.54	29.5056
449.751	29.5056
449.962	21.07496
450.173	37.93663
450.384	-42.14263
450.595	94.85568
450.806	31.61332
451.017	-31.6079
451.228	52.69182
451.439	6.32224
451.65	-21.07254
451.861	31.61332
452.072	67.44814
452.283	122.26697
452.494	52.69182
452.705	46.36803
452.915	94.85568
453.126	25.29023
453.337	31.61332
453.548	46.36803
453.759	29.5056
453.97	75.88082
454.181	67.44814
454.391	67.44814
454.602	31.61332
454.813	12.64469
455.024	40.04444
455.235	29.5056
455.445	73.77262
455.656	21.07496
455.867	69.55627
456.078	-46.35635
456.288	16.85977
456.499	10.53718
456.71	124.37568
456.921	126.48442
457.131	80.0973
457.342	37.93663
457.553	168.6636
457.763	130.70195
457.974	46.36803
458.184	63.23193
458.395	80.0973
458.606	31.61332
458.816	84.31387
459.027	46.36803
459.237	23.18258
459.448	84.31387
459.659	109.61514
459.869	107.50658
460.08	4.2148
460.29	109.61514
460.501	46.36803
460.711	54.79979
460.922	96.96411
461.132	132.81075
461.343	113.83233
461.553	115.94096
461.764	139.13728
461.974	105.39804
462.184	122.26697
462.395	82.20557
462.605	141.24617
462.816	128.59318
463.026	137.02842
463.236	23.18258
463.447	156.00896
463.657	164.4453
463.867	122.26697
464.078	92.74727
464.288	132.81075
464.498	37.93663
464.709	122.26697
464.919	65.34002
465.129	181.31899
465.339	145.464
465.55	105.39804
465.76	181.31899
465.97	145.464
466.18	223.5089
466.391	103.28953
466.601	80.0973
466.811	164.4453
467.021	130.70195
467.231	156.00896
467.441	120.15828
467.651	193.97512
467.862	111.72373
468.072	109.61514
468.282	151.79091
468.492	174.9912
468.702	147.57295
468.912	200.30345
469.122	253.04654
469.332	126.48442
469.542	166.55444
469.752	153.89993
469.962	240.38709
470.172	187.64696
470.382	234.05762
470.592	267.81677
470.802	174.9912
471.012	193.97512
471.222	291.029
471.432	377.56649
471.642	147.57295
471.852	303.69116
472.062	261.48656
472.272	238.27725
472.482	316.35397
472.691	255.15652
472.901	307.91202
473.111	409.23374
473.321	354.34623
473.531	354.34623
473.741	362.78973
473.95	440.90465
474.16	352.2354
474.37	430.34728
474.58	419.79031
474.79	485.24979
474.999	451.4624
475.209	481.02615
475.419	476.80258
475.628	464.13222
475.838	402.9
476.048	474.69081
476.258	552.83581
476.467	650.01491
476.677	582.40916
476.886	683.82246
477.096	569.73455
477.306	611.98509
477.515	590.85917
477.725	599.30939
477.935	597.19681
478.144	688.04861
478.354	732.42589
478.563	806.39826
478.773	666.91831
478.982	808.51194
479.192	804.2846
479.401	844.44577
479.611	861.3567
479.82	1074.89846
480.03	977.6332
480.239	1019.92089
480.449	975.51889
480.658	1045.29468
480.868	1121.42075
481.077	1093.93002
481.287	1047.4092
481.496	1129.87959
481.705	1273.68922
481.915	1206.01215
482.124	1161.60087
482.333	1203.89729
482.543	1180.63408
482.752	1370.97908
482.961	1296.95383
483.171	1626.89762
483.38	1364.63399
483.589	1559.2179
483.799	1449.23576
484.008	1652.27698
484.217	1421.74009
484.426	1609.97787
484.636	1696.68997
484.845	1705.14944
485.054	1719.95339
485.263	1715.72371
485.472	1781.28222
485.682	1901.81463
485.891	1690.34533
486.1	1872.21164
486.309	1810.88806
486.518	1891.24225
486.727	1813.00273
486.936	1990.61701
487.146	1867.98256
487.355	2206.22992
487.564	1973.70308
487.773	2269.62951
487.982	2011.75884
488.191	2149.16367
488.4	2075.18028
488.609	2227.364
488.818	2193.54905
489.027	2335.13372
489.236	2212.57023
489.445	2349.92371
489.654	2275.96902
489.863	2493.57154
490.072	2286.53469
490.281	2472.44998
490.49	2425.97867
490.698	2607.60812
490.907	2474.56218
491.116	2700.50063
491.325	2508.35597
491.534	2561.15291
491.743	2618.1653
491.952	2827.13157
492.16	2837.68193
492.369	2721.60912
492.578	2814.47067
492.787	2989.56735
492.996	2839.79196
493.204	3000.11211
493.413	3038.07007
493.622	2995.89425
493.831	2998.00319
494.039	3225.6761
494.248	3065.48106
494.457	3113.97093
494.665	3046.5045
494.874	3160.34466
495.083	3234.10481
495.291	3476.31274
495.5	3265.71007
495.709	3248.8544
495.917	3293.09823
496.126	3366.82118
496.335	3282.56466
496.543	3427.88971
496.752	3535.24959
496.96	3429.99526
497.169	3558.39943
497.377	3581.54702
497.586	3358.39677
497.794	3711.97273
498.003	3598.38022
498.211	3663.59751
498.42	3516.30717
498.628	3886.45863
498.837	3581.54702
499.045	3909.57303
499.254	3888.56004
499.462	3884.35721
499.671	3838.12071
499.879	3871.74821
500.087	3974.70048
500.296	3943.18963
500.504	3775.05551
500.713	3880.15429
500.921	3848.62985
501.129	3917.97767
501.338	3993.60479
501.546	4052.40758
501.754	4041.90826
501.962	4153.17456
502.171	4165.76704
502.379	4132.1854
502.587	4075.50425
502.795	4106.99566
503.004	4232.91409
503.212	4306.3312
503.42	4383.9149
503.628	4434.22355
503.837	4123.78916
504.045	4465.66006
504.253	4379.72194
504.461	4660.45532
504.669	4549.46651
504.877	4700.22844
505.085	4501.28212
505.294	4679.29623
505.502	4383.9149
505.71	4536.8978
505.918	4631.14362
506.126	4752.5491
506.334	4467.75565
506.542	4587.16785
506.75	4664.64235
506.958	4742.0861
507.166	4704.41461
507.374	4792.30333
507.582	4777.65799
507.79	4901.06238
507.998	4965.87005
508.206	4932.42369
508.414	4802.76361
508.622	5084.97477
508.83	4938.69533
509.037	5158.07195
509.245	4869.69591
509.453	5087.06366
509.661	5082.88586
509.869	5191.47832
510.077	5176.86377
510.285	5130.92489
510.492	5032.7451
510.7	5383.44891
510.908	5053.6387
511.116	5201.91659
511.324	5041.10282
511.531	5368.84942
511.739	5122.57116
511.947	5339.64699
512.155	5078.70797
512.362	5249.92511
512.57	5187.30285
512.778	5206.09173
512.985	5354.24878
513.193	5420.98517
513.401	5370.93513
513.608	5504.37182
513.816	5289.57499
514.024	5420.98517
514.231	5354.24878
514.439	5454.34435
514.646	5496.03485
514.854	5491.86622
515.061	5435.58055
515.269	5479.35978
515.477	5554.38574
515.684	5791.76636
515.892	5508.54017
516.099	5689.77191
516.307	5487.6975
516.514	5845.86285
516.722	5729.32751
516.929	5822.97782
517.136	5664.78504
517.344	5835.46092
517.551	5773.03693
517.759	5893.70414
517.966	5902.02309
518.173	5879.14507
518.381	5537.71594
518.588	6072.47845
518.796	6045.46561
519.003	6182.56662
519.21	6097.40986
519.418	6116.10619
519.625	5989.34929
519.832	6001.82107
520.039	6168.03045
520.247	6178.41354
520.454	6238.62391
520.661	6126.49222
520.868	6122.33788
521.076	6493.78037
521.283	6087.02218
521.49	6460.60923
521.697	6298.81457
521.904	6290.51358
522.112	6078.71162
522.319	6361.06007
522.526	6219.94004
522.733	6531.09081
522.94	6454.38898
523.147	6580.82638
523.354	6377.65533
523.561	6551.81558
523.768	6485.48814
523.975	6568.39374
524.183	6419.13693
524.39	6560.10485
524.597	6564.24934
524.804	6732.02378
525.011	6589.11435
525.218	6988.57305
525.425	6825.16676
525.632	6783.77559
525.838	6800.33316
526.045	6990.64058
526.252	6611.90436
526.459	7011.31463
526.666	7009.24733
526.873	6949.2857
527.08	6990.64058
527.287	6909.9902
527.494	6721.6717
527.701	7288.13152
527.907	7007.18
528.114	7124.98186
528.321	6955.48951
528.528	7205.54136
528.735	7184.8883
528.941	7240.64649
529.148	6930.67306
529.355	7337.66872
529.562	6974.09971
529.768	7407.82485
529.975	7034.0535
530.182	7306.70945
530.388	6994.77557
530.595	7403.69872
530.802	7261.29359
531.008	7354.17831
531.215	7321.15772
531.422	7634.62929
531.628	7420.20273
531.835	7378.94009
532.042	7389.25656
532.248	7758.23206
532.455	7290.19582
532.661	7591.35031
532.868	7704.68019
533.074	7789.12093
533.281	7447.0188
533.487	7723.21899
533.694	7941.43752
533.9	7817.94629
534.107	7688.19983
534.313	7778.82516
534.52	7725.27875
534.726	7974.35599
534.933	7737.63687
535.139	7824.12262
535.345	7737.63687
535.552	7815.88747
535.758	8149.14821
535.965	8142.98155
536.171	7797.35716
536.377	8210.80494
536.584	7988.75618
536.79	7992.87034
536.996	8140.92595
537.203	7980.52763
537.409	8225.18894
537.615	8297.09443
537.821	7830.29877
538.028	8352.54798
538.234	8173.81305
538.44	8198.47502
538.646	8140.92595
538.853	8260.11747
539.059	8198.47502
539.265	8572.1701
539.471	8276.55246
539.677	8387.4559
539.883	8414.14642
540.09	8477.77993
540.296	8494.1985
540.502	8666.52046
540.708	8440.83368
540.914	8660.36838
541.12	8483.93704
541.326	8746.4824
541.532	8771.08045
541.738	8592.68442
541.944	8572.1701
542.15	8842.80981
542.356	8684.9757
542.562	8769.03071
542.768	8705.47978
542.974	8971.8672
543.18	8746.4824
543.386	8916.56555
543.592	8951.38661
543.798	9018.96587
544.004	9121.32245
544.21	9272.73162
544.415	8965.72321
544.621	9317.7274
544.827	9190.90035
545.033	9164.29937
545.239	9078.33796
545.445	9276.82248
545.651	8785.4281
545.856	9358.62569
546.062	9174.53086
546.268	9186.80808
546.474	9104.9483
546.679	9174.53086
546.885	8965.72321
547.091	9145.88161
547.297	9098.80772
547.502	9104.9483
547.708	8914.51709
547.914	9211.3607
548.119	9203.17676
548.325	9370.8939
548.531	8988.2504
548.736	9338.17737
548.942	8988.2504
549.147	9160.20665
549.353	9440.40261
549.559	9334.08751
549.764	9358.62569
549.97	9462.8867
550.175	9401.56182
550.381	9681.49525
550.586	9456.75487
550.792	9834.61991
550.997	9599.79351
551.203	9738.67178
551.408	9897.88678
551.614	9795.83638
551.819	9850.94821
552.025	9783.58782
552.23	9648.81754
552.435	9999.90041
552.641	10050.89369
552.846	10040.69575
553.052	9744.79713
553.257	9795.83638
553.462	9991.74065
553.668	10128.38651
553.873	9916.25192
554.078	10207.89766
554.283	10042.73536
554.489	10057.01228
554.694	9873.39807
554.899	10118.19124
555.105	10214.01303
555.31	10177.31893
555.515	10199.74363
555.72	10079.44604
555.925	9981.54063
556.131	10332.21962
556.336	10022.33855
556.541	10226.24341
556.746	10326.1066
556.951	10307.7668
557.156	10024.3783
557.361	9859.112
557.567	10383.15688
557.772	10326.1066
557.977	10350.55799
558.182	10531.8471
558.387	10324.06889
558.592	10326.1066
558.797	10342.40773
559.002	10277.19806
559.207	10342.40773
559.412	10403.52948
559.617	10509.44609
559.822	10641.79365
560.027	10397.41783
560.232	10605.14883
560.437	10625.50756
560.642	10680.46998
560.847	10757.80954
561.051	10723.21241
561.256	10584.78886
561.461	10676.399
561.666	10631.61494
561.871	10843.27013
562.076	10692.68265
562.281	10749.66935
562.485	10560.35526
562.69	10684.54092
562.895	10745.59918
563.1	10816.82025
563.305	10584.78886
563.509	11014.13031
563.714	10930.74426
563.919	10704.89488
564.123	10888.02699
564.328	11140.19112
564.533	10656.04334
564.737	10894.12976
564.942	10788.33356
565.147	10908.36917
565.351	11081.23239
565.556	10928.71022
565.761	10715.0714
565.965	10977.52412
566.17	11282.4687
566.374	11180.84709
566.579	10947.01619
566.784	11148.32265
566.988	11058.86635
567.193	11278.40433
567.397	10983.6254
567.602	11193.04305
567.806	11042.59932
568.011	11304.82201
568.215	10987.69287
568.42	11180.84709
568.624	11225.56379
568.828	11349.52495
569.033	11144.25691
569.237	11365.77937
569.442	11353.58862
569.646	11280.43652
569.85	11329.20603
570.055	11544.53673
570.259	11312.95018
570.463	11209.30376
570.668	11191.01042
570.872	11036.499
571.076	11241.82316
571.281	11469.38647
571.485	11554.69118
571.689	11507.97876
571.893	11483.60508
572.098	11629.82691
572.302	11414.53881
572.506	11611.55181
572.71	11266.21098
572.914	11656.22298
573.119	11432.82215
573.323	11652.16215
573.527	11696.82936
573.731	11897.77956
573.935	11593.27597
574.139	11857.19028
574.343	11552.6603
574.547	11688.70837
574.751	11621.70474
574.955	11808.47871
575.159	11477.51145
575.364	11579.06091
575.568	11741.49226
575.772	11916.04366
575.976	12064.16163
576.18	11861.24936
576.383	11907.92637
576.587	11889.66197
576.791	11583.1224
576.995	11851.1016
577.199	11926.19009
577.403	11972.86106
577.607	11972.86106
577.811	11962.71557
578.015	11816.59765
578.219	12037.78755
578.422	11924.16082
578.626	12206.15375
578.83	12070.24777
579.034	11999.23843
579.238	12031.70103
579.442	12281.1921
579.645	12056.04666
579.849	12287.27587
580.053	12485.978
580.257	12335.94368
580.46	12214.26648
580.664	12378.52474
580.868	12125.01992
581.071	12127.04841
581.275	12011.41214
581.479	12386.63507
581.682	12224.40723
581.886	12477.86897
582.09	12378.52474
582.293	12613.68183
582.497	12494.08693
582.7	12396.77284
582.904	12297.41533
583.107	12441.37702
583.311	12297.41533
583.515	12187.89967
583.718	12242.66013
583.922	12297.41533
584.125	12435.29483
584.329	12457.59593
584.532	12621.78918
584.735	12542.73835
584.939	12500.16856
585.142	12810.25822
585.346	12490.03248
585.549	12623.816
585.753	12447.45916
585.956	12972.34349
586.159	12629.89642
586.363	12739.3349
586.566	12597.46685
586.769	12907.51346
586.973	12528.54873
587.176	12625.84281
587.379	12633.95001
587.582	12935.87725
587.786	12692.72432
587.989	12950.05877
588.192	12852.80893
588.395	12832.54699
588.599	12905.48744
588.802	13057.42499
589.005	12877.12254
589.208	12923.72147
589.411	13000.70497
589.615	13099.9625
589.818	12800.12674
590.021	12988.55017
590.224	13209.33514
590.427	13033.11689
590.63	13081.7324
590.833	13029.06547
591.036	13069.57878
591.239	13089.83471
591.442	12824.44206
591.645	12970.31763
591.848	13087.80914
592.051	12966.2659
592.254	13164.77753
592.457	13385.51962
592.66	13012.85959
592.863	13411.84335
593.066	13324.76994
593.269	13387.54455
593.472	13365.27013
593.675	13608.23874
593.878	13480.68693
594.081	13302.49413
594.284	13152.62508
594.486	13571.79681
594.689	13521.18112
594.892	13504.98362
595.095	13314.64464
595.298	13681.1193
595.5	13504.98362
595.703	13717.55799
595.906	13618.3613
596.109	13668.97284
596.311	13602.16516
596.514	13561.67385
596.717	13529.27978
596.92	13922.00144
597.122	13745.89849
597.325	13946.28985
597.528	13869.37522
597.73	14215.46329
597.933	13788.40811
598.136	14130.46543
598.338	13691.24126
598.541	13806.62611
598.743	14104.15581
598.946	13703.38751
599.148	13703.38751
599.351	13794.4808
599.554	13924.02549
599.756	13879.49579
599.959	13768.1656
600.161	14011.05715
600.363	13798.52925
600.566	14340.93008
600.768	14110.22729
600.971	14231.65295
601.173	13836.98893
601.376	14033.32033
601.578	13907.83302
601.78	14081.89353
601.983	14039.39205
602.185	13786.38387
602.388	13849.13387
602.59	14067.72648
602.792	13998.91348
602.995	14221.53443
603.197	14085.94124
603.399	14124.39401
603.601	14257.9609
603.804	14146.65578
604.006	14259.98457
604.208	14134.51303
604.41	13994.86557
604.613	14075.82195
604.815	14059.63098
605.017	14219.51072
605.219	13980.6978
605.421	14154.7509
605.623	14027.24858
605.826	14535.18886
606.028	14284.26853
606.23	14379.37824
606.432	14128.44162
606.634	14268.07925
606.836	14225.58184
607.038	14612.07954
607.24	14666.71141
607.442	14431.99058
607.644	14397.59032
607.846	14719.31921
608.048	14415.80228
608.25	14771.92641
608.452	14375.33109
608.654	14488.6489
608.856	14144.63199
609.058	14431.99058
609.26	14296.4104
609.462	14391.51964
609.664	14450.2023
609.866	14142.6082
610.067	14170.94105
610.269	14666.71141
610.471	14381.40181
610.673	14450.2023
610.875	14324.74121
611.077	14373.30752
611.278	14211.41585
611.48	14355.09526
611.682	14486.62541
611.884	14401.63743
612.085	14344.97729
612.287	14670.75819
612.489	14397.59032
612.69	14486.62541
612.892	14468.41391
613.094	14703.13226
613.295	14440.08469
613.497	14808.34647
613.699	13930.09762
613.9	14456.27285
614.102	14458.29637
614.304	14672.78158
614.505	14531.14194
614.707	14802.27648
614.908	14419.84936
615.11	14516.97765
615.311	14753.71629
615.513	14741.57617
615.714	14571.61097
615.916	14739.55281
616.117	14282.24487
616.319	14436.03764
616.52	14476.50792
616.722	14686.94525
616.923	14423.89644
617.124	14506.86027
617.326	14423.89644
617.527	14504.83679
617.729	14294.38676
617.93	14858.92953
618.131	14806.32314
618.333	14549.35306
618.534	14638.38387
618.735	14713.24911
618.937	14614.10296
619.138	14717.29584
619.339	14525.07154
619.54	14417.82582
619.742	14569.58753
619.943	14502.81331
620.144	14450.2023
620.345	14717.29584
620.546	14504.83679
620.748	14656.59446
620.949	14589.82188
621.15	14850.83627
621.351	14858.92953
621.552	14765.85637
621.753	14419.84936
621.954	14571.61097
622.155	14405.68454
622.356	14713.24911
622.558	14935.81509
622.759	14684.92187
622.96	14557.44687
623.161	14808.34647
623.362	14767.87972
623.563	14895.3491
623.764	14545.30616
623.965	14832.62639
624.166	14723.36593
624.366	14939.86168
624.567	14755.73964
624.768	14723.36593
624.969	14595.89217
625.17	14769.90306
625.371	14660.64124
625.572	14539.23578
625.773	14488.6489
625.973	14826.55642
626.174	14525.07154
626.375	15136.11978
626.576	14719.31921
626.777	14808.34647
626.977	14654.57106
627.178	15014.7233
627.379	14741.57617
627.58	14711.22574
627.78	14891.30249
627.981	14749.66958
628.182	14901.41901
628.382	15204.91098
628.583	14686.94525
628.784	14725.3893
628.984	14516.97765
629.185	14842.74299
629.386	14452.22582
629.586	14808.34647
629.787	14808.34647
629.987	14632.31366
630.188	14771.92641
630.388	15134.09651
630.589	14450.2023
630.79	14929.7452
630.99	14743.59952
631.191	14850.83627
631.391	14759.78633
631.591	15014.7233
631.792	15111.84053
631.992	15251.44625
632.193	15196.8179
632.393	15115.88707
632.594	14883.20926
632.794	14933.79179
632.994	14757.76299
633.195	14990.4439
633.395	15142.18959
633.595	15093.63107
633.796	15030.90954
633.996	15229.19025
634.196	14988.42062
634.397	15253.46952
634.597	14952.00143
634.797	15107.79398
634.997	14895.3491
635.198	14891.30249
635.398	14927.7219
635.598	15113.8638
635.798	15043.0492
635.998	14986.39734
636.199	15217.05061
636.399	15474.00817
636.599	14939.86168
636.799	14984.37405
636.999	14589.82188
637.199	14952.00143
637.399	15109.81725
637.599	15164.44557
637.799	14840.71967
637.999	15328.33081
638.199	15115.88707
638.399	15330.35409
638.599	15170.51538
638.799	15548.87119
638.999	15156.35249
639.199	15314.16784
639.399	15140.16632
639.599	15128.0267
639.799	15047.09576
639.999	15297.9816
640.199	15063.28197
640.399	15259.53935
640.599	14626.24343
640.799	15350.58694
640.998	15243.35316
641.198	15492.21802
641.398	15172.53865
641.598	15500.3113
641.798	15435.56531
641.997	15526.61453
642.197	15182.655
642.397	15463.89161
642.597	15249.42298
642.796	15439.61192
642.996	15245.37643
643.196	15261.56262
643.395	14915.58212
643.595	14889.27918
643.795	15441.63522
643.994	15372.84311
644.194	15204.91098
644.394	15208.95753
644.593	15324.28425
644.793	15536.73118
644.992	15182.655
645.192	15328.33081
645.392	15202.88771
645.591	15563.03457
645.791	15451.75176
645.99	15516.49789
646.19	14980.32748
646.389	15261.56262
646.589	15229.19025
646.788	15075.42161
646.987	15451.75176
647.187	15431.5187
647.386	15387.00615
647.586	15401.16921
647.785	15668.24937
647.984	15712.76401
648.184	15603.50154
648.383	15471.98486
648.582	15095.65435
648.782	15658.13246
648.981	15407.2391
649.18	15565.05791
649.38	15718.83423
649.579	15900.94509
649.778	15344.51708
649.977	15650.03895
650.177	15354.63351
650.376	15641.94546
650.575	15283.81866
650.774	15397.12262
650.973	15720.85763
651.173	15684.43646
651.372	15142.18959
651.571	15522.56787
651.77	15241.32988
651.969	15563.03457
652.168	15546.84786
652.367	15399.14592
652.566	15643.96883
652.765	16048.66459
652.964	15759.30255
653.163	15759.30255
653.362	15925.22726
653.561	15830.12312
653.76	15755.2557
653.959	15773.46656
654.158	15900.94509
654.357	15700.62361
654.556	15449.72845
654.755	15813.93544
654.954	15692.53003
655.153	15811.91199
655.352	15536.73118
655.551	15811.91199
655.749	15542.80118
655.948	15830.12312
656.147	15886.78058
656.346	15981.88638
656.545	15832.14658
656.743	15714.78742
656.942	15554.9412
657.141	15902.9686
657.34	15753.23227
657.538	15981.88638
657.737	16010.21634
657.936	15815.9589
658.135	15676.3429
658.333	15913.08615
658.532	15609.57162
658.731	15678.36629
658.929	15789.65406
659.128	15805.84163
659.326	15824.05273
659.525	15836.19352
659.724	15690.50663
659.922	15658.13246
660.121	15587.31472
660.319	16062.82987
660.518	15872.61612
660.716	15969.74505
660.915	15809.88853
661.113	16196.39196
661.312	16014.2635
661.51	16119.49173
661.709	15994.02776
661.907	15854.40477
662.105	15874.63961
662.304	16111.3971
662.502	15708.71721
662.701	16008.19276
662.899	15781.5603
663.097	16218.653
663.296	15739.06834
663.494	16079.01885
663.692	16038.54658
663.891	15854.40477
664.089	15896.89808
664.287	15876.6631
664.485	15815.9589
664.684	15817.98235
664.882	15550.89453
665.08	15884.75708
665.278	15696.57682
665.476	15822.02927
665.675	15536.73118
665.873	15623.73515
666.071	15465.91492
666.269	15726.92786
666.467	15868.56915
666.665	16002.12204
666.863	15763.3494
667.061	15880.71009
667.259	15787.63062
667.457	16006.16919
667.655	15710.74061
667.853	16070.92435
668.051	16064.85349
668.249	16232.81923
668.447	15801.79473
668.645	15514.47456
668.843	15803.81818
669.041	15672.29613
669.239	15913.08615
669.437	15989.98062
669.635	15927.25078
669.833	15858.45173
670.031	15759.30255
670.229	15832.14658
670.426	15862.49869
670.624	16192.34452
670.822	15627.78188
671.02	15793.70094
671.218	15512.45124
671.415	15765.37283
671.613	15571.12794
671.811	15433.54201
672.009	15204.91098
672.206	15933.32135
672.404	15650.03895
672.602	15811.91199
672.799	15581.24467
672.997	15482.10143
673.195	15415.3323
673.392	15761.32597
673.59	15526.61453
673.788	15688.48324
673.985	15506.38127
674.183	15989.98062
674.38	15763.3494
674.578	15751.20885
674.775	15528.63786
674.973	15757.27912
675.17	15585.29137
675.368	15658.13246
675.565	15615.6417
675.763	15567.08125
675.96	15502.33462
676.158	15310.12128
676.355	15391.05274
676.553	15983.90994
676.75	15126.00343
676.947	15237.28334
677.145	15275.72555
677.342	15251.44625
677.539	15279.7721
677.737	15741.09175
677.934	15520.54454
678.131	15498.28798
678.329	15374.8664
678.526	15431.5187
678.723	15144.21286
678.92	15287.86521
679.118	14988.42062
679.315	15253.46952
679.512	15445.68184
679.709	15463.89161
679.906	15235.26006
680.104	15295.95832
680.301	15079.46816
680.498	15348.56366
680.695	15441.63522
680.892	15607.54826
681.089	15148.2594
681.286	15631.82861
681.483	14856.90621
681.68	15449.72845
681.877	15126.00343
682.075	15198.84117
682.272	14952.00143
682.469	15380.93628
682.665	15215.02734
682.862	15101.72416
683.059	15291.91177
683.256	15194.79463
683.453	15247.3997
683.65	15235.26006
683.847	14838.69635
684.044	14822.50977
684.241	15387.00615
684.438	15318.2144
684.635	14773.94975
684.831	15111.84053
685.028	14919.62871
685.225	15257.51607
685.422	14921.65201
685.619	14935.81509
685.815	15150.28267
686.012	14945.93156
686.209	14986.39734
686.405	15069.35179
686.602	14937.83838
686.799	15030.90954
686.996	15308.098
687.192	15352.61023
687.389	14966.16447
687.586	15123.98015
687.782	14935.81509
687.979	14941.88497
688.175	14747.64623
688.372	15093.63107
688.568	14682.89849
688.765	14929.7452
688.962	14927.7219
689.158	14909.51222
689.355	14952.00143
689.551	14869.04609
689.748	14723.36593
689.944	15032.93281
690.14	15051.14231
690.337	15061.25869
690.533	14960.0946
690.73	14956.04802
690.926	15043.0492
691.123	14672.78158
691.319	14672.78158
691.515	14858.92953
691.712	14427.94351
691.908	14247.8425
692.104	14231.65295
692.301	14723.36593
692.497	14597.91559
692.693	14695.03876
692.889	14883.20926
693.086	14864.99947
693.282	14735.5061
693.478	14885.23257
693.674	14472.46092
693.87	14893.32579
694.067	14709.20237
694.263	14711.22574
694.459	14727.41266
694.655	14984.37405
694.851	14581.72816
695.047	14603.98586
695.243	14431.99058
695.439	14371.28394
695.635	14294.38676
695.831	14209.39213
696.027	14379.37824
696.224	14393.5432
696.42	14429.96705
696.615	14652.54767
696.811	14464.3669
697.007	14421.8729
697.203	14045.46375
697.399	14328.78844
697.595	14023.20074
697.791	14300.45768
697.987	14089.98894
698.183	14460.31988
698.379	14213.43957
698.575	14061.65486
698.77	14120.34639
698.966	14087.96509
699.162	14197.24976
699.358	14365.2132
699.554	13796.50503
699.749	14009.03321
699.945	13930.09762
700.141	14292.36312
700.337	14061.65486
700.532	14573.63441
700.728	14154.7509
700.924	14363.18961
701.119	14203.32096
701.315	14067.72648
701.511	14096.06047
701.706	14241.77143
701.902	14073.79809
702.097	13901.7608
702.293	14092.01278
702.489	13885.5681
702.684	13889.61629
702.88	14187.13107
703.075	13879.49579
703.271	14098.0843
703.466	13851.15802
703.662	14298.43404
703.857	14039.39205
704.053	14314.6231
704.248	13976.64984
704.443	14053.55932
704.639	13917.95333
704.834	14037.36814
705.03	13928.07358
705.225	14089.98894
705.42	14144.63199
705.616	14059.63098
705.811	13865.32697
706.006	14264.03192
706.202	14255.93722
706.397	13913.90521
706.592	14096.06047
706.787	13820.79551
706.983	13735.77695
707.178	14083.91739
707.373	14255.93722
707.568	14324.74121
707.763	13932.12165
707.959	14102.13198
708.154	13895.68856
708.349	13897.71264
708.544	13713.5093
708.739	13743.87419
708.934	13879.49579
709.129	13980.6978
709.324	13614.31229
709.519	13699.33878
709.714	13440.19125
709.909	13855.2063
710.104	13428.04224
710.299	13428.04224
710.494	13662.89956
710.689	13683.1437
710.884	13590.01792
711.079	13901.7608
711.274	13529.27978
711.469	13903.78488
711.664	13628.48378
711.859	13602.16516
712.054	13498.9095
712.249	13270.09204
712.443	13290.34348
712.638	13573.82139
712.833	13784.35963
713.028	13897.71264
713.223	13476.63743
713.417	13551.5508
713.612	13602.16516
713.807	13796.50503
714.002	13116.1667
714.196	13573.82139
714.391	13640.63063
714.586	13373.36998
714.78	13205.28454
714.975	13369.32006
715.17	13338.9452
715.364	13735.77695
715.559	13160.72673
715.754	13529.27978
715.948	12822.41581
716.143	13031.09118
716.337	12972.34349
716.532	13310.59449
716.726	13031.09118
716.921	13075.65561
717.115	13342.99523
717.31	13509.03302
717.504	13480.68693
717.699	13211.36043
717.893	13101.98804
718.088	13413.86823
718.282	13359.19521
718.476	13207.30984
718.671	13367.2951
718.865	13199.2086
719.059	12960.18826
719.254	13025.01403
719.448	13160.72673
719.642	13270.09204
719.837	12842.67802
720.031	13201.23392
720.225	13006.7823
720.419	13316.66971
720.614	13043.24535
720.808	12946.00693
721.002	12844.70422
721.196	13126.29418
721.39	13110.09016
721.585	13081.7324
721.779	13031.09118
721.973	13152.62508
722.167	12808.23193
722.361	12966.2659
722.555	12877.12254
722.749	12613.68183
722.943	12386.63507
723.137	12321.74932
723.331	12455.56859
723.525	12690.6977
723.719	12410.96543
723.913	12804.17935
724.107	12459.62326
724.301	12498.14136
724.495	12449.48653
724.689	12706.91047
724.883	12510.30448
725.077	12747.44077
725.271	12787.96878
725.465	12729.20242
725.659	12396.77284
725.853	12856.86125
726.046	12575.1706
726.24	12783.91608
726.434	12577.19756
726.628	12826.4683
726.822	12449.48653
727.015	12621.78918
727.209	12285.24795
727.403	12380.55233
727.596	12374.46953
727.79	12346.0823
727.984	12558.95468
728.177	12613.68183
728.371	12629.89642
728.565	12777.83699
728.758	12445.43179
728.952	12202.09734
729.146	12273.08032
729.339	12287.27587
729.533	12408.93794
729.726	12443.40441
729.92	12342.02687
730.113	12453.54124
730.307	12331.88818
730.5	12461.65059
730.694	12575.1706
730.887	12548.81952
731.081	12585.30535
731.274	12796.07411
731.468	12508.27731
731.661	12767.70506
731.854	12779.86336
732.048	12490.03248
732.241	12266.99641
732.435	12471.78713
732.628	12668.40452
732.821	12504.22295
733.014	12591.38613
733.208	12390.6902
733.401	12321.74932
733.594	12191.95618
733.788	12236.57589
733.981	12366.35903
734.174	12410.96543
734.367	12467.73253
734.56	12708.93704
734.754	12483.95075
734.947	12331.88818
735.14	12228.46348
735.333	12544.76541
735.526	12502.19576
735.719	12234.5478
735.912	12672.45788
736.105	12483.95075
736.298	12459.62326
736.491	12392.71776
736.684	12143.27607
736.877	12271.05236
737.07	12204.12554
737.263	12378.52474
737.456	12672.45788
737.649	12281.1921
737.842	12453.54124
738.035	12504.22295
738.228	12690.6977
738.421	12575.1706
738.614	12629.89642
738.807	12337.97142
739	12122.99142
739.192	12317.69372
739.385	12155.4465
739.578	12218.3228
739.771	12027.64332
739.964	11717.13121
740.156	12264.96843
740.349	11946.48235
740.542	12033.72988
740.735	12027.64332
740.927	12137.19075
741.12	12110.82026
741.313	12459.62326
741.505	12212.23831
741.698	12329.86042
741.891	12151.38972
742.083	12118.9344
742.276	12224.40723
742.468	12088.50577
742.661	11656.22298
742.854	12127.04841
743.046	12003.29636
743.239	11893.72078
743.431	11928.21935
743.624	11940.39476
743.816	12017.49889
744.009	11869.36742
744.201	11532.35108
744.393	12173.70164
744.586	12037.78755
744.778	11725.2517
744.971	11972.86106
745.163	11936.33632
745.355	11944.45316
745.548	11932.27785
745.74	11662.31417
745.932	11516.10302
746.125	11583.1224
746.317	11845.01285
746.509	11796.30006
746.702	11704.9502
746.894	11688.70837
747.086	11828.77579
747.278	11832.83511
747.471	11713.07091
747.663	11591.24527
747.855	11828.77579
748.047	11816.59765
748.239	11818.62736
748.431	11658.25339
748.623	11920.10226
748.815	11428.75925
749.008	11623.73529
749.2	11591.24527
749.392	11706.98039
749.584	11688.70837
749.776	11948.51153
749.968	11339.36562
750.16	11773.97172
750.352	11390.1598
750.544	11623.73529
750.736	11737.43217
750.928	11704.9502
751.12	11633.88795
751.311	11940.39476
751.503	11924.16082
751.695	11909.9557
751.887	11505.94767
752.079	11542.50581
752.271	11436.88501
752.463	11619.67417
752.654	11536.413
752.846	11808.47871
753.038	11605.45994
753.23	11394.22307
753.421	11514.07197
753.613	11623.73529
753.805	11597.33733
753.997	11457.19871
754.188	11530.3201
754.38	11333.2699
754.572	11312.95018
754.763	11276.37213
754.955	11103.59711
755.146	11087.33199
755.338	11158.48683
755.53	11156.45402
755.721	11566.87621
755.913	11382.03315
756.104	11038.53245
756.296	11258.08187
756.487	11308.88611
756.679	11447.04198
756.87	11335.30182
757.062	11457.19871
757.253	11416.57033
757.445	11172.71623
757.636	11223.53132
757.827	11103.59711
758.019	11140.19112
758.21	11111.72941
758.401	10869.71804
758.593	10916.50573
758.784	11054.79966
758.975	11280.43652
759.167	11233.69356
759.358	11260.11416
759.549	10875.82112
759.74	11229.62869
759.932	10995.82767
760.123	11010.06314
760.314	10947.01619
760.505	10804.61195
760.696	10639.75793
760.888	10513.51912
761.079	10519.62856
761.27	10639.75793
761.461	10735.42355
761.652	10519.62856
761.843	10234.39672
762.034	10509.44609
762.225	10493.15349
762.416	10556.28281
762.607	10334.25727
762.798	10729.31804
762.989	10782.22897
763.18	10370.93269
763.371	10460.56583
763.562	10395.38059
763.753	10578.68063
763.944	10607.18476
764.135	10185.47356
764.326	10470.74982
764.517	10472.78659
764.708	10375.00747
764.899	10324.06889
765.089	10460.56583
765.28	10566.46383
765.471	10346.48289
765.662	10454.45528
765.853	10379.0822
766.043	10267.0078
766.234	10195.66654
766.425	10054.97277
766.615	10016.21923
766.806	10399.45506
766.997	10403.52948
767.187	10387.2315
767.378	10299.61543
767.569	10173.24154
767.759	10356.67053
767.95	9985.62068
768.141	10081.48539
768.331	9897.88678
768.522	10061.09128
768.712	10118.19124
768.903	10144.6982
769.093	9940.73693
769.284	9946.85786
769.474	9993.78061
769.665	9752.96405
769.855	9477.19375
770.046	9995.82056
770.236	9673.3262
770.426	9791.75358
770.617	9738.67178
770.807	10077.40668
770.998	9869.31641
771.188	9656.98734
771.378	10085.56404
771.569	9556.89008
771.759	9624.30665
771.949	9808.08439
772.139	9914.21141
772.33	9687.62189
772.52	9779.50485
772.71	9706.00095
772.9	9730.50444
773.09	9930.5351
773.281	9708.04299
773.471	9799.91911
773.661	9530.32733
773.851	9646.77505
774.041	9761.13072
774.231	9840.74314
774.421	9440.40261
774.611	9399.51741
774.802	9403.60622
774.992	9607.9648
775.182	9280.91327
775.372	9444.49077
775.562	9188.85423
775.752	9612.05036
775.942	9327.95259
776.131	9362.71516
776.321	9436.31438
776.511	9248.18507
776.701	9313.63721
776.891	9556.89008
777.081	9272.73162
777.271	9088.57305
777.461	9219.54436
777.651	9086.52607
777.84	9178.62333
778.03	9225.68194
778.22	9057.86648
778.41	9006.68015
778.599	8769.03071
778.789	9070.14958
778.979	9154.06745
779.169	9194.99256
779.358	9137.6955
779.548	9295.23052
779.738	9076.29089
779.927	9237.95662
780.117	9076.29089
780.307	8978.01103
780.496	8935.00087
780.686	9272.73162
780.875	8851.00604
781.065	9123.36914
781.254	8766.98096
781.444	8990.29822
781.633	8902.22597
781.823	9010.77546
782.012	8916.56555
782.202	8986.20256
782.391	8613.19686
782.581	8385.40265
782.77	8658.31765
782.96	8623.45237
783.149	8490.09397
783.338	8555.7573
783.528	8543.4469
783.717	8444.93913
783.906	8459.30758
784.096	8412.09342
784.285	8563.96385
784.474	8539.34328
784.663	8549.60218
784.853	8627.55445
785.042	8469.57019
785.231	8449.0445
785.42	8081.30503
785.61	8346.38717
785.799	8219.02449
785.988	8136.81471
786.177	7927.03404
786.366	8186.1444
786.555	8099.80988
786.744	7992.87034
786.933	7885.87567
787.122	7978.47044
787.312	8112.14555
787.501	8151.20372
787.69	8286.82369
787.879	8518.82406
788.068	8130.64769
788.257	8056.62935
788.445	7894.108
788.634	8399.77501
788.823	8297.09443
789.012	8132.70338
789.201	7927.03404
789.39	8210.80494
789.579	8052.51645
789.768	8334.06504
789.957	8118.31311
790.145	8007.26924
790.334	8145.03712
790.523	7867.35171
790.712	7939.37994
790.9	8169.70244
791.089	7743.81565
791.278	8064.8549
791.467	7677.89891
791.655	8112.14555
791.844	7999.04142
792.033	7955.84
792.221	7772.64745
792.41	7834.41609
792.599	7486.20492
792.787	7815.88747
792.976	7651.11406
793.164	7712.91987
793.353	7638.75061
793.541	7758.23206
793.73	7576.92189
793.918	7513.01199
794.107	7477.95586
794.295	7576.92189
794.484	7496.51576
794.672	7632.5686
794.861	7605.77768
795.049	7815.88747
795.238	7684.07952
795.426	7719.0994
795.614	7628.44716
795.803	7863.23505
795.991	7521.25959
796.179	7675.83867
796.368	7477.95586
796.556	7510.95004
796.744	7447.0188
796.932	7471.76884
797.121	7184.8883
797.309	7230.32212
797.497	7201.41093
797.685	7467.64405
797.874	7143.57551
798.062	7333.5411
798.25	7096.0548
798.438	7308.77356
798.626	7122.91578
798.814	7453.2066
799.002	6854.13516
799.19	7255.09969
799.378	7201.41093
799.566	7141.50964
799.755	6967.89651
799.943	7135.31189
800.131	7073.32333
800.318	7143.57551
800.506	7104.32012
800.694	7058.85644
800.882	7027.85226
801.07	7139.44374
801.258	6930.67306
801.446	7112.58508
801.634	6994.77557
801.822	7195.21511
802.01	7060.92321
802.197	7426.39138
802.385	7052.65601
802.573	7362.43259
802.761	6969.96427
802.949	7364.4961
803.136	7029.91936
803.324	6992.70808
803.512	7050.58915
803.699	7091.92201
803.887	7108.45265
804.075	7222.06222
804.262	7143.57551
804.45	7403.69872
804.638	7273.68079
804.825	7494.45364
805.013	7209.67171
805.201	7347.98738
805.388	6998.91047
805.576	7176.62645
805.763	7007.18
805.951	7277.80968
806.138	7246.84085
806.326	7189.01909
806.513	6982.37032
806.701	7284.00285
806.888	7492.39149
807.075	7578.98315
807.263	7147.70719
807.45	7310.83764
807.638	7133.24593
807.825	7447.0188
808.012	6928.60488
808.2	6849.99709
808.387	6934.80936
808.574	6870.68653
808.761	7081.58963
808.949	7199.34568
809.136	6986.50549
809.323	7246.84085
809.51	7031.98644
809.698	7385.13004
809.885	6736.16445
810.072	7114.65127
810.259	7050.58915
810.446	7044.38845
810.633	6936.87748
810.82	7023.71799
811.008	6938.94557
811.195	7065.05667
811.382	6945.14972
811.569	7397.50935
811.756	7145.64136
811.943	7323.22167
812.13	7023.71799
812.317	7065.05667
812.504	6912.05859
812.691	7052.65601
812.878	7067.12337
813.064	7457.33169
813.251	7217.93214
813.438	7424.32852
813.625	6982.37032
813.812	7205.54136
813.999	7269.55181
814.186	7244.77609
814.372	7321.15772
814.559	7246.84085
814.746	7296.3886
814.933	7288.13152
815.12	7089.85558
815.306	7226.19221
815.493	7060.92321
815.68	6932.74122
815.866	6626.40564
816.053	7087.78913
816.24	7205.54136
816.426	7106.38639
816.613	7224.12723
816.799	7319.09375
816.986	7362.43259
817.173	7232.38704
817.359	6833.4439
817.546	7077.45653
817.732	6941.01364
817.919	7209.67171
818.105	6868.61768
818.292	7242.7113
818.478	7009.24733
818.665	7079.52309
818.851	6858.27314
819.037	7124.98186
819.224	6907.92179
819.41	6845.85893
819.597	6626.40564
819.783	7007.18
819.969	6754.79634
820.156	6845.85893
820.342	6974.09971
820.528	6800.33316
820.714	6680.25765
820.901	6734.09413
821.087	6796.1939
821.273	7118.78357
821.459	6777.56613
821.646	7031.98644
821.832	6655.40481
822.018	6636.763
822.204	6458.53583
822.39	6769.28653
822.576	6618.11933
822.762	6674.04475
822.948	6311.26535
823.134	6667.83164
823.32	6705.10718
823.507	7013.38192
823.693	6661.61833
823.879	6725.8126
824.065	6358.98556
824.25	6609.83266
824.436	6626.40564
824.622	6607.76093
824.808	6396.3232
824.994	6777.56613
825.18	6711.31905
825.366	6703.03652
825.552	6448.16851
825.738	6499.9993
825.923	6361.06007
826.109	6298.81457
826.295	6174.26038
826.481	6510.36371
826.667	6327.86509
826.852	6595.33009
827.038	6647.11979
827.224	6736.16445
827.409	6361.06007
827.595	6444.02142
827.781	6236.54802
827.966	6344.46333
828.152	6255.2302
828.338	6236.54802
828.523	6045.46561
828.709	6354.83647
828.894	6240.69978
829.08	6271.83498
829.266	6003.89961
829.451	6470.97585
829.637	6149.33941
829.822	6352.76189
830.008	6317.49043
830.193	6319.56541
830.378	6047.54366
830.564	6219.94004
830.749	6120.26067
830.935	6232.39616
831.12	6066.24507
831.305	6201.25428
831.491	5862.50472
831.676	6257.30588
831.861	6041.30943
832.047	6145.18559
832.232	5885.38481
832.417	5945.69139
832.602	5781.36136
832.788	6126.49222
832.973	5564.8036
833.158	6072.47845
833.343	5956.08707
833.528	6074.5562
833.714	5835.46092
833.899	5839.62176
834.084	5698.10011
834.269	6138.95467
834.454	5656.45533
834.639	6032.9968
834.824	5922.81882
835.009	6178.41354
835.194	6010.13511
835.379	6284.28759
835.564	5847.94317
835.749	5993.50664
835.934	5773.03693
836.119	5737.65391
836.304	5458.51382
836.489	5625.21555
836.674	5420.98517
836.859	5729.32751
837.044	5483.52869
837.228	5514.79251
837.413	5391.79096
837.598	5356.33465
837.783	5147.63124
837.968	5587.72081
838.152	5575.22086
838.337	5535.63211
838.522	5512.70842
838.707	5887.46468
838.891	5473.10624
839.076	5718.91896
839.261	5327.13025
839.445	5458.51382
839.63	5047.37087
839.815	5379.27774
839.999	5097.50774
840.184	5339.64699
840.368	5320.87157
840.553	5312.52633
840.737	5443.92025
840.922	5618.96696
841.106	5325.04405
841.291	5373.02082
841.475	5153.89574
841.66	5546.05103
841.844	5145.54303
842.029	5616.88405
842.213	5316.699
842.397	5350.07695
842.582	5347.99101
842.766	5354.24878
842.951	5174.77588
843.135	5304.18072
843.319	5193.56602
843.504	5024.38701
843.688	4993.04089
843.872	4944.96676
844.056	5064.08464
844.241	5229.05336
844.425	5003.49017
844.609	4903.15329
844.793	4957.50901
844.977	5091.24136
845.161	4589.26216
845.346	5049.46017
845.53	4857.14788
845.714	4932.42369
845.898	4838.3243
846.082	5045.28154
846.266	4769.28872
846.45	4957.50901
846.634	4647.8937
846.818	4855.05647
847.002	4687.66939
847.186	4917.78905
847.37	4704.41461
847.554	4580.8848
847.738	4580.8848
847.922	4763.01153
848.106	4932.42369
848.29	4819.49887
848.473	4723.25127
848.657	4708.6007
848.841	4631.14362
849.025	4844.59904
849.209	4702.32154
849.392	4677.20289
849.576	4526.42326
849.76	4666.73583
849.944	4580.8848
850.127	4727.43694
850.311	4564.129
850.495	4499.18688
850.678	4348.27201
850.862	4610.20401
851.046	4182.55583
851.229	4270.67474
851.413	4214.03118
851.596	4578.7904
851.78	4362.94925
851.964	4497.09162
852.147	4390.20416
852.331	4515.94817
852.514	4172.063
852.698	4339.88454
852.881	3911.67422
853.065	4471.94676
853.248	4224.5219
853.431	4367.14256
853.615	4123.78916
853.798	4440.51124
853.982	3890.66143
854.165	4411.16698
854.348	4182.55583
854.532	4182.55583
854.715	3888.56004
854.898	4224.5219
855.081	4041.90826
855.265	4264.38178
855.448	4033.50844
855.631	3972.59989
855.814	4027.20835
855.997	3903.26935
856.181	3636.25053
856.364	4159.47089
856.547	3810.79464
856.73	3999.90585
856.913	3772.95304
857.096	3932.685
857.279	3848.62985
857.462	4020.90809
857.645	3878.0528
857.828	4039.80834
858.011	3747.72178
858.194	3964.19737
858.377	3976.80104
858.56	4010.40723
858.743	3846.52806
858.926	4127.98732
859.109	3785.56761
859.292	3880.15429
859.475	3787.66997
859.658	3972.59989
859.841	3695.14771
860.023	3848.62985
860.206	3427.88971
860.389	3833.91692
860.572	3421.57297
860.755	3814.99887
860.937	3594.17203
861.12	3754.02986
861.303	3636.25053
861.486	3758.23515
861.668	3613.10829
861.851	3751.92719
862.034	3535.24959
862.216	3613.10829
862.399	3358.39677
862.581	3434.2063
862.764	3198.28097
862.947	3526.83092
863.129	3046.5045
863.312	3436.31179
863.494	3328.90916
863.677	3442.62816
863.859	3528.93562
864.042	3453.15509
864.224	3493.1533
864.406	3448.94437
864.589	3065.48106
864.771	3331.01553
864.954	3019.09171
865.136	3455.26042
865.318	3244.64031
865.501	3238.31906
865.683	3101.3222
865.865	3305.73794
866.048	3014.87413
866.23	3309.95105
866.412	3259.38932
866.594	3248.8544
866.777	3151.91365
866.959	3261.49625
867.141	3012.76531
867.323	3031.74409
867.505	3071.8063
867.687	3295.20489
867.869	3189.85114
868.052	3242.53324
868.234	2835.57188
868.416	3341.54712
868.598	2919.96258
868.78	3175.0983
868.962	2979.02222
869.144	3206.71054
869.326	3038.07007
869.508	3181.42104
869.69	3099.21403
869.872	3175.0983
870.054	3069.6979
870.236	3016.98293
870.417	3021.20048
870.599	2995.89425
870.781	2894.64778
870.963	2972.69496
871.145	3031.74409
871.327	2981.13127
871.508	2746.93758
871.69	2953.71237
871.872	2759.60109
872.054	3080.23973
872.235	2749.0482
872.417	3135.05086
872.599	2932.61919
872.78	3038.07007
872.962	2858.7816
873.144	2907.30544
873.325	2649.83501
873.507	3105.53851
873.689	2941.05664
873.87	3054.93868
874.052	2825.02145
874.233	2909.415
874.415	2863.00136
874.596	2812.36047
874.778	2611.83103
874.959	2632.94484
875.141	2599.16215
875.322	2818.69103
875.503	2499.90779
875.685	2803.91955
875.866	2654.05742
876.048	2852.45185
876.229	2787.03703
876.41	2768.04316
876.592	2810.25026
876.773	2886.20905
876.954	2556.92942
877.136	2903.08628
877.317	2717.38753
877.498	2854.56178
877.679	2582.26963
877.86	2873.55053
878.042	2624.49947
878.223	2863.00136
878.404	2592.82755
878.585	2746.93758
878.766	2599.16215
878.947	2787.03703
879.128	2685.72392
879.309	2841.90197
879.49	2738.49497
879.672	2898.86706
879.853	2624.49947
880.034	2651.94622
880.215	2459.77651
880.396	2776.48502
880.576	2565.37635
880.757	2662.5021
880.938	2544.25868
881.119	2810.25026
881.3	2670.94658
881.481	2894.64778
881.662	2854.56178
881.843	2850.3419
882.023	2698.38971
882.204	2886.20905
882.385	2721.60912
882.566	3086.56464
882.747	3012.76531
882.927	2850.3419
883.108	2852.45185
883.289	3181.42104
883.469	2886.20905
883.65	2894.64778
883.831	2732.16288
884.011	2974.80406
884.192	2651.94622
884.373	2713.16588
884.553	2597.05063
884.734	2915.74359
884.914	2702.61154
885.095	2945.27527
885.275	2820.80118
885.456	2708.94419
885.636	2651.94622
885.817	2926.29095
885.997	2734.27359
886.178	2995.89425
886.358	2860.89149
886.538	2962.14922
886.719	2778.59545
886.899	2863.00136
887.08	2835.57188
887.26	2945.27527
887.44	2533.6994
887.621	2924.18151
887.801	2654.05742
887.981	2858.7816
888.161	2751.1588
888.342	3010.65648
888.522	2810.25026
888.702	2905.19587
888.882	2624.49947
889.062	2839.79196
889.242	2565.37635
889.423	3082.34805
889.603	2810.25026
889.783	2987.45835
889.963	2778.59545
890.143	2928.40038
890.323	2694.16783
890.503	2658.27978
890.683	2516.80396
890.863	2831.35175
891.043	2774.37457
891.223	2814.47067
891.403	2881.9896
891.583	3092.8894
891.763	2624.49947
891.943	2915.74359
892.122	2744.82695
892.302	2873.55053
892.482	2687.83492
892.662	2599.16215
892.842	2780.70586
893.022	2793.36808
893.201	2616.05389
893.381	2856.67169
893.561	2814.47067
893.741	2831.35175
893.92	2523.13984
894.1	2797.58871
894.28	2611.83103
894.459	2776.48502
894.639	2493.57154
894.819	2628.72218
894.998	2702.61154
895.178	2723.7199
895.357	2565.37635
895.537	2493.57154
895.716	2261.17669
895.896	2573.82309
896.075	2383.72756
896.255	2770.15364
896.434	2563.26463
896.614	2854.56178
896.793	2584.38124
896.973	2689.9459
897.152	2282.30845
897.331	2620.2767
897.511	2483.0109
897.69	2611.83103
897.87	2320.34325
898.049	2413.30378
898.228	2280.19531
898.407	2333.02082
898.587	2237.93071
898.766	2288.64779
898.945	2172.41361
899.124	2377.38954
899.304	2089.9777
899.483	2297.10012
899.662	2015.98712
899.841	2288.64779
900.02	1916.61574
900.199	2288.64779
900.378	2068.83842
900.557	2335.13372
900.737	2328.795
900.916	2273.85586
901.095	2026.55773
901.274	2117.45765
901.453	2092.09159
901.632	2125.91276
901.811	2075.18028
901.989	2142.82261
902.168	1986.38856
902.347	1916.61574
902.526	1969.47454
902.705	2151.27734
902.884	1829.91994
903.063	1863.75345
903.242	1707.2643
903.42	1910.27244
903.599	1688.23045
903.778	1821.46137
903.957	1813.00273
904.135	1817.23206
904.314	1819.34672
904.493	1846.83685
904.672	1694.57509
904.85	1671.31127
905.029	1485.19163
905.207	1662.85161
905.386	1525.37746
905.565	1576.13799
905.743	1493.65183
905.922	1652.27698
906.1	1483.07658
906.279	1614.20782
906.457	1428.08524
906.636	1705.14944
906.814	1368.86405
906.993	1485.19163
907.171	1324.4487
907.35	1542.29771
907.528	1263.11449
907.707	1362.51897
907.885	1151.02701
908.063	1519.03235
908.242	1176.40445
908.42	1282.14905
908.598	1083.35688
908.777	1233.5056
908.955	1098.15931
909.133	1385.78433
909.311	1110.84729
909.49	1170.06004
909.668	1104.50328
909.846	1246.19506
910.024	1110.84729
910.202	1373.09412
910.38	1356.17389
910.559	1381.55426
910.737	1237.73541
910.915	1335.02372
911.093	1136.22377
911.271	1449.23576
911.449	1275.80418
911.627	1438.6605
911.805	1079.12766
911.983	1394.24449
912.161	1288.49394
912.339	1546.52777
912.517	1347.71381
912.695	1339.25374
912.872	1305.41376
913.05	1339.25374
913.228	1206.01215
913.406	1432.31534
913.584	1229.27581
913.762	1330.79371
913.939	1296.95383
914.117	1349.82882
914.295	1206.01215
914.473	1356.17389
914.65	1269.45932
914.828	1364.63399
915.006	1186.97855
915.184	1362.51897
915.361	1106.61795
915.539	1368.86405
915.716	1077.01306
915.894	1265.22943
916.072	1136.22377
916.249	1241.96523
916.427	1000.89111
916.604	1273.68922
916.782	1003.00551
916.959	1341.36876
917.137	1123.53545
917.314	1161.60087
917.492	1066.44013
917.669	1127.76487
917.847	1085.4715
918.024	1315.9887
918.201	1070.66929
918.379	1102.38862
918.556	1043.18016
918.733	1051.63825
918.911	890.95213
919.088	1003.00551
919.265	1041.06565
919.442	1129.87959
919.62	979.74753
919.797	1047.4092
919.974	907.86452
920.151	1068.55471
920.328	840.21813
920.506	992.4336
920.683	907.86452
920.86	967.06169
921.037	1000.89111
921.214	1104.50328
921.391	785.26206
921.568	1028.37872
921.745	937.46239
921.922	992.4336
922.099	730.31258
922.276	954.37611
922.453	690.1617
922.63	823.3079
922.807	647.90204
922.984	717.63293
923.161	611.98509
923.338	882.49613
923.514	694.38792
923.691	859.24281
923.868	791.60282
924.045	829.64917
924.222	694.38792
924.399	742.99261
924.575	647.90204
924.752	924.77741
924.929	685.93553
925.105	865.58452
925.282	637.33786
925.459	734.53922
925.635	624.66125
925.812	683.82246
925.989	679.59635
926.165	690.1617
926.342	704.95367
926.518	772.5808
926.695	630.9995
926.871	709.18005
927.048	504.25687
927.224	669.03129
927.401	626.77399
927.577	590.85917
927.754	538.05013
927.93	546.49901
928.107	565.50978
928.283	595.08425
928.459	552.83581
928.636	622.54853
928.812	573.95937
928.988	595.08425
929.165	546.49901
929.341	603.53457
929.517	502.14492
929.693	732.42589
929.87	489.47348
930.046	502.14492
930.222	417.67897
930.398	552.83581
930.574	400.78878
930.751	607.75981
930.927	557.06041
931.103	554.94811
931.279	514.81688
931.455	516.92892
931.631	430.34728
931.807	531.71362
931.983	447.23925
932.159	443.01617
932.335	394.45523
932.511	451.4624
932.687	375.45547
932.863	392.34408
933.039	299.47036
933.215	411.34503
933.391	407.12248
933.566	464.13222
933.742	335.34939
933.918	388.12183
934.094	362.78973
934.27	375.45547
934.445	282.58793
934.621	329.01742
934.797	244.60683
934.973	280.47771
935.148	295.24965
935.324	231.94784
935.5	223.5089
935.675	198.19399
935.851	265.70668
936.027	183.42829
936.202	269.92688
936.378	280.47771
936.553	196.08454
936.729	156.00896
936.904	141.24617
937.08	115.94096
937.255	153.89993
937.431	181.31899
937.606	73.77262
937.782	198.19399
937.957	139.13728
938.133	109.61514
938.308	103.28953
938.483	149.68192
938.659	130.70195
938.834	107.50658
939.009	71.66443
939.185	40.04444
939.36	153.89993
939.535	105.39804
939.71	84.31387
939.886	139.13728
940.061	96.96411
940.236	29.5056
940.411	-14.75104
940.586	103.28953
940.761	4.2148
940.937	143.35507
941.112	75.88082
941.287	94.85568
941.462	54.79979
941.637	52.69182
941.812	130.70195
941.987	-6.32202
942.162	92.74727
942.337	88.53052
942.512	113.83233
942.687	4.2148
942.862	46.36803
943.037	80.0973
943.212	115.94096
943.386	128.59318
943.561	109.61514
943.736	54.79979
943.911	65.34002
944.086	88.53052
944.26	29.5056
944.435	23.18258
944.61	86.42218
944.785	25.29023
944.959	37.93663
945.134	67.44814
945.309	37.93663
945.483	29.5056
945.658	23.18258
945.833	84.31387
946.007	143.35507
946.182	54.79979
946.357	82.20557
946.531	21.07496
946.706	122.26697
946.88	54.79979
947.055	69.55627
947.229	124.37568
947.404	23.18258
947.578	77.98905
947.752	46.36803
947.927	25.29023
948.101	56.90779
948.276	52.69182
948.45	71.66443
948.624	113.83233
948.799	118.04961
948.973	59.01582
949.147	75.88082
949.321	71.66443
949.496	113.83233
949.67	21.07496
949.844	84.31387
950.018	80.0973
950.193	37.93663
950.367	82.20557
950.541	118.04961
950.715	96.96411
950.889	14.75222
951.063	73.77262
951.237	92.74727
951.411	33.72107
951.585	113.83233
951.759	29.5056
951.933	115.94096
952.107	113.83233
952.281	96.96411
952.455	71.66443
952.629	145.464
952.803	107.50658
952.977	21.07496
953.151	18.96735
953.325	73.77262
953.499	96.96411
953.672	4.2148
953.846	63.23193
954.02	107.50658
954.194	-4.2147
954.368	126.48442
954.541	37.93663
954.715	82.20557
954.889	96.96411
955.062	6.32224
955.236	21.07496
955.41	92.74727
955.583	96.96411
955.757	71.66443
955.93	109.61514
956.104	27.39791
956.278	75.88082
956.451	44.26014
956.625	6.32224
956.798	56.90779
956.972	96.96411
957.145	46.36803
957.319	143.35507
957.492	105.39804
957.665	111.72373
957.839	80.0973
958.012	37.93663
958.185	82.20557
958.359	35.82884
958.532	80.0973
958.705	23.18258
958.879	50.58386
959.052	141.24617
959.225	92.74727
959.398	75.88082
959.572	65.34002
959.745	96.96411
959.918	33.72107
960.091	46.36803
960.264	96.96411
960.438	84.31387
960.611	52.69182
960.784	103.28953
960.957	80.0973
961.13	88.53052
961.303	67.44814
961.476	92.74727
961.649	101.18103
961.822	92.74727
961.995	156.00896
962.168	46.36803
962.341	128.59318
962.514	63.23193
962.686	124.37568
962.859	54.79979
963.032	18.96735
963.205	67.44814
963.378	88.53052
963.551	48.47593
963.723	71.66443
963.896	42.15228
964.069	52.69182
964.242	48.47593
964.414	118.04961
964.587	65.34002
964.76	31.61332
964.932	31.61332
965.105	52.69182
965.278	65.34002
965.45	105.39804
965.623	48.47593
965.795	-2.10736
965.968	69.55627
966.14	46.36803
966.313	73.77262
966.485	46.36803
966.658	54.79979
966.83	2.10739
967.003	4.2148
967.175	56.90779
967.348	56.90779
967.52	63.23193
967.692	75.88082
967.865	59.01582
968.037	59.01582
968.209	25.29023
968.382	67.44814
968.554	56.90779
968.726	50.58386
968.898	42.15228
969.071	59.01582
969.243	59.01582
969.415	77.98905
969.587	84.31387
969.759	50.58386
969.932	67.44814
970.104	35.82884
970.276	105.39804
970.448	37.93663
970.62	12.64469
970.792	88.53052
970.964	35.82884
971.136	77.98905
971.308	139.13728
971.48	23.18258
971.652	50.58386
971.824	86.42218
971.996	69.55627
972.168	12.64469
972.339	31.61332
972.511	29.5056
972.683	90.63889
972.855	-18.9654
973.027	137.02842
973.199	71.66443
973.37	23.18258
973.542	37.93663
973.714	0
973.886	80.0973
974.057	37.93663
974.229	29.5056
974.401	82.20557
974.572	21.07496
974.744	109.61514
974.915	82.20557
975.087	23.18258
975.259	4.2148
975.43	65.34002
975.602	92.74727
975.773	56.90779
975.945	48.47593
976.116	82.20557
976.288	56.90779
976.459	82.20557
976.63	126.48442
976.802	31.61332
976.973	33.72107
977.145	40.04444
977.316	-4.2147
977.487	82.20557
977.659	50.58386
977.83	92.74727
978.001	46.36803
978.172	54.79979
978.344	37.93663
978.515	10.53718
978.686	46.36803
978.857	46.36803
979.028	-2.10736
979.2	-2.10736
979.371	-4.2147
979.542	75.88082
979.713	35.82884
979.884	-54.78349
980.055	54.79979
980.226	69.55627
980.397	50.58386
980.568	92.74727
980.739	4.2148
980.91	59.01582
981.081	56.90779
981.252	50.58386
981.423	-8.42931
981.594	29.5056
981.765	-37.92881
981.936	16.85977
982.106	-2.10736
982.277	126.48442
982.448	25.29023
982.619	96.96411
982.79	54.79979
982.96	84.31387
983.131	-44.2495
983.302	29.5056
983.472	33.72107
983.643	73.77262
983.814	69.55627
983.984	44.26014
984.155	61.12386
984.326	63.23193
984.496	75.88082
984.667	113.83233
984.837	23.18258
985.008	92.74727
985.178	44.26014
985.349	65.34002
985.519	-16.85823
985.69	29.5056
985.86	18.96735
986.031	63.23193
986.201	21.07496
986.371	33.72107
986.542	37.93663
986.712	37.93663
986.882	8.4297
987.053	23.18258
987.223	4.2148
987.393	33.72107
987.563	-8.42931
987.734	40.04444
987.904	-29.50088
988.074	54.79979
988.244	92.74727
988.414	82.20557
988.585	-25.28676
988.755	-4.2147
988.925	69.55627
989.095	-44.2495
989.265	42.15228
989.435	37.93663
989.605	-2.10736
989.775	61.12386
989.945	46.36803
990.115	-16.85823
990.285	2.10739
990.455	40.04444
990.625	31.61332
990.795	21.07496
990.965	-14.75104
991.134	29.5056
991.304	-54.78349
991.474	-16.85823
991.644	23.18258
991.814	4.2148
991.984	-18.9654
992.153	14.75222
992.323	71.66443
992.493	-12.64382
992.662	42.15228
992.832	27.39791
993.002	-8.42931
993.171	25.29023
993.341	56.90779
993.511	4.2148
993.68	16.85977
993.85	6.32224
994.019	33.72107
994.189	67.44814
994.358	29.5056
994.528	4.2148
994.697	31.61332
994.867	0
995.036	37.93663
995.206	54.79979
995.375	40.04444
995.544	92.74727
995.714	25.29023
995.883	71.66443
996.052	2.10739
996.222	77.98905
996.391	16.85977
996.56	16.85977
996.73	46.36803
996.899	6.32224
997.068	63.23193
997.237	71.66443
997.406	12.64469
997.576	-4.2147
997.745	59.01582
997.914	16.85977
998.083	54.79979
998.252	6.32224
998.421	23.18258
998.59	88.53052
998.759	-29.50088
998.928	14.75222
999.097	-21.07254
999.266	56.90779
999.435	-37.92881
999.604	141.24617
999.773	29.5056
999.942	48.47593
1000.111	-29.50088
1000.28	-8.42931
1000.448	6.32224
1000.617	65.34002
1000.786	21.07496
1000.955	96.96411
1001.124	27.39791
1001.292	-12.64382
1001.461	35.82884
1001.63	-56.89021
1001.798	6.32224
1001.967	122.26697
1002.136	-42.14263
1002.304	63.23193
1002.473	-52.67674
1002.642	37.93663
1002.81	50.58386
1002.979	-71.63655
1003.147	-12.64382
1003.316	-44.2495
1003.484	-23.17966
1003.653	71.66443
1003.821	-69.53
1003.99	-10.53658
1004.158	-46.35635
1004.327	59.01582
1004.495	105.39804
1004.663	75.88082
1004.832	2.10739
1005	-46.35635
1005.168	12.64469
1005.337	10.53718
1005.505	61.12386
1005.673	33.72107
1005.842	37.93663
1006.01	21.07496
1006.178	46.36803
1006.346	33.72107
1006.514	-84.27527
1006.683	6.32224
1006.851	-12.64382
1007.019	21.07496
1007.187	-21.07254
1007.355	25.29023
1007.523	25.29023
1007.691	-21.07254
1007.859	-33.71489
1008.027	16.85977
1008.195	35.82884
1008.363	-21.07254
1008.531	16.85977
1008.699	-18.9654
1008.867	10.53718
1009.035	16.85977
1009.203	0
1009.37	59.01582
1009.538	42.15228
1009.706	63.23193
1009.874	25.29023
1010.042	-58.9969
1010.209	-12.64382
1010.377	46.36803
1010.545	0
1010.713	75.88082
1010.88	6.32224
1011.048	-12.64382
1011.216	-35.82187
1011.383	80.0973
1011.551	-2.10736
1011.718	18.96735
1011.886	-103.2316
1012.054	21.07496
1012.221	-33.71489
1012.389	27.39791
1012.556	42.15228
1012.724	14.75222
1012.891	56.90779
1013.058	-4.2147
1013.226	42.15228
1013.393	59.01582
1013.561	-75.84956
1013.728	107.50658
1013.895	-44.2495
1014.063	40.04444
1014.23	8.4297
1014.397	-44.2495
1014.565	82.20557
1014.732	54.79979
1014.899	37.93663
1015.066	27.39791
1015.233	-31.6079
1015.401	4.2148
1015.568	29.5056
1015.735	63.23193
1015.902	52.69182
1016.069	-16.85823
1016.236	50.58386
1016.403	-12.64382
1016.57	63.23193
1016.737	-23.17966
1016.904	59.01582
1017.071	16.85977
1017.238	31.61332
1017.405	-33.71489
1017.572	-29.50088
1017.739	-42.14263
1017.906	4.2148
1018.073	-10.53658
1018.24	29.5056
1018.407	-42.14263
1018.573	-18.9654
1018.74	35.82884
1018.907	37.93663
1019.074	-2.10736
1019.241	29.5056
1019.407	-12.64382
1019.574	-27.39383
1019.741	-37.92881
1019.907	0
1020.074	12.64469
1020.241	16.85977
1020.407	-12.64382
1020.574	-2.10736
1020.74	0
1020.907	-25.28676
1021.073	0
1021.24	-29.50088
1021.406	-10.53658
1021.573	54.79979
1021.739	4.2148
1021.906	-27.39383
1022.072	18.96735
1022.239	23.18258
1022.405	12.64469
1022.571	29.5056
1022.738	14.75222
1022.904	-71.63655
1023.07	-29.50088
1023.237	-4.2147
1023.403	-2.10736
1023.569	56.90779
1023.735	14.75222
1023.902	-23.17966
1024.068	23.18258
1024.234	113.83233
1024.4	-2.10736
1024.566	6.32224
1024.732	48.47593
1024.898	21.07496
1025.065	-14.75104
1025.231	-16.85823
1025.397	67.44814
1025.563	50.58386
1025.729	46.36803
1025.895	-12.64382
1026.061	21.07496
1026.227	46.36803
1026.392	21.07496
1026.558	21.07496
1026.724	-18.9654
1026.89	-25.28676
1027.056	-27.39383
1027.222	16.85977
1027.388	2.10739
1027.553	16.85977
1027.719	-71.63655
1027.885	-21.07254
1028.051	44.26014
1028.216	16.85977
1028.382	35.82884
1028.548	23.18258
1028.713	-18.9654
1028.879	21.07496
1029.045	37.93663
1029.21	-6.32202
1029.376	-58.9969
1029.541	-6.32202
1029.707	-29.50088
1029.873	59.01582
1030.038	37.93663
1030.204	-42.14263
1030.369	-21.07254
1030.534	-21.07254
1030.7	-8.42931
1030.865	4.2148
1031.031	69.55627
1031.196	-46.35635
1031.361	59.01582
1031.527	-35.82187
1031.692	-52.67674
1031.857	4.2148
1032.023	14.75222
1032.188	42.15228
1032.353	25.29023
1032.518	4.2148
1032.684	80.0973
1032.849	-31.6079
1033.014	-50.56997
1033.179	12.64469
1033.344	46.36803
1033.509	12.64469
1033.674	-6.32202
1033.839	-44.2495
1034.004	54.79979
1034.17	37.93663
1034.335	-25.28676
1034.5	-35.82187
1034.664	-37.92881
1034.829	16.85977
1034.994	-56.89021
1035.159	-12.64382
1035.324	-12.64382
1035.489	65.34002
1035.654	-16.85823
1035.819	31.61332
1035.984	-10.53658
1036.148	-37.92881
1036.313	-18.9654
1036.478	35.82884
1036.643	35.82884
1036.807	37.93663
1036.972	61.12386
1037.137	40.04444
1037.301	14.75222
1037.466	29.5056
1037.631	-42.14263
1037.795	31.61332
1037.96	63.23193
1038.124	25.29023
1038.289	-71.63655
1038.454	29.5056
1038.618	21.07496
1038.783	37.93663
1038.947	40.04444
1039.111	-2.10736
1039.276	27.39791
1039.44	-37.92881
1039.605	35.82884
1039.769	-46.35635
1039.933	-10.53658
1040.098	-12.64382
1040.262	-40.03573
1040.426	-37.92881
1040.591	71.66443
1040.755	-37.92881
1040.919	-63.21022
1041.083	-25.28676
1041.248	-18.9654
1041.412	4.2148
1041.576	71.66443
1041.74	-42.14263
1041.904	14.75222
1042.068	-46.35635
1042.232	29.5056
1042.397	-37.92881
1042.561	29.5056
1042.725	16.85977
1042.889	-4.2147
1043.053	-18.9654
1043.217	25.29023
1043.381	-27.39383
1043.544	4.2148
1043.708	-12.64382
1043.872	37.93663
1044.036	-31.6079
1044.2	-2.10736
1044.364	-54.78349
1044.528	37.93663
1044.691	-8.42931
1044.855	14.75222
1045.019	-12.64382
1045.183	6.32224
1045.346	-37.92881
1045.51	-35.82187
1045.674	-18.9654
1045.837	21.07496
1046.001	-2.10736
1046.165	35.82884
1046.328	23.18258
1046.492	21.07496
1046.655	-2.10736
1046.819	-8.42931
1046.983	-12.64382
1047.146	-80.06246
1047.31	14.75222
1047.473	-21.07254
1047.636	-65.31684
1047.8	46.36803
1047.963	-12.64382
1048.127	42.15228
1048.29	-37.92881
