Data from absorb_only_2.23.25_USB4F045381__47__0152.txt Node

Date: Sun Feb 23 19:21:05 EST 2025
User: ssocol
Spectrometer: USB4F04538
Trigger mode: 4
Integration Time (sec): 2.600000E-3
Scans to average: 1
Electric dark correction enabled: true
Nonlinearity correction enabled: true
Boxcar width: 0
XAxis mode: Wavelengths
Number of Pixels in Spectrum: 3648
>>>>>Begin Spectral Data<<<<<
345.52	-37.57766
345.736	-37.57766
345.952	-37.57766
346.168	-1.75614
346.384	25.64151
346.6	84.66525
346.816	0.35123
347.032	8.78094
347.248	31.96461
347.464	-86.03057
347.68	40.39575
347.896	-67.07234
348.112	17.21104
348.328	-29.1497
348.544	63.58328
348.76	6.67348
348.975	-71.28546
349.191	-35.47071
349.407	-60.75247
349.623	-24.93558
349.839	17.21104
350.055	4.56604
350.27	19.31862
350.486	0.35123
350.702	21.42623
350.918	-58.64579
351.133	-12.29261
351.349	-54.43236
351.565	-35.47071
351.781	38.28793
351.996	-33.36373
352.212	-12.29261
352.428	-22.82848
352.644	42.50359
352.859	-12.29261
353.075	-16.50703
353.291	-27.04265
353.506	2.45862
353.722	-35.47071
353.938	-79.71139
354.153	15.10348
354.369	31.96461
354.584	-3.86348
354.8	-24.93558
355.016	-54.43236
355.231	-46.00521
355.447	-3.86348
355.662	-48.11204
355.878	29.85689
356.093	-58.64579
356.309	4.56604
356.524	-1.75614
356.74	-35.47071
356.955	-71.28546
357.171	-12.29261
357.386	-46.00521
357.602	21.42623
357.817	-1.75614
358.033	-24.93558
358.248	55.15113
358.464	-67.07234
358.679	25.64151
358.895	-14.39983
359.11	-29.1497
359.325	-3.86348
359.541	15.10348
359.756	-35.47071
359.972	-79.71139
360.187	-60.75247
360.402	2.45862
360.618	17.21104
360.833	-1.75614
361.048	42.50359
361.264	31.96461
361.479	38.28793
361.694	-5.9708
361.909	-33.36373
362.125	21.42623
362.34	25.64151
362.555	-20.72135
362.77	72.0158
362.986	-29.1497
363.201	-29.1497
363.416	-29.1497
363.631	44.61145
363.847	-73.39198
364.062	50.93519
364.277	0.35123
364.492	6.67348
364.707	-37.57766
364.922	-1.75614
365.138	-54.43236
365.353	101.53244
365.568	-58.64579
365.783	15.10348
365.998	-86.03057
366.213	25.64151
366.428	-56.53909
366.643	-39.68458
366.858	-12.29261
367.073	-46.00521
367.288	-37.57766
367.503	82.55695
367.718	-12.29261
367.933	-37.57766
368.148	-27.04265
368.363	-1.75614
368.578	-39.68458
368.793	34.07236
369.008	29.85689
369.223	0.35123
369.438	-50.21884
369.653	-29.1497
369.868	-52.32561
370.083	34.07236
370.298	-52.32561
370.513	-8.0781
370.728	0.35123
370.943	-52.32561
371.157	-10.18537
371.372	-52.32561
371.587	12.99594
371.802	4.56604
372.017	-27.04265
372.232	-1.75614
372.446	-20.72135
372.661	-58.64579
372.876	-18.61421
373.091	27.74919
373.306	27.74919
373.52	-20.72135
373.735	-29.1497
373.95	-60.75247
374.165	-43.89836
374.379	-58.64579
374.594	-35.47071
374.809	10.88843
375.023	-98.66823
375.238	-39.68458
375.453	-18.61421
375.667	-18.61421
375.882	-24.93558
376.097	-18.61421
376.311	-54.43236
376.526	21.42623
376.741	-3.86348
376.955	4.56604
377.17	12.99594
377.384	-12.29261
377.599	-5.9708
377.813	-8.0781
378.028	-54.43236
378.242	-52.32561
378.457	-48.11204
378.672	-12.29261
378.886	-24.93558
379.101	23.53386
379.315	15.10348
379.53	15.10348
379.744	-12.29261
379.958	38.28793
380.173	-64.96574
380.387	-29.1497
380.602	46.71934
380.816	-29.1497
381.031	-10.18537
381.245	46.71934
381.459	12.99594
381.674	-75.49848
381.888	4.56604
382.103	-43.89836
382.317	12.99594
382.531	-1.75614
382.746	6.67348
382.96	-33.36373
383.174	2.45862
383.388	8.78094
383.603	8.78094
383.817	50.93519
384.031	-3.86348
384.246	4.56604
384.46	-50.21884
384.674	-71.28546
384.888	-18.61421
385.103	4.56604
385.317	-37.57766
385.531	-3.86348
385.745	-1.75614
385.959	-33.36373
386.174	-83.9242
386.388	12.99594
386.602	-46.00521
386.816	-33.36373
387.03	-18.61421
387.244	12.99594
387.458	12.99594
387.672	-24.93558
387.887	-24.93558
388.101	-16.50703
388.315	-29.1497
388.529	50.93519
388.743	21.42623
388.957	48.82725
389.171	-8.0781
389.385	4.56604
389.599	82.55695
389.813	34.07236
390.027	-24.93558
390.241	-20.72135
390.455	-8.0781
390.669	-16.50703
390.883	15.10348
391.097	48.82725
391.311	17.21104
391.525	29.85689
391.738	8.78094
391.952	-71.28546
392.166	-62.85911
392.38	46.71934
392.594	-3.86348
392.808	-14.39983
393.022	-119.7289
393.236	29.85689
393.449	-46.00521
393.663	-88.13691
393.877	31.96461
394.091	21.42623
394.305	-29.1497
394.518	6.67348
394.732	-12.29261
394.946	4.56604
395.16	57.25913
395.373	46.71934
395.587	-52.32561
395.801	-29.1497
396.015	38.28793
396.228	6.67348
396.442	-35.47071
396.656	-111.30495
396.869	12.99594
397.083	4.56604
397.297	-8.0781
397.51	6.67348
397.724	4.56604
397.938	-46.00521
398.151	-29.1497
398.365	-60.75247
398.578	-8.0781
398.792	8.78094
399.005	-16.50703
399.219	-12.29261
399.433	-16.50703
399.646	4.56604
399.86	-3.86348
400.073	82.55695
400.287	-52.32561
400.5	34.07236
400.714	-14.39983
400.927	-18.61421
401.141	-96.56202
401.354	6.67348
401.567	-14.39983
401.781	29.85689
401.994	69.90763
402.208	-8.0781
402.421	-8.0781
402.635	0.35123
402.848	59.36716
403.061	-29.1497
403.275	-79.71139
403.488	-48.11204
403.701	36.18013
403.915	-14.39983
404.128	-24.93558
404.341	21.42623
404.555	23.53386
404.768	-27.04265
404.981	-12.29261
405.195	6.67348
405.408	4.56604
405.621	-12.29261
405.834	-12.29261
406.048	0.35123
406.261	15.10348
406.474	-8.0781
406.687	-92.34952
406.9	-27.04265
407.114	-3.86348
407.327	10.88843
407.54	2.45862
407.753	17.21104
407.966	-10.18537
408.179	38.28793
408.392	12.99594
408.605	-12.29261
408.819	4.56604
409.032	-20.72135
409.245	-46.00521
409.458	4.56604
409.671	8.78094
409.884	-50.21884
410.097	-20.72135
410.31	19.31862
410.523	6.67348
410.736	-33.36373
410.949	38.28793
411.162	-12.29261
411.375	63.58328
411.588	40.39575
411.801	-8.0781
412.014	-1.75614
412.227	34.07236
412.44	-52.32561
412.653	-8.0781
412.865	38.28793
413.078	-3.86348
413.291	23.53386
413.504	-3.86348
413.717	-54.43236
413.93	0.35123
414.143	-29.1497
414.356	15.10348
414.568	-12.29261
414.781	-1.75614
414.994	-75.49848
415.207	4.56604
415.42	25.64151
415.632	-48.11204
415.845	-39.68458
416.058	-18.61421
416.271	57.25913
416.483	-29.1497
416.696	-22.82848
416.909	-46.00521
417.121	50.93519
417.334	21.42623
417.547	-18.61421
417.759	65.69137
417.972	-12.29261
418.185	-12.29261
418.397	0.35123
418.61	-12.29261
418.823	12.99594
419.035	29.85689
419.248	-20.72135
419.46	38.28793
419.673	15.10348
419.885	27.74919
420.098	55.15113
420.311	4.56604
420.523	0.35123
420.736	-16.50703
420.948	-20.72135
421.161	0.35123
421.373	-14.39983
421.586	-27.04265
421.798	2.45862
422.01	4.56604
422.223	48.82725
422.435	-50.21884
422.648	21.42623
422.86	-31.25673
423.073	38.28793
423.285	0.35123
423.497	-37.57766
423.71	10.88843
423.922	-24.93558
424.134	42.50359
424.347	-29.1497
424.559	31.96461
424.771	21.42623
424.984	4.56604
425.196	-10.18537
425.408	6.67348
425.621	6.67348
425.833	-77.60495
426.045	-3.86348
426.257	-37.57766
426.47	8.78094
426.682	-41.79148
426.894	21.42623
427.106	-52.32561
427.318	-50.21884
427.531	2.45862
427.743	-3.86348
427.955	0.35123
428.167	78.34042
428.379	6.67348
428.591	-69.17891
428.804	15.10348
429.016	57.25913
429.228	8.78094
429.44	-54.43236
429.652	12.99594
429.864	29.85689
430.076	57.25913
430.288	-52.32561
430.5	-16.50703
430.712	31.96461
430.924	31.96461
431.136	38.28793
431.348	-12.29261
431.56	21.42623
431.772	4.56604
431.984	4.56604
432.196	-10.18537
432.408	4.56604
432.62	-27.04265
432.832	31.96461
433.044	-12.29261
433.256	53.04315
433.468	-18.61421
433.679	-3.86348
433.891	-14.39983
434.103	-37.57766
434.315	-10.18537
434.527	-10.18537
434.739	15.10348
434.95	80.44868
435.162	15.10348
435.374	-31.25673
435.586	4.56604
435.798	6.67348
436.009	-71.28546
436.221	-8.0781
436.433	53.04315
436.645	17.21104
436.856	-46.00521
437.068	12.99594
437.28	-8.0781
437.491	42.50359
437.703	-8.0781
437.915	31.96461
438.126	-79.71139
438.338	67.79949
438.55	12.99594
438.761	21.42623
438.973	65.69137
439.184	40.39575
439.396	-24.93558
439.608	55.15113
439.819	12.99594
440.031	15.10348
440.242	-18.61421
440.454	112.07516
440.665	42.50359
440.877	55.15113
441.088	-1.75614
441.3	44.61145
441.511	0.35123
441.723	40.39575
441.934	55.15113
442.146	12.99594
442.357	8.78094
442.569	-37.57766
442.78	38.28793
442.991	-10.18537
443.203	21.42623
443.414	34.07236
443.626	17.21104
443.837	12.99594
444.048	93.09867
444.26	21.42623
444.471	-62.85911
444.682	0.35123
444.894	42.50359
445.105	46.71934
445.316	48.82725
445.528	12.99594
445.739	67.79949
445.95	61.47521
446.161	-12.29261
446.373	10.88843
446.584	109.96657
446.795	59.36716
447.006	27.74919
447.217	80.44868
447.429	-20.72135
447.64	50.93519
447.851	-20.72135
448.062	31.96461
448.273	-79.71139
448.484	84.66525
448.695	-10.18537
448.907	-41.79148
449.118	2.45862
449.329	105.74946
449.54	63.58328
449.751	50.93519
449.962	-8.0781
450.173	12.99594
450.384	50.93519
450.595	34.07236
450.806	55.15113
451.017	6.67348
451.228	76.23219
451.439	29.85689
451.65	-16.50703
451.861	23.53386
452.072	23.53386
452.283	114.18377
452.494	4.56604
452.705	12.99594
452.915	-22.82848
453.126	17.21104
453.337	65.69137
453.548	63.58328
453.759	8.78094
453.97	8.78094
454.181	-16.50703
454.391	8.78094
454.602	-27.04265
454.813	59.36716
455.024	4.56604
455.235	55.15113
455.445	25.64151
455.656	86.77357
455.867	55.15113
456.078	12.99594
456.288	84.66525
456.499	48.82725
456.71	72.0158
456.921	46.71934
457.131	21.42623
457.342	15.10348
457.553	-29.1497
457.763	78.34042
457.974	38.28793
458.184	-12.29261
458.395	78.34042
458.606	109.96657
458.816	-16.50703
459.027	34.07236
459.237	63.58328
459.448	42.50359
459.659	17.21104
459.869	99.42397
460.08	29.85689
460.29	72.0158
460.501	55.15113
460.711	-5.9708
460.922	65.69137
461.132	90.99028
461.343	-29.1497
461.553	29.85689
461.764	65.69137
461.974	74.12398
462.184	34.07236
462.395	34.07236
462.605	84.66525
462.816	135.27105
463.026	80.44868
463.236	46.71934
463.447	67.79949
463.657	74.12398
463.867	88.88192
464.078	93.09867
464.288	105.74946
464.498	120.50972
464.709	141.59765
464.919	97.31551
465.129	90.99028
465.339	57.25913
465.55	137.37989
465.76	88.88192
465.97	118.40105
466.18	124.72714
466.391	112.07516
466.601	99.42397
466.811	156.36047
467.021	124.72714
467.231	90.99028
467.441	107.85801
467.651	122.61842
467.862	76.23219
468.072	152.14241
468.282	122.61842
468.492	160.57861
468.702	141.59765
468.912	181.67054
469.122	143.70656
469.332	152.14241
469.542	137.37989
469.752	202.76452
469.962	122.61842
470.172	185.88917
470.382	200.65503
470.592	228.07995
470.802	215.42188
471.012	131.05342
471.222	183.77985
471.432	177.45199
471.642	225.97022
471.852	217.53151
472.062	217.53151
472.272	274.49885
472.482	266.05836
472.691	253.3982
472.901	242.84859
473.111	278.71921
473.321	329.36919
473.531	282.93964
473.741	223.86052
473.95	276.60902
474.16	215.42188
474.37	318.81625
474.58	308.26376
474.79	348.36559
474.999	350.47639
475.209	299.82209
475.419	358.91976
475.628	369.47435
475.838	380.02937
476.048	420.14221
476.258	399.02945
476.467	428.58776
476.677	479.26632
476.886	375.80731
477.096	487.7136
477.306	468.70756
477.515	428.58776
477.725	466.59585
477.935	510.94483
478.144	529.9535
478.354	527.84137
478.563	542.62658
478.773	586.98623
478.982	622.90065
479.192	633.46441
479.401	625.01338
479.611	715.8719
479.82	667.27047
480.03	747.57161
480.239	734.89144
480.449	741.23147
480.658	865.93684
480.868	806.75054
481.077	832.11524
481.287	857.48123
481.496	891.30447
481.705	794.0687
481.915	950.5
482.124	918.78737
482.333	971.64266
482.543	946.27156
482.752	925.12976
482.961	832.11524
483.171	1096.3971
483.38	916.67325
483.589	1265.58192
483.799	1106.97039
484.008	1204.24977
484.217	1200.02006
484.426	1390.36692
484.636	1172.5273
484.845	1360.75644
485.054	1147.14995
485.263	1453.81837
485.472	1309.99623
485.682	1343.83627
485.891	1409.40231
486.1	1295.19135
486.309	1360.75644
486.518	1532.07507
486.727	1455.93342
486.936	1576.49049
487.146	1504.57956
487.355	1563.80043
487.564	1578.6055
487.773	1787.97885
487.982	1661.08918
488.191	1730.88001
488.4	1684.35315
488.609	1663.2041
488.818	1790.09357
489.027	1815.46984
489.236	1889.48018
489.445	1889.48018
489.654	1872.56406
489.863	1813.35517
490.072	1895.82363
490.281	2060.73484
490.49	1885.25118
490.698	2067.07678
490.907	1855.64762
491.116	2174.87946
491.325	2092.4439
491.534	2181.22015
491.743	2126.26506
491.952	2354.50146
492.16	2045.93672
492.369	2312.2435
492.578	2242.50955
492.787	2443.23
492.996	2282.66064
493.204	2498.14773
493.413	2346.05019
493.622	2489.69934
493.831	2354.50146
494.039	2584.73317
494.248	2394.64283
494.457	2540.38698
494.665	2491.81145
494.874	2781.0576
495.083	2772.61586
495.291	2825.37314
495.5	2707.18513
495.709	2692.4087
495.917	2804.27126
496.126	2880.23148
496.335	2905.54746
496.543	3046.85593
496.752	2793.7198
496.96	2916.09518
497.169	2814.82237
497.377	3063.72402
497.586	2890.78006
497.794	3139.61797
498.003	2960.39156
498.211	3067.94089
498.42	2937.1895
498.628	3097.4572
498.837	3139.61797
499.045	3217.59834
499.254	3122.75443
499.462	3148.04936
499.671	3346.11068
499.879	3447.18988
500.087	3255.52656
500.296	3360.85392
500.504	3141.72584
500.713	3506.13377
500.921	3400.86696
501.129	3504.02888
501.338	3312.40866
501.546	3531.39107
501.754	3409.28995
501.962	3619.77068
502.171	3562.95898
502.379	3552.43681
502.587	3430.34618
502.795	3680.77537
503.004	3442.97907
503.212	3817.4513
503.42	3689.18856
503.628	3800.63409
503.837	3464.03244
504.045	3773.30345
504.253	3680.77537
504.461	3790.1227
504.669	3670.25846
504.877	3771.20096
505.085	3804.83851
505.294	3857.38709
505.502	3804.83851
505.71	3922.53004
505.918	3712.32323
506.126	3979.25166
506.334	3928.83317
506.542	4023.35821
506.75	3714.42627
506.958	4002.35622
507.166	3914.12558
507.374	4046.45803
507.582	4111.54403
507.79	4153.52436
507.998	4178.70852
508.206	4111.54403
508.414	4023.35821
508.622	4237.45972
508.83	4092.65015
509.037	4319.26387
509.245	4090.55073
509.453	4352.81508
509.661	4308.77799
509.869	4375.87832
510.077	4170.31414
510.285	4250.04709
510.492	4317.16674
510.7	4380.07136
510.908	4250.04709
511.116	4396.84262
511.324	4466.00932
511.531	4476.48704
511.739	4390.55356
511.947	4501.63132
512.155	4350.71829
512.362	4568.66717
512.57	4428.28499
512.778	4409.42016
512.985	4702.67039
513.193	4526.77242
513.401	4606.36484
513.608	4740.34221
513.816	4646.14897
514.024	4727.78575
514.231	4413.6125
514.439	4761.26783
514.646	4631.4926
514.854	4667.08474
515.061	4499.53609
515.269	4909.77437
515.477	4811.48007
515.684	4738.24952
515.892	4855.40504
516.099	5024.73527
516.307	4936.95323
516.514	4962.03796
516.722	4589.61121
516.929	4895.13799
517.136	4805.20426
517.344	4945.31517
517.551	4754.99038
517.759	5091.58949
517.966	5189.73856
518.173	4970.3988
518.381	5152.15562
518.588	5053.98691
518.796	5187.65081
519.003	5223.13927
519.21	5020.5561
519.418	5241.92454
519.625	5173.03596
519.832	5177.21175
520.039	5039.36166
520.247	5152.15562
520.454	5317.04672
520.661	5379.62534
520.868	5145.89107
521.076	5471.36911
521.283	5390.05306
521.49	5423.41781
521.697	5281.57613
521.904	5583.90147
522.112	5342.0807
522.319	5787.95126
522.526	5298.26902
522.733	5623.47985
522.94	5373.36843
523.147	5679.70816
523.354	5510.97166
523.561	5735.91928
523.768	5608.89933
523.975	5779.62714
524.183	5398.39481
524.39	5673.46142
524.597	5681.79036
524.804	5946.03792
525.011	5896.13054
525.218	5839.9685
525.425	5827.4857
525.632	5746.32685
525.838	5773.38379
526.045	5931.48301
526.252	5758.81517
526.459	5858.69109
526.666	5777.54604
526.873	6116.4524
527.08	5943.95872
527.287	6101.911
527.494	5925.24483
527.701	6184.9892
527.907	6041.65578
528.114	6216.13384
528.321	6160.06969
528.528	6299.16043
528.735	6025.03017
528.941	6251.42472
529.148	6004.24604
529.355	6363.48031
529.562	6070.74698
529.768	6155.9161
529.975	5993.85309
530.182	6182.9127
530.388	6049.96802
530.595	6263.87871
530.802	6130.99265
531.008	6303.31078
531.215	6477.54107
531.422	6249.34897
531.628	6415.33484
531.835	6552.16098
532.042	6407.03909
532.248	6506.56349
532.455	6516.92754
532.661	6641.25102
532.868	6529.36364
533.074	6591.53161
533.281	6543.87136
533.487	6595.6754
533.694	6635.03682
533.9	6693.02796
534.107	6502.41771
534.313	6833.78877
534.52	6769.63152
534.726	6924.81315
534.933	6612.24964
535.139	6800.67809
535.345	6806.88679
535.552	6688.88634
535.758	6984.78252
535.965	7040.59903
536.171	6788.26008
536.377	6904.12965
536.584	6767.56156
536.79	6850.34193
536.996	6842.06553
537.203	6933.08591
537.409	6833.78877
537.615	6978.57967
537.821	7067.46782
538.028	7222.40639
538.234	7150.1173
538.44	7309.11757
538.646	7005.45721
538.853	7243.05543
539.059	7032.33095
539.265	7193.49401
539.471	7038.53205
539.677	7212.08104
539.883	7086.06706
540.09	7447.36257
540.296	7416.42069
540.502	7503.04569
540.708	7123.26013
540.914	7651.45748
541.12	7379.28398
541.326	7414.35772
541.532	7560.77456
541.738	7610.24308
541.944	7393.72687
542.15	7775.04992
542.356	7533.97396
542.562	7742.09934
542.768	7511.2937
542.974	7667.94086
543.18	7684.42289
543.386	7812.11292
543.592	7775.04992
543.798	7797.70033
544.004	7536.03567
544.21	7869.75306
544.415	7733.86086
544.621	7923.26153
544.827	7420.54655
545.033	8038.46344
545.239	7826.52448
545.445	7865.63645
545.651	7797.70033
545.856	7939.72287
546.062	8013.7827
546.268	8069.31027
546.474	8038.46344
546.679	7896.50904
546.885	7849.16916
547.091	7972.64162
547.297	7715.32304
547.502	8091.92838
547.708	7894.45101
547.914	8108.37639
548.119	8011.72584
548.325	8167.98967
548.531	7717.38288
548.736	8079.59153
548.942	7974.69887
549.147	8040.52004
549.353	8145.37971
549.559	8209.09249
549.764	7801.81832
549.97	8299.49087
550.175	8052.85919
550.381	8494.54054
550.586	8176.21087
550.792	8531.47781
550.997	8326.1922
551.203	8276.89485
551.408	8239.91441
551.614	8447.33394
551.819	8241.96904
552.025	8371.37157
552.23	8488.38373
552.435	8457.5971
552.641	8650.45634
552.846	8560.20255
553.052	8578.6665
553.257	8400.11719
553.462	8673.01414
553.668	8621.74315
553.873	8447.33394
554.078	8560.20255
554.283	8474.01717
554.489	8892.32433
554.694	8609.43638
554.899	8824.70878
555.105	8703.77117
555.31	8576.61503
555.515	8822.65952
555.72	8759.12339
555.925	8510.95786
556.131	9000.87835
556.336	8789.86886
556.541	8949.67982
556.746	8769.37234
556.951	8927.14897
557.156	8793.96795
557.361	9052.06591
557.567	8857.49452
557.772	8855.44555
557.977	8814.46229
558.182	8875.93447
558.387	8886.17827
558.592	8890.27566
558.797	8629.94729
559.002	8990.63952
559.207	9019.30713
559.412	9000.87835
559.617	8937.39053
559.822	9287.39022
560.027	8867.73912
560.232	9252.61726
560.437	8984.49601
560.642	9031.59219
560.847	9078.67914
561.051	9258.75402
561.256	9068.44363
561.461	9258.75402
561.666	9518.40727
561.871	9205.56377
562.076	9240.3433
562.281	9133.94344
562.485	9287.39022
562.69	9230.11453
562.895	9293.52613
563.1	9287.39022
563.305	9221.93122
563.509	9246.48036
563.714	9246.48036
563.919	9215.79355
564.123	9334.42833
564.328	9291.48084
564.533	9350.78736
564.737	9279.20878
564.942	9271.02708
565.147	9616.4763
565.351	9602.17683
565.556	9579.70467
565.761	9289.43554
565.965	9518.40727
566.17	9289.43554
566.374	9434.61093
566.579	9444.83144
566.784	9428.47843
566.988	9514.32027
567.193	9753.30433
567.397	9393.72481
567.602	9387.59134
567.806	9502.05888
568.011	9640.98791
568.215	9632.81763
568.42	9614.43357
568.624	9240.3433
568.828	9845.16538
569.033	9383.50227
569.237	9730.84475
569.442	9690.00443
569.646	9563.36009
569.85	9506.14607
570.055	9767.59583
570.259	9565.40322
570.463	9741.05388
570.668	9771.67898
570.872	9900.26751
571.076	9798.21798
571.281	9734.92845
571.485	9781.88659
571.689	9996.16055
571.893	9714.50936
572.098	10030.8374
572.302	9832.91899
572.506	10106.29633
572.71	9481.62196
572.914	10055.31269
573.119	9930.87517
573.323	9943.11731
573.527	9932.91556
573.731	10102.21796
573.935	10069.589
574.139	10246.96599
574.343	9812.50716
574.547	10108.33549
574.751	9998.20047
574.955	10226.58314
575.159	9947.1979
575.364	10022.67851
575.568	9837.00118
575.772	10153.19353
575.976	9959.43935
576.18	10120.57017
576.383	10361.08508
576.587	10259.19505
576.791	10397.75737
576.995	10354.97262
577.199	10460.9053
577.403	10257.15691
577.607	10359.04761
577.811	10261.23318
578.015	10189.89056
578.219	10676.73825
578.422	10391.64562
578.626	10587.16426
578.83	10122.60923
579.034	10442.57331
579.238	10546.44087
579.442	10395.72013
579.645	10138.92125
579.849	10477.19952
580.053	10371.27225
580.257	10762.21873
580.46	10412.01767
580.664	10731.69242
580.868	10528.1137
581.071	10666.56058
581.275	10436.46242
581.479	10743.90326
581.682	10599.3803
581.886	10633.99
582.09	10699.12805
582.293	10941.2533
582.497	10562.73082
582.7	10656.38261
582.904	10804.95108
583.107	10786.63785
583.311	10837.50558
583.515	10937.18532
583.718	10585.12821
583.922	10715.41062
584.125	10684.88016
584.329	10497.56615
584.532	10623.81104
584.735	10961.59252
584.939	10507.74899
585.142	10796.81198
585.346	10471.08929
585.549	11010.40207
585.753	10963.62638
585.956	10782.56811
586.159	10985.9981
586.363	11079.53804
586.566	10878.19452
586.769	10853.78171
586.973	11030.7375
587.176	11063.27189
587.379	10739.83303
587.582	10937.18532
587.786	11085.63766
587.989	11120.20038
588.192	11030.7375
588.395	11189.31655
588.599	11173.05502
588.802	11242.16189
589.005	10817.15936
589.208	11099.86975
589.411	10780.53323
589.615	11205.5774
589.818	11083.60447
590.021	11301.09654
590.224	11053.10519
590.427	11319.38486
590.63	11132.39824
590.833	11309.22479
591.036	11268.58194
591.239	11152.72716
591.442	10929.04923
591.645	11181.18587
591.848	11343.76803
592.051	11384.40344
592.254	11579.39937
592.457	11416.90892
592.66	11173.05502
592.863	11384.40344
593.066	11402.68808
593.269	11364.08623
593.472	11315.32086
593.675	11703.25837
593.878	11185.25123
594.081	11425.0349
594.284	11463.63118
594.486	11624.07372
594.689	11524.56562
594.892	11337.67237
595.095	11368.14975
595.298	11508.31727
595.5	11561.12221
595.703	11942.76216
595.906	11441.28639
596.109	11510.34835
596.311	11672.80435
596.514	11682.95591
596.717	11697.16773
596.92	11845.35111
597.122	11504.25509
597.325	11952.90806
597.528	11749.95067
597.73	11841.2919
597.933	11751.98066
598.136	11956.96636
598.338	11680.92562
598.541	11948.84972
598.743	11894.05902
598.946	11975.22832
599.148	11940.73296
599.351	12042.18332
599.554	11887.97079
599.756	11843.32151
599.959	11885.94137
600.161	12295.72543
600.363	11851.43986
600.566	12021.89483
600.768	11756.04063
600.971	11926.5283
601.173	11898.11779
601.376	12072.61458
601.578	11875.79412
601.78	11961.02463
601.983	11948.84972
602.185	12174.03969
602.388	12196.3507
602.59	11995.51862
602.792	12072.61458
602.995	12149.69939
603.197	11942.76216
603.399	12336.28164
603.601	12119.27248
603.804	12135.50038
604.006	11831.14373
604.208	11938.70374
604.41	12247.05425
604.613	11961.02463
604.815	11983.34454
605.017	12386.973
605.219	12084.7866
605.421	12109.1298
605.623	11973.19924
605.826	12364.66933
606.028	12186.20945
606.23	12395.08323
606.432	12036.09685
606.634	12200.40716
606.836	12131.44345
607.038	12279.50216
607.24	12013.77922
607.442	12242.99814
607.644	12453.87913
607.846	12342.36483
608.048	12340.3371
608.25	12265.30643
608.452	11948.84972
608.654	12309.92042
608.856	12096.95834
609.058	12265.30643
609.26	12180.1246
609.462	12145.64256
609.664	12334.25389
609.866	11934.6453
610.067	12161.86967
610.269	11875.79412
610.471	11975.22832
610.673	12232.85772
610.875	12257.19442
611.077	12346.42025
611.278	12096.95834
611.48	12224.74525
611.682	12490.37035
611.884	12774.12196
612.085	12539.02205
612.287	12451.85178
612.489	12447.79706
612.69	12557.2655
612.892	12159.84131
613.094	12468.07042
613.295	12066.52847
613.497	12273.41832
613.699	12123.3295
613.9	12271.39035
614.102	12372.77985
614.304	12129.41497
614.505	11782.42954
614.707	12220.68898
614.908	12135.50038
615.11	12066.52847
615.311	12167.95472
615.513	12238.94199
615.714	12316.00388
615.916	12443.74231
616.117	12397.11076
616.319	12474.15229
616.52	12172.01138
616.722	12283.55802
616.923	12583.61624
617.124	12630.23422
617.326	11946.82054
617.527	12476.17957
617.729	12251.11034
617.93	12707.24824
618.131	12727.51367
618.333	12340.3371
618.534	12163.89803
618.735	12439.68753
618.937	12242.99814
619.138	12498.47923
619.339	12267.33441
619.54	12514.69666
619.742	12407.24836
619.943	12309.92042
620.144	12478.20685
620.345	12472.12501
620.546	12088.84388
620.748	12614.01964
620.949	12356.5587
621.15	12285.58594
621.351	12378.86267
621.552	12597.80466
621.753	12360.61403
621.954	12753.85786
622.155	12391.02813
622.356	12648.47516
622.558	12628.20742
622.759	12695.0887
622.96	12415.35831
623.161	12427.52304
623.362	12273.41832
623.563	12751.83142
623.764	12151.72779
623.965	12638.34137
624.166	12583.61624
624.366	12672.79566
624.567	12277.47422
624.768	12711.30137
624.969	12285.58594
625.17	12524.83235
625.371	12206.49178
625.572	12464.0158
625.773	12419.41325
625.973	12573.48146
626.174	12395.08323
626.375	12496.45202
626.576	12703.19508
626.777	12893.66886
626.977	12784.2538
627.178	12672.79566
627.379	12528.88659
627.58	12435.63273
627.78	12524.83235
627.981	12597.80466
628.182	12707.24824
628.382	12611.99279
628.583	12236.91391
628.784	12583.61624
628.984	12382.91785
629.185	12725.48715
629.386	12616.04648
629.586	12887.59066
629.787	12656.58209
629.987	12466.04311
630.188	12650.5019
630.388	12691.03547
630.589	12352.50334
630.79	12474.15229
630.99	12678.87565
631.191	12559.29251
631.391	12502.53362
631.591	12691.03547
631.792	12488.34312
631.992	12630.23422
632.193	12684.95559
632.393	12632.26102
632.594	12516.72382
632.794	12654.55537
632.994	12514.69666
633.195	12478.20685
633.395	12662.66223
633.595	12840.98953
633.796	12658.60881
633.996	12709.27481
634.196	12903.79908
634.397	12879.48632
634.597	12670.76899
634.797	12711.30137
634.997	12545.10326
635.198	12676.84899
635.398	12731.56668
635.598	12731.56668
635.798	12518.75096
635.998	12415.35831
636.199	12630.23422
636.399	12703.19508
636.599	12435.63273
636.799	12743.72559
636.999	12429.55047
637.199	12800.46446
637.399	12543.0762
637.599	12867.32965
637.799	12553.21144
637.999	12652.52864
638.199	12796.41183
638.399	12812.62221
638.599	12480.23412
638.799	12968.62941
638.999	12954.44823
639.199	13043.58296
639.399	13094.22343
639.599	12978.75867
639.799	12776.14834
639.999	12845.04191
640.199	12670.76899
640.399	12751.83142
640.599	12443.74231
640.799	13203.59678
640.998	13019.27445
641.198	13154.98807
641.398	12622.12698
641.598	12980.78451
641.798	12988.88781
641.997	12796.41183
642.197	12984.83617
642.397	13353.45775
642.597	12806.54336
642.796	13059.78824
642.996	12958.50002
643.196	13094.22343
643.395	12640.36814
643.595	13173.21664
643.795	12922.03315
643.994	13102.32563
644.194	12909.87715
644.394	13124.60628
644.593	13013.19721
644.793	12980.78451
644.992	12816.67475
645.192	13090.17231
645.392	12897.72096
645.591	12875.43412
645.791	13041.55728
645.99	12992.93942
646.19	12966.60354
646.389	13229.92542
646.589	12940.2668
646.788	13274.47989
646.987	12751.83142
647.187	13031.4288
647.386	12814.64848
647.586	13161.0643
647.785	12838.96333
647.984	13088.14674
648.184	13254.22812
648.383	13242.07685
648.582	13163.0897
648.782	13367.63259
648.981	13367.63259
649.18	13118.52979
649.38	13128.65724
649.579	13444.57835
649.778	13189.41951
649.977	13321.05734
650.177	13280.55534
650.376	13157.01348
650.575	12832.88469
650.774	13177.26739
650.973	13148.91179
651.173	13104.35117
651.372	13171.19126
651.571	13302.83165
651.77	13274.47989
651.969	13418.25544
652.168	13244.10207
652.367	13404.0813
652.566	13120.55529
652.765	13335.23265
652.964	13100.30009
653.163	13138.78458
653.362	13197.52084
653.561	13288.65587
653.76	13118.52979
653.959	13167.14049
654.158	13027.37737
654.357	13398.0066
654.556	13181.31811
654.755	13450.65278
654.954	13304.85674
655.153	13244.10207
655.352	13001.0426
655.551	13355.48274
655.749	13102.32563
655.948	13215.74856
656.147	13073.96761
656.346	13292.70612
656.545	13043.58296
656.743	13440.52872
656.942	13312.95708
657.141	13369.65756
657.34	13229.92542
657.538	13515.44453
657.737	13201.57147
657.936	13549.86362
658.135	13013.19721
658.333	13284.60561
658.532	12972.68113
658.731	13319.03228
658.929	13150.93722
659.128	13233.97591
659.326	13140.81003
659.525	13286.63075
659.724	13154.98807
659.922	13292.70612
660.121	13017.24871
660.319	13302.83165
660.518	12994.96523
660.716	13199.54616
660.915	13215.74856
661.113	13387.88203
661.312	13274.47989
661.51	13321.05734
661.709	13379.78231
661.907	13521.51857
662.105	13021.30019
662.304	13456.72717
662.502	13122.58079
662.701	13452.67758
662.899	13278.53019
663.097	13485.07388
663.296	13359.53271
663.494	13317.00722
663.692	12994.96523
663.891	13323.0824
664.089	13157.01348
664.287	13353.45775
664.485	13025.35165
664.684	13483.04914
664.882	13110.42775
665.08	13335.23265
665.278	13418.25544
665.476	13385.85711
665.675	12875.43412
665.873	13201.57147
666.071	13428.37972
666.269	13416.23058
666.467	13323.0824
666.665	13406.10619
666.863	13065.86514
667.061	13167.14049
667.259	12974.70698
667.457	13175.24202
667.655	12889.61673
667.853	13065.86514
668.051	12840.98953
668.249	13112.45327
668.447	13011.17146
668.645	13209.67269
668.843	13270.42957
669.041	13466.85108
669.239	13104.35117
669.437	13266.37923
669.635	13201.57147
669.833	13319.03228
670.031	13300.80655
670.229	13233.97591
670.426	13286.63075
670.624	13462.80153
670.822	12964.57767
671.02	13195.49551
671.218	13084.09558
671.415	12964.57767
671.613	12536.99497
671.811	12836.93712
672.009	12693.06209
672.206	13227.90017
672.404	13173.21664
672.602	13027.37737
672.799	13262.32888
672.997	13347.38275
673.195	13005.09416
673.392	13543.78974
673.59	13325.10745
673.788	13112.45327
673.985	12853.14662
674.183	13238.02639
674.38	13108.40223
674.578	13199.54616
674.775	13059.78824
674.973	13335.23265
675.17	13138.78458
675.368	13317.00722
675.565	12994.96523
675.763	12849.09428
675.96	12940.2668
676.158	12920.00716
676.355	12684.95559
676.553	13110.42775
676.75	12500.50643
676.947	12745.75206
677.145	12729.54018
677.342	13225.87491
677.539	12814.64848
677.737	12942.29273
677.934	12840.98953
678.131	13045.60864
678.329	12735.61967
678.526	13007.11993
678.723	13118.52979
678.92	13019.27445
679.118	12443.74231
679.315	12666.71562
679.512	12591.72395
679.709	12857.19894
679.906	12703.19508
680.104	12895.69491
680.301	12851.12045
680.498	12678.87565
680.695	12543.0762
680.892	12721.4341
681.089	12445.76969
681.286	12703.19508
681.483	12340.3371
681.68	12658.60881
681.877	12391.02813
682.075	12520.7781
682.272	12555.23847
682.469	12693.06209
682.665	12516.72382
682.862	12721.4341
683.059	12395.08323
683.256	12670.76899
683.453	12541.04913
683.65	12534.96789
683.847	12419.41325
684.044	12630.23422
684.241	12368.7246
684.438	12770.06919
684.635	12599.83156
684.831	13061.81388
685.028	12547.13031
685.225	12808.56965
685.422	12378.86267
685.619	12820.72727
685.815	12437.66013
686.012	12691.03547
686.209	12445.76969
686.405	12691.03547
686.602	12455.90648
686.799	12297.75331
686.996	12340.3371
687.192	12593.75086
687.389	12354.53102
687.586	12413.33083
687.782	12318.03169
687.979	12356.5587
688.175	12228.8015
688.372	12190.26597
688.568	12186.20945
688.765	12389.00057
688.962	12395.08323
689.158	12295.72543
689.355	12267.33441
689.551	12224.74525
689.748	12273.41832
689.944	12326.14285
690.14	12348.44796
690.337	12484.28863
690.533	12350.47565
690.73	12242.99814
690.926	12553.21144
691.123	12117.24396
691.319	12289.64176
691.515	12344.39254
691.712	11985.37357
691.908	12167.95472
692.104	12066.52847
692.301	12153.75618
692.497	11963.05375
692.693	12050.29849
692.889	12167.95472
693.086	12058.41354
693.282	12048.26971
693.478	12285.58594
693.674	12068.55718
693.87	12346.42025
694.067	12165.92638
694.263	12490.37035
694.459	12172.01138
694.655	12224.74525
694.851	11892.02962
695.047	11912.32325
695.243	12103.04411
695.439	12058.41354
695.635	11914.35257
695.831	11904.2059
696.027	11731.68032
696.224	12017.83704
696.42	11760.10056
696.615	12222.71712
696.811	11952.90806
697.007	11930.58682
697.203	11494.09947
697.399	11749.95067
697.595	11798.66815
697.791	11607.82901
697.987	11739.80056
698.183	11965.08287
698.379	12050.29849
698.575	12127.38649
698.77	11816.93593
698.966	11879.85304
699.162	11798.66815
699.358	11871.73516
699.554	11758.0706
699.749	11713.40927
699.945	11420.97193
700.141	11664.68294
700.337	11607.82901
700.532	11944.79136
700.728	11770.25023
700.924	11715.43942
701.119	11756.04063
701.315	11660.62218
701.511	11461.59988
701.706	11652.50055
701.902	11630.16533
702.097	11520.50359
702.293	11650.47012
702.489	11615.95144
702.684	11542.84429
702.88	11528.62762
703.075	11469.72501
703.271	11591.58372
703.466	11258.42058
703.662	11585.49158
703.857	11451.44326
704.053	11676.865
704.248	11339.70427
704.443	11689.04674
704.639	11636.25687
704.834	11751.98066
705.03	11646.40924
705.225	11601.7371
705.42	11323.44883
705.616	11583.46085
705.811	11575.33784
706.006	11488.00599
706.202	11573.30706
706.397	11591.58372
706.592	11166.95677
706.787	11768.22031
706.983	11485.9748
707.178	11445.34917
707.373	11388.46676
707.568	11447.38054
707.763	11274.67862
707.959	11445.34917
708.154	11337.67237
708.349	11325.48079
708.544	11451.44326
708.739	11425.0349
708.934	11284.83956
709.129	11124.26638
709.324	11061.23857
709.519	11516.44152
709.714	11083.60447
709.909	11498.16175
710.104	11339.70427
710.299	11030.7375
710.494	11217.77261
710.689	11292.96813
710.884	11199.47966
711.079	11079.53804
711.274	11061.23857
711.469	11376.27667
711.664	11203.54483
711.859	11264.51743
712.054	11376.27667
712.249	11114.1013
712.443	11217.77261
712.638	11234.03229
712.833	11142.56284
713.028	11453.4746
713.223	10886.33175
713.417	11398.6249
713.612	11069.37178
713.807	11144.59572
714.002	11040.90479
714.196	11223.87007
714.391	10996.16661
714.586	11368.14975
714.78	11329.54469
714.975	11276.71083
715.17	10969.72789
715.364	11152.72716
715.559	10994.13293
715.754	11063.27189
715.948	10906.67403
716.143	11042.93822
716.337	10959.55865
716.532	11160.85843
716.726	11140.52994
716.921	11063.27189
717.115	11227.93499
717.31	11152.72716
717.504	11012.43566
717.699	10912.7765
717.893	10623.81104
718.088	10809.02055
718.282	10652.31134
718.476	10705.2341
718.671	10633.99
718.865	10750.00853
719.059	10656.38261
719.254	10690.98647
719.448	10601.41626
719.642	10593.27233
719.837	10306.06861
720.031	10456.83161
720.225	10452.75788
720.419	10530.15011
720.614	10475.16279
720.808	10395.72013
721.002	10542.36825
721.196	10546.44087
721.39	10448.68409
721.585	10682.8447
721.779	10798.84677
721.973	10806.98582
722.167	10409.98053
722.361	10664.52501
722.555	10629.91845
722.749	10403.86901
722.943	10022.67851
723.137	10350.89757
723.331	10208.2374
723.525	10509.78551
723.719	10087.94323
723.913	10416.09193
724.107	10350.89757
724.301	10448.68409
724.495	10462.94212
724.689	10530.15011
724.883	10424.24028
725.077	10570.8755
725.271	10179.69739
725.465	10340.70974
725.659	9841.08331
725.853	10420.16613
726.046	10344.78491
726.24	10544.40457
726.434	10293.84141
726.628	10479.23624
726.822	9939.03665
727.015	10430.35141
727.209	10036.95641
727.403	10471.08929
727.596	10505.71244
727.79	10234.73644
727.984	10204.16042
728.177	10416.09193
728.371	10224.54478
728.565	10493.49293
728.758	10583.09214
728.952	10570.8755
729.146	10275.49971
729.339	10240.85128
729.533	10338.67213
729.726	10295.87931
729.92	10281.61373
730.113	10342.74733
730.307	10405.90619
730.5	10136.88229
730.694	10200.08339
730.887	10183.7747
731.081	10122.60923
731.274	10077.74658
731.468	10287.72763
731.661	10275.49971
731.854	10167.46513
732.048	10236.77473
732.241	10051.23362
732.435	10306.06861
732.628	10214.35277
732.821	10473.12604
733.014	10524.04086
733.208	10169.50387
733.401	10147.07692
733.594	10249.0042
733.788	10196.0063
733.981	10202.12191
734.174	10020.63875
734.367	9853.32934
734.56	10385.53375
734.754	9863.53396
734.947	10181.73605
735.14	10151.15467
735.333	10077.74658
735.526	10367.19742
735.719	9990.04067
735.912	10026.75798
736.105	10149.1158
736.298	9988.00068
736.491	10171.5426
736.684	10130.76535
736.877	10059.3917
737.07	10069.589
737.263	10161.34881
737.456	10587.16426
737.649	10108.33549
737.842	10371.27225
738.035	10265.3094
738.228	10022.67851
738.421	9932.91556
738.614	10098.13954
738.807	10094.06106
739	9828.83675
739.192	10085.90393
739.385	9965.55987
739.578	9783.92806
739.771	9934.95594
739.964	10016.55919
740.156	9930.87517
740.349	9526.58108
740.542	9930.87517
740.735	9988.00068
740.927	9751.26262
741.12	9851.28837
741.313	9961.47954
741.505	9716.55134
741.698	9487.7532
741.891	9681.83563
742.083	9763.51262
742.276	9892.10491
742.468	10110.37464
742.661	9767.59583
742.854	9957.39914
743.046	9871.69738
743.239	9967.60002
743.431	9747.17917
743.624	9596.04825
743.816	9467.31516
744.009	9624.64709
744.201	9530.66789
744.393	9661.41254
744.586	9653.24288
744.778	9589.91952
744.971	9736.97027
745.163	9567.44633
745.355	9534.75464
745.548	9643.03045
745.74	9467.31516
745.932	9510.2332
746.125	9810.46589
746.317	9841.08331
746.509	9722.67718
746.702	9906.38931
746.894	9581.74767
747.086	9453.00757
747.278	9469.35903
747.471	9528.62449
747.663	9399.85815
747.855	9549.05775
748.047	9393.72481
748.239	9346.69771
748.431	9628.73239
748.623	9834.9601
748.815	9598.09112
749.008	9700.21508
749.2	9412.12437
749.392	9690.00443
749.584	9358.96648
749.776	9565.40322
749.968	9379.41313
750.16	9432.56678
750.352	9485.70947
750.544	9332.38338
750.736	9475.49057
750.928	9687.96225
751.12	9363.05595
751.311	9563.36009
751.503	9616.4763
751.695	9434.61093
751.887	9379.41313
752.079	9616.4763
752.271	9279.20878
752.463	9581.74767
752.654	9334.42833
752.846	9788.01097
753.038	9178.96437
753.23	9307.84265
753.421	9285.34489
753.613	9553.14421
753.805	9448.91954
753.997	9342.60798
754.188	9097.10197
754.38	9236.25184
754.572	9361.01122
754.763	9538.84132
754.955	9129.85022
755.146	9377.36854
755.338	9064.3493
755.53	9367.14534
755.721	9060.25491
755.913	9268.98161
756.104	9170.77936
756.296	9107.33627
756.487	9084.82024
756.679	9213.74763
756.87	8757.07355
757.062	8982.44814
757.253	8882.0808
757.445	9271.02708
757.636	9236.25184
757.827	9156.45494
758.019	9007.02143
758.21	8890.27566
758.401	8687.36794
758.593	8818.56094
758.784	8691.46886
758.975	8459.64968
759.167	8451.43926
759.358	8793.96795
759.549	8605.33398
759.74	9007.02143
759.932	8732.47399
760.123	8763.22302
760.314	8839.05311
760.505	8785.7697
760.696	8498.64498
760.888	8593.02631
761.079	8414.48858
761.27	8631.99828
761.461	8572.51202
761.652	8775.52148
761.843	8406.27648
762.034	8681.21642
762.225	8496.59277
762.416	8675.06474
762.607	8211.14743
762.798	8248.13284
762.989	8202.92758
763.18	8116.59991
763.371	8457.5971
763.562	8246.07826
763.753	8340.56848
763.944	8535.58157
764.135	8465.80729
764.326	8465.80729
764.517	8231.69567
764.708	8467.85979
764.899	8285.11185
765.089	8313.86892
765.28	8369.31817
765.471	8190.5972
765.662	8017.89636
765.853	8391.90455
766.043	8204.98257
766.234	8305.65301
766.425	8067.25395
766.615	8106.32046
766.806	7882.10241
766.997	8155.65726
767.187	8071.36656
767.378	8091.92838
767.569	7865.63645
767.759	7964.41242
767.95	7906.79887
768.141	7877.98604
768.331	8024.0667
768.522	7974.69887
768.712	8005.55514
768.903	8408.32953
769.093	8161.82356
769.284	7962.35507
769.474	8067.25395
769.665	7861.51975
769.855	7733.86086
770.046	7947.95305
770.236	7601.99918
770.426	7709.14339
770.617	7500.98363
770.807	7797.70033
770.998	7511.2937
771.188	7688.54318
771.378	7556.65162
771.569	7884.16056
771.759	7515.41758
771.949	7832.70055
772.139	7719.4427
772.33	7581.38794
772.52	7362.77651
772.71	7659.69934
772.9	7857.40297
773.09	7482.42414
773.281	7503.04569
773.471	7643.21528
773.661	7527.78869
773.851	7620.54748
774.041	7383.41063
774.231	7333.88507
774.421	7181.10166
774.611	7243.05543
774.802	7249.24972
774.992	7503.04569
775.182	7292.60415
775.372	7222.40639
775.562	7203.82036
775.752	7474.17492
775.942	7288.47557
776.131	7622.60829
776.321	7243.05543
776.511	7453.55036
776.701	7395.79005
776.891	7164.57729
777.081	7123.26013
777.271	7040.59903
777.461	7021.99535
777.651	7042.666
777.84	7131.52427
778.03	6926.88137
778.22	7104.6645
778.41	7100.53189
778.599	7042.666
778.789	7271.96039
778.979	7139.78806
779.169	7240.99063
779.358	7123.26013
779.548	7276.08932
779.738	7207.95074
779.927	7263.70227
780.117	7354.52225
780.307	6924.81315
780.496	6920.67663
780.686	7050.93363
780.875	6839.99638
781.065	6943.42636
781.254	6821.37295
781.444	6875.16894
781.633	6759.28152
781.823	6835.858
782.012	6664.03464
782.202	7040.59903
782.391	6779.98095
782.581	6769.63152
782.77	6817.23416
782.96	6879.30645
783.149	6693.02796
783.338	6885.51256
783.528	6866.89363
783.717	6765.49159
783.906	6618.4646
784.096	6811.02581
784.285	6910.33493
784.474	6585.31575
784.663	6367.62921
784.853	6610.17794
785.042	6288.78416
785.231	6624.67935
785.42	6529.36364
785.61	6668.17682
785.799	6292.93474
785.988	6572.8834
786.177	6481.68741
786.366	6655.75001
786.555	6423.63021
786.744	6255.57614
786.933	6236.894
787.122	6624.67935
787.312	6228.59022
787.501	6581.17172
787.69	6321.98619
787.879	6552.16098
788.068	6261.8031
788.257	6651.60756
788.445	6423.63021
788.634	6436.07258
788.823	6224.43819
789.012	6543.87136
789.201	6234.81809
789.39	6473.39464
789.579	6076.98021
789.768	6415.33484
789.957	6120.60687
790.145	6211.98153
790.334	6000.08893
790.523	5964.74969
790.712	6303.31078
790.9	6236.894
791.089	6081.13557
791.278	6261.8031
791.467	6056.20196
791.655	6278.4073
791.844	6207.82912
792.033	6149.68556
792.221	6020.87353
792.41	5900.29001
792.599	5781.7082
792.787	5891.97098
792.976	5873.25178
793.164	5927.32425
793.353	6045.81195
793.541	6178.75964
793.73	6087.36845
793.918	5837.88809
794.107	5769.22145
794.295	5777.54604
794.484	5623.47985
794.672	5896.13054
794.861	5602.65019
795.049	6145.53174
795.238	5708.85681
795.426	5864.93153
795.614	5704.693
795.803	5912.76784
795.991	5575.5681
796.179	5873.25178
796.368	5808.75993
796.556	5898.21029
796.744	5592.23447
796.932	5812.92137
797.121	5513.05577
797.309	5831.64673
797.497	5796.27501
797.685	5740.08238
797.874	5750.48972
798.062	5812.92137
798.25	5490.12927
798.438	5790.03223
798.626	5412.99197
798.814	5719.26593
799.002	5304.52846
799.19	5700.5291
799.378	5546.39831
799.566	5623.47985
799.755	5273.22913
799.943	5519.30795
800.131	5571.40127
800.318	5560.98378
800.506	5550.56571
800.694	5504.71919
800.882	5463.03064
801.07	5613.06531
801.258	5241.92454
801.446	5421.33269
801.634	5262.79485
801.822	5571.40127
802.01	5379.62534
802.197	5554.73301
802.385	5147.97928
802.573	5312.87406
802.761	5202.26452
802.949	5410.90673
803.136	5179.29961
803.324	5339.99466
803.512	5546.39831
803.699	5446.35259
803.887	5302.442
804.075	5696.3651
804.262	5427.58798
804.45	5638.05921
804.638	5294.09594
804.825	5688.03682
805.013	5390.05306
805.201	5554.73301
805.388	5521.39197
805.576	5629.72829
805.763	5446.35259
805.951	5673.46142
806.138	5170.94803
806.326	5479.70719
806.513	5421.33269
806.701	5433.84306
806.888	5538.06324
807.075	5821.24399
807.263	5456.77655
807.45	5638.05921
807.638	5496.38223
807.825	5610.98233
808.012	5216.87709
808.2	5540.14705
808.387	5287.83614
808.574	5502.63498
808.761	5433.84306
808.949	5473.45366
809.136	5183.47526
809.323	5504.71919
809.51	5258.62098
809.698	5571.40127
809.885	5181.38744
810.072	5404.65088
810.259	5412.99197
810.446	5563.06733
810.633	5406.73619
810.82	5569.31782
811.008	5521.39197
811.195	5546.39831
811.382	5523.47596
811.569	5640.14188
811.756	5427.58798
811.943	5669.29681
812.13	5431.75806
812.317	5573.48469
812.504	5429.67303
812.691	5515.13985
812.878	5396.30941
813.064	5746.32685
813.251	5529.72779
813.438	5954.3545
813.625	5471.36911
813.812	5450.52225
813.999	5383.7965
814.186	5602.65019
814.372	5535.97942
814.559	5269.05549
814.746	5179.29961
814.933	5521.39197
815.12	5381.71093
815.306	5498.46651
815.493	5204.3521
815.68	5440.09793
815.866	5070.7001
816.053	5448.43743
816.24	5283.66283
816.426	5331.65028
816.613	5365.02555
816.799	5377.53973
816.986	5208.52719
817.173	5446.35259
817.359	5196.00164
817.546	5375.45409
817.732	5377.53973
817.919	5675.54369
818.105	5406.73619
818.292	5498.46651
818.478	5362.93977
818.665	5656.80241
818.851	5269.05549
819.037	5369.19704
819.224	5262.79485
819.41	5450.52225
819.597	5079.05613
819.783	5456.77655
819.969	4995.47911
820.156	5187.65081
820.342	5053.98691
820.528	5206.43966
820.714	4924.40962
820.901	5005.92826
821.087	5018.46648
821.273	5281.57613
821.459	5079.05613
821.646	5279.48942
821.832	5300.35552
822.018	5269.05549
822.204	5273.22913
822.39	5256.53401
822.576	5179.29961
822.762	5369.19704
822.948	5028.91436
823.134	5204.3521
823.32	5022.6457
823.507	5375.45409
823.693	5127.09615
823.879	5206.43966
824.065	5158.41997
824.25	5154.24376
824.436	4874.22694
824.622	4953.67675
824.808	4782.19119
824.994	4819.84751
825.18	4637.77404
825.366	4861.67921
825.552	4736.15681
825.738	4828.21458
825.923	4505.82173
826.109	4813.57197
826.295	4681.73844
826.481	5016.37683
826.667	4786.37559
826.852	4911.86519
827.038	4830.30629
827.224	5058.16535
827.409	4761.26783
827.595	4727.78575
827.781	4660.80424
827.966	4696.39104
828.152	4493.25025
828.338	4497.44083
828.523	4250.04709
828.709	4476.48704
828.894	4411.51634
829.08	4794.74411
829.266	4476.48704
829.451	4621.02309
829.637	4287.8046
829.822	4497.44083
830.008	4447.14804
830.193	4673.36503
830.378	4505.82173
830.564	4623.11704
830.749	4656.61714
830.935	4530.9623
831.12	4298.29156
831.305	4713.13552
831.491	4409.42016
831.676	4694.29788
831.861	4386.36075
832.047	4495.34555
832.232	4417.80474
832.417	4359.10532
832.602	4363.2987
832.788	4514.20227
832.973	4323.45808
833.158	4618.92912
833.343	4168.21549
833.528	4384.2643
833.714	4212.28267
833.899	4375.87832
834.084	4056.95712
834.269	4600.0824
834.454	4073.75459
834.639	4304.58348
834.824	4489.05958
835.009	4685.92501
835.194	4409.42016
835.379	4357.00859
835.564	4101.04764
835.749	4283.60966
835.934	4180.80706
836.119	4365.39536
836.304	4287.8046
836.489	4524.67745
836.674	4140.93114
836.859	4168.21549
837.044	4159.82068
837.228	4166.11682
837.413	4111.54403
837.598	4231.16575
837.783	4159.82068
837.968	4432.47693
838.152	4073.75459
838.337	4157.72193
838.522	3985.55315
838.707	4105.24626
838.891	3788.02036
839.076	4019.15798
839.261	3781.71323
839.445	4155.62315
839.63	3998.15558
839.815	4216.47906
839.999	3951.9431
840.184	3983.45268
840.368	3855.28538
840.553	4111.54403
840.737	3905.7208
840.922	4149.3267
841.106	3859.48878
841.291	4067.45569
841.475	3943.53977
841.66	3869.9969
841.844	3577.68924
842.029	4082.15282
842.213	3771.20096
842.397	3888.91028
842.582	3556.64573
842.766	3872.09847
842.951	3739.66121
843.135	3830.06337
843.319	3678.67203
843.504	3832.16531
843.688	3657.63754
843.872	3779.61081
844.056	3602.939
844.241	3798.53185
844.425	3470.3481
844.609	3645.01593
844.793	3552.43681
844.977	3882.606
845.161	3592.4186
845.346	3909.92323
845.53	3754.3803
845.714	3611.35499
845.898	3371.38428
846.082	3607.14704
846.266	3350.32312
846.45	3596.62682
846.634	3504.02888
846.818	3544.01873
847.002	3493.50413
847.186	3661.84459
847.37	3367.17219
847.554	3510.3435
847.738	3285.02253
847.922	3544.01873
848.106	3430.34618
848.29	3476.6636
848.473	3522.97226
848.657	3546.12328
848.841	3577.68924
849.025	3556.64573
849.209	3154.37273
849.392	3476.6636
849.576	3251.31258
849.76	3373.4903
849.944	3278.70224
850.127	3520.86752
850.311	3247.09854
850.495	3278.70224
850.678	3059.50709
850.862	3426.13508
851.046	3059.50709
851.229	3268.1681
851.413	3105.88987
851.596	3112.2142
851.78	3219.7056
851.964	3354.53549
852.147	2922.42363
852.331	3295.556
852.514	3158.58822
852.698	3190.20239
852.881	2905.54746
853.065	3226.0273
853.248	2930.86136
853.431	3175.44957
853.615	2899.21866
853.798	2966.71909
853.982	2897.10903
854.165	3072.15769
854.348	3015.22559
854.532	2966.71909
854.715	2702.96336
854.898	2827.48325
855.081	2641.7419
855.265	3038.42151
855.448	2574.17503
855.631	2793.7198
855.814	2702.96336
855.997	2776.83676
856.181	2749.39997
856.364	2977.26466
856.547	2857.02335
856.73	2937.1895
856.913	2726.18246
857.096	2787.38876
857.279	2736.73607
857.462	2757.8423
857.645	2635.40804
857.828	2861.24313
858.011	2447.4547
858.194	2675.52058
858.377	2546.72247
858.56	3143.8337
858.743	2618.5172
858.926	2932.97076
859.109	2686.07575
859.292	2694.51966
859.475	2477.02641
859.658	2705.07425
859.841	2413.65586
860.023	2705.07425
860.206	2544.61065
860.389	2871.79236
860.572	2557.28138
860.755	2531.9395
860.937	2500.2598
861.12	2521.37989
861.303	2626.96272
861.486	2455.90398
861.668	2599.51407
861.851	2624.85136
862.034	2312.2435
862.216	2508.70797
862.399	2320.69541
862.581	2280.5475
862.764	2225.60286
862.947	2371.40354
863.129	2196.0148
863.312	2130.49256
863.494	2026.91008
863.677	2185.44723
863.859	2079.76047
864.042	2231.94293
864.224	2092.4439
864.406	2257.30244
864.589	2001.54037
864.771	2329.14716
864.954	1999.42618
865.136	2212.92247
865.318	2050.16479
865.501	2174.87946
865.683	2014.22534
865.865	2160.08422
866.048	1887.36568
866.23	2263.64211
866.412	2090.33002
866.594	2187.56076
866.777	2067.07678
866.959	2155.85694
867.141	2041.70863
867.323	2198.12829
867.505	2037.48051
867.687	2117.80995
867.869	2130.49256
868.052	2278.43436
868.234	2092.4439
868.416	2253.07594
868.598	1935.99772
868.78	2073.41866
868.962	2119.92374
869.144	2109.35472
869.326	1984.62671
869.508	1944.45516
869.69	1845.07468
869.872	1940.22645
870.054	1887.36568
870.236	1959.25546
870.417	1919.08256
870.599	2037.48051
870.781	1798.55239
870.963	1961.36976
871.145	1779.51994
871.327	2024.79597
871.508	1686.46804
871.69	1910.62485
871.872	1857.76219
872.054	2003.65455
872.235	1773.17572
872.417	2022.68186
872.599	1995.19779
872.78	1986.74094
872.962	1906.39595
873.144	1940.22645
873.325	1872.56406
873.507	1902.16704
873.689	1813.35517
873.87	2143.17489
874.052	1773.17572
874.233	1760.48716
874.415	1961.36976
874.596	2096.67165
874.778	1762.60193
874.959	1935.99772
875.141	1684.35315
875.322	2024.79597
875.503	1908.5104
875.685	1965.59835
875.866	1703.38705
876.048	1739.33927
876.229	1610.33037
876.41	1758.37239
876.592	1559.5704
876.773	1663.2041
876.954	1498.23443
877.136	1720.30586
877.317	1515.15477
877.498	1891.59467
877.679	1724.53553
877.86	1902.16704
878.042	1796.43769
878.223	2096.67165
878.404	1741.45408
878.585	1790.09357
878.766	1686.46804
878.947	1838.73087
879.128	1644.16972
879.309	1885.25118
879.49	1817.5845
879.672	1836.61625
879.853	1752.02805
880.034	2003.65455
880.215	1694.92757
880.396	1984.62671
880.576	1739.33927
880.757	1927.54019
880.938	1800.66709
881.119	1857.76219
881.3	1631.48003
881.481	1720.30586
881.662	1432.66785
881.843	1817.5845
882.023	1724.53553
882.204	1800.66709
882.385	1783.7494
882.566	1950.79818
882.747	1713.96133
882.927	1847.18928
883.108	1561.68542
883.289	1762.60193
883.469	1595.52548
883.65	1796.43769
883.831	1652.62947
884.011	1826.0431
884.192	1728.76519
884.373	1933.88335
884.553	1544.76525
884.734	1760.48716
884.914	1625.13515
885.095	1747.79847
885.275	1620.90523
885.456	1859.87676
885.636	1483.42909
885.817	1720.30586
885.997	1745.68368
886.178	1990.96938
886.358	1754.14283
886.538	1842.96008
886.719	1720.30586
886.899	1914.85371
887.08	1866.22043
887.26	1986.74094
887.44	1773.17572
887.621	2001.54037
887.801	1813.35517
887.981	1891.59467
888.161	1747.79847
888.342	1969.82692
888.522	1847.18928
888.702	1889.48018
888.882	1739.33927
889.062	1969.82692
889.242	1732.99483
889.423	1688.58293
889.603	1762.60193
889.783	2045.93672
889.963	1792.20828
890.143	1815.46984
890.323	1754.14283
890.503	1957.14115
890.683	1758.37239
890.863	1834.50163
891.043	1629.36507
891.223	1938.11209
891.403	1635.70994
891.583	2077.64654
891.763	1718.19102
891.943	1952.91251
892.122	1701.27219
892.302	1775.29046
892.482	1546.88027
892.662	1648.3996
892.842	1642.05478
893.022	1794.32299
893.201	1665.31902
893.381	1878.90764
893.561	1589.1805
893.741	1847.18928
893.92	1686.46804
894.1	1779.51994
894.28	1483.42909
894.459	1737.22446
894.639	1494.00433
894.819	1699.15732
894.998	1601.87044
895.178	1563.80043
895.357	1409.40231
895.537	1673.77866
895.716	1449.58827
895.896	1584.9505
896.075	1447.47322
896.255	1561.68542
896.434	1364.9865
896.614	1510.92469
896.793	1324.8012
896.973	1589.1805
897.152	1386.13684
897.331	1458.04848
897.511	1576.49049
897.69	1553.22534
897.87	1352.29635
898.049	1436.89795
898.228	1373.44662
898.407	1417.8625
898.587	1238.08789
898.766	1426.3227
898.945	1246.54755
899.124	1455.93342
899.304	1331.14621
899.483	1568.03046
899.662	1257.12217
899.841	1371.33159
900.02	1280.38658
900.199	1551.11032
900.378	1326.9162
900.557	1536.30513
900.737	1297.30633
900.916	1384.0218
901.095	1225.3985
901.274	1417.8625
901.453	1113.31442
901.632	1187.33102
901.811	1147.14995
901.989	1248.66247
902.168	1138.69096
902.347	1238.08789
902.526	1216.93897
902.705	1180.98655
902.884	1035.07458
903.063	1153.49423
903.242	1062.56342
903.42	1060.44886
903.599	897.64656
903.778	1079.4801
903.957	1062.56342
904.135	1119.6585
904.314	1111.19974
904.493	1157.72378
904.672	977.98559
904.85	950.5
905.029	1068.90714
905.207	1136.57623
905.386	935.70057
905.565	840.57043
905.743	946.27156
905.922	876.50654
906.1	908.21687
906.279	982.21424
906.457	899.7606
906.636	927.24391
906.814	751.79841
906.993	857.48123
907.171	705.30587
907.35	798.29594
907.528	709.53225
907.707	753.91183
907.885	622.90065
908.063	730.6648
908.242	622.90065
908.42	756.02526
908.598	605.99929
908.777	806.75054
908.955	658.81867
909.133	663.04455
909.311	553.18786
909.49	586.98623
909.668	580.64877
909.846	538.40216
910.024	578.53632
910.202	743.34484
910.38	726.4382
910.559	696.85324
910.737	644.02847
910.915	751.79841
911.093	625.01338
911.271	730.6648
911.449	614.44987
911.627	686.28771
911.805	637.69
911.983	724.32492
912.161	791.95509
912.339	794.0687
912.517	637.69
912.695	817.319
912.872	709.53225
913.05	768.70605
913.228	586.98623
913.406	663.04455
913.584	578.53632
913.762	825.77394
913.939	641.91564
914.117	783.50075
914.295	546.85105
914.473	688.40079
914.65	692.62699
914.828	633.46441
915.006	584.87373
915.184	555.30016
915.361	688.40079
915.539	749.685
915.716	572.19902
915.894	764.47908
916.072	527.84137
916.249	682.06158
916.427	663.04455
916.604	618.67523
916.782	631.35163
916.959	625.01338
917.137	475.04277
917.314	629.23887
917.492	515.16888
917.669	519.39299
917.847	460.26082
918.024	665.1575
918.201	572.19902
918.379	616.56254
918.556	553.18786
918.733	713.75867
918.911	523.61715
919.088	616.56254
919.265	477.15454
919.442	551.07558
919.62	443.36809
919.797	496.16112
919.974	380.02937
920.151	506.72084
920.328	498.27303
920.506	527.84137
920.683	420.14221
920.86	551.07558
921.037	339.92257
921.214	504.60887
921.391	449.70275
921.568	532.06565
921.745	494.04922
921.922	515.16888
922.099	386.36258
922.276	475.04277
922.453	335.70117
922.63	553.18786
922.807	405.3631
922.984	396.91826
923.161	418.03086
923.338	388.47368
923.514	430.69919
923.691	392.69594
923.868	354.69804
924.045	375.80731
924.222	434.92209
924.399	443.36809
924.575	392.69594
924.752	413.80821
924.929	405.3631
925.105	325.14796
925.282	358.91976
925.459	392.69594
925.635	329.36919
925.812	388.47368
925.989	291.38072
926.165	409.58562
926.342	308.26376
926.518	293.49103
926.695	361.03064
926.871	371.58532
927.048	329.36919
927.224	289.27042
927.401	270.27857
927.577	375.80731
927.754	310.37423
927.93	342.0333
928.107	259.7282
928.283	375.80731
928.459	240.73873
928.636	268.16846
928.812	240.73873
928.988	276.60902
929.165	274.49885
929.341	325.14796
929.517	314.5952
929.693	261.83823
929.87	175.34274
930.046	251.28824
930.222	238.62888
930.398	223.86052
930.574	278.71921
930.751	314.5952
930.927	215.42188
931.103	342.0333
931.279	301.93248
931.455	112.07516
931.631	242.84859
931.807	253.3982
931.983	228.07995
932.159	257.61818
932.335	240.73873
932.511	238.62888
932.687	270.27857
932.863	274.49885
933.039	164.79683
933.215	183.77985
933.391	215.42188
933.566	228.07995
933.742	152.14241
933.918	183.77985
934.094	221.75083
934.27	131.05342
934.445	143.70656
934.621	99.42397
934.797	156.36047
934.973	133.16222
935.148	156.36047
935.324	112.07516
935.5	76.23219
935.675	139.48876
935.851	147.92445
936.027	53.04315
936.202	137.37989
936.378	114.18377
936.553	99.42397
936.729	88.88192
936.904	128.94464
937.08	126.83588
937.255	101.53244
937.431	147.92445
937.606	88.88192
937.782	74.12398
937.957	90.99028
938.133	143.70656
938.308	173.23352
938.483	126.83588
938.659	59.36716
938.834	69.90763
939.009	88.88192
939.185	107.85801
939.36	40.39575
939.535	63.58328
939.71	21.42623
939.886	76.23219
940.061	57.25913
940.236	116.2924
940.411	42.50359
940.586	31.96461
940.761	166.90597
940.937	63.58328
941.112	38.28793
941.287	0.35123
941.462	-22.82848
941.637	59.36716
941.812	76.23219
941.987	139.48876
942.162	-50.21884
942.337	10.88843
942.512	74.12398
942.687	48.82725
942.862	23.53386
943.037	50.93519
943.212	63.58328
943.386	50.93519
943.561	82.55695
943.736	38.28793
943.911	4.56604
944.086	10.88843
944.26	6.67348
944.435	82.55695
944.61	31.96461
944.785	-83.9242
944.959	8.78094
945.134	31.96461
945.309	72.0158
945.483	67.79949
945.658	19.31862
945.833	19.31862
946.007	67.79949
946.182	15.10348
946.357	-33.36373
946.531	59.36716
946.706	8.78094
946.88	40.39575
947.055	4.56604
947.229	12.99594
947.404	72.0158
947.578	19.31862
947.752	46.71934
947.927	72.0158
948.101	40.39575
948.276	48.82725
948.45	27.74919
948.624	-12.29261
948.799	-12.29261
948.973	29.85689
949.147	55.15113
949.321	-20.72135
949.496	-16.50703
949.67	50.93519
949.844	8.78094
950.018	12.99594
950.193	12.99594
950.367	-1.75614
950.541	-20.72135
950.715	4.56604
950.889	55.15113
951.063	38.28793
951.237	84.66525
951.411	-8.0781
951.585	17.21104
951.759	4.56604
951.933	48.82725
952.107	65.69137
952.281	72.0158
952.455	-1.75614
952.629	59.36716
952.803	0.35123
952.977	25.64151
953.151	80.44868
953.325	72.0158
953.499	63.58328
953.672	105.74946
953.846	84.66525
954.02	38.28793
954.194	48.82725
954.368	80.44868
954.541	12.99594
954.715	97.31551
954.889	46.71934
955.062	10.88843
955.236	25.64151
955.41	82.55695
955.583	63.58328
955.757	17.21104
955.93	74.12398
956.104	8.78094
956.278	0.35123
956.451	21.42623
956.625	-3.86348
956.798	-35.47071
956.972	25.64151
957.145	101.53244
957.319	-33.36373
957.492	97.31551
957.665	-10.18537
957.839	63.58328
958.012	-3.86348
958.185	21.42623
958.359	40.39575
958.532	38.28793
958.705	31.96461
958.879	61.47521
959.052	55.15113
959.225	57.25913
959.398	-12.29261
959.572	-33.36373
959.745	112.07516
959.918	4.56604
960.091	15.10348
960.264	29.85689
960.438	-8.0781
960.611	23.53386
960.784	59.36716
960.957	147.92445
961.13	12.99594
961.303	118.40105
961.476	-8.0781
961.649	31.96461
961.822	10.88843
961.995	42.50359
962.168	-1.75614
962.341	17.21104
962.514	93.09867
962.686	-14.39983
962.859	44.61145
963.032	-20.72135
963.205	50.93519
963.378	34.07236
963.551	29.85689
963.723	124.72714
963.896	50.93519
964.069	-3.86348
964.242	2.45862
964.414	59.36716
964.587	-3.86348
964.76	76.23219
964.932	15.10348
965.105	12.99594
965.278	97.31551
965.45	86.77357
965.623	21.42623
965.795	8.78094
965.968	42.50359
966.14	-10.18537
966.313	63.58328
966.485	29.85689
966.658	0.35123
966.83	65.69137
967.003	40.39575
967.175	21.42623
967.348	-29.1497
967.52	112.07516
967.692	29.85689
967.865	74.12398
968.037	-3.86348
968.209	74.12398
968.382	-10.18537
968.554	34.07236
968.726	-1.75614
968.898	12.99594
969.071	-31.25673
969.243	74.12398
969.415	-27.04265
969.587	31.96461
969.759	-20.72135
969.932	-46.00521
970.104	0.35123
970.276	122.61842
970.448	15.10348
970.62	88.88192
970.792	34.07236
970.964	38.28793
971.136	-12.29261
971.308	6.67348
971.48	25.64151
971.652	29.85689
971.824	55.15113
971.996	-1.75614
972.168	74.12398
972.339	50.93519
972.511	2.45862
972.683	19.31862
972.855	0.35123
973.027	86.77357
973.199	-35.47071
973.37	31.96461
973.542	-20.72135
973.714	-20.72135
973.886	-39.68458
974.057	4.56604
974.229	-12.29261
974.401	23.53386
974.572	-83.9242
974.744	21.42623
974.915	6.67348
975.087	21.42623
975.259	69.90763
975.43	-20.72135
975.602	38.28793
975.773	82.55695
975.945	57.25913
976.116	48.82725
976.288	12.99594
976.459	8.78094
976.63	-46.00521
976.802	-1.75614
976.973	-20.72135
977.145	-24.93558
977.316	-33.36373
977.487	-29.1497
977.659	-24.93558
977.83	21.42623
978.001	-5.9708
978.172	-18.61421
978.344	-54.43236
978.515	8.78094
978.686	-50.21884
978.857	38.28793
979.028	-3.86348
979.2	48.82725
979.371	21.42623
979.542	-113.41097
979.713	4.56604
979.884	46.71934
980.055	6.67348
980.226	-29.1497
980.397	-33.36373
980.568	46.71934
980.739	-37.57766
980.91	-5.9708
981.081	69.90763
981.252	23.53386
981.423	34.07236
981.594	46.71934
981.765	2.45862
981.936	80.44868
982.106	-43.89836
982.277	25.64151
982.448	38.28793
982.619	84.66525
982.79	17.21104
982.96	-22.82848
983.131	-88.13691
983.302	-24.93558
983.472	-12.29261
983.643	114.18377
983.814	55.15113
983.984	-16.50703
984.155	-29.1497
984.326	114.18377
984.496	-31.25673
984.667	-50.21884
984.837	17.21104
985.008	38.28793
985.178	-1.75614
985.349	40.39575
985.519	42.50359
985.69	46.71934
985.86	-5.9708
986.031	10.88843
986.201	-16.50703
986.371	55.15113
986.542	-3.86348
986.712	21.42623
986.882	-18.61421
987.053	34.07236
987.223	63.58328
987.393	25.64151
987.563	-43.89836
987.734	8.78094
987.904	-96.56202
988.074	72.0158
988.244	-1.75614
988.414	6.67348
988.585	-35.47071
988.755	55.15113
988.925	48.82725
989.095	55.15113
989.265	-41.79148
989.435	-3.86348
989.605	40.39575
989.775	116.2924
989.945	-16.50703
990.115	-83.9242
990.285	65.69137
990.455	6.67348
990.625	-8.0781
990.795	-35.47071
990.965	4.56604
991.134	19.31862
991.304	2.45862
991.474	-1.75614
991.644	19.31862
991.814	46.71934
991.984	-8.0781
992.153	74.12398
992.323	-56.53909
992.493	57.25913
992.662	44.61145
992.832	55.15113
993.002	21.42623
993.171	-5.9708
993.341	-60.75247
993.511	8.78094
993.68	-54.43236
993.85	42.50359
994.019	10.88843
994.189	0.35123
994.358	17.21104
994.528	46.71934
994.697	72.0158
994.867	4.56604
995.036	-81.81781
995.206	-20.72135
995.375	-29.1497
995.544	40.39575
995.714	-83.9242
995.883	-10.18537
996.052	-16.50703
996.222	25.64151
996.391	0.35123
996.56	65.69137
996.73	-46.00521
996.899	82.55695
997.068	-37.57766
997.237	-37.57766
997.406	44.61145
997.576	-67.07234
997.745	-37.57766
997.914	-83.9242
998.083	88.88192
998.252	-37.57766
998.421	0.35123
998.59	46.71934
998.759	21.42623
998.928	-41.79148
999.097	46.71934
999.266	8.78094
999.435	-14.39983
999.604	15.10348
999.773	29.85689
999.942	55.15113
1000.111	-33.36373
1000.28	-10.18537
1000.448	31.96461
1000.617	-10.18537
1000.786	-20.72135
1000.955	21.42623
1001.124	-62.85911
1001.292	38.28793
1001.461	59.36716
1001.63	-8.0781
1001.798	-14.39983
1001.967	72.0158
1002.136	25.64151
1002.304	4.56604
1002.473	25.64151
1002.642	-41.79148
1002.81	-37.57766
1002.979	38.28793
1003.147	-37.57766
1003.316	-10.18537
1003.484	-10.18537
1003.653	50.93519
1003.821	-41.79148
1003.99	67.79949
1004.158	21.42623
1004.327	-14.39983
1004.495	6.67348
1004.663	4.56604
1004.832	23.53386
1005	-33.36373
1005.168	-77.60495
1005.337	-10.18537
1005.505	-33.36373
1005.673	31.96461
1005.842	-3.86348
1006.01	40.39575
1006.178	44.61145
1006.346	-16.50703
1006.514	-41.79148
1006.683	4.56604
1006.851	0.35123
1007.019	29.85689
1007.187	4.56604
1007.355	31.96461
1007.523	-18.61421
1007.691	21.42623
1007.859	12.99594
1008.027	10.88843
1008.195	-33.36373
1008.363	-12.29261
1008.531	55.15113
1008.699	21.42623
1008.867	-8.0781
1009.035	-12.29261
1009.203	-37.57766
1009.37	15.10348
1009.538	-27.04265
1009.706	67.79949
1009.874	-52.32561
1010.042	4.56604
1010.209	46.71934
1010.377	-48.11204
1010.545	21.42623
1010.713	-33.36373
1010.88	25.64151
1011.048	15.10348
1011.216	-41.79148
1011.383	-54.43236
1011.551	34.07236
1011.718	17.21104
1011.886	-64.96574
1012.054	-20.72135
1012.221	-1.75614
1012.389	-62.85911
1012.556	-8.0781
1012.724	-8.0781
1012.891	-14.39983
1013.058	6.67348
1013.226	46.71934
1013.393	59.36716
1013.561	-18.61421
1013.728	12.99594
1013.895	15.10348
1014.063	25.64151
1014.23	46.71934
1014.397	-27.04265
1014.565	21.42623
1014.732	-10.18537
1014.899	46.71934
1015.066	36.18013
1015.233	-58.64579
1015.401	-8.0781
1015.568	-37.57766
1015.735	23.53386
1015.902	15.10348
1016.069	-33.36373
1016.236	-3.86348
1016.403	34.07236
1016.57	-48.11204
1016.737	2.45862
1016.904	-37.57766
1017.071	29.85689
1017.238	-48.11204
1017.405	-3.86348
1017.572	-29.1497
1017.739	29.85689
1017.906	-46.00521
1018.073	23.53386
1018.24	-52.32561
1018.407	-12.29261
1018.573	-20.72135
1018.74	-35.47071
1018.907	6.67348
1019.074	-5.9708
1019.241	-56.53909
1019.407	-46.00521
1019.574	0.35123
1019.741	46.71934
1019.907	-24.93558
1020.074	12.99594
1020.241	2.45862
1020.407	10.88843
1020.574	38.28793
1020.74	38.28793
1020.907	-20.72135
1021.073	-20.72135
1021.24	-69.17891
1021.406	-1.75614
1021.573	-100.77442
1021.739	12.99594
1021.906	38.28793
1022.072	-3.86348
1022.239	-12.29261
1022.405	-37.57766
1022.571	50.93519
1022.738	-50.21884
1022.904	-20.72135
1023.07	-37.57766
1023.237	-22.82848
1023.403	12.99594
1023.569	-16.50703
1023.735	0.35123
1023.902	-58.64579
1024.068	29.85689
1024.234	12.99594
1024.4	42.50359
1024.566	31.96461
1024.732	29.85689
1024.898	-27.04265
1025.065	4.56604
1025.231	-16.50703
1025.397	-3.86348
1025.563	-50.21884
1025.729	6.67348
1025.895	-43.89836
1026.061	-12.29261
1026.227	-20.72135
1026.392	63.58328
1026.558	-1.75614
1026.724	-3.86348
1026.89	23.53386
1027.056	-33.36373
1027.222	17.21104
1027.388	-35.47071
1027.553	-8.0781
1027.719	44.61145
1027.885	-31.25673
1028.051	-60.75247
1028.216	-46.00521
1028.382	29.85689
1028.548	29.85689
1028.713	29.85689
1028.879	2.45862
1029.045	-1.75614
1029.21	-3.86348
1029.376	-130.25824
1029.541	4.56604
1029.707	8.78094
1029.873	-14.39983
1030.038	-37.57766
1030.204	-54.43236
1030.369	4.56604
1030.534	-22.82848
1030.7	-12.29261
1030.865	6.67348
1031.031	-37.57766
1031.196	-33.36373
1031.361	-46.00521
1031.527	-37.57766
1031.692	-130.25824
1031.857	-29.1497
1032.023	-67.07234
1032.188	40.39575
1032.353	4.56604
1032.518	-18.61421
1032.684	-90.24323
1032.849	21.42623
1033.014	-22.82848
1033.179	-10.18537
1033.344	0.35123
1033.509	-10.18537
1033.674	23.53386
1033.839	29.85689
1034.004	-3.86348
1034.17	17.21104
1034.335	-33.36373
1034.5	42.50359
1034.664	80.44868
1034.829	-33.36373
1034.994	61.47521
1035.159	38.28793
1035.324	-12.29261
1035.489	-18.61421
1035.654	12.99594
1035.819	46.71934
1035.984	42.50359
1036.148	-8.0781
1036.313	-50.21884
1036.478	29.85689
1036.643	-29.1497
1036.807	-5.9708
1036.972	8.78094
1037.137	25.64151
1037.301	-35.47071
1037.466	10.88843
1037.631	67.79949
1037.795	-35.47071
1037.96	-31.25673
1038.124	-20.72135
1038.289	-10.18537
1038.454	-88.13691
1038.618	-18.61421
1038.783	-35.47071
1038.947	-46.00521
1039.111	12.99594
1039.276	-1.75614
1039.44	50.93519
1039.605	-94.45578
1039.769	-20.72135
1039.933	6.67348
1040.098	-64.96574
1040.262	-5.9708
1040.426	-35.47071
1040.591	-64.96574
1040.755	-29.1497
1040.919	-20.72135
1041.083	4.56604
1041.248	-62.85911
1041.412	-1.75614
1041.576	29.85689
1041.74	-1.75614
1041.904	-20.72135
1042.068	-33.36373
1042.232	-35.47071
1042.397	-81.81781
1042.561	-69.17891
1042.725	-37.57766
1042.889	-1.75614
1043.053	-24.93558
1043.217	42.50359
1043.381	-73.39198
1043.544	72.0158
1043.708	-18.61421
1043.872	12.99594
1044.036	-58.64579
1044.2	6.67348
1044.364	19.31862
1044.528	69.90763
1044.691	-3.86348
1044.855	-39.68458
1045.019	-81.81781
1045.183	-71.28546
1045.346	-39.68458
1045.51	50.93519
1045.674	-83.9242
1045.837	34.07236
1046.001	-62.85911
1046.165	-3.86348
1046.328	-73.39198
1046.492	-46.00521
1046.655	-1.75614
1046.819	15.10348
1046.983	-46.00521
1047.146	-22.82848
1047.31	21.42623
1047.473	-37.57766
1047.636	-22.82848
1047.8	-83.9242
1047.963	-1.75614
1048.127	-43.89836
1048.29	-46.00521
