Data from absorb_only_2.23.25_USB4F045381__41__0146.txt Node

Date: Sun Feb 23 19:19:54 EST 2025
User: ssocol
Spectrometer: USB4F04538
Trigger mode: 4
Integration Time (sec): 2.600000E-3
Scans to average: 1
Electric dark correction enabled: true
Nonlinearity correction enabled: true
Boxcar width: 0
XAxis mode: Wavelengths
Number of Pixels in Spectrum: 3648
>>>>>Begin Spectral Data<<<<<
345.52	8.95656
345.736	8.95656
345.952	8.95656
346.168	-47.93647
346.384	-12.11701
346.6	2.63424
346.816	21.60186
347.032	63.75895
347.248	-16.33143
347.464	11.06405
347.68	-47.93647
347.896	-7.90249
348.112	-3.68787
348.328	-10.00976
348.544	19.49425
348.76	-16.33143
348.975	-16.33143
349.191	-3.68787
349.407	-16.33143
349.623	25.81715
349.839	-10.00976
350.055	-7.90249
350.27	4.74166
350.486	-45.82964
350.702	-35.29512
350.918	-113.23547
351.133	19.49425
351.349	-3.68787
351.565	63.75895
351.781	-7.90249
351.996	0.52684
352.212	32.14026
352.428	89.05761
352.644	57.4348
352.859	-20.54576
353.075	-28.97412
353.291	-54.2568
353.506	32.14026
353.722	38.46358
353.938	-62.68356
354.153	-24.75999
354.369	-58.47023
354.584	67.97517
354.8	-18.43861
355.016	-28.97412
355.231	-3.68787
355.447	-64.79019
355.662	38.46358
355.878	-20.54576
356.093	-37.40208
356.309	4.74166
356.524	4.74166
356.74	17.38667
356.955	-7.90249
357.171	32.14026
357.386	49.00291
357.602	-24.75999
357.817	-3.68787
358.033	30.03253
358.248	13.17157
358.464	55.32679
358.679	-54.2568
358.895	-60.57691
359.11	4.74166
359.325	-58.47023
359.541	-58.47023
359.756	-18.43861
359.972	99.59967
360.187	15.2791
360.402	6.8491
360.618	46.895
360.833	-31.08114
361.048	21.60186
361.264	-33.18815
361.479	15.2791
361.694	-1.58052
361.909	-73.21644
362.125	-66.89679
362.34	0.52684
362.555	-1.58052
362.77	6.8491
362.986	34.24801
363.201	13.17157
363.416	32.14026
363.631	-81.64228
363.847	-26.86706
364.062	-41.61591
364.277	67.97517
364.492	91.16598
364.707	-64.79019
364.922	-69.00336
365.138	-52.15005
365.353	23.70949
365.568	23.70949
365.783	-24.75999
365.998	-24.75999
366.213	38.46358
366.428	-20.54576
366.643	-20.54576
366.858	30.03253
367.073	-50.04327
367.288	-66.89679
367.503	-1.58052
367.718	0.52684
367.933	-62.68356
368.148	17.38667
368.363	-31.08114
368.578	44.78711
368.793	11.06405
369.008	-28.97412
369.223	46.895
369.438	13.17157
369.653	-60.57691
369.868	21.60186
370.083	-28.97412
370.298	-43.72279
370.513	-1.58052
370.728	-54.2568
370.943	8.95656
371.157	30.03253
371.372	59.54283
371.587	-14.22423
371.802	23.70949
372.017	40.5714
372.232	-52.15005
372.446	-16.33143
372.661	-3.68787
372.876	46.895
373.091	-24.75999
373.306	-18.43861
373.52	-39.50901
373.735	-16.33143
373.95	-18.43861
374.165	-1.58052
374.379	-24.75999
374.594	-12.11701
374.809	-26.86706
375.023	-43.72279
375.238	4.74166
375.453	11.06405
375.667	49.00291
375.882	-28.97412
376.097	65.86705
376.311	-41.61591
376.526	-10.00976
376.741	-12.11701
376.955	38.46358
377.17	-33.18815
377.384	-14.22423
377.599	-1.58052
377.813	-35.29512
378.028	-35.29512
378.242	-16.33143
378.457	51.11085
378.672	-85.85504
378.886	-35.29512
379.101	55.32679
379.315	55.32679
379.53	-14.22423
379.744	38.46358
379.958	-12.11701
380.173	-5.79519
380.387	17.38667
380.602	-22.65289
380.816	32.14026
381.031	-92.17399
381.245	15.2791
381.459	-3.68787
381.674	-14.22423
381.888	-24.75999
382.103	57.4348
382.317	4.74166
382.531	2.63424
382.746	55.32679
382.96	6.8491
383.174	-14.22423
383.388	15.2791
383.603	-16.33143
383.817	-20.54576
384.031	-20.54576
384.246	0.52684
384.46	-10.00976
384.674	-18.43861
384.888	46.895
385.103	51.11085
385.317	70.08331
385.531	-35.29512
385.745	63.75895
385.959	36.35578
386.174	-52.15005
386.388	-20.54576
386.602	6.8491
386.816	-12.11701
387.03	-79.53586
387.244	-3.68787
387.458	-14.22423
387.672	-3.68787
387.887	-10.00976
388.101	-20.54576
388.315	-18.43861
388.529	0.52684
388.743	63.75895
388.957	-35.29512
389.171	-58.47023
389.385	-7.90249
389.599	63.75895
389.813	46.895
390.027	-18.43861
390.241	-45.82964
390.455	-54.2568
390.669	-43.72279
390.883	46.895
391.097	8.95656
391.311	8.95656
391.525	-22.65289
391.738	-5.79519
391.952	63.75895
392.166	-18.43861
392.38	-10.00976
392.594	17.38667
392.808	-28.97412
393.022	-54.2568
393.236	-100.5989
393.449	-26.86706
393.663	-58.47023
393.877	25.81715
394.091	2.63424
394.305	-33.18815
394.518	-28.97412
394.732	4.74166
394.946	25.81715
395.16	40.5714
395.373	42.67924
395.587	-22.65289
395.801	-83.74867
396.015	-5.79519
396.228	-1.58052
396.442	-81.64228
396.656	-20.54576
396.869	30.03253
397.083	-18.43861
397.297	-24.75999
397.51	4.74166
397.724	40.5714
397.938	-45.82964
398.151	-54.2568
398.365	30.03253
398.578	-41.61591
398.792	17.38667
399.005	13.17157
399.219	4.74166
399.433	-28.97412
399.646	53.21881
399.86	40.5714
400.073	53.21881
400.287	30.03253
400.5	17.38667
400.714	-45.82964
400.927	21.60186
401.141	19.49425
401.354	-50.04327
401.567	27.92483
401.781	65.86705
401.994	-90.0677
402.208	-62.68356
402.421	55.32679
402.635	30.03253
402.848	-1.58052
403.061	46.895
403.275	17.38667
403.488	-18.43861
403.701	36.35578
403.915	-3.68787
404.128	-41.61591
404.341	4.74166
404.555	0.52684
404.768	-12.11701
404.981	-3.68787
405.195	30.03253
405.408	4.74166
405.621	-37.40208
405.834	55.32679
406.048	-24.75999
406.261	-41.61591
406.474	15.2791
406.687	13.17157
406.9	8.95656
407.114	-85.85504
407.327	-3.68787
407.54	-18.43861
407.753	13.17157
407.966	-12.11701
408.179	49.00291
408.392	-12.11701
408.605	-7.90249
408.819	0.52684
409.032	-18.43861
409.245	0.52684
409.458	30.03253
409.671	8.95656
409.884	0.52684
410.097	-31.08114
410.31	-54.2568
410.523	53.21881
410.736	-18.43861
410.949	0.52684
411.162	13.17157
411.375	17.38667
411.588	49.00291
411.801	44.78711
412.014	0.52684
412.227	21.60186
412.44	4.74166
412.653	-22.65289
412.865	15.2791
413.078	-33.18815
413.291	-1.58052
413.504	42.67924
413.717	25.81715
413.93	-26.86706
414.143	-45.82964
414.356	-26.86706
414.568	21.60186
414.781	-60.57691
414.994	-5.79519
415.207	17.38667
415.42	-3.68787
415.632	-12.11701
415.845	-31.08114
416.058	-16.33143
416.271	-16.33143
416.483	-1.58052
416.696	46.895
416.909	23.70949
417.121	61.65088
417.334	0.52684
417.547	120.68545
417.759	21.60186
417.972	-37.40208
418.185	30.03253
418.397	-47.93647
418.61	-37.40208
418.823	59.54283
419.035	44.78711
419.248	4.74166
419.46	-7.90249
419.673	70.08331
419.885	40.5714
420.098	51.11085
420.311	21.60186
420.523	6.8491
420.736	70.08331
420.948	38.46358
421.161	-79.53586
421.373	17.38667
421.586	-33.18815
421.798	11.06405
422.01	4.74166
422.223	72.19148
422.435	80.62436
422.648	15.2791
422.86	27.92483
423.073	4.74166
423.285	110.14229
423.497	-1.58052
423.71	32.14026
423.922	6.8491
424.134	-45.82964
424.347	-20.54576
424.559	-12.11701
424.771	2.63424
424.984	30.03253
425.196	72.19148
425.408	25.81715
425.621	-1.58052
425.833	-71.10991
426.045	13.17157
426.257	55.32679
426.47	63.75895
426.682	72.19148
426.894	19.49425
427.106	51.11085
427.318	-20.54576
427.531	-16.33143
427.743	30.03253
427.955	101.70815
428.167	6.8491
428.379	23.70949
428.591	-7.90249
428.804	55.32679
429.016	30.03253
429.228	4.74166
429.44	19.49425
429.652	-12.11701
429.864	36.35578
430.076	49.00291
430.288	36.35578
430.5	-18.43861
430.712	143.8823
430.924	38.46358
431.136	51.11085
431.348	108.03372
431.56	13.17157
431.772	74.29967
431.984	-58.47023
432.196	-24.75999
432.408	44.78711
432.62	-77.42941
432.832	-60.57691
433.044	15.2791
433.256	67.97517
433.468	-18.43861
433.679	-3.68787
433.891	-14.22423
434.103	4.74166
434.315	-12.11701
434.527	72.19148
434.739	-16.33143
434.95	72.19148
435.162	38.46358
435.374	25.81715
435.586	15.2791
435.798	65.86705
436.009	21.60186
436.221	6.8491
436.433	95.38278
436.645	30.03253
436.856	36.35578
437.068	-45.82964
437.28	42.67924
437.491	44.78711
437.703	-10.00976
437.915	55.32679
438.126	36.35578
438.338	36.35578
438.55	63.75895
438.761	25.81715
438.973	63.75895
439.184	-10.00976
439.396	122.79415
439.608	-41.61591
439.819	23.70949
440.031	-10.00976
440.242	25.81715
440.454	38.46358
440.665	-10.00976
440.877	30.03253
441.088	46.895
441.3	17.38667
441.511	8.95656
441.723	120.68545
441.934	-10.00976
442.146	17.38667
442.357	55.32679
442.569	36.35578
442.78	51.11085
442.991	42.67924
443.203	40.5714
443.414	38.46358
443.626	103.81665
443.837	15.2791
444.048	8.95656
444.26	61.65088
444.471	103.81665
444.682	38.46358
444.894	65.86705
445.105	21.60186
445.316	27.92483
445.528	13.17157
445.739	86.94927
445.95	55.32679
446.161	21.60186
446.373	89.05761
446.584	80.62436
446.795	-20.54576
447.006	89.05761
447.217	11.06405
447.429	53.21881
447.64	55.32679
447.851	63.75895
448.062	4.74166
448.273	46.895
448.484	141.77339
448.695	30.03253
448.907	38.46358
449.118	-10.00976
449.329	80.62436
449.54	105.92518
449.751	59.54283
449.962	95.38278
450.173	42.67924
450.384	36.35578
450.595	124.90287
450.806	57.4348
451.017	55.32679
451.228	21.60186
451.439	156.53622
451.65	63.75895
451.861	74.29967
452.072	78.51611
452.283	105.92518
452.494	114.35949
452.705	44.78711
452.915	72.19148
453.126	63.75895
453.337	55.32679
453.548	105.92518
453.759	44.78711
453.97	103.81665
454.181	67.97517
454.391	46.895
454.602	122.79415
454.813	135.44678
455.024	93.27437
455.235	158.64528
455.445	49.00291
455.656	46.895
455.867	42.67924
456.078	40.5714
456.288	63.75895
456.499	110.14229
456.71	118.57677
456.921	55.32679
457.131	139.6645
457.342	15.2791
457.553	131.22915
457.763	57.4348
457.974	61.65088
458.184	139.6645
458.395	122.79415
458.606	124.90287
458.816	118.57677
459.027	63.75895
459.237	93.27437
459.448	173.40929
459.659	116.46812
459.869	200.83082
460.08	91.16598
460.29	186.06495
460.501	133.33796
460.711	160.75436
460.922	114.35949
461.132	55.32679
461.343	114.35949
461.553	95.38278
461.764	169.1909
461.974	34.24801
462.184	110.14229
462.395	200.83082
462.605	152.31817
462.816	131.22915
463.026	167.08173
463.236	179.73703
463.447	67.97517
463.657	74.29967
463.867	262.01407
464.078	139.6645
464.288	266.2342
464.498	177.62776
464.709	186.06495
464.919	181.84631
465.129	224.03632
465.339	173.40929
465.55	207.15936
465.76	198.72135
465.97	190.28367
466.18	202.94032
466.391	186.06495
466.601	173.40929
466.811	316.8816
467.021	181.84631
467.231	156.53622
467.441	179.73703
467.651	299.99796
467.862	276.78487
468.072	215.59768
468.282	312.66058
468.492	344.31995
468.702	285.22573
468.912	342.2092
469.122	257.79401
469.332	232.47528
469.542	325.32385
469.752	384.42741
469.962	397.09419
470.172	388.64961
470.382	325.32385
470.592	380.20529
470.802	451.9903
471.012	464.66014
471.222	356.9848
471.432	331.65572
471.642	490.00145
471.852	445.65559
472.062	468.88354
472.272	513.23285
472.482	587.16227
472.691	532.24166
472.901	612.51326
473.111	576.59991
473.321	597.72496
473.531	608.28796
473.741	633.64047
473.95	658.99475
474.16	582.93728
474.37	604.06272
474.58	709.70835
474.79	891.48064
474.999	682.23766
475.209	629.41493
475.419	741.40759
475.628	840.74658
475.838	790.01762
476.048	910.50712
476.258	893.59466
476.467	893.59466
476.677	954.90467
476.886	978.16178
477.096	1043.70879
477.306	1014.10618
477.515	984.50478
477.725	959.13317
477.935	1115.60533
478.144	1166.35914
478.354	1174.81834
478.563	1289.02269
478.773	1314.40246
478.982	1327.09245
479.192	1225.57474
479.401	1500.52573
479.611	1415.92371
479.82	1390.54317
480.03	1447.64947
480.239	1561.86167
480.449	1443.41937
480.658	1640.11608
480.868	1695.10381
481.077	1623.19644
481.287	1549.17155
481.496	1881.19837
481.705	1690.87405
481.915	1889.65638
482.124	1621.08147
482.333	1906.57216
482.543	1881.19837
482.752	2035.54261
482.961	1925.60199
483.171	2160.26036
483.38	2075.70877
483.589	2223.6656
483.799	2278.61046
484.008	2295.51532
484.217	2255.3653
484.426	2352.56473
484.636	2403.26922
484.845	2568.01597
485.054	2299.74145
485.263	2496.21166
485.472	2451.85539
485.682	2559.56911
485.891	2451.85539
486.1	2415.94441
486.309	2667.25214
486.518	2675.6965
486.727	2713.69359
486.936	3015.40133
487.146	2836.0994
487.355	2819.21857
487.564	2692.58462
487.773	2814.99822
487.982	2844.53948
488.191	2996.42148
488.4	2827.65909
488.609	3047.03165
488.818	2987.9856
489.027	3215.66666
489.236	2994.31254
489.445	3449.47071
489.654	3186.163
489.863	3346.2862
490.072	3257.80911
490.281	3554.71665
490.49	3382.0897
490.698	3361.02943
490.907	3445.25993
491.116	3531.56646
491.325	3417.88813
491.534	3584.17729
491.743	3605.21836
491.952	3670.43375
492.16	3617.84211
492.369	3851.25706
492.578	3689.36383
492.787	3880.67966
492.996	3796.60478
493.204	4050.83271
493.413	4040.33332
493.622	4067.63066
493.831	3872.2736
494.039	4115.91737
494.248	4151.60044
494.457	4185.17896
494.665	4042.43324
494.874	4292.17423
495.083	4166.29171
495.291	4338.31185
495.5	4285.88193
495.709	4478.75714
495.917	4350.89303
496.126	4451.51424
496.335	4325.7299
496.543	4392.82463
496.752	4432.65159
496.96	4566.74719
497.169	4543.70595
497.377	4470.37511
497.586	4482.94803
497.794	4763.53464
498.003	4459.89706
498.211	4832.57228
498.42	4516.47194
498.628	4801.1946
498.837	4771.90415
499.045	5006.10241
499.254	4543.70595
499.462	4945.48937
499.671	4761.4422
499.879	5098.02992
500.087	4916.22099
500.296	5075.05225
500.504	4983.11354
500.713	5204.52607
500.921	4886.9481
501.129	4999.83299
501.338	4937.12744
501.546	5323.47938
501.754	4962.21214
501.962	5262.96876
502.171	5283.83672
502.379	5486.13421
502.587	5292.18324
502.795	5296.35637
503.004	5338.08244
503.212	5273.40303
503.42	5141.8886
503.628	5350.59844
503.837	5386.05584
504.045	5550.73935
504.253	5584.07508
504.461	5571.57489
504.669	5604.90685
504.877	5584.07508
505.085	5598.65756
505.294	5840.14186
505.502	5573.65831
505.71	6033.51635
505.918	5515.31353
506.126	5715.27584
506.334	5688.21033
506.542	6008.57626
506.75	5673.63495
506.958	6002.34071
507.166	5867.18497
507.374	5871.34509
507.582	5900.46332
507.79	6224.61119
507.998	5800.61015
508.206	6164.39623
508.414	6037.6727
508.622	6251.5977
508.83	5925.41812
509.037	6239.14288
509.245	6062.60884
509.453	6378.1739
509.661	6303.48371
509.869	6288.9571
510.077	6151.9355
510.285	6531.60895
510.492	6334.6083
510.7	6477.71384
510.908	6320.08415
511.116	6353.28053
511.324	6492.2256
511.531	6515.02751
511.739	6307.63396
511.947	6521.24573
512.155	6237.06699
512.362	6771.87394
512.57	6463.20094
512.778	6577.20028
512.985	6427.95057
513.193	6589.63234
513.401	6456.98077
513.608	6660.06497
513.816	6506.73623
514.024	6761.52407
514.231	6500.51753
514.439	6916.71238
514.646	6664.20724
514.854	6647.63762
515.061	6558.55064
515.269	6927.05372
515.477	6738.75233
515.684	6972.54893
515.892	6693.20053
516.099	6968.41345
516.307	6893.95943
516.514	7036.63729
516.722	6987.02238
516.929	7061.43989
517.136	7065.57335
517.344	7193.66612
517.551	6999.42733
517.759	7144.09198
517.966	6956.00648
518.173	7224.64348
518.381	7185.40465
518.588	7385.64586
518.796	7362.94847
519.003	7111.03543
519.21	7131.69644
519.418	7527.96051
519.625	7251.48649
519.832	7492.90703
520.039	7348.5033
520.247	7659.87104
520.454	7492.90703
520.661	7610.41483
520.868	7556.82341
521.076	7575.37592
521.283	7362.94847
521.49	7649.56867
521.697	7585.68212
521.904	7742.27097
522.112	7659.87104
522.319	7729.91313
522.526	7416.5926
522.733	7826.69604
522.94	7799.93092
523.147	7911.08615
523.354	7876.09935
523.561	8116.77123
523.768	7758.74692
523.975	7948.12451
524.183	7668.11255
524.39	8034.52158
524.597	8083.87524
524.804	7929.60616
525.011	7966.6412
525.218	8244.19488
525.425	7993.3846
525.632	7904.91244
525.838	8151.7176
526.045	8252.41314
526.252	8026.29483
526.459	8063.31263
526.666	8135.27297
526.873	8412.60667
527.08	7974.8703
527.287	8240.08563
527.494	8013.95411
527.701	8445.4523
527.907	8219.5382
528.114	8509.07677
528.321	8289.39142
528.528	8342.79329
528.735	8646.52558
528.941	8654.72882
529.148	8225.70263
529.355	8603.45368
529.562	8377.70278
529.768	8773.6426
529.975	8394.12883
530.182	8457.76815
530.388	8486.50245
530.595	8626.01618
530.802	8476.24063
531.008	8888.39769
531.215	8769.54315
531.422	8843.32208
531.628	8746.99488
531.835	8837.17473
532.042	8736.74494
532.248	9148.43972
532.455	8919.1261
532.661	8966.23521
532.868	9162.76461
533.074	9189.36576
533.281	9199.59621
533.487	9181.1811
533.694	8958.043
533.9	9369.3604
534.107	9172.99616
534.313	9244.60516
534.52	9318.23867
534.726	9295.74183
534.933	9183.22729
535.139	9353.00257
535.345	9340.7335
535.552	9565.57348
535.758	9109.55364
535.965	9492.01093
536.171	9397.98409
536.377	9588.04683
536.584	9541.05491
536.79	9371.40506
536.996	9804.51211
537.203	9479.74849
537.409	9598.26136
537.615	9912.68101
537.821	9381.62809
538.028	9882.07139
538.234	9775.93219
538.44	9698.34316
538.646	9592.13269
538.853	9859.62223
539.059	9757.55783
539.265	9810.636
539.471	9761.64113
539.677	9835.13019
539.883	9739.18223
540.09	9843.29444
540.296	9810.636
540.502	9837.17127
540.708	9886.15287
540.914	10033.04706
541.12	9998.37047
541.326	10298.08702
541.532	10294.01124
541.738	10336.80431
541.944	10049.36402
542.15	10073.83776
542.356	10143.16902
542.562	10324.57832
542.768	10210.44574
542.974	10249.17405
543.18	10387.74083
543.386	10601.58593
543.592	10112.5837
543.798	10479.40597
544.004	10385.70352
544.21	10414.22457
544.415	10391.81539
544.621	10742.03775
544.827	10163.5575
545.033	10640.26686
545.239	10548.64685
545.445	10961.76201
545.651	10257.32675
545.856	10868.19225
546.062	10518.10121
546.268	10564.93669
546.474	10528.2834
546.679	10518.10121
546.885	10487.55272
547.091	10792.91193
547.297	10381.62888
547.502	10617.87318
547.708	10615.83732
547.914	10796.98155
548.119	10782.73769
548.325	10595.478
548.531	10406.07596
548.736	10794.94675
548.942	10805.12064
549.147	10823.4329
549.353	10988.2013
549.559	10963.79587
549.764	10711.50966
549.97	10780.7028
550.175	10862.08903
550.381	11018.70584
550.586	11165.0934
550.792	11392.69935
550.997	11270.78353
551.203	11382.54107
551.408	11177.28986
551.614	11246.39599
551.819	11238.26648
552.025	11305.33002
552.23	11114.27072
552.435	11313.45818
552.641	11435.36144
552.846	11321.58618
553.052	11285.00891
553.257	11465.83174
553.462	11348.00107
553.668	11540.98261
553.873	11287.04107
554.078	11723.72912
554.283	11362.22377
554.489	11571.44551
554.694	11644.54799
554.899	11610.02885
555.105	11672.97355
555.31	11668.91286
555.515	11656.73058
555.72	11664.85214
555.925	11461.76916
556.131	11756.20979
556.336	11886.11049
556.541	12013.9483
556.746	11599.87566
556.951	11756.20979
557.156	11543.01354
557.361	11808.98615
557.567	11528.79686
557.772	11908.4337
557.977	11748.08983
558.182	11892.19873
558.387	11607.99823
558.592	11863.78627
558.797	11902.34565
559.002	11746.05982
559.207	11934.8144
559.412	11867.84529
559.617	11873.93376
559.822	12082.927
560.027	12190.43499
560.232	12113.35594
560.437	11794.7777
560.642	12295.89442
560.847	12192.46324
561.051	12113.35594
561.256	12066.69753
561.461	12198.54795
561.666	12395.25219
561.871	12115.38448
562.076	12101.18457
562.281	12184.3502
562.485	11892.19873
562.69	12431.74685
562.895	12224.91426
563.1	12447.96601
563.305	12123.49854
563.509	12409.44481
563.714	12595.94667
563.919	12466.21205
564.123	12082.927
564.328	12579.73126
564.533	12405.38981
564.737	12362.81065
564.942	12273.58731
565.147	12405.38981
565.351	12326.31183
565.556	12259.39143
565.761	12447.96601
565.965	12628.37632
566.17	12257.36342
566.374	12565.54245
566.579	12683.09784
566.784	12352.67231
566.988	12573.65038
567.193	12784.42267
567.397	12571.6234
567.602	12758.07959
567.806	12545.27218
568.011	12837.10597
568.215	12687.15111
568.42	13049.82879
568.624	12885.73342
568.828	12804.68592
569.033	12533.10972
569.237	12922.20198
569.442	13015.39178
569.646	13019.44326
569.85	12679.04454
570.055	12559.46143
570.259	12727.68254
570.463	12908.01997
570.668	12946.51341
570.872	12875.60296
571.076	12871.55074
571.281	13005.26297
571.485	12778.34358
571.689	13207.81617
571.893	12980.95333
572.098	13072.1108
572.302	12908.01997
572.506	12822.92237
572.71	12881.68125
572.914	13132.87698
573.119	12837.10597
573.323	13252.37169
573.527	12946.51341
573.731	13143.00426
573.935	13059.95705
574.139	13444.74709
574.343	12794.55436
574.547	13126.80055
574.751	13392.10062
574.955	13307.05059
575.159	13805.10795
575.364	13205.79086
575.568	13189.58829
575.772	12962.72062
575.976	13262.49764
576.18	13444.74709
576.383	13418.42418
576.587	13473.09411
576.791	13333.37637
576.995	13305.0255
577.199	13313.12583
577.403	13240.22039
577.607	13485.2426
577.811	13631.01438
578.015	13272.6235
578.219	13659.35681
578.422	13604.69582
578.626	13904.29089
578.83	13440.69745
579.034	13641.13675
579.238	13653.28348
579.442	13813.20478
579.645	13618.86743
579.849	13639.11228
580.053	13568.25378
580.257	13550.03234
580.46	13651.25904
580.664	13292.87488
580.868	13572.30296
581.071	14043.94583
581.275	13801.05953
581.479	13867.85713
581.682	13709.96668
581.886	13705.91797
582.09	13873.92948
582.293	14043.94583
582.497	14050.01752
582.7	13920.4834
582.904	13950.84389
583.107	14452.7317
583.311	14126.92377
583.515	14252.39578
583.718	14068.23245
583.922	14266.5615
584.125	13942.74781
584.329	14177.51826
584.532	13827.3741
584.735	14236.20627
584.939	13869.88125
585.142	14238.22997
585.346	13952.8679
585.549	14252.39578
585.753	14244.30104
585.956	14422.37879
586.159	14298.93995
586.363	14418.3317
586.566	14254.41946
586.769	14440.59057
586.973	14327.27073
587.176	14495.22524
587.379	14420.35525
587.582	14798.73565
587.786	14311.08176
587.989	14485.10779
588.192	14096.56643
588.395	14845.27214
588.599	14379.88413
588.802	14727.9185
589.005	14355.60116
589.208	14742.08201
589.411	14663.17048
589.615	14398.09621
589.818	14582.23402
590.021	14800.75898
590.224	14657.1003
590.427	14857.41204
590.63	14547.83547
590.833	14869.55192
591.036	14535.69473
591.239	14699.59136
591.442	14177.51826
591.645	14474.9903
591.848	14748.15207
592.051	14798.73565
592.254	14347.50678
592.457	15039.50847
592.66	14687.4511
592.863	14865.5053
593.066	14887.7617
593.269	15065.81106
593.472	14604.49172
593.675	15049.62485
593.878	14667.21726
594.081	15086.0438
594.284	15102.22998
594.486	15177.09101
594.689	15181.13755
594.892	15162.92812
595.095	14978.81001
595.298	15081.99725
595.5	15059.74123
595.703	15421.90802
595.906	15110.32307
596.109	15187.20736
596.311	14958.57713
596.514	14978.81001
596.717	14988.92644
596.92	15440.11774
597.122	15268.13827
597.325	15120.43943
597.528	15201.37026
597.73	15498.79381
597.933	15314.67366
598.136	15697.08266
598.338	15351.09276
598.541	15430.00123
598.743	15567.58709
598.946	15318.72022
599.148	15632.33445
599.351	15691.01248
599.554	15347.04619
599.756	15219.5797
599.959	15320.7435
600.161	15462.37413
600.363	15591.86726
600.566	15769.92555
600.768	15682.91892
600.971	15691.01248
601.173	15470.46738
601.376	15241.8357
601.578	15442.14105
601.78	15747.66786
601.983	15733.50395
602.185	16154.40009
602.388	15943.94489
602.59	15808.37094
602.792	15820.51168
602.995	15840.74632
603.197	15745.64444
603.399	15686.9657
603.601	15539.26035
603.804	15442.14105
604.006	15504.86377
604.208	15887.28645
604.41	15790.15992
604.613	15585.7972
604.815	15383.46539
605.017	15701.12946
605.219	15561.51706
605.421	15597.93732
605.623	15682.91892
605.826	15834.67592
606.028	15553.4237
606.23	15733.50395
606.432	15935.85076
606.634	16051.1941
606.836	15709.22306
607.038	16202.96907
607.24	16087.61928
607.442	16093.6902
607.644	16233.32517
607.846	16192.85045
608.048	15822.53513
608.25	15897.40396
608.452	15790.15992
608.654	16047.14689
608.856	15828.60552
609.058	16089.64292
609.26	15678.87214
609.462	15721.36348
609.664	15925.73314
609.866	15947.99196
610.067	16310.22907
610.269	15755.76155
610.471	15860.98108
610.673	16186.7793
610.875	15966.20384
611.077	16277.84816
611.278	15869.07502
611.48	16115.95033
611.682	16300.10999
611.884	16281.89575
612.085	15743.62102
612.287	16198.92161
612.489	16071.43025
612.69	16196.89789
612.892	16144.28168
613.094	15976.3216
613.295	15832.65245
613.497	16103.80841
613.699	16164.51855
613.9	16008.69866
614.102	15670.77859
614.304	15852.88716
614.505	15897.40396
614.707	16350.70587
614.908	15844.79326
615.11	16399.27904
615.311	16126.06863
615.513	15994.53365
615.714	16180.70817
615.916	16204.99279
616.117	16113.92667
616.319	16194.87417
616.52	15812.41785
616.722	15826.58206
616.923	15909.545
617.124	16261.65788
617.326	15498.79381
617.527	16132.13963
617.729	16316.30054
617.93	16073.45388
618.131	16004.6515
618.333	16148.32904
618.534	15846.81674
618.735	16134.1633
618.937	15901.45097
619.138	16182.73188
619.339	16012.74581
619.54	16423.56604
619.742	16190.82673
619.943	16136.18697
620.144	16004.6515
620.345	16211.06399
620.546	15901.45097
620.748	16182.73188
620.949	16047.14689
621.15	16308.20525
621.351	16678.59786
621.552	16314.27672
621.753	16002.62793
621.954	16710.98538
622.155	15816.46476
622.356	16160.47116
622.558	16332.49122
622.759	16089.64292
622.96	15992.51008
623.161	15982.39227
623.362	15907.52149
623.563	16198.92161
623.764	16055.24132
623.965	16302.1338
624.166	16136.18697
624.366	15998.58079
624.567	16071.43025
624.768	16059.28854
624.969	15925.73314
625.17	16045.12328
625.371	16138.21065
625.572	16389.15953
625.773	16097.73748
625.973	16540.95738
626.174	16063.33577
626.375	16097.73748
626.576	16439.75754
626.777	16198.92161
626.977	15911.56852
627.178	16241.42019
627.379	16180.70817
627.58	16354.75359
627.78	16259.63411
627.981	16099.76112
628.182	16213.08772
628.382	16328.44354
628.583	16372.96843
628.784	16336.5389
628.984	16302.1338
629.185	16470.11695
629.386	16451.90125
629.586	16638.11429
629.787	16532.8612
629.987	16798.02988
630.188	16419.51819
630.388	16411.4225
630.589	16346.65816
630.79	16211.06399
630.99	16506.54885
631.191	16719.08236
631.391	16597.63162
631.591	16391.18343
631.792	16334.51506
631.992	16779.81089
632.193	16656.33178
632.393	16403.32685
632.594	16140.23432
632.794	16350.70587
632.994	16611.80045
633.195	16603.70397
633.395	16318.32437
633.595	16808.15162
633.796	16235.34892
633.996	16366.8968
634.196	16476.18888
634.397	16603.70397
634.597	16540.95738
634.797	16688.7189
634.997	16547.02954
635.198	16482.26084
635.398	16328.44354
635.598	16690.74311
635.798	16194.87417
635.998	16545.00549
636.199	16285.94335
636.399	16634.06598
636.599	16607.7522
636.799	16607.7522
636.999	16421.54211
637.199	16553.10172
637.399	16532.8612
637.599	16403.32685
637.799	16184.75559
637.999	16468.09297
638.199	16640.13844
638.399	16945.81361
638.599	16759.56781
638.799	16743.37351
638.999	16579.41472
639.199	16506.54885
639.399	16644.18676
639.599	16996.42766
639.799	16577.39063
639.999	16642.1626
640.199	16828.3953
640.399	16429.63784
640.599	16119.99764
640.799	16972.13271
640.998	16964.03448
641.198	16526.78909
641.398	16597.63162
641.598	16887.10338
641.798	16785.88387
641.997	16678.59786
642.197	16603.70397
642.397	16717.05811
642.597	16646.21093
642.796	16943.78909
642.996	16684.67047
643.196	16761.59211
643.395	16459.99709
643.595	16710.98538
643.795	16757.54351
643.994	16670.50107
644.194	16597.63162
644.394	16838.51723
644.593	16779.81089
644.793	17103.73501
644.992	16532.8612
645.192	16658.35596
645.392	16650.25926
645.591	16715.03387
645.791	16992.37847
645.99	17332.54898
646.19	16856.73687
646.389	17249.52368
646.589	16791.95686
646.788	17053.11738
646.987	16824.34655
647.187	17243.44885
647.386	17069.31483
647.586	17126.00732
647.785	17089.5619
647.984	17196.87605
648.184	17055.14205
648.383	17006.55066
648.582	16978.20641
648.782	17204.97556
648.981	17148.27998
649.18	17006.55066
649.38	17042.99406
649.579	17045.01871
649.778	16959.98538
649.977	17176.62749
650.177	16670.50107
650.376	17097.6608
650.575	16636.09013
650.774	17211.05022
650.973	17154.3544
651.173	17138.156
651.372	16881.03003
651.571	17136.13121
651.77	16984.28013
651.969	16970.10815
652.168	16648.23509
652.367	17296.09823
652.566	16686.69468
652.765	17304.19831
652.964	17383.17665
653.163	17450.00811
653.362	17362.92536
653.561	17184.72688
653.76	17073.36422
653.959	17006.55066
654.158	17393.30242
654.357	17184.72688
654.556	17026.79688
654.755	17073.36422
654.954	16937.71552
655.153	17051.09271
655.352	16670.50107
655.551	17061.21608
655.749	17152.32959
655.948	17184.72688
656.147	16868.8834
656.346	17188.77659
656.545	17126.00732
656.743	16968.08359
656.942	17109.80925
657.141	17263.69837
657.34	17061.21608
657.538	17186.75173
657.737	16828.3953
657.936	17407.47861
658.135	16816.24907
658.333	16903.29909
658.532	17245.47379
658.731	17312.29845
658.929	16937.71552
659.128	16844.59042
659.326	16907.34804
659.525	17097.6608
659.724	16913.42149
659.922	17290.0232
660.121	17269.77329
660.319	17132.08165
660.518	16757.54351
660.716	16988.3293
660.915	17235.34912
661.113	17036.9201
661.312	16909.37252
661.51	17209.02533
661.709	17223.19962
661.907	17269.77329
662.105	17130.05687
662.304	17243.44885
662.502	17150.30478
662.701	17308.24837
662.899	17030.84616
663.097	17605.96154
663.296	17083.48775
663.494	17020.72299
663.692	16854.71245
663.891	17140.18079
664.089	17063.24076
664.287	17103.73501
664.485	17123.98255
664.684	17316.34853
664.882	17338.6242
665.08	17069.31483
665.278	17174.60264
665.476	17294.07322
665.675	17059.1914
665.873	17342.67437
666.071	16779.81089
666.269	17332.54898
666.467	16966.05903
666.665	17304.19831
666.863	16694.79155
667.061	16901.27462
667.259	16755.51922
667.457	17447.98287
667.655	17332.54898
667.853	17450.00811
668.051	17190.80145
668.249	17168.52814
668.447	17281.9232
668.645	17168.52814
668.843	17067.29014
669.041	17302.17329
669.239	16970.10815
669.437	16943.78909
669.635	17085.51246
669.833	16976.18184
670.031	16710.98538
670.229	17022.74762
670.426	17184.72688
670.624	17285.97319
670.822	16870.90783
671.02	16781.83522
671.218	16911.397
671.415	17158.40402
671.613	17034.89545
671.811	17097.6608
672.009	16674.54946
672.206	17109.80925
672.404	16787.9082
672.602	16824.34655
672.799	16941.76456
672.997	16953.91175
673.195	16605.72808
673.392	16824.34655
673.59	16755.51922
673.788	16804.10292
673.985	16688.7189
674.183	17180.67718
674.38	17032.8708
674.578	16968.08359
674.775	16739.32496
674.973	16868.8834
675.17	16986.30471
675.368	16741.34924
675.565	16672.52526
675.763	16690.74311
675.96	16492.38081
676.158	16613.82458
676.355	16271.77679
676.553	17026.79688
676.75	16563.22206
676.947	16640.13844
677.145	16405.35076
677.342	16753.49493
677.539	16721.10661
677.737	16636.09013
677.934	16545.00549
678.131	17008.57527
678.329	16885.07893
678.526	17036.9201
678.723	16874.95671
678.92	16632.04183
679.118	16585.487
679.315	16670.50107
679.512	16439.75754
679.709	16504.52484
679.906	16267.72922
680.104	16498.45281
680.301	16354.75359
680.498	16441.78149
680.695	16468.09297
680.892	16445.82938
681.089	16308.20525
681.286	16623.94525
681.483	16257.61033
681.68	16474.1649
681.877	16077.50113
682.075	16160.47116
682.272	16423.56604
682.469	16812.20034
682.665	16506.54885
682.862	16595.60751
683.059	16164.51855
683.256	16800.05422
683.453	16542.98143
683.65	16591.5593
683.847	16387.13564
684.044	16219.15894
684.241	16154.40009
684.438	16405.35076
684.635	15816.46476
684.831	16419.51819
685.028	16300.10999
685.225	16322.37203
685.422	16166.54225
685.619	16462.02106
685.815	16589.5352
686.012	16644.18676
686.209	16122.0213
686.405	16524.76505
686.602	16336.5389
686.799	16257.61033
686.996	16178.68446
687.192	16067.38301
687.389	15909.545
687.586	16200.94534
687.782	16215.11146
687.979	16190.82673
688.175	16057.26493
688.372	16247.49148
688.568	16071.43025
688.765	15877.16898
688.962	15895.38045
689.158	16075.4775
689.355	15919.66258
689.551	15917.63906
689.748	15844.79326
689.944	16035.00528
690.14	15897.40396
690.337	16002.62793
690.533	15826.58206
690.73	15674.82536
690.926	16022.86373
691.123	16115.95033
691.319	15693.03587
691.515	15842.76979
691.712	15761.83183
691.908	15846.81674
692.104	15660.66168
692.301	15982.39227
692.497	15385.48868
692.693	15901.45097
692.889	15933.82724
693.086	15806.34749
693.282	15642.4513
693.478	15986.43939
693.674	15654.59155
693.87	15759.8084
694.067	16022.86373
694.263	16053.21771
694.459	16182.73188
694.655	16160.47116
694.851	15634.35782
695.047	15695.05927
695.243	15496.77049
695.439	15432.02453
695.635	15545.33035
695.831	15860.98108
696.027	15907.52149
696.224	16172.61335
696.42	16170.58965
696.615	15976.3216
696.811	15711.24646
697.007	15759.8084
697.203	15294.44086
697.399	15355.13934
697.595	15672.80198
697.791	15771.94898
697.987	15531.16702
698.183	15747.66786
698.379	15187.20736
698.575	15684.94231
698.77	15403.69833
698.966	15450.23428
699.162	15442.14105
699.358	15658.63831
699.554	15320.7435
699.749	15393.58186
699.945	14659.1237
700.141	15140.67214
700.337	15152.81176
700.532	15069.85761
700.728	15003.08943
700.924	15239.81243
701.119	15193.27718
701.315	14966.67029
701.511	15021.29896
701.706	15450.23428
701.902	15043.55502
702.097	15274.20809
702.293	14903.94814
702.489	15405.72163
702.684	15262.06844
702.88	15251.95207
703.075	14956.55384
703.271	15015.22912
703.466	14517.48352
703.662	14964.647
703.857	14897.87823
704.053	15199.34699
704.248	14940.3675
704.443	15381.4421
704.639	14970.71686
704.834	14942.39079
705.03	15049.62485
705.225	14962.62371
705.42	14768.38556
705.616	15308.60382
705.811	14709.70821
706.006	14549.85893
706.202	15092.11362
706.397	14885.73839
706.592	14954.53055
706.787	14901.92483
706.983	14855.38873
707.178	15114.36961
707.373	15027.3688
707.568	14875.62185
707.763	14806.82897
707.959	15302.53398
708.154	15112.34634
708.349	14893.83162
708.544	15148.76522
708.739	15049.62485
708.934	14804.80564
709.129	14752.19877
709.324	14515.46005
709.519	14924.18113
709.714	14638.88972
709.909	14910.01804
710.104	14363.69551
710.299	14764.33887
710.494	14659.1237
710.689	15025.34552
710.884	14776.47893
711.079	15371.32564
711.274	14820.99227
711.469	15171.0212
711.664	14677.33419
711.859	14721.84841
712.054	14570.09339
712.249	14436.54352
712.443	14367.74268
712.638	14440.59057
712.833	14622.70246
713.028	14590.32774
713.223	14760.29217
713.417	14760.29217
713.612	14624.72587
713.807	14561.99962
714.002	14541.76511
714.196	14994.99629
714.391	15112.34634
714.586	14873.59854
714.78	14865.5053
714.975	14922.15784
715.17	14557.95273
715.364	14772.43224
715.559	14450.70818
715.754	14452.7317
715.948	14286.79809
716.143	14315.12901
716.337	14088.47105
716.532	14626.74928
716.726	14201.80316
716.921	14341.43598
717.115	14205.85062
717.31	14355.60116
717.504	14424.40232
717.699	14699.59136
717.893	14448.68466
718.088	14511.4131
718.282	14507.36614
718.476	14343.45959
718.671	14157.28062
718.865	14234.18258
719.059	13999.41946
719.254	14369.76626
719.448	14003.46736
719.642	13827.3741
719.837	13655.30793
720.031	14013.58707
720.225	13705.91797
720.419	14043.94583
720.614	13703.89361
720.808	14047.99362
721.002	13815.22898
721.196	13960.96392
721.39	13853.6882
721.585	13987.27571
721.779	13926.55554
721.973	13837.49497
722.167	13614.81841
722.361	14031.80239
722.555	13726.16142
722.749	13683.6498
722.943	13851.66405
723.137	13592.5486
723.331	13618.86743
723.525	13535.8599
723.719	13400.20025
723.913	13647.21013
724.107	13610.76939
724.301	14056.08918
724.495	13430.5733
724.689	13991.32364
724.883	13661.38124
725.077	14035.85021
725.271	13527.76129
725.465	13503.4651
725.659	13367.80134
725.853	13641.13675
726.046	13519.66262
726.24	13604.69582
726.434	13750.45316
726.628	13835.4708
726.822	13750.45316
727.015	13788.91417
727.209	13278.69895
727.403	13505.4898
727.596	13189.58829
727.79	13392.10062
727.984	13104.51996
728.177	13786.88993
728.371	13098.44334
728.565	13608.74487
728.758	13404.25004
728.952	13643.16122
729.146	13140.97882
729.339	13600.64676
729.533	13487.26734
729.726	13537.88455
729.92	13384.00092
730.113	13384.00092
730.307	13278.69895
730.5	13424.49876
730.694	13426.52361
730.887	13442.72227
731.081	13438.67263
731.274	13586.47494
731.468	13505.4898
731.661	13722.11276
731.854	13610.76939
732.048	13817.25317
732.241	13539.90919
732.435	13661.38124
732.628	13345.5265
732.821	13497.39097
733.014	13464.99504
733.208	13513.58857
733.401	13560.1554
733.594	13323.25115
733.788	13270.59833
733.981	13167.30927
734.174	13250.34648
734.367	12978.92749
734.56	13219.96788
734.754	13343.50149
734.947	13505.4898
735.14	13189.58829
735.333	13244.27084
735.526	13292.87488
735.719	13029.57189
735.912	13147.05514
736.105	13173.38542
736.298	13138.95336
736.491	13157.18227
736.684	13495.36625
736.877	13535.8599
737.07	13422.4739
737.263	13545.98309
737.456	13298.95021
737.649	13381.97599
737.842	13418.42418
738.035	13460.94548
738.228	13452.84631
738.421	13311.10076
738.614	13298.95021
738.807	13155.15685
739	13238.19516
739.192	13035.64901
739.385	13242.24562
739.578	13157.18227
739.771	13051.85445
739.964	13321.2261
740.156	13238.19516
740.349	12691.20436
740.542	12972.84995
740.735	12812.79107
740.927	12841.15838
741.12	12889.78557
741.313	12674.99122
741.505	12942.46156
741.698	12897.8898
741.891	13153.13143
742.083	13064.00832
742.276	12867.49849
742.468	13031.59761
742.661	12980.95333
742.854	12934.35779
743.046	12739.84152
743.239	12833.05354
743.431	12689.17774
743.624	12895.86375
743.816	12877.62906
744.009	12792.52804
744.201	12642.5638
744.393	12646.61731
744.586	12539.19098
744.778	12612.16169
744.971	12310.08941
745.163	12616.21539
745.355	12281.69909
745.548	12466.21205
745.74	12620.26906
745.932	12930.30588
746.125	12899.91584
746.317	12610.13484
746.509	12480.40305
746.702	12476.34851
746.894	12435.80168
747.086	12518.91989
747.278	12608.10797
747.471	12662.83112
747.663	12170.15208
747.855	12346.58923
748.047	12350.64463
748.239	12553.38036
748.431	12683.09784
748.623	12620.26906
748.815	12403.3623
749.008	12429.71943
749.2	12257.36342
749.392	12504.72975
749.584	12502.70256
749.776	12739.84152
749.968	12901.94188
750.16	12851.2893
750.352	12776.31721
750.544	12833.05354
750.736	12597.97357
750.928	12508.7841
751.12	12273.58731
751.311	12368.89357
751.503	12522.97416
751.695	12452.02073
751.887	12322.25626
752.079	12502.70256
752.271	12439.85648
752.463	12654.72426
752.654	12496.62095
752.846	12389.16953
753.038	12153.92521
753.23	11951.04799
753.421	12127.55553
753.613	11792.74789
753.805	12208.68899
753.997	11926.69741
754.188	12172.1804
754.38	11894.22813
754.572	12080.89834
754.763	12135.66941
754.955	11798.8373
755.146	12237.08291
755.338	12196.51972
755.53	12143.78318
755.721	12346.58923
755.913	12111.3274
756.104	11896.25753
756.296	11973.36833
756.487	11823.19418
756.679	12093.07017
756.87	11792.74789
757.062	11778.53896
757.253	11957.13545
757.445	11922.63886
757.636	11999.74567
757.827	11737.93969
758.019	11845.52024
758.21	11746.05982
758.401	11612.05946
758.593	11593.78364
758.784	11610.02885
758.975	11528.79686
759.167	11348.00107
759.358	11534.88978
759.549	11467.86302
759.74	11705.45775
759.932	11752.14983
760.123	11567.38391
760.314	11551.13714
760.505	11614.09006
760.696	11445.51845
760.888	11441.45567
761.079	11059.37469
761.27	11429.26712
761.461	11307.36208
761.652	11488.17525
761.843	11203.71421
762.034	11285.00891
762.225	11112.23768
762.416	11136.63352
762.607	10843.77876
762.798	11120.3698
762.989	11297.2017
763.18	11276.88018
763.371	11089.87346
763.562	11059.37469
763.753	10971.93119
763.944	11258.58994
764.135	10935.32082
764.326	11236.23408
764.517	10890.56982
764.708	11128.50175
764.899	11098.00605
765.089	11079.70747
765.28	10888.53555
765.471	11148.83087
765.662	10813.25954
765.853	11073.60775
766.043	11203.71421
766.234	11352.06475
766.425	11061.40802
766.615	11081.74069
766.806	11217.94198
766.997	11075.641
767.187	10662.65906
767.378	11156.96222
767.569	10872.261
767.759	11041.07425
767.95	10855.98571
768.141	10851.91677
768.331	10571.04518
768.522	10636.1954
768.712	10705.40371
768.903	10813.25954
769.093	10495.69926
769.284	10680.97885
769.474	10444.78
769.665	10509.95522
769.855	10420.33589
770.046	10607.69374
770.236	10232.86799
770.426	10493.66265
770.617	10501.80904
770.807	10463.11186
770.998	10418.29879
771.188	10289.9354
771.378	9926.96437
771.569	10179.86728
771.759	10220.63788
771.949	10359.2174
772.139	10607.69374
772.33	10518.10121
772.52	10430.52116
772.71	10607.69374
772.9	10393.85265
773.09	10420.33589
773.281	10183.94459
773.471	10351.06737
773.661	10241.02113
773.851	10039.16602
774.041	10149.28571
774.231	10159.47991
774.421	10061.60115
774.611	10102.38789
774.802	9926.96437
774.992	10012.64956
775.182	10106.46626
775.372	10077.91652
775.562	9898.39694
775.752	10045.28487
775.942	9882.07139
776.131	10102.38789
776.321	9541.05491
776.511	9922.88348
776.701	9653.41308
776.891	9761.64113
777.081	9653.41308
777.271	9704.46941
777.461	9626.85997
777.651	9677.92132
777.84	9677.92132
778.03	9784.09819
778.22	9847.37648
778.41	9786.13965
778.599	9622.77464
778.789	9731.01491
778.979	9751.43277
779.169	9459.30982
779.358	9551.27126
779.548	9718.76346
779.738	9377.53893
779.927	9459.30982
780.117	9436.82541
780.307	9246.65083
780.496	9318.23867
780.686	9344.82326
780.875	9097.27254
781.065	9395.93965
781.254	9375.49432
781.444	9520.62104
781.633	9220.05583
781.823	9158.67187
782.012	8878.154
782.202	9209.82623
782.391	9044.04724
782.581	8908.88374
782.77	8982.6188
782.96	9289.60598
783.149	8839.22387
783.338	9127.97414
783.528	8949.8505
783.717	9093.17871
783.906	9123.88081
784.096	9138.20714
784.285	8990.81017
784.474	9060.42551
784.663	8908.88374
784.853	8861.76316
785.042	8703.94203
785.231	9121.83413
785.42	9060.42551
785.61	8812.58372
785.799	8716.24368
785.988	9099.31944
786.177	8685.48833
786.366	8742.89496
786.555	8802.33669
786.744	8851.5183
786.933	8794.13874
787.122	8578.83746
787.312	8949.8505
787.501	8917.07766
787.69	8753.14463
787.879	9019.47776
788.068	8732.64483
788.257	8894.5437
788.445	8554.21853
788.634	8769.54315
788.823	8751.09473
789.012	8841.27299
789.201	8367.43586
789.39	8708.04266
789.579	8377.70278
789.768	8646.52558
789.957	8474.18821
790.145	8650.62724
790.334	8500.86819
790.523	8568.5799
790.712	8644.47473
790.9	8831.02722
791.089	8664.98246
791.278	8531.6488
791.467	8293.49973
791.655	8498.816
791.844	8441.34687
792.033	8235.9763
792.221	8112.65952
792.41	8279.12032
792.599	7911.08615
792.787	8272.95742
792.976	8309.93217
793.164	8418.7656
793.353	8116.77123
793.541	8435.18857
793.73	8289.39142
793.918	8424.92436
794.107	7913.14401
794.295	7983.09908
794.484	7690.77497
794.672	8116.77123
794.861	7956.35435
795.049	8211.31867
795.238	7894.62251
795.426	8379.7561
795.614	8055.08702
795.803	8172.27158
795.991	8188.71334
796.179	8203.09883
796.368	8073.59419
796.556	8046.86109
796.744	8040.69142
796.932	8330.47095
797.121	7985.15623
797.309	7981.04192
797.497	7867.86629
797.685	8180.49262
797.874	7966.6412
798.062	7989.27046
798.25	7641.32639
798.438	8149.66209
798.626	8096.21184
798.814	8061.25626
799.002	8141.43985
799.19	7806.1078
799.378	7799.93092
799.566	8061.25626
799.755	7670.17288
799.943	7758.74692
800.131	7659.87104
800.318	7993.3846
800.506	7834.93075
800.694	7670.17288
800.882	7389.77237
801.07	7598.04886
801.258	7775.22152
801.446	7542.39249
801.634	7488.78268
801.822	7847.2822
802.01	7692.83506
802.197	7602.17093
802.385	7391.8356
802.573	7565.06919
802.761	7497.03129
802.949	7540.33084
803.136	7637.20513
803.324	7536.20748
803.512	7684.59457
803.699	7614.53665
803.887	7602.17093
804.075	7853.45765
804.262	7433.09553
804.45	7610.41483
804.638	7272.13243
804.825	7443.40916
805.013	7276.26136
805.201	7668.11255
805.388	7593.9267
805.576	7890.5064
805.763	7740.21139
805.951	7707.25512
806.138	7552.7004
806.326	7925.49075
806.513	7492.90703
806.701	7618.65838
806.888	7598.04886
807.075	7769.0437
807.263	7659.87104
807.45	7925.49075
807.638	7433.09553
807.825	7647.50813
808.012	7501.15547
808.2	7571.25329
808.387	7263.87432
808.574	7878.15756
808.761	7523.83689
808.949	7921.37525
809.136	7346.43962
809.323	7556.82341
809.51	7484.65825
809.698	7659.87104
809.885	7618.65838
810.072	7785.51747
810.259	7422.78136
810.446	7620.71921
810.633	7550.63886
810.82	7723.73393
811.008	7869.92459
811.195	7884.33207
811.382	7649.56867
811.569	7906.97036
811.756	7499.09339
811.943	7637.20513
812.13	7385.64586
812.317	7486.72048
812.504	7358.82139
812.691	7631.02307
812.878	7375.32919
813.064	7540.33084
813.251	7334.05706
813.438	7668.11255
813.625	7626.90159
813.812	7859.6329
813.999	7325.80158
814.186	7622.78003
814.372	7554.76192
814.559	7511.46553
814.746	7350.56696
814.933	7461.97232
815.12	7367.07546
815.306	7540.33084
815.493	7218.4484
815.68	7461.97232
815.866	7146.15782
816.053	7478.47144
816.24	7381.51926
816.426	7443.40916
816.613	7350.56696
816.799	7616.59752
816.986	7550.63886
817.173	7754.62806
817.359	7453.72224
817.546	7668.11255
817.732	7676.35373
817.919	7808.16671
818.105	7771.103
818.292	7744.33054
818.478	7428.96993
818.665	7676.35373
818.851	7725.79368
819.037	7639.26577
819.224	7377.39257
819.41	7455.78479
819.597	7208.12284
819.783	7286.58328
819.969	7193.66612
820.156	7263.87432
820.342	7127.56442
820.528	7317.54576
820.714	7274.1969
820.901	7573.31462
821.087	7296.90465
821.273	7497.03129
821.459	7251.48649
821.646	7336.12087
821.832	7032.50321
822.018	7133.76242
822.204	7034.57026
822.39	7053.17272
822.576	7127.56442
822.762	7214.31824
822.948	7187.47005
823.134	7327.86548
823.32	7022.16761
823.507	7069.70671
823.693	6929.12193
823.879	7197.79672
824.065	6982.88722
824.25	7098.63775
824.436	6889.82223
824.622	6918.78069
824.808	7057.30635
824.994	6941.53066
825.18	6842.23796
825.366	7007.69684
825.552	6747.03328
825.738	6885.68495
825.923	6651.78016
826.109	6982.88722
826.295	6678.70445
826.481	6815.33719
826.667	6838.09963
826.852	6763.59409
827.038	6668.34941
827.224	7084.17278
827.409	6732.54137
827.595	6790.50228
827.781	6529.53635
827.966	6827.75341
828.152	6651.78016
828.338	6927.05372
828.523	6647.63762
828.709	6643.49498
828.894	6241.21874
829.08	6471.49416
829.266	6347.05667
829.451	6686.98806
829.637	6633.13799
829.822	6769.80401
830.008	6496.37161
830.193	6649.7089
830.378	6378.1739
830.564	6852.58339
830.749	6481.86017
830.935	6850.51435
831.12	6419.65539
831.305	6769.80401
831.491	6386.47095
831.676	6562.69516
831.861	6363.65318
832.047	6438.31902
832.232	6390.61933
832.417	6189.31516
832.602	6108.31628
832.788	6371.95088
832.973	6162.3195
833.158	6318.00917
833.343	6091.69671
833.528	6264.05168
833.714	6237.06699
833.899	6334.6083
834.084	6012.73318
834.269	6274.42935
834.454	6045.98512
834.639	6270.27835
834.824	6154.01235
835.009	6570.98394
835.194	6386.47095
835.379	6237.06699
835.564	6160.24275
835.749	6284.80643
835.934	6118.70275
836.119	6081.30871
836.304	5808.93332
836.489	6137.39691
836.674	5921.25922
836.859	5985.71153
837.044	5756.90729
837.228	6031.43814
837.413	5831.8201
837.598	5744.41884
837.783	5613.23889
837.968	5756.90729
838.152	5538.23689
838.337	5781.88162
838.522	5711.11217
838.707	6041.82896
838.891	5748.58175
839.076	5983.63278
839.261	5642.39809
839.445	6039.75084
839.63	5844.3026
839.815	6174.77953
839.999	5838.06146
840.184	5887.98464
840.368	6006.49776
840.553	5887.98464
840.737	5917.10023
840.922	5858.86444
841.106	5529.90145
841.291	5681.96388
841.475	5484.04979
841.66	5804.77178
841.844	5490.30296
842.029	5925.41812
842.213	5738.1743
842.397	5748.58175
842.582	5421.50645
842.766	5600.74068
842.951	5379.79914
843.135	5388.14135
843.319	5292.18324
843.504	5500.72444
843.688	5054.16102
843.872	5350.59844
844.056	5279.66331
844.241	5313.04792
844.425	5231.66245
844.609	5175.29786
844.793	5033.26747
844.977	5083.40809
845.161	5031.17799
845.346	5169.03408
845.53	4995.65327
845.714	5265.05566
845.898	5131.44699
846.082	5361.02779
846.266	5108.4734
846.45	5275.48982
846.634	4951.76059
846.818	5110.56202
847.002	4989.3835
847.186	5052.07176
847.37	4941.30845
847.554	5091.76356
847.738	4824.2054
847.922	4997.74314
848.106	5166.9461
848.29	5254.62093
848.473	5068.78512
848.657	5162.77009
848.841	5037.44636
849.025	5158.59397
849.209	4855.57932
849.392	5116.82775
849.576	4983.11354
849.76	5254.62093
849.944	4932.94633
850.127	5045.80387
850.311	4872.30998
850.495	5056.25024
850.678	4541.61116
850.862	4914.13022
851.046	4851.39643
851.229	4753.07223
851.413	4610.72753
851.596	4878.5836
851.78	4769.81181
851.964	4912.03942
852.147	4556.27423
852.331	4577.21959
852.514	4748.88711
852.698	4953.85094
852.881	4359.28004
853.065	4537.42151
853.248	4489.23419
853.431	4480.8526
853.615	4376.05303
853.798	4522.75704
853.982	4319.43863
854.165	4656.7916
854.348	4397.01732
854.532	4474.56617
854.715	4036.13342
854.898	4587.69143
855.081	4334.11796
855.265	4430.55563
855.448	4132.71016
855.631	4443.13106
855.814	4262.80851
855.997	4455.7057
856.181	4193.57275
856.364	4071.82994
856.547	4118.01654
856.73	4000.43094
856.913	3857.56223
857.096	4178.8834
857.279	4218.75207
857.462	4099.12324
857.645	3926.90723
857.828	4252.31973
858.011	4243.92833
858.194	4124.31393
858.377	4073.92955
858.56	4208.26106
858.743	4204.0645
858.926	4174.68625
859.109	4176.78484
859.292	4340.40877
859.475	4044.53314
859.658	4225.04642
859.841	4073.92955
860.023	4243.92833
860.206	3905.8959
860.389	4019.33299
860.572	3895.38949
860.755	3922.70513
860.937	3826.03459
861.12	3912.19951
861.303	3981.52722
861.486	4019.33299
861.668	3880.67966
861.851	3979.42671
862.034	3796.60478
862.216	3798.70704
862.399	3615.7382
862.581	3769.27365
862.764	3613.63427
862.947	3676.74395
863.129	3535.77575
863.312	3748.24746
863.494	3481.04927
863.677	3535.77575
863.859	3550.50769
864.042	3695.67351
864.224	3575.76033
864.406	3577.8646
864.589	3287.30482
864.771	3350.49864
864.954	3228.3101
865.136	3550.50769
865.318	3483.15436
865.501	3325.22297
865.683	3438.94363
865.865	3577.8646
866.048	3299.94482
866.23	3350.49864
866.412	3175.6252
866.594	3384.19563
866.777	3304.15801
866.959	3493.67955
867.141	3186.163
867.323	3266.23679
867.505	3367.34769
867.687	3552.61218
867.869	3331.54212
868.052	3438.94363
868.234	3310.47768
868.416	3268.34367
868.598	3325.22297
868.78	3521.04291
868.962	3177.73279
869.144	3432.62717
869.326	3099.74107
869.508	3354.711
869.69	3327.32937
869.872	3358.9233
870.054	3076.55013
870.236	3291.51822
870.417	3293.62489
870.599	3457.89206
870.781	3211.45205
870.963	3213.55937
871.145	3141.9015
871.327	3283.09135
871.508	2975.33133
871.69	3270.45053
871.872	3131.36199
872.054	3137.68574
872.235	3154.54837
872.417	3198.80783
872.599	3097.63288
872.78	3234.63159
872.962	3091.30822
873.144	3179.84037
873.325	2958.45813
873.507	3215.66666
873.689	2990.0946
873.87	3253.59516
874.052	2971.11312
874.233	3297.83819
874.415	3114.49795
874.596	3392.61918
874.778	2987.9856
874.959	2909.94239
875.141	2937.36528
875.322	3379.98375
875.503	2992.20357
875.685	3211.45205
875.866	3021.72767
876.048	3047.03165
876.229	2663.02988
876.41	3055.46581
876.592	2739.02264
876.773	2981.65854
876.954	2684.14066
877.136	3004.85712
877.317	2861.41896
877.498	3080.76681
877.679	2964.78569
877.86	3110.28178
878.042	3106.06554
878.223	3365.24162
878.404	2979.54948
878.585	3198.80783
878.766	2760.12872
878.947	3101.84925
879.128	3061.79127
879.309	2966.89485
879.49	3152.4406
879.672	3321.01011
879.853	3044.92307
880.034	3101.84925
880.215	3038.59723
880.396	3184.05548
880.576	2990.0946
880.757	3283.09135
880.938	3004.85712
881.119	3177.73279
881.3	3025.94515
881.481	3342.07369
881.662	3106.06554
881.843	3110.28178
882.023	2823.43886
882.204	3038.59723
882.385	2909.94239
882.566	3034.37993
882.747	2810.77782
882.927	2973.22223
883.108	2734.80127
883.289	2924.70887
883.469	2920.48995
883.65	3122.9301
883.831	2882.51703
884.011	3148.22501
884.192	3028.05387
884.373	3082.87512
884.553	2802.33685
884.734	2975.33133
884.914	2793.89566
885.095	3093.41646
885.275	2762.23926
885.456	2914.16146
885.636	2869.85836
885.817	3049.14021
885.997	2810.77782
886.178	3011.18369
886.358	3110.28178
886.538	3156.65613
886.719	3049.14021
886.899	3207.23738
887.08	2969.00399
887.26	3308.37114
887.44	3055.46581
887.621	3236.73872
887.801	3023.83642
887.981	3173.51759
888.161	2844.53948
888.342	2890.95586
888.522	2998.53042
888.702	2831.87927
888.882	2884.62676
889.062	2909.94239
889.242	2924.70887
889.423	2920.48995
889.603	3207.23738
889.783	2971.11312
889.963	2825.54898
890.143	3040.70586
890.323	2992.20357
890.503	2954.23968
890.683	2817.1084
890.863	3021.72767
891.043	2802.33685
891.223	3047.03165
891.403	2844.53948
891.583	3034.37993
891.763	2882.51703
891.943	3047.03165
892.122	2985.8766
892.302	3108.17367
892.482	2886.73648
892.662	3025.94515
892.842	2848.75943
893.022	3028.05387
893.201	2760.12872
893.381	2983.76757
893.561	2665.14102
893.741	2867.74853
893.92	2760.12872
894.1	3000.63933
894.28	2760.12872
894.459	3030.16257
894.639	2707.36104
894.819	2987.9856
894.998	2962.67652
895.178	2912.05193
895.357	2779.12305
895.537	2886.73648
895.716	2641.91784
895.896	2996.42148
896.075	2580.68592
896.255	2696.80651
896.434	2468.75359
896.614	2800.22657
896.793	2418.05691
896.973	2544.78663
897.152	2375.80501
897.331	2498.32374
897.511	2373.69231
897.69	2574.351
897.87	2536.33925
898.049	2663.02988
898.228	2371.5796
898.407	2633.47267
898.587	2342.00056
898.766	2625.02731
898.945	2367.35414
899.124	2348.33909
899.304	2291.28916
899.483	2392.70627
899.662	2261.705
899.841	2496.21166
900.02	2365.2414
900.199	2445.51838
900.378	2149.69209
900.557	2430.73166
900.737	2284.94985
900.916	2477.20243
901.095	2101.07553
901.274	2227.89234
901.453	1978.46016
901.632	2073.59482
901.811	1978.46016
901.989	2145.46473
902.168	1986.91712
902.347	2122.21367
902.526	1826.21932
902.705	2126.4412
902.884	2050.34096
903.063	2075.70877
903.242	1855.82383
903.42	2117.9861
903.599	1800.84331
903.778	2111.64469
903.957	1946.7457
904.135	2079.93663
904.314	1756.43384
904.493	1885.42739
904.672	1745.85991
904.85	1826.21932
905.029	1703.56329
905.207	1864.28209
905.386	1657.03557
905.565	1895.99984
905.743	1640.11608
905.922	1728.94142
906.1	1618.9665
906.279	1614.73656
906.457	1534.36635
906.636	1714.13757
906.814	1335.55247
906.993	1758.54862
907.171	1580.89675
907.35	1561.86167
907.528	1462.45484
907.707	1504.75582
907.885	1339.7825
908.063	1559.74665
908.242	1322.86244
908.42	1563.97668
908.598	1320.74745
908.777	1399.00334
908.955	1352.4726
909.133	1274.21796
909.311	1088.11478
909.49	1356.70265
909.668	1263.64323
909.846	1356.70265
910.024	1204.426
910.202	1206.54086
910.38	1272.10301
910.559	1231.91943
910.737	1200.1963
910.915	1449.76452
911.093	1356.70265
911.271	1360.9327
911.449	1392.65821
911.627	1360.9327
911.805	1276.33291
911.983	1274.21796
912.161	1318.63245
912.339	1481.4903
912.517	1278.44787
912.695	1462.45484
912.872	1339.7825
913.05	1335.55247
913.228	1215.00033
913.406	1475.14515
913.584	1250.95363
913.762	1318.63245
913.939	1187.50725
914.117	1396.8883
914.295	1272.10301
914.473	1432.84411
914.65	1202.31115
914.828	1250.95363
915.006	1274.21796
915.184	1449.76452
915.361	1195.9666
915.539	1363.04772
915.716	1227.68963
915.894	1356.70265
916.072	1324.97745
916.249	1375.73791
916.427	1367.27778
916.604	1250.95363
916.782	1102.91728
916.959	1339.7825
917.137	1200.1963
917.314	1377.85294
917.492	1105.03195
917.669	1250.95363
917.847	1073.31252
918.024	1179.04797
918.201	1009.87733
918.379	1263.64323
918.556	1111.37596
918.733	1145.21142
918.911	1052.16689
919.088	1166.35914
919.265	1043.70879
919.442	1147.32618
919.62	1041.59428
919.797	1153.67046
919.974	942.21932
920.151	1079.65631
920.328	933.76257
920.506	1100.80262
920.683	1062.73964
920.86	1183.2776
921.037	1009.87733
921.214	1071.19793
921.391	933.76257
921.568	1018.33505
921.745	948.56196
921.922	1050.05236
922.099	851.31577
922.276	1172.70354
922.453	1058.51052
922.63	1079.65631
922.807	844.97423
922.984	935.87675
923.161	842.8604
923.338	1035.25078
923.514	857.65739
923.691	1009.87733
923.868	853.42963
924.045	866.113
924.222	642.09171
924.399	783.67688
924.575	730.84091
924.752	648.43026
924.929	705.48196
925.105	811.15404
925.282	701.25563
925.459	933.76257
925.635	671.67253
925.812	950.67619
925.989	705.48196
926.165	870.34086
926.342	697.02933
926.518	895.70869
926.695	735.06755
926.871	832.29139
927.048	675.89855
927.224	663.22063
927.401	713.93477
927.577	699.14248
927.754	591.3873
927.93	768.88217
928.107	646.31739
928.283	732.95422
928.459	705.48196
928.636	764.6552
928.812	561.81316
928.988	580.82481
929.165	620.96399
929.341	544.91483
929.517	599.83753
929.693	658.99475
929.87	528.01738
930.046	692.80309
930.222	445.65559
930.398	658.99475
930.574	502.6729
930.751	487.88959
930.927	523.79316
931.103	648.43026
931.279	424.5409
931.455	570.26265
931.631	515.34488
931.807	519.56899
931.983	394.98302
932.159	490.00145
932.335	373.87222
932.511	509.00883
932.687	426.6523
932.863	380.20529
933.039	468.88354
933.215	418.2068
933.391	437.20952
933.566	316.8816
933.742	375.98323
933.918	443.54405
934.094	340.09847
934.27	278.89506
934.445	327.43445
934.621	456.21352
934.797	327.43445
934.973	346.43071
935.148	253.57403
935.324	262.01407
935.5	240.91455
935.675	295.77723
935.851	194.50247
936.027	316.8816
936.202	266.2342
936.378	215.59768
936.553	169.1909
936.729	194.50247
936.904	139.6645
937.08	211.37848
937.255	167.08173
937.431	224.03632
937.606	148.10019
937.782	122.79415
937.957	118.57677
938.133	49.00291
938.308	169.1909
938.483	160.75436
938.659	53.21881
938.834	143.8823
939.009	160.75436
939.185	114.35949
939.36	82.73264
939.535	82.73264
939.71	207.15936
939.886	129.12037
940.061	40.5714
940.236	61.65088
940.411	108.03372
940.586	84.84094
940.761	89.05761
940.937	42.67924
941.112	21.60186
941.287	80.62436
941.462	103.81665
941.637	105.92518
941.812	67.97517
941.987	101.70815
942.162	57.4348
942.337	76.40788
942.512	40.5714
942.687	21.60186
942.862	38.46358
943.037	114.35949
943.212	25.81715
943.386	70.08331
943.561	38.46358
943.736	108.03372
943.911	67.97517
944.086	63.75895
944.26	169.1909
944.435	30.03253
944.61	-18.43861
944.785	82.73264
944.959	46.895
945.134	21.60186
945.309	25.81715
945.483	63.75895
945.658	6.8491
945.833	84.84094
946.007	57.4348
946.182	84.84094
946.357	19.49425
946.531	84.84094
946.706	63.75895
946.88	59.54283
947.055	148.10019
947.229	4.74166
947.404	118.57677
947.578	-22.65289
947.752	51.11085
947.927	82.73264
948.101	80.62436
948.276	55.32679
948.45	65.86705
948.624	112.25088
948.799	0.52684
948.973	13.17157
949.147	63.75895
949.321	89.05761
949.496	30.03253
949.67	2.63424
949.844	72.19148
950.018	91.16598
950.193	42.67924
950.367	82.73264
950.541	55.32679
950.715	-7.90249
950.889	108.03372
951.063	30.03253
951.237	154.42718
951.411	103.81665
951.585	-10.00976
951.759	-20.54576
951.933	40.5714
952.107	57.4348
952.281	93.27437
952.455	74.29967
952.629	49.00291
952.803	72.19148
952.977	80.62436
953.151	30.03253
953.325	72.19148
953.499	67.97517
953.672	-14.22423
953.846	97.49122
954.02	97.49122
954.194	30.03253
954.368	72.19148
954.541	32.14026
954.715	61.65088
954.889	34.24801
955.062	131.22915
955.236	152.31817
955.41	40.5714
955.583	38.46358
955.757	72.19148
955.93	139.6645
956.104	59.54283
956.278	127.01161
956.451	89.05761
956.625	23.70949
956.798	63.75895
956.972	55.32679
957.145	122.79415
957.319	30.03253
957.492	93.27437
957.665	105.92518
957.839	63.75895
958.012	89.05761
958.185	72.19148
958.359	93.27437
958.532	55.32679
958.705	46.895
958.879	6.8491
959.052	51.11085
959.225	57.4348
959.398	89.05761
959.572	59.54283
959.745	63.75895
959.918	124.90287
960.091	97.49122
960.264	-7.90249
960.438	63.75895
960.611	32.14026
960.784	129.12037
960.957	97.49122
961.13	80.62436
961.303	143.8823
961.476	30.03253
961.649	38.46358
961.822	-12.11701
961.995	30.03253
962.168	23.70949
962.341	135.44678
962.514	101.70815
962.686	21.60186
962.859	67.97517
963.032	78.51611
963.205	51.11085
963.378	30.03253
963.551	21.60186
963.723	122.79415
963.896	30.03253
964.069	84.84094
964.242	63.75895
964.414	67.97517
964.587	-10.00976
964.76	114.35949
964.932	23.70949
965.105	46.895
965.278	30.03253
965.45	38.46358
965.623	27.92483
965.795	55.32679
965.968	30.03253
966.14	72.19148
966.313	27.92483
966.485	93.27437
966.658	34.24801
966.83	105.92518
967.003	67.97517
967.175	72.19148
967.348	80.62436
967.52	51.11085
967.692	82.73264
967.865	-12.11701
968.037	72.19148
968.209	86.94927
968.382	65.86705
968.554	-5.79519
968.726	-26.86706
968.898	46.895
969.071	46.895
969.243	67.97517
969.415	59.54283
969.587	-14.22423
969.759	6.8491
969.932	36.35578
970.104	118.57677
970.276	42.67924
970.448	53.21881
970.62	53.21881
970.792	11.06405
970.964	13.17157
971.136	21.60186
971.308	21.60186
971.48	23.70949
971.652	80.62436
971.824	11.06405
971.996	40.5714
972.168	2.63424
972.339	78.51611
972.511	61.65088
972.683	4.74166
972.855	84.84094
973.027	95.38278
973.199	76.40788
973.37	74.29967
973.542	51.11085
973.714	30.03253
973.886	51.11085
974.057	15.2791
974.229	173.40929
974.401	67.97517
974.572	-12.11701
974.744	108.03372
974.915	82.73264
975.087	55.32679
975.259	42.67924
975.43	25.81715
975.602	21.60186
975.773	93.27437
975.945	70.08331
976.116	15.2791
976.288	34.24801
976.459	13.17157
976.63	76.40788
976.802	34.24801
976.973	0.52684
977.145	4.74166
977.316	61.65088
977.487	89.05761
977.659	17.38667
977.83	55.32679
978.001	55.32679
978.172	46.895
978.344	13.17157
978.515	82.73264
978.686	-3.68787
978.857	-3.68787
979.028	15.2791
979.2	46.895
979.371	74.29967
979.542	91.16598
979.713	11.06405
979.884	-12.11701
980.055	46.895
980.226	46.895
980.397	-18.43861
980.568	65.86705
980.739	42.67924
980.91	13.17157
981.081	-1.58052
981.252	38.46358
981.423	46.895
981.594	0.52684
981.765	-1.58052
981.936	-54.2568
982.106	23.70949
982.277	36.35578
982.448	30.03253
982.619	42.67924
982.79	-14.22423
982.96	139.6645
983.131	23.70949
983.302	6.8491
983.472	-28.97412
983.643	118.57677
983.814	57.4348
983.984	42.67924
984.155	-26.86706
984.326	40.5714
984.496	40.5714
984.667	27.92483
984.837	84.84094
985.008	86.94927
985.178	-45.82964
985.349	61.65088
985.519	-22.65289
985.69	-10.00976
985.86	-54.2568
986.031	25.81715
986.201	-10.00976
986.371	32.14026
986.542	51.11085
986.712	-14.22423
986.882	11.06405
987.053	15.2791
987.223	6.8491
987.393	99.59967
987.563	84.84094
987.734	-24.75999
987.904	-12.11701
988.074	84.84094
988.244	34.24801
988.414	-12.11701
988.585	23.70949
988.755	30.03253
988.925	-18.43861
989.095	84.84094
989.265	59.54283
989.435	46.895
989.605	17.38667
989.775	15.2791
989.945	27.92483
990.115	21.60186
990.285	-10.00976
990.455	-33.18815
990.625	-24.75999
990.795	-14.22423
990.965	49.00291
991.134	27.92483
991.304	-20.54576
991.474	-43.72279
991.644	13.17157
991.814	-33.18815
991.984	-28.97412
992.153	38.46358
992.323	-60.57691
992.493	131.22915
992.662	-41.61591
992.832	-43.72279
993.002	-28.97412
993.171	36.35578
993.341	55.32679
993.511	4.74166
993.68	-20.54576
993.85	-20.54576
994.019	89.05761
994.189	-16.33143
994.358	-28.97412
994.528	6.8491
994.697	11.06405
994.867	76.40788
995.036	-7.90249
995.206	-7.90249
995.375	-7.90249
995.544	-3.68787
995.714	57.4348
995.883	59.54283
996.052	-24.75999
996.222	4.74166
996.391	8.95656
996.56	38.46358
996.73	23.70949
996.899	0.52684
997.068	89.05761
997.237	133.33796
997.406	76.40788
997.576	80.62436
997.745	51.11085
997.914	6.8491
998.083	13.17157
998.252	15.2791
998.421	21.60186
998.59	-66.89679
998.759	0.52684
998.928	55.32679
999.097	11.06405
999.266	25.81715
999.435	30.03253
999.604	-1.58052
999.773	36.35578
999.942	40.5714
1000.111	-18.43861
1000.28	-1.58052
1000.448	53.21881
1000.617	38.46358
1000.786	59.54283
1000.955	82.73264
1001.124	32.14026
1001.292	15.2791
1001.461	-28.97412
1001.63	-31.08114
1001.798	-1.58052
1001.967	-12.11701
1002.136	-3.68787
1002.304	-1.58052
1002.473	-28.97412
1002.642	30.03253
1002.81	-5.79519
1002.979	105.92518
1003.147	51.11085
1003.316	30.03253
1003.484	-1.58052
1003.653	-18.43861
1003.821	-7.90249
1003.99	55.32679
1004.158	13.17157
1004.327	11.06405
1004.495	-45.82964
1004.663	6.8491
1004.832	46.895
1005	34.24801
1005.168	-3.68787
1005.337	76.40788
1005.505	63.75895
1005.673	-62.68356
1005.842	-10.00976
1006.01	8.95656
1006.178	-14.22423
1006.346	13.17157
1006.514	-12.11701
1006.683	-1.58052
1006.851	19.49425
1007.019	4.74166
1007.187	0.52684
1007.355	-16.33143
1007.523	30.03253
1007.691	11.06405
1007.859	21.60186
1008.027	-28.97412
1008.195	-12.11701
1008.363	-10.00976
1008.531	38.46358
1008.699	13.17157
1008.867	-20.54576
1009.035	36.35578
1009.203	2.63424
1009.37	-52.15005
1009.538	-28.97412
1009.706	4.74166
1009.874	95.38278
1010.042	4.74166
1010.209	4.74166
1010.377	-18.43861
1010.545	13.17157
1010.713	-3.68787
1010.88	23.70949
1011.048	72.19148
1011.216	0.52684
1011.383	21.60186
1011.551	63.75895
1011.718	21.60186
1011.886	25.81715
1012.054	42.67924
1012.221	21.60186
1012.389	32.14026
1012.556	59.54283
1012.724	2.63424
1012.891	-3.68787
1013.058	-54.2568
1013.226	-5.79519
1013.393	21.60186
1013.561	-47.93647
1013.728	-7.90249
1013.895	-35.29512
1014.063	67.97517
1014.23	34.24801
1014.397	21.60186
1014.565	23.70949
1014.732	21.60186
1014.899	51.11085
1015.066	4.74166
1015.233	-69.00336
1015.401	53.21881
1015.568	23.70949
1015.735	-35.29512
1015.902	11.06405
1016.069	0.52684
1016.236	44.78711
1016.403	8.95656
1016.57	-5.79519
1016.737	27.92483
1016.904	-12.11701
1017.071	-47.93647
1017.238	-50.04327
1017.405	34.24801
1017.572	74.29967
1017.739	21.60186
1017.906	-58.47023
1018.073	17.38667
1018.24	23.70949
1018.407	21.60186
1018.573	-12.11701
1018.74	21.60186
1018.907	-37.40208
1019.074	-7.90249
1019.241	-12.11701
1019.407	27.92483
1019.574	4.74166
1019.741	13.17157
1019.907	72.19148
1020.074	25.81715
1020.241	-16.33143
1020.407	-71.10991
1020.574	-33.18815
1020.74	-1.58052
1020.907	-54.2568
1021.073	11.06405
1021.24	-5.79519
1021.406	-35.29512
1021.573	-41.61591
1021.739	-37.40208
1021.906	-12.11701
1022.072	11.06405
1022.239	0.52684
1022.405	13.17157
1022.571	-24.75999
1022.738	-31.08114
1022.904	-45.82964
1023.07	-12.11701
1023.237	65.86705
1023.403	-7.90249
1023.569	-45.82964
1023.735	38.46358
1023.902	-45.82964
1024.068	4.74166
1024.234	-22.65289
1024.4	4.74166
1024.566	13.17157
1024.732	46.895
1024.898	0.52684
1025.065	32.14026
1025.231	21.60186
1025.397	8.95656
1025.563	49.00291
1025.729	40.5714
1025.895	27.92483
1026.061	-24.75999
1026.227	-41.61591
1026.392	-24.75999
1026.558	-1.58052
1026.724	-10.00976
1026.89	15.2791
1027.056	13.17157
1027.222	-3.68787
1027.388	-60.57691
1027.553	-26.86706
1027.719	46.895
1027.885	17.38667
1028.051	-26.86706
1028.216	-20.54576
1028.382	-58.47023
1028.548	46.895
1028.713	32.14026
1028.879	34.24801
1029.045	-22.65289
1029.21	-20.54576
1029.376	0.52684
1029.541	70.08331
1029.707	72.19148
1029.873	8.95656
1030.038	21.60186
1030.204	38.46358
1030.369	34.24801
1030.534	-26.86706
1030.7	-26.86706
1030.865	23.70949
1031.031	23.70949
1031.196	-28.97412
1031.361	11.06405
1031.527	-24.75999
1031.692	-12.11701
1031.857	63.75895
1032.023	55.32679
1032.188	57.4348
1032.353	11.06405
1032.518	-10.00976
1032.684	6.8491
1032.849	-20.54576
1033.014	-1.58052
1033.179	23.70949
1033.344	8.95656
1033.509	21.60186
1033.674	-52.15005
1033.839	38.46358
1034.004	-73.21644
1034.17	-43.72279
1034.335	-7.90249
1034.5	72.19148
1034.664	49.00291
1034.829	-37.40208
1034.994	15.2791
1035.159	40.5714
1035.324	13.17157
1035.489	-16.33143
1035.654	-45.82964
1035.819	-37.40208
1035.984	-12.11701
1036.148	46.895
1036.313	46.895
1036.478	-26.86706
1036.643	13.17157
1036.807	40.5714
1036.972	63.75895
1037.137	13.17157
1037.301	36.35578
1037.466	-12.11701
1037.631	4.74166
1037.795	-3.68787
1037.96	46.895
1038.124	-33.18815
1038.289	13.17157
1038.454	-10.00976
1038.618	21.60186
1038.783	-45.82964
1038.947	-28.97412
1039.111	-16.33143
1039.276	-62.68356
1039.44	53.21881
1039.605	4.74166
1039.769	-20.54576
1039.933	-18.43861
1040.098	-7.90249
1040.262	-35.29512
1040.426	4.74166
1040.591	63.75895
1040.755	93.27437
1040.919	-39.50901
1041.083	0.52684
1041.248	80.62436
1041.412	49.00291
1041.576	-26.86706
1041.74	40.5714
1041.904	-37.40208
1042.068	21.60186
1042.232	-7.90249
1042.397	-1.58052
1042.561	32.14026
1042.725	-16.33143
1042.889	-54.2568
1043.053	-31.08114
1043.217	-39.50901
1043.381	-62.68356
1043.544	25.81715
1043.708	13.17157
1043.872	23.70949
1044.036	-96.3865
1044.2	67.97517
1044.364	40.5714
1044.528	84.84094
1044.691	-1.58052
1044.855	-18.43861
1045.019	-28.97412
1045.183	-16.33143
1045.346	-62.68356
1045.51	49.00291
1045.674	-14.22423
1045.837	-50.04327
1046.001	34.24801
1046.165	46.895
1046.328	-16.33143
1046.492	-26.86706
1046.655	57.4348
1046.819	8.95656
1046.983	2.63424
1047.146	-26.86706
1047.31	67.97517
1047.473	21.60186
1047.636	49.00291
1047.8	38.46358
1047.963	17.38667
1048.127	13.17157
1048.29	-37.40208
