Data from absorb_only_2.23.25_USB4F045381__28__0133.txt Node

Date: Sun Feb 23 19:17:03 EST 2025
User: ssocol
Spectrometer: USB4F04538
Trigger mode: 4
Integration Time (sec): 2.600000E-3
Scans to average: 1
Electric dark correction enabled: true
Nonlinearity correction enabled: true
Boxcar width: 0
XAxis mode: Wavelengths
Number of Pixels in Spectrum: 3648
>>>>>Begin Spectral Data<<<<<
345.52	5.44413
345.736	5.44413
345.952	5.44413
346.168	-24.05762
346.384	7.55158
346.6	-26.16471
346.816	37.05838
347.032	28.62739
347.248	9.65906
347.464	-7.20006
347.68	-21.95051
347.896	45.48974
348.112	-43.0205
348.328	-38.8067
348.544	-5.09275
348.76	1.22931
348.975	20.19678
349.191	-36.69976
349.407	-55.66129
349.623	-11.4146
349.839	-53.55456
350.055	-70.40773
350.27	-24.05762
350.486	-70.40773
350.702	-19.84338
350.918	72.8942
351.133	20.19678
351.349	13.87408
351.565	-30.3788
351.781	-2.98542
351.996	43.38186
352.212	-13.52183
352.428	-5.09275
352.644	34.9506
352.859	-38.8067
353.075	7.55158
353.291	-5.09275
353.506	15.98162
353.722	-0.87807
353.938	5.44413
354.153	-7.20006
354.369	5.44413
354.584	47.59764
354.8	-21.95051
355.016	-19.84338
355.231	-43.0205
355.447	-5.09275
355.662	-32.48582
355.878	11.76656
356.093	-19.84338
356.309	-76.72725
356.524	-38.8067
356.74	-5.09275
356.955	-21.95051
357.171	-64.08798
357.386	11.76656
357.602	20.19678
357.817	72.8942
358.033	-9.30734
358.248	-21.95051
358.464	-78.83371
358.679	-47.2342
358.895	28.62739
359.11	-21.95051
359.325	30.7351
359.541	3.33671
359.756	-28.27177
359.972	-64.08798
360.187	45.48974
360.402	-9.30734
360.618	24.41204
360.833	-32.48582
361.048	-5.09275
361.264	-21.95051
361.479	62.35357
361.694	-11.4146
361.909	-13.52183
362.125	-13.52183
362.34	-9.30734
362.555	47.59764
362.77	-19.84338
362.986	26.51971
363.201	-97.79065
363.416	53.92147
363.631	45.48974
363.847	-0.87807
364.062	15.98162
364.277	-38.8067
364.492	13.87408
364.707	-51.44779
364.922	-13.52183
365.138	32.84284
365.353	70.78603
365.568	37.05838
365.783	-7.20006
365.998	-11.4146
366.213	47.59764
366.428	-0.87807
366.643	-55.66129
366.858	41.27401
367.073	-5.09275
367.288	39.16618
367.503	22.3044
367.718	37.05838
367.933	32.84284
368.148	24.41204
368.363	-47.2342
368.578	-19.84338
368.793	64.46165
369.008	-0.87807
369.223	-26.16471
369.438	-0.87807
369.653	-15.62904
369.868	11.76656
370.083	9.65906
370.298	26.51971
370.513	-51.44779
370.728	43.38186
370.943	-34.5928
371.157	45.48974
371.372	37.05838
371.587	-51.44779
371.802	37.05838
372.017	-47.2342
372.232	-30.3788
372.446	-0.87807
372.661	-9.30734
372.876	-13.52183
373.091	-5.09275
373.306	-26.16471
373.52	18.08919
373.735	-17.73622
373.95	-9.30734
374.165	9.65906
374.379	-36.69976
374.594	3.33671
374.809	56.02946
375.023	30.7351
375.238	-38.8067
375.453	28.62739
375.667	-11.4146
375.882	53.92147
376.097	7.55158
376.311	30.7351
376.526	47.59764
376.741	62.35357
376.955	-97.79065
377.17	3.33671
377.384	-13.52183
377.599	-17.73622
377.813	-64.08798
378.028	37.05838
378.242	-21.95051
378.457	3.33671
378.672	41.27401
378.886	41.27401
379.101	-17.73622
379.315	3.33671
379.53	11.76656
379.744	-2.98542
379.958	30.7351
380.173	-28.27177
380.387	70.78603
380.602	-26.16471
380.816	-0.87807
381.031	-26.16471
381.245	37.05838
381.459	15.98162
381.674	-40.91361
381.888	-13.52183
382.103	-53.55456
382.317	-61.98135
382.531	53.92147
382.746	24.41204
382.96	-26.16471
383.174	1.22931
383.388	-5.09275
383.603	75.0024
383.817	1.22931
384.031	64.46165
384.246	-11.4146
384.46	24.41204
384.674	20.19678
384.888	68.67788
385.103	-9.30734
385.317	58.13747
385.531	-26.16471
385.745	-0.87807
385.959	39.16618
386.174	-28.27177
386.388	-55.66129
386.602	-21.95051
386.816	37.05838
387.03	-51.44779
387.244	53.92147
387.458	-40.91361
387.672	75.0024
387.887	-5.09275
388.101	28.62739
388.315	-24.05762
388.529	-13.52183
388.743	5.44413
388.957	-0.87807
389.171	-43.0205
389.385	-36.69976
389.599	-47.2342
389.813	20.19678
390.027	75.0024
390.241	-30.3788
390.455	11.76656
390.669	-34.5928
390.883	3.33671
391.097	-13.52183
391.311	-9.30734
391.525	-28.27177
391.738	-30.3788
391.952	-36.69976
392.166	-17.73622
392.38	11.76656
392.594	15.98162
392.808	13.87408
393.022	-74.62077
393.236	56.02946
393.449	-9.30734
393.663	22.3044
393.877	72.8942
394.091	79.21886
394.305	1.22931
394.518	20.19678
394.732	-76.72725
394.946	-17.73622
395.16	13.87408
395.373	47.59764
395.587	-13.52183
395.801	79.21886
396.015	22.3044
396.228	18.08919
396.442	-26.16471
396.656	-15.62904
396.869	93.97717
397.083	-38.8067
397.297	64.46165
397.51	53.92147
397.724	28.62739
397.938	-55.66129
398.151	-19.84338
398.365	26.51971
398.578	13.87408
398.792	60.24551
399.005	30.7351
399.219	32.84284
399.433	56.02946
399.646	5.44413
399.86	1.22931
400.073	102.41098
400.287	-24.05762
400.5	-34.5928
400.714	-74.62077
400.927	28.62739
401.141	-5.09275
401.354	20.19678
401.567	-13.52183
401.781	-5.09275
401.994	15.98162
402.208	15.98162
402.421	-53.55456
402.635	43.38186
402.848	45.48974
403.061	-24.05762
403.275	96.08559
403.488	-61.98135
403.701	39.16618
403.915	41.27401
404.128	20.19678
404.341	9.65906
404.555	11.76656
404.768	11.76656
404.981	-89.3656
405.195	26.51971
405.408	45.48974
405.621	-36.69976
405.834	-9.30734
406.048	37.05838
406.261	-0.87807
406.474	41.27401
406.687	-5.09275
406.9	45.48974
407.114	9.65906
407.327	20.19678
407.54	30.7351
407.753	56.02946
407.966	-24.05762
408.179	30.7351
408.392	43.38186
408.605	37.05838
408.819	-53.55456
409.032	1.22931
409.245	37.05838
409.458	-21.95051
409.671	11.76656
409.884	79.21886
410.097	-5.09275
410.31	68.67788
410.523	-43.0205
410.736	-9.30734
410.949	5.44413
411.162	28.62739
411.375	93.97717
411.588	37.05838
411.801	64.46165
412.014	7.55158
412.227	-21.95051
412.44	-2.98542
412.653	93.97717
412.865	49.70556
413.078	-40.91361
413.291	5.44413
413.504	-26.16471
413.717	39.16618
413.93	-30.3788
414.143	15.98162
414.356	28.62739
414.568	20.19678
414.781	-34.5928
414.994	-49.34101
415.207	11.76656
415.42	1.22931
415.632	11.76656
415.845	43.38186
416.058	28.62739
416.271	-5.09275
416.483	24.41204
416.696	72.8942
416.909	123.49705
417.121	22.3044
417.334	5.44413
417.547	15.98162
417.759	83.43541
417.972	15.98162
418.185	45.48974
418.397	45.48974
418.61	18.08919
418.823	45.48974
419.035	7.55158
419.248	11.76656
419.46	79.21886
419.673	26.51971
419.885	56.02946
420.098	104.51949
420.311	-40.91361
420.523	-40.91361
420.736	43.38186
420.948	58.13747
421.161	-11.4146
421.373	26.51971
421.586	58.13747
421.798	28.62739
422.01	24.41204
422.223	-80.94014
422.435	32.84284
422.648	20.19678
422.86	30.7351
423.073	-28.27177
423.285	56.02946
423.497	58.13747
423.71	96.08559
423.922	-38.8067
424.134	70.78603
424.347	70.78603
424.559	-11.4146
424.771	24.41204
424.984	-21.95051
425.196	51.8135
425.408	-9.30734
425.621	45.48974
425.833	104.51949
426.045	87.65205
426.257	-28.27177
426.47	20.19678
426.682	-7.20006
426.894	77.11062
427.106	66.56975
427.318	-51.44779
427.531	7.55158
427.743	146.69422
427.955	11.76656
428.167	98.19403
428.379	22.3044
428.591	-17.73622
428.804	30.7351
429.016	70.78603
429.228	70.78603
429.44	-13.52183
429.652	5.44413
429.864	56.02946
430.076	-5.09275
430.288	-0.87807
430.5	93.97717
430.712	32.84284
430.924	37.05838
431.136	93.97717
431.348	98.19403
431.56	30.7351
431.772	-21.95051
431.984	70.78603
432.196	51.8135
432.408	3.33671
432.62	43.38186
432.832	24.41204
433.044	-17.73622
433.256	64.46165
433.468	39.16618
433.679	39.16618
433.891	62.35357
434.103	182.54942
434.315	-49.34101
434.527	153.02117
434.739	-15.62904
434.95	112.95374
435.162	30.7351
435.374	96.08559
435.586	20.19678
435.798	1.22931
436.009	-30.3788
436.221	24.41204
436.433	155.13019
436.645	93.97717
436.856	22.3044
437.068	1.22931
437.28	34.9506
437.491	121.38835
437.703	5.44413
437.915	45.48974
438.126	45.48974
438.338	79.21886
438.55	-2.98542
438.761	41.27401
438.973	100.3025
439.184	22.3044
439.396	5.44413
439.608	117.171
439.819	136.14973
440.031	39.16618
440.242	7.55158
440.454	28.62739
440.665	32.84284
440.877	79.21886
441.088	45.48974
441.3	96.08559
441.511	87.65205
441.723	91.86877
441.934	96.08559
442.146	70.78603
442.357	72.8942
442.569	28.62739
442.78	70.78603
442.991	39.16618
443.203	87.65205
443.414	81.32712
443.626	62.35357
443.837	87.65205
444.048	104.51949
444.26	20.19678
444.471	87.65205
444.682	89.7604
444.894	108.73657
445.105	89.7604
445.316	104.51949
445.528	32.84284
445.739	53.92147
445.95	75.0024
446.161	62.35357
446.373	125.60578
446.584	96.08559
446.795	43.38186
447.006	104.51949
447.217	45.48974
447.429	129.82329
447.64	58.13747
447.851	45.48974
448.062	165.67563
448.273	91.86877
448.484	56.02946
448.695	77.11062
448.907	87.65205
449.118	108.73657
449.329	79.21886
449.54	72.8942
449.751	115.06236
449.962	125.60578
450.173	70.78603
450.384	64.46165
450.595	70.78603
450.806	112.95374
451.017	72.8942
451.228	148.80318
451.439	117.171
451.65	87.65205
451.861	125.60578
452.072	66.56975
452.283	53.92147
452.494	148.80318
452.705	66.56975
452.915	115.06236
453.126	131.93208
453.337	140.36746
453.548	172.00315
453.759	70.78603
453.97	146.69422
454.181	104.51949
454.391	138.25859
454.602	239.50798
454.813	125.60578
455.024	188.87742
455.235	182.54942
455.445	115.06236
455.656	129.82329
455.867	153.02117
456.078	165.67563
456.288	115.06236
456.499	96.08559
456.71	188.87742
456.921	216.30089
457.131	121.38835
457.342	150.91217
457.553	104.51949
457.763	144.58528
457.974	205.753
458.184	214.19127
458.395	188.87742
458.606	180.44012
458.816	140.36746
459.027	216.30089
459.237	163.5665
459.448	226.84928
459.659	163.5665
459.869	247.94751
460.08	197.31505
460.29	260.60738
460.501	142.47636
460.711	159.34831
460.922	205.753
461.132	269.04767
461.343	165.67563
461.553	252.16739
461.764	258.49735
461.974	212.08167
462.184	231.06877
462.395	233.17854
462.605	292.26001
462.816	205.753
463.026	269.04767
463.236	275.37808
463.447	290.14971
463.657	266.93757
463.867	323.91679
464.078	309.14312
464.288	283.8189
464.498	418.91058
464.709	340.80204
464.919	404.13155
465.129	364.02109
465.339	351.3559
465.55	340.80204
465.76	391.46444
465.97	355.57756
466.18	383.02003
466.391	387.2422
466.601	414.68792
466.811	463.25235
467.021	444.24789
467.231	497.04108
467.441	408.35405
467.651	480.14624
467.862	450.58257
468.072	524.49719
468.282	547.73116
468.492	469.58744
468.702	480.14624
468.912	695.62058
469.122	556.18028
469.332	663.92495
469.542	554.06798
469.752	670.26386
469.962	615.33015
470.172	666.03791
470.382	763.24622
470.592	754.79243
470.802	780.15429
471.012	805.51757
471.222	813.9723
471.432	864.70372
471.642	765.35969
471.852	896.41337
472.062	928.12481
472.272	991.55261
472.482	881.6153
472.691	1033.84112
472.901	858.36202
473.111	1061.32993
473.321	1154.37539
473.531	1143.80159
473.741	1118.42492
473.95	1266.46315
474.16	1101.50751
474.37	1215.70529
474.58	1122.65432
474.79	1422.97387
474.999	1355.29263
475.209	1431.43407
475.419	1346.83255
475.628	1535.07136
475.838	1348.94757
476.048	1511.80596
476.258	1450.46954
476.467	1727.53154
476.677	1651.39576
476.886	2023.56274
477.096	1848.07036
477.306	1930.53557
477.515	1702.15338
477.725	1947.45048
477.935	1896.70467
478.144	2044.70353
478.354	1767.71261
478.563	2093.32469
478.773	2032.01914
478.982	2247.61667
479.192	2230.71015
479.401	2129.25954
479.611	2296.21968
479.82	2336.36624
480.03	2469.45767
480.239	2484.24299
480.449	2397.63568
480.658	2716.50803
480.868	2731.28341
481.077	2693.28827
481.287	2530.70756
481.496	2868.45181
481.705	2703.8429
481.915	3007.66895
482.124	2805.15053
482.333	3054.06013
482.543	2885.33
482.752	3089.90273
482.961	3087.79446
483.171	3285.90033
483.38	3260.61837
483.589	3328.0315
483.799	3355.41306
484.008	3378.57978
484.217	3222.69087
484.426	3538.5819
484.636	3311.17985
484.845	3757.35905
485.054	3473.33044
485.263	3685.85838
485.472	3673.2383
485.682	3803.61223
485.891	3730.02319
486.1	3839.34681
486.309	3778.3844
486.518	4030.53342
486.727	3978.02635
486.936	4080.9281
487.146	4068.33055
487.355	4227.84385
487.564	4059.93177
487.773	4294.97075
487.982	4112.4187
488.191	4374.65534
488.4	4273.99595
488.609	4573.72885
488.818	4353.68874
489.027	4718.19346
489.236	4621.89557
489.445	4621.89557
489.654	4582.10652
489.863	4889.73619
490.072	4667.95701
490.281	4806.07591
490.49	4791.43162
490.698	5098.72617
490.907	4902.28208
491.116	5123.78944
491.325	4881.37181
491.534	5010.97847
491.743	5079.92653
491.952	5269.92501
492.16	5203.13435
492.369	5405.51976
492.578	5274.09863
492.787	5436.79678
492.996	5470.1531
493.204	5543.09906
493.413	5578.51954
493.622	5622.26485
493.831	5488.91339
494.039	5780.49425
494.248	5513.92414
494.457	5844.99605
494.665	5780.49425
494.874	5822.11091
495.083	5830.43311
495.291	5969.77382
495.5	5830.43311
495.709	5969.77382
495.917	5855.39744
496.126	6042.52166
496.335	6144.32019
496.543	6254.36532
496.752	6185.8544
496.96	6418.27283
497.169	6123.54957
497.377	6190.0073
497.586	6248.13811
497.794	6521.93663
498.003	6436.9366
498.211	6443.15744
498.42	6351.89747
498.628	6629.68553
498.837	6329.07543
499.045	6577.89097
499.254	6627.61403
499.462	6714.59745
499.671	6685.60748
499.879	6813.95755
500.087	6671.11081
500.296	7188.15851
500.504	6853.27307
500.713	6938.08387
500.921	6975.30586
501.129	6784.98296
501.338	6900.85455
501.546	7378.08036
501.754	6923.60667
501.962	7167.50358
502.171	7072.46224
502.379	7316.16975
502.587	7055.92848
502.795	7312.04168
503.004	7064.19554
503.212	7584.30799
503.42	7345.06381
503.628	7637.89201
503.837	7287.27139
504.045	7526.58598
504.253	7404.90218
504.461	7580.18555
504.669	7536.89471
504.877	7683.22112
505.085	7858.26064
505.294	7596.67482
505.502	7670.85965
505.71	7674.98022
505.918	7580.18555
506.126	7718.24114
506.334	7444.09671
506.542	7981.72764
506.75	7759.43339
506.958	7887.07624
507.166	7839.73418
507.374	7887.07624
507.582	7786.20385
507.79	8061.94172
507.998	7755.31454
508.206	8193.50861
508.414	7845.90986
508.622	8195.56369
508.83	8016.69655
509.037	8244.87975
509.245	7969.38427
509.453	8246.93433
509.661	8310.61682
509.869	8419.44992
510.077	8238.71586
510.285	8468.71499
510.492	8285.96778
510.7	8386.60038
510.908	8285.96778
511.116	8622.59776
511.324	8382.49384
511.531	8425.60865
511.739	8452.29453
511.947	8636.95476
512.155	8559.00576
512.362	8714.87686
512.57	8780.47485
512.778	8710.77636
512.985	8630.80187
513.193	8587.72696
513.401	8751.77803
513.608	8975.1098
513.816	8563.10901
514.024	8932.09911
514.231	8811.21747
514.439	8942.34046
514.646	8630.80187
514.854	9278.01564
515.061	8825.56263
515.269	8958.72569
515.477	8882.93445
515.684	9095.90794
515.892	8921.85732
516.099	9218.69191
516.307	9095.90794
516.514	9359.81846
516.722	9177.77074
516.929	9318.92036
517.136	9069.2966
517.344	9261.65188
517.551	9382.30961
517.759	9386.3987
517.966	9374.13124
518.173	9341.41513
518.381	9435.46266
518.588	9504.95398
518.796	9521.30219
519.003	9427.28598
519.21	9349.59455
519.418	9725.56989
519.625	9517.21523
519.832	9931.72533
520.039	9815.39892
520.247	9539.69271
520.454	9580.55592
520.661	9903.15837
520.868	9645.92401
521.076	10070.43876
521.283	10005.17013
521.49	10027.60786
521.697	9839.8927
521.904	9933.76572
522.112	9860.30253
522.319	10198.89424
522.526	9817.44015
522.733	10239.66229
522.94	10080.63566
523.147	10184.62413
523.354	10160.15951
523.561	10011.28968
523.768	10198.89424
523.975	10541.1804
524.183	10264.12051
524.39	10421.01491
524.597	10306.91771
524.804	10347.67146
525.011	10231.50912
525.218	10441.38509
525.425	10533.03499
525.632	10351.74655
525.838	10188.70137
526.045	10512.67058
526.252	10502.48789
526.459	10708.11748
526.666	10274.31085
526.873	10840.38786
527.08	10903.45325
527.287	10742.71612
527.494	10651.12387
527.701	10891.24791
527.907	10543.21672
528.114	11011.2494
528.321	10956.33833
528.528	10992.94661
528.735	10695.90536
528.941	11041.75206
529.148	10722.3644
529.355	11322.26351
529.562	11066.1524
529.768	11210.48941
529.975	11072.25224
530.182	11192.19612
530.388	10877.00782
530.595	11287.71845
530.802	10958.37222
531.008	11480.72754
531.215	11476.6651
531.422	11582.27626
531.628	11563.99922
531.835	11364.9328
532.042	11316.16753
532.248	11535.56677
532.455	11553.84498
532.661	11415.72387
532.868	11387.28163
533.074	11870.55129
533.281	11708.16466
533.487	11700.04387
533.694	11683.80187
533.9	12241.8151
534.107	11559.93755
534.313	12036.9422
534.52	11834.01907
534.726	11870.55129
534.933	11582.27626
535.139	11988.24802
535.345	11846.19678
535.552	12036.9422
535.758	12077.51723
535.965	12105.91792
536.171	11659.43778
536.377	12182.99801
536.584	11990.27704
536.79	12243.84316
536.996	12160.68646
537.203	12030.85568
537.409	12130.26017
537.615	12256.01141
537.821	12519.5956
538.028	12582.43386
538.234	12329.01552
538.44	12521.62274
538.646	12300.62612
538.853	12402.01062
539.059	12203.28046
539.265	12341.18199
539.471	12343.20971
539.677	12582.43386
539.883	12519.5956
540.09	12616.891
540.296	12406.06565
540.502	13009.98976
540.708	12586.48773
540.914	12993.78351
541.12	12708.09264
541.326	12945.1628
541.532	12860.06932
541.738	13005.93823
541.944	12961.37003
542.15	13048.47834
542.356	13064.68353
542.562	13336.07641
542.768	13212.54185
542.974	13204.44066
543.18	12904.64326
543.386	13133.55214
543.592	13257.09715
543.798	13198.36472
544.004	13058.60662
544.21	13283.42429
544.415	13410.99965
544.621	13445.42203
544.827	13182.16201
545.033	13577.02697
545.239	13500.09058
545.445	13680.2758
545.651	13619.54226
545.856	13672.17817
546.062	13631.68921
546.268	13791.61315
546.474	13451.49645
546.679	13398.85031
546.885	13415.0494
547.091	13370.50129
547.297	13309.7507
547.502	13777.44345
547.708	13819.95209
547.914	13718.73886
548.119	13807.8069
548.325	13684.3246
548.531	13400.87521
548.736	13558.80566
548.942	13781.49195
549.147	13512.23878
549.353	13898.89335
549.559	13854.36291
549.764	13838.16969
549.97	13961.63859
550.175	13795.6616
550.381	14125.57456
550.586	13890.79701
550.792	14058.78769
550.997	14072.95481
551.203	14261.16505
551.408	14230.80975
551.614	14297.59086
551.819	14338.06331
552.025	14560.65066
552.23	14412.93559
552.435	14540.41613
552.641	14742.75646
552.846	14651.70458
553.052	14153.90766
553.257	14400.79429
553.462	14680.03204
553.668	14649.68119
553.873	14516.13454
554.078	14696.21907
554.283	14518.15801
554.489	14655.75137
554.694	14463.52377
554.899	14799.41009
555.105	14655.75137
555.31	14884.38952
555.515	14839.87662
555.72	15028.04322
555.925	14939.01864
556.131	15214.18431
556.336	14908.66917
556.541	15473.16513
556.746	14912.71577
556.951	14779.17672
557.156	14765.01331
557.361	15125.1604
557.567	14809.52675
557.772	15074.57858
557.977	14918.78567
558.182	15291.06873
558.387	15173.71889
558.592	15106.95095
558.797	14993.64744
559.002	15323.44121
559.207	15325.46449
559.412	15177.76543
559.617	15238.46358
559.822	15363.90692
560.027	15339.62748
560.232	15139.32329
560.437	15272.85924
560.642	15264.76614
560.847	15090.76477
561.051	15396.27958
561.256	15195.97487
561.461	15436.74557
561.666	15382.11653
561.871	15440.79218
562.076	15305.23169
562.281	15400.32617
562.485	15206.09123
562.69	15456.97864
562.895	15479.23507
563.1	15655.26601
563.305	15414.48926
563.509	15635.03228
563.714	15802.97507
563.919	15576.35491
564.123	15414.48926
564.328	15369.97678
564.533	15802.97507
564.737	15766.55316
564.942	15701.80392
565.147	15823.20962
565.351	15804.99852
565.556	15541.95813
565.761	15479.23507
565.965	15861.65558
566.17	15649.19588
566.374	15873.79649
566.579	16009.37318
566.784	16201.61991
566.988	15715.96773
567.193	15889.98445
567.397	15932.47822
567.602	16276.49897
567.806	15695.73373
568.011	15922.3606
568.215	15879.86697
568.42	15942.59586
568.624	16272.45139
568.828	15948.66647
569.033	15887.96095
569.237	16430.31248
569.442	16074.12842
569.646	15766.55316
569.85	16304.83222
570.055	16432.33642
570.259	15831.30347
570.463	16308.87986
570.668	16193.52502
570.872	16290.66555
571.076	16078.17567
571.281	16171.26421
571.485	16444.48008
571.689	16610.45104
571.893	16602.35455
572.098	16640.81316
572.302	16302.8084
572.506	16355.42821
572.71	16543.65612
572.914	16606.40279
573.119	16302.8084
573.323	16466.74366
573.527	16306.85604
573.731	16693.44207
573.935	16669.15161
574.139	16632.71655
574.343	16430.31248
574.547	16616.52342
574.751	16693.44207
574.955	16970.783
575.159	16822.99696
575.364	16725.82987
575.568	16491.03147
575.772	16766.31548
575.976	16739.99972
576.18	16752.1454
576.383	16843.24082
576.587	17009.25015
576.791	16774.41271
576.995	16695.46629
577.199	17007.22553
577.403	16863.48493
577.607	16806.80206
577.811	17090.23681
578.015	16877.65596
578.219	16598.30633
578.422	16758.21828
578.626	17106.43467
578.83	17201.60076
579.034	17055.81694
579.238	16778.46135
579.442	17292.72321
579.645	17229.94933
579.849	17193.50127
580.053	17553.97495
580.257	17300.82327
580.46	17203.62564
580.664	17193.50127
580.868	17288.6732
581.071	17472.96112
581.275	17329.17387
581.479	17566.12747
581.682	17256.27351
581.886	17430.43087
582.09	17037.59498
582.293	17594.4838
582.497	17462.83474
582.7	17827.43526
582.904	17797.04776
583.107	17847.69402
583.311	17626.8918
583.515	17501.31538
583.718	17503.34071
583.922	17606.6367
584.125	17560.0512
584.329	17616.76421
584.532	17707.91551
584.735	17961.14948
584.939	17863.90127
585.142	18096.90538
585.346	17549.92414
585.549	17957.09731
585.753	17780.84141
585.956	17963.17557
586.159	17776.78985
586.363	18074.616
586.566	18291.44969
586.769	18163.77618
586.973	18080.69488
587.176	18366.43943
587.379	18005.72428
587.582	18413.05728
587.786	18046.24832
587.989	18214.43851
588.192	18050.3008
588.395	18571.16762
588.599	18244.83702
588.802	18469.81215
589.005	17969.25386
589.208	18321.85032
589.411	18368.46626
589.615	18212.41198
589.818	18267.12979
590.021	18327.93055
590.224	18556.97727
590.427	18771.88013
590.63	18735.38408
590.833	18652.25896
591.036	18293.47637
591.239	18883.4038
591.442	18540.75997
591.645	18840.82061
591.848	18885.43162
592.051	19076.06419
592.254	18313.7434
592.457	18490.08248
592.66	18034.09096
592.863	18717.13654
593.066	18818.51584
593.269	18909.76571
593.472	18822.57121
593.675	19185.59273
593.878	18696.86186
594.081	18855.01481
594.284	18662.39582
594.486	18865.15365
594.689	19067.95144
594.892	19007.10786
595.095	18966.5475
595.298	18958.43562
595.5	18587.38539
595.703	18996.96762
595.906	18889.48726
596.109	19126.77037
596.311	19315.4198
596.514	19067.95144
596.717	19035.50108
596.92	19181.5359
597.122	19013.19205
597.325	19441.2059
597.528	19396.5703
597.73	19808.5117
597.933	19098.37459
598.136	19601.50486
598.338	19467.58242
598.541	19538.59964
598.743	19698.91442
598.946	19404.68571
599.148	19424.97454
599.351	19418.88785
599.554	19670.5023
599.756	19404.68571
599.959	19642.091
600.161	19587.3001
600.363	19500.0468
600.566	19406.71458
600.768	19700.94388
600.971	19530.48312
601.173	19183.56431
601.376	19167.33714
601.578	19439.17696
601.78	19313.39112
601.983	19623.82703
602.185	19587.3001
602.388	19700.94388
602.59	19603.53413
602.792	19467.58242
602.995	19370.19566
603.197	19315.4198
603.399	19749.65238
603.601	19548.74537
603.804	19443.23484
604.006	19597.44634
604.208	19510.19214
604.41	19248.47561
604.613	19297.16185
604.815	19895.79237
605.017	19944.51054
605.219	19420.91674
605.421	19776.03716
605.623	19650.20843
605.826	20224.68702
606.028	19889.70277
606.23	19970.90055
606.432	20043.98432
606.634	20190.1682
606.836	19558.8912
607.038	20184.07677
607.24	19670.5023
607.442	20125.19489
607.644	20275.45219
607.846	20242.96218
608.048	20086.61903
608.25	19885.64305
608.452	19780.09642
608.654	19981.05075
608.856	19901.88201
609.058	19749.65238
609.26	19715.15028
609.462	19668.47289
609.664	19660.35531
609.866	19435.11911
610.067	19595.41708
610.269	20196.25966
610.471	19966.84051
610.673	20098.80072
610.875	20078.49799
611.077	20123.16454
611.278	20228.74813
611.48	20080.52824
611.682	19981.05075
611.884	20472.44592
612.085	19717.17978
612.287	20098.80072
612.489	20074.43749
612.69	19905.94179
612.892	19814.6008
613.094	20403.39208
613.295	19808.5117
613.497	19889.70277
613.699	19920.15115
613.9	19989.17098
614.102	19905.94179
614.304	19895.79237
614.505	19757.7707
614.707	20496.81902
614.908	19822.71965
615.11	19816.63051
615.311	20133.31632
615.513	20403.39208
615.714	20273.42154
615.916	20143.4682
616.117	19881.58336
616.319	20060.22589
616.52	20003.38155
616.722	20366.83613
616.923	20238.901
617.124	20167.83314
617.326	19745.59325
617.527	20043.98432
617.729	20125.19489
617.93	20001.35146
618.131	20364.80528
618.333	20133.31632
618.534	20106.92192
618.735	20417.60865
618.937	19999.32137
619.138	19958.72046
619.339	20041.95414
619.54	20050.07488
619.742	20190.1682
619.943	19938.42063
620.144	20541.50461
620.345	20318.09697
620.546	20309.97401
620.748	20437.9184
620.949	20494.78791
621.15	20797.46999
621.351	20249.05397
621.552	20285.60554
621.753	20180.01583
621.954	20123.16454
622.155	20468.3838
622.356	20456.19753
622.558	20374.95956
622.759	20190.1682
622.96	20106.92192
623.161	20204.38168
623.362	20031.80331
623.563	20309.97401
623.764	19899.85212
623.965	20074.43749
624.166	19981.05075
624.366	20401.36116
624.567	20734.48826
624.768	20657.29029
624.969	20013.53209
625.17	20368.86698
625.371	20236.87042
625.572	20149.55938
625.773	20208.44271
625.973	20724.33029
626.174	20521.19273
626.375	20647.1331
626.576	20273.42154
626.777	20722.29871
626.977	20350.58947
627.178	20529.31743
627.379	19970.90055
627.58	20474.47699
627.78	20322.15848
627.981	20401.36116
628.182	20492.7568
628.382	20281.54419
628.583	20395.26842
628.784	20679.63645
628.984	19713.12078
629.185	20177.98537
629.386	20348.55866
629.586	20519.16156
629.787	20255.14581
629.987	20545.56703
630.188	20500.88127
630.388	20482.60131
630.589	19968.87053
630.79	20580.09833
630.99	20582.12962
631.191	20661.35319
631.391	20336.37387
631.591	20389.17572
631.792	20415.5777
631.992	20531.34861
632.193	20612.59947
632.393	20565.87941
632.594	20736.51987
632.794	20649.16453
632.994	20701.98312
633.195	20783.24796
633.395	20102.86131
633.595	20663.38464
633.796	20527.28625
633.996	21027.08219
634.196	20632.91323
634.397	20921.41341
634.597	20567.91067
634.797	20622.7563
634.997	20641.03885
635.198	20671.51051
635.398	20511.03694
635.598	20632.91323
635.798	20592.28613
635.998	20878.74263
636.199	20777.15287
636.399	20643.07026
636.599	20687.76245
636.799	20675.57347
636.999	20474.47699
637.199	20602.44275
637.399	20494.78791
637.599	20559.78565
637.799	20334.34309
637.999	20793.40654
638.199	20704.01466
638.399	20513.06809
638.599	20496.81902
638.799	20468.3838
638.999	20494.78791
639.199	20537.4422
639.399	20431.82543
639.599	20342.46625
639.799	20383.08305
639.999	20777.15287
640.199	20732.45666
640.399	20663.38464
640.599	20106.92192
640.799	21138.8593
640.998	21151.05391
641.198	21437.66921
641.398	21041.30768
641.598	21453.93347
641.798	21329.92499
641.997	21234.38768
642.197	20917.34944
642.397	21132.76205
642.597	20962.05393
642.796	20801.53347
642.996	20892.96602
643.196	21136.82688
643.395	20840.1373
643.595	21183.57359
643.795	21033.1788
643.994	21275.04077
644.194	20775.12118
644.394	20974.24641
644.593	21094.14697
644.793	20874.67884
644.992	21018.95343
645.192	21183.57359
645.392	20890.93409
645.591	21183.57359
645.791	21008.79257
645.99	21035.21102
646.19	20785.27967
646.389	21039.27546
646.589	20823.88287
646.788	20872.64695
646.987	21065.6947
647.187	21000.66395
647.386	20850.29645
647.586	21279.10616
647.785	21230.32246
647.984	21277.07346
648.184	21407.17443
648.383	21199.83383
648.582	21002.6961
648.782	21321.79381
648.981	21374.64764
649.18	21521.0262
649.38	21699.9612
649.579	21567.79036
649.778	21275.04077
649.977	21618.62334
650.177	21504.7609
650.376	21545.42463
650.575	20935.6374
650.774	21584.05665
650.973	21171.37859
651.173	21386.84507
651.372	21346.18755
651.571	21478.33032
651.77	20842.16912
651.969	21590.15657
652.168	21319.76103
652.367	21563.72383
652.566	21246.58344
652.765	21584.05665
652.964	21394.97676
653.163	21612.52325
653.362	21561.69057
653.561	21299.43339
653.76	20968.15015
653.959	21449.86738
654.158	21407.17443
654.357	20990.50328
654.556	21073.82384
654.755	21518.99303
654.954	21195.76874
655.153	21057.56563
655.352	20986.43904
655.551	21303.49889
655.749	21342.12189
655.948	21228.28986
656.147	20838.10548
656.346	21083.98536
656.545	21012.8569
656.743	20980.3427
656.942	21061.63016
657.141	21730.46451
657.34	21480.36342
657.538	21752.83417
657.737	21529.15895
657.936	21787.40637
658.135	21455.96652
658.333	21592.18988
658.532	20941.73346
658.731	21307.5644
658.929	21305.53164
659.128	21484.42963
659.326	21356.35178
659.525	21449.86738
659.724	21207.96404
659.922	21236.42029
660.121	21293.33518
660.319	21571.85691
660.518	21523.05938
660.716	21516.95985
660.915	21246.58344
661.113	21207.96404
661.312	21571.85691
661.51	21378.71344
661.709	21553.55757
661.907	21295.36792
662.105	21248.61608
662.304	21679.62615
662.502	21701.99473
662.701	21622.69008
662.899	21496.62834
663.097	21769.1033
663.296	21354.31893
663.494	21325.8594
663.692	21331.9578
663.891	21346.18755
664.089	21207.96404
664.287	21683.69313
664.485	21390.91091
664.684	21590.15657
664.882	21069.75926
665.08	21118.53527
665.278	21602.35652
665.476	21506.79405
665.675	21161.2162
665.873	21445.80131
666.071	21275.04077
666.269	21273.00807
666.467	21401.07558
666.665	21472.23106
666.863	21224.22466
667.061	21508.8272
667.259	21368.54899
667.457	21907.40092
667.655	21728.43093
667.853	21734.53169
668.051	21429.53718
668.249	21618.62334
668.447	21207.96404
668.645	21645.05746
668.843	21451.90042
669.041	21325.8594
669.239	21386.84507
669.437	21480.36342
669.635	21023.0178
669.833	21246.58344
670.031	20990.50328
670.229	21441.73525
670.426	21699.9612
670.624	22009.10166
670.822	21203.89892
671.02	21612.52325
671.218	21460.03263
671.415	21218.1269
671.613	20947.82956
671.811	21004.72825
672.009	20935.6374
672.206	21063.66243
672.404	21423.4382
672.602	21260.812
672.799	21291.30245
672.997	21500.69461
673.195	21020.98561
673.392	20982.37481
673.59	21061.63016
673.788	21106.34105
673.985	21000.66395
674.183	21092.11464
674.38	21047.40438
674.578	20951.89365
674.775	20960.02187
674.973	21254.71402
675.17	21333.99061
675.368	21179.50858
675.565	21329.92499
675.763	21606.4232
675.96	21252.68137
676.158	21214.06174
676.355	21039.27546
676.553	21238.45291
676.75	20683.69944
676.947	21149.02147
677.145	20899.06182
677.342	21157.15127
677.539	20880.77453
677.737	21100.24399
677.934	20850.29645
678.131	20894.99795
678.329	20779.18456
678.526	20917.34944
678.723	20750.74123
678.92	21059.59789
679.118	20393.23752
679.315	20756.83616
679.512	20480.57022
679.709	20915.31747
679.906	20793.40654
680.104	20990.50328
680.301	20478.53914
680.498	20519.16156
680.695	20399.33024
680.892	20624.78767
681.089	20750.74123
681.286	20854.36014
681.483	20425.7325
681.68	20897.02988
681.877	20620.72492
682.075	20456.19753
682.272	20458.22856
682.469	20862.48757
682.665	20504.94352
682.862	20669.47904
683.059	20667.44757
683.256	20472.44592
683.453	20458.22856
683.65	20494.78791
683.847	20543.53582
684.044	20427.76347
684.241	20029.77316
684.438	20287.63623
684.635	20110.98255
684.831	20903.12571
685.028	20525.25507
685.225	20874.67884
685.422	20230.7787
685.619	20439.9494
685.815	20346.52785
686.012	20356.68194
686.209	20025.71286
686.405	20431.82543
686.602	20251.08458
686.799	20667.44757
686.996	20594.31744
687.192	20456.19753
687.389	20046.0145
687.586	19944.51054
687.782	20238.901
687.979	20129.2556
688.175	19830.83857
688.372	19952.63047
688.568	20216.56483
688.765	19845.04685
688.962	20251.08458
689.158	20216.56483
689.355	19883.6132
689.551	19853.16596
689.748	19840.98732
689.944	20052.10507
690.14	19928.27088
690.337	20084.58876
690.533	19737.47503
690.73	19757.7707
690.926	19964.81049
691.123	20052.10507
691.319	19944.51054
691.515	19934.36072
691.712	20046.0145
691.908	20005.41165
692.104	19660.35531
692.301	19914.0614
692.497	19617.73912
692.693	19863.31493
692.889	19698.91442
693.086	20019.62246
693.282	19907.97168
693.478	19536.5705
693.674	19660.35531
693.87	19891.73263
694.067	20186.10724
694.263	19926.24094
694.459	19709.0618
694.655	19751.68195
694.851	19794.30396
695.047	19601.50486
695.243	19619.76842
695.439	19510.19214
695.635	19327.59196
695.831	19627.88566
696.027	19881.58336
696.224	19826.77911
696.42	19573.09555
696.615	19638.03231
696.811	19461.49547
697.007	19581.21241
697.203	19057.81059
697.399	18958.43562
697.595	19183.56431
697.791	18881.37599
697.987	18992.91155
698.183	19209.93402
698.379	19019.27628
698.575	19238.33295
698.77	18850.95931
698.966	18982.77145
699.162	18960.46359
699.358	18798.23918
699.554	18893.54292
699.749	18996.96762
699.945	18871.237
700.141	18899.62643
700.337	19236.30443
700.532	19427.00344
700.728	18988.8555
700.924	19244.41853
701.119	18970.60347
701.315	18540.75997
701.511	18751.60439
701.706	19449.32168
701.902	19355.99422
702.097	19128.79867
702.293	18962.49156
702.489	19082.14879
702.684	18946.26793
702.88	18940.18413
703.075	18905.70999
703.271	18751.60439
703.466	19009.13592
703.662	18897.59859
703.857	18297.52975
704.053	18723.21902
704.248	18814.46047
704.443	18613.7398
704.639	18591.43987
704.834	18601.57614
705.03	18676.58758
705.225	18686.72467
705.42	18607.65795
705.616	18899.62643
705.811	18824.59891
706.006	19011.16399
706.202	18873.26479
706.397	18956.40766
706.592	18818.51584
706.787	18638.06752
706.983	18419.13802
707.178	18958.43562
707.373	18836.76516
707.568	18919.90508
707.763	18556.97727
707.959	18857.04257
708.154	18520.48868
708.349	18275.23637
708.544	18301.58314
708.739	18565.08602
708.934	18390.76154
709.129	18421.16494
709.324	17924.68046
709.519	18165.80263
709.714	18421.16494
709.909	18583.33092
710.104	18447.51524
710.299	18587.38539
710.494	18607.65795
710.689	18406.97658
710.884	18561.03164
711.079	18745.52174
711.274	18540.75997
711.469	18688.7521
711.664	18619.82168
711.859	18634.01286
712.054	18467.78514
712.249	18319.82358
712.443	18269.15643
712.638	18358.33219
712.833	17993.56735
713.028	18629.95822
713.223	18058.40581
713.417	18238.75726
713.612	18054.3533
713.807	18344.14465
714.002	17912.52437
714.196	18064.4846
714.391	17663.35182
714.586	17971.27996
714.78	17819.33185
714.975	18092.85274
715.17	18224.57126
715.364	18125.27433
715.559	18194.1733
715.754	17685.63346
715.948	17578.2801
716.143	17823.38354
716.337	17681.58222
716.532	18190.12031
716.726	17742.35219
716.921	17938.86272
717.115	17766.66103
717.31	17809.20267
717.504	17874.03092
717.699	18129.32709
717.893	17616.76421
718.088	17872.00498
718.282	17659.30065
718.476	17726.14657
718.671	17839.59047
718.865	18034.09096
719.059	17981.41054
719.254	17938.86272
719.448	17594.4838
719.642	17900.36841
719.837	17491.18879
720.031	17853.77171
720.225	17462.83474
720.419	17951.01908
720.614	17367.65063
720.808	17539.79716
721.002	17167.17825
721.196	17641.07057
721.39	17290.6982
721.585	17539.79716
721.779	17153.00452
721.973	16958.63568
722.167	16837.16764
722.361	17250.19866
722.555	17373.72601
722.749	17456.75895
722.943	17227.92441
723.137	16778.46135
723.331	16986.97958
723.525	17314.9985
723.719	17248.17371
723.913	17144.90531
724.107	16541.63207
724.301	17084.16265
724.495	16806.80206
724.689	17317.02354
724.883	17138.83093
725.077	17161.10378
725.271	17165.15343
725.465	17594.4838
725.659	16914.09632
725.853	17383.8517
726.046	17402.07814
726.24	17045.6936
726.434	16865.50936
726.628	17017.34861
726.822	16557.82454
727.015	17067.96504
727.209	16539.60802
727.403	16808.82641
727.596	16999.12712
727.79	16891.82711
727.984	16727.85413
728.177	17227.92441
728.371	16903.97391
728.565	16790.60731
728.758	16721.78136
728.952	16446.50404
729.146	16711.66013
729.339	17157.05415
729.533	17280.57321
729.726	17304.87332
729.92	17205.65052
730.113	17262.3484
730.307	17262.3484
730.5	17082.13794
730.694	17100.36045
730.887	16784.53432
731.081	16835.14325
731.274	16954.5866
731.468	16829.07009
731.661	16956.61114
731.854	16786.55864
732.048	16970.783
732.241	16491.03147
732.435	16948.51299
732.628	17138.83093
732.821	17059.86629
733.014	16748.09683
733.208	16770.36409
733.401	16616.52342
733.594	16450.55194
733.788	16851.33843
733.981	16833.11886
734.174	16835.14325
734.367	16401.97758
734.56	16835.14325
734.754	16596.28222
734.947	16292.68935
735.14	16296.73697
735.333	16543.65612
735.526	16786.55864
735.719	16523.4157
735.912	16563.89675
736.105	16792.63164
736.298	16721.78136
736.491	16648.90982
736.684	16547.70423
736.877	16464.71969
737.07	16559.84861
737.263	16426.26462
737.456	16879.6804
737.649	16802.75335
737.842	16901.94944
738.035	16768.33978
738.228	16812.87513
738.421	16940.41488
738.614	16950.53752
738.807	16715.70862
739	16294.71316
739.192	15875.81998
739.385	16284.59415
739.578	16187.45387
739.771	16444.48008
739.964	16238.04726
740.156	16323.04664
740.349	16193.52502
740.542	16565.92082
740.735	16432.33642
740.927	16659.03068
741.12	16527.46377
741.313	16327.09431
741.505	16345.30892
741.698	16187.45387
741.891	16086.2702
742.083	15871.773
742.276	15770.60003
742.468	15782.74064
742.661	15861.65558
742.854	16333.16583
743.046	16039.72701
743.239	16189.47759
743.431	16335.18967
743.624	16059.96308
743.816	15811.06888
744.009	15655.26601
744.201	15717.99114
744.393	15827.25654
744.586	15815.11579
744.778	16066.03393
744.971	15942.59586
745.163	15902.12547
745.355	15811.06888
745.548	15715.96773
745.74	16049.84503
745.932	15867.72603
746.125	15667.40629
746.317	15598.61177
746.509	15355.81377
746.702	15679.5466
746.894	15845.46775
747.086	15896.05495
747.278	15892.00795
747.471	15831.30347
747.663	16064.01031
747.855	15964.85481
748.047	15802.97507
748.239	16066.03393
748.431	15904.14898
748.623	16009.37318
748.815	15701.80392
749.008	15920.33708
749.2	15800.95163
749.392	15851.53818
749.584	15730.13159
749.776	16108.53026
749.968	15570.28488
750.16	15853.56166
750.352	15311.30153
750.544	15588.495
750.736	15813.09233
750.928	15855.58513
751.12	15705.85072
751.311	15582.42496
751.503	15641.10239
751.695	15655.26601
751.887	15384.13982
752.079	15774.64689
752.271	15475.18844
752.463	15527.7948
752.654	15550.05147
752.846	15687.64016
753.038	15151.46292
753.23	15216.20758
753.421	15361.88363
753.613	15210.13777
753.805	15558.14483
753.997	15398.30288
754.188	15592.54171
754.38	15493.39829
754.572	15600.63512
754.763	15339.62748
754.955	15204.06795
755.146	15416.51255
755.338	15266.78942
755.53	15147.41637
755.721	15353.79048
755.913	15456.97864
756.104	15050.29928
756.296	15193.9516
756.487	15414.48926
756.679	15258.69632
756.87	15175.74216
757.062	15038.15962
757.253	15115.04404
757.445	15023.99667
757.636	14993.64744
757.827	15187.88179
758.019	14999.71729
758.21	14720.4995
758.401	14702.28919
758.593	14805.48009
758.784	14767.03666
758.975	14874.27298
759.167	14607.18961
759.358	14795.36342
759.549	14631.47057
759.74	14767.03666
759.932	14601.11935
760.123	14512.08759
760.314	14896.52936
760.505	14495.89974
760.696	14588.97879
760.888	14338.06331
761.079	14564.69755
761.27	14760.96662
761.461	14382.58223
761.652	14317.82717
761.843	14273.30705
762.034	14323.89803
762.225	13763.27362
762.416	14101.28871
762.607	14157.95521
762.798	14457.45324
762.989	14196.40654
763.18	14281.40168
763.371	14329.96888
763.562	14327.94526
763.753	14006.16596
763.944	14196.40654
764.135	14016.28565
764.326	14170.09782
764.517	14170.09782
764.708	14081.05026
764.899	14119.50313
765.089	14204.50146
765.28	14220.69121
765.471	13921.15808
765.662	14000.09412
765.853	13957.59058
766.043	13473.76903
766.234	13868.53183
766.425	13609.41971
766.615	13504.14
766.806	13694.44654
766.997	13811.85531
767.187	13787.56468
767.378	14218.6675
767.569	13797.68583
767.759	13900.91743
767.95	13643.83604
768.141	13884.72472
768.331	13554.75644
768.522	13423.14886
768.712	13382.65097
768.903	13635.73816
769.093	13275.3237
769.284	13167.9844
769.474	13228.74402
769.665	13348.2265
769.855	13180.13665
770.046	13155.83199
770.236	13309.7507
770.426	13372.52625
770.617	13246.97113
770.807	13182.16201
770.998	13376.57615
771.188	13163.93362
771.378	12823.59779
771.569	13453.52125
771.759	13174.06055
771.949	13200.39004
772.139	13425.17371
772.33	12896.5391
772.52	12876.27833
772.71	12851.96469
772.9	13165.95901
773.09	13204.44066
773.281	12959.34414
773.471	13020.11851
773.661	12815.49276
773.851	13022.14424
774.041	13111.27172
774.231	12734.43755
774.421	12661.47998
774.611	12661.47998
774.802	12481.07881
774.992	12525.67699
775.182	12622.97149
775.372	12799.28244
775.562	12363.48654
775.752	12762.80791
775.942	12718.22542
776.131	12837.78137
776.321	12511.487
776.511	12499.32389
776.701	12101.86077
776.891	12357.40356
777.081	12231.67466
777.271	11953.75354
777.461	12081.57456
777.651	12130.26017
777.84	12107.94648
778.03	12371.59707
778.22	12158.6581
778.41	12008.53782
778.599	12040.99984
778.789	12260.06744
778.979	12274.2633
779.169	12389.84539
779.358	12320.9044
779.548	12535.81251
779.738	12187.05456
779.927	12399.9831
780.117	12260.06744
780.307	11955.78269
780.496	12140.40246
780.686	12235.73085
780.875	11872.58078
781.065	12251.95536
781.254	11978.10283
781.444	12189.08282
781.633	12036.9422
781.823	12158.6581
782.012	12144.45932
782.202	12087.66051
782.391	12193.13933
782.581	11878.66919
782.77	11257.23508
782.96	11551.8141
783.149	11458.38364
783.338	11555.87585
783.528	11458.38364
783.717	11545.72142
783.906	11499.00805
784.096	11756.88645
784.285	11598.52189
784.474	11566.03004
784.663	11704.10429
784.853	11440.10141
785.042	11381.18661
785.231	11563.99922
785.42	11186.09817
785.61	11362.90103
785.799	11249.10579
785.988	11261.29966
786.177	11143.40987
786.366	11139.34408
786.555	11293.81485
786.744	11283.65413
786.933	11135.27824
787.122	11314.13552
787.312	11494.94578
787.501	10893.28216
787.69	11003.11494
787.879	11273.49316
788.068	11013.28299
788.257	10787.48571
788.445	10994.9803
788.634	11086.48483
788.823	11255.20277
789.012	11240.97633
789.201	11064.1191
789.39	11161.70543
789.579	11053.95243
789.768	11208.45686
789.957	10889.21364
790.145	10929.89675
790.334	10667.40873
790.523	10805.79889
790.712	10655.19516
790.9	10738.64587
791.089	10732.54041
791.278	11049.88568
791.467	10803.76414
791.655	10805.79889
791.844	10791.55538
792.033	10459.71715
792.221	10563.57924
792.41	10972.60912
792.599	10626.69511
792.787	10935.99882
792.976	10671.47983
793.164	10528.96221
793.353	10514.70707
793.541	10807.83363
793.73	10555.43438
793.918	11062.08579
794.107	10435.27418
794.295	10846.49145
794.484	10447.49589
794.672	10514.70707
794.861	10402.68064
795.049	10325.25756
795.238	10119.38071
795.426	10451.5697
795.614	10343.59633
795.803	10488.23161
795.991	10200.93277
796.179	10239.66229
796.368	10176.46948
796.556	10306.91771
796.744	9776.6127
796.932	10052.08343
797.121	9976.61049
797.309	9909.28011
797.497	10133.65392
797.685	10359.89655
797.874	10313.03111
798.062	10345.6339
798.25	10306.91771
798.438	10386.38262
798.626	10101.02843
798.814	10068.39933
799.002	9815.39892
799.19	10007.20999
799.378	9888.87382
799.566	9843.97478
799.755	9627.54085
799.943	9794.9858
800.131	9713.3182
800.318	9923.56364
800.506	9882.75164
800.694	9999.05044
800.882	9878.67012
801.07	9835.81055
801.258	9723.52798
801.446	10033.72695
801.634	9725.56989
801.822	9656.13633
802.01	9645.92401
802.197	9870.5069
802.385	9725.56989
802.573	9984.77067
802.761	9515.17173
802.949	9792.94441
803.136	9590.77074
803.324	9758.23838
803.512	9743.9464
803.699	9886.83311
803.887	9735.77921
804.075	10029.64757
804.262	9760.28003
804.45	9799.06855
804.638	9784.77868
804.825	10013.3295
805.013	9750.07162
805.201	9972.53031
805.388	9919.4827
805.576	10064.32044
805.763	9974.57041
805.951	9888.87382
806.138	9594.85656
806.326	9907.23954
806.513	9721.48605
806.701	10001.09035
806.888	9643.8815
807.075	9692.89749
807.263	9703.10803
807.45	9850.0978
807.638	9482.47353
807.825	9848.05681
808.012	9721.48605
808.2	9764.36329
808.387	9843.97478
808.574	9846.0158
808.761	9672.47524
808.949	10021.48865
809.136	9774.57117
809.323	10121.41978
809.51	10119.38071
809.698	10139.77081
809.885	9835.81055
810.072	9886.83311
810.259	9782.7372
810.446	9833.76946
810.633	9988.85068
810.82	10109.18514
811.008	10003.13025
811.195	10272.27281
811.382	9935.80609
811.569	10109.18514
811.756	9631.62611
811.943	9997.01052
812.13	9758.23838
812.317	9729.65366
812.504	9400.70999
812.691	9909.28011
812.878	9701.06596
813.064	9878.67012
813.251	9807.23385
813.438	10082.675
813.625	9752.11334
813.812	9762.32167
813.999	9605.07083
814.186	10013.3295
814.372	9801.1099
814.559	10284.50086
814.746	9878.67012
814.933	10013.3295
815.12	9748.0299
815.306	9831.72834
815.493	9631.62611
815.68	9586.68486
815.866	9331.19048
816.053	9605.07083
816.24	9529.47591
816.426	9680.64432
816.613	9318.92036
816.799	9782.7372
816.986	9600.98517
817.173	9892.95519
817.359	9650.00898
817.546	9880.71089
817.732	9513.12821
817.919	9839.8927
818.105	9511.08468
818.292	9760.28003
818.478	9676.55981
818.665	9811.31642
818.851	9637.75387
819.037	9823.56375
819.224	9823.56375
819.41	9741.90462
819.597	9349.59455
819.783	9574.42684
819.969	8991.49277
820.156	9374.13124
820.342	9376.17586
820.528	9398.66557
820.714	9316.87528
820.901	9429.33017
821.087	9382.30961
821.273	9533.56268
821.459	9549.9091
821.646	9443.63907
821.832	9341.41513
822.018	9423.19754
822.204	8999.68384
822.39	9349.59455
822.576	9155.2612
822.762	9329.1455
822.948	9077.48502
823.134	9284.15177
823.32	8981.25354
823.507	9292.33305
823.693	8864.49504
823.879	8973.06185
824.065	8884.98318
824.25	8983.30143
824.436	9071.34373
824.622	9102.0486
824.808	8878.83693
824.994	9194.14002
825.18	9220.73779
825.366	9415.02048
825.552	9063.15511
825.738	9345.50488
825.923	9057.01346
826.109	8948.48505
826.295	8704.62548
826.481	9050.87166
826.667	8975.1098
826.852	8921.85732
827.038	8997.6361
827.224	8911.61508
827.409	8899.32381
827.595	8751.77803
827.781	8764.07711
827.966	9085.67316
828.152	8532.33276
828.338	9118.42294
828.523	8790.72284
828.709	8759.97749
828.894	8839.90691
829.08	8792.77239
829.266	8729.22802
829.451	8636.95476
829.637	8415.34399
829.822	8671.81795
830.008	8565.16061
830.193	8780.47485
830.378	8495.39564
830.564	8755.8778
830.749	8759.97749
830.935	8882.93445
831.12	8333.20931
831.305	8448.18922
831.491	8485.13423
831.676	8696.42404
831.861	8452.29453
832.047	8450.24188
832.232	8267.47914
832.417	8390.70684
832.602	8255.15249
832.788	8513.86497
832.973	8214.05855
833.158	8423.55576
833.343	8444.08383
833.528	8425.60865
833.714	8107.1771
833.899	8333.20931
834.084	7913.82996
834.269	8296.23856
834.454	8107.1771
834.639	8201.72882
834.824	8189.39838
835.009	8526.177
835.194	8242.82514
835.379	8240.77051
835.564	8144.18063
835.749	8170.90138
835.934	7959.09756
836.119	8094.84115
836.304	7664.67863
836.489	7695.58182
836.674	7648.19498
836.859	7784.14471
837.044	7658.49742
837.228	7876.78542
837.413	7582.24678
837.598	7874.72719
837.783	7961.15494
837.968	8098.95321
838.152	7905.59842
838.337	8318.83255
838.522	7909.71423
838.707	8082.50446
838.891	7594.61373
839.076	7870.61068
839.261	7759.43339
839.445	8084.56063
839.63	7777.96716
839.815	7878.84363
839.999	7891.19242
840.184	8045.49006
840.368	7780.02636
840.553	8029.03712
840.737	7740.89792
840.922	7662.61825
841.106	7586.36918
841.291	7586.36918
841.475	7266.62706
841.66	7806.7941
841.844	7512.15285
842.029	7668.79933
842.213	7392.52334
842.397	7617.28448
842.582	7363.63631
842.766	7716.18131
842.951	7291.39999
843.135	7402.8391
843.319	7359.50924
843.504	7316.16975
843.688	7105.52545
843.872	7155.10956
844.056	7175.76582
844.241	7256.30408
844.425	7305.8494
844.609	7064.19554
844.793	6975.30586
844.977	6956.69578
845.161	6793.26188
845.346	6998.04904
845.53	6702.17373
845.714	7014.58782
845.898	6751.86367
846.082	7113.79036
846.266	6621.39937
846.45	6867.75566
846.634	6836.72017
846.818	7004.25125
847.002	6871.89334
847.186	6967.03494
847.37	6832.58172
847.554	6964.96715
847.738	6575.81889
847.922	6720.809
848.106	6650.39932
848.29	6772.56391
848.473	6745.65315
848.657	6797.40119
848.841	6907.05995
849.025	6735.30182
849.209	6565.45813
849.392	6733.23149
849.576	6559.2414
849.76	6768.42405
849.944	6627.61403
850.127	6693.89079
850.311	6439.01023
850.495	6588.25104
850.678	6474.25849
850.862	6497.06261
851.046	6322.85074
851.229	6341.52416
851.413	6206.61798
851.596	6652.47057
851.78	6403.75526
851.964	6532.29981
852.147	6470.11198
852.331	6480.47807
852.514	6414.12507
852.698	6474.25849
852.881	6131.8581
853.065	6567.53033
853.248	6140.16626
853.431	6503.28142
853.615	6287.57355
853.798	6351.89747
853.982	6115.24066
854.165	6264.74354
854.348	6231.53118
854.532	6158.85823
854.715	6017.58279
854.898	6127.70388
855.081	5857.47765
855.265	5924.03183
855.448	5820.0303
855.631	5782.57531
855.814	5790.8993
855.997	6086.15652
856.181	5851.23695
856.364	5961.45794
856.547	5674.32904
856.73	5911.55476
856.913	5524.34428
857.096	5911.55476
857.279	5624.3477
857.462	5770.08861
857.645	5730.5418
857.828	5751.35697
858.011	5486.82901
858.194	5757.60106
858.377	5645.17491
858.56	5882.43829
858.743	5738.86815
858.926	5847.07637
859.109	5613.93321
859.292	5707.64238
859.475	5361.72306
859.658	5555.60118
859.841	5411.77559
860.023	5528.51218
860.206	5420.11636
860.389	5486.82901
860.572	5322.08855
860.755	5620.18198
860.937	5328.3472
861.12	5428.45676
861.303	5395.09291
861.486	5430.5418
861.668	5276.18541
861.851	5269.92501
862.034	5079.92653
862.216	5332.51951
862.399	5002.61942
862.581	5175.99382
862.764	4952.45737
862.947	5132.14312
863.129	4709.82162
863.312	4981.72018
863.494	5004.70922
863.677	5084.10439
863.859	4935.73375
864.042	5031.87448
864.224	4981.72018
864.406	5031.87448
864.589	4935.73375
864.771	5002.61942
864.954	4674.23728
865.136	4969.17953
865.318	4751.6772
865.501	4898.10021
865.683	4661.67655
865.865	4964.99913
866.048	4538.11979
866.23	4877.18948
866.412	4820.7191
866.594	4812.3517
866.777	4533.93007
866.959	4810.25979
867.141	4676.33066
867.323	4644.92765
867.505	4586.29522
867.687	4810.25979
867.869	4695.17003
868.052	4680.51734
868.234	4636.55266
868.416	4711.91461
868.598	4789.33948
868.78	4701.44942
868.962	4684.70394
869.144	4806.07591
869.326	4538.11979
869.508	4764.23211
869.69	4663.77006
869.872	4630.27118
870.054	4349.49516
870.236	4548.59371
870.417	4466.88249
870.599	4655.39588
870.781	4580.01214
870.963	4647.02134
871.145	4412.38974
871.327	4525.55036
871.508	4420.7742
871.69	4454.30855
871.872	4265.60543
872.054	4582.10652
872.235	4362.07564
872.417	4556.97245
872.599	4397.71609
872.78	4670.05046
872.962	4462.69126
873.144	4546.49897
873.325	4391.42705
873.507	4429.15832
873.689	4282.38612
873.87	4628.17731
874.052	4250.92119
874.233	4665.86355
874.415	4418.67812
874.596	4657.48946
874.778	4265.60543
874.959	4619.80161
875.141	4479.45563
875.322	4676.33066
875.503	4328.52596
875.685	4525.55036
875.866	4232.03992
876.048	4387.23426
876.229	4292.87336
876.41	4489.93264
876.592	4391.42705
876.773	4378.8484
876.954	4265.60543
877.136	4607.23738
877.317	4206.86221
877.498	4435.44617
877.679	4261.41004
877.86	4508.78988
878.042	4328.52596
878.223	4487.83728
878.404	4211.05871
878.585	4194.27221
878.766	4101.92236
878.947	4223.64769
879.128	4135.50883
879.309	4378.8484
879.49	3971.72465
879.672	4160.69516
879.853	4108.22023
880.034	4404.00493
880.215	4080.9281
880.396	4387.23426
880.576	4001.13104
880.757	4305.45734
880.938	4055.73225
881.119	4290.77596
881.3	4127.11271
881.481	4525.55036
881.662	4139.70676
881.843	4139.70676
882.023	4030.53342
882.204	4227.84385
882.385	4198.46896
882.566	4311.74904
882.747	3996.93037
882.927	4399.81239
883.108	4265.60543
883.289	4678.42401
883.469	4550.68843
883.65	4324.33186
883.831	4349.49516
884.011	4563.25627
884.192	4349.49516
884.373	4533.93007
884.553	4368.36559
884.734	4575.8233
884.914	4290.77596
885.095	4468.97806
885.275	4175.38578
885.456	4309.65183
885.636	4290.77596
885.817	4351.59196
885.997	4286.58108
886.178	4569.53988
886.358	4206.86221
886.538	4454.30855
886.719	4437.54208
886.899	4571.63438
887.08	4424.9663
887.26	4850.00211
887.44	4559.06708
887.621	4726.56494
887.801	4450.11707
887.981	4609.33148
888.161	4259.31231
888.342	4349.49516
888.522	4307.5546
888.702	4429.15832
888.882	4481.55108
889.062	4357.88223
889.242	4257.21456
889.423	4349.49516
889.603	4322.23478
889.783	4571.63438
889.963	4196.3706
890.143	4171.18857
890.323	4125.01363
890.503	4349.49516
890.683	4263.50774
890.863	4131.31081
891.043	3881.38015
891.223	4307.5546
891.403	4051.53265
891.583	4368.36559
891.763	3784.69162
891.943	4108.22023
892.122	4001.13104
892.302	4489.93264
892.482	4114.51791
892.662	4269.80073
892.842	4202.66563
893.022	4286.58108
893.201	4106.12096
893.381	4351.59196
893.561	4206.86221
893.741	4280.28861
893.92	3898.19125
894.1	4066.23088
894.28	3887.68446
894.459	4334.81694
894.639	4072.52982
894.819	4294.97075
894.998	4024.23325
895.178	4034.73343
895.357	4015.83273
895.537	4198.46896
895.716	3904.49508
895.896	3959.12068
896.075	3883.4816
896.255	4139.70676
896.434	3975.92581
896.614	4030.53342
896.793	3629.06265
896.973	3984.32788
897.152	3772.077
897.331	3828.83723
897.511	3559.62701
897.69	3866.66938
897.87	3694.27138
898.049	3645.89246
898.228	3629.06265
898.407	3721.6115
898.587	3597.50352
898.766	3631.16644
898.945	3519.63974
899.124	3727.9203
899.304	3332.24424
899.483	3599.60759
899.662	3534.37266
899.841	3601.71165
900.02	3435.4345
900.199	3494.38121
900.378	3285.90033
900.557	3563.83581
900.737	3186.86551
900.916	3679.54842
901.095	3473.33044
901.274	3349.0945
901.453	3397.53278
901.632	3197.40287
901.811	3271.15282
901.989	3504.90592
902.168	3203.7251
902.347	3384.8976
902.526	3224.79809
902.705	3180.54289
902.884	3003.4512
903.063	3401.74437
903.242	3003.4512
903.42	3092.01097
903.599	2931.74028
903.778	2986.5796
903.957	2904.31687
904.135	3201.61771
904.314	2984.47058
904.493	3201.61771
904.672	2720.72963
904.85	2929.63087
905.029	2619.39695
905.207	3011.88664
905.386	2672.17804
905.565	2750.27939
905.743	2718.61883
905.922	2627.84245
906.1	2604.61686
906.279	2758.72169
906.457	2294.10661
906.636	2705.95379
906.814	2549.71419
906.993	2501.13983
907.171	2302.55884
907.35	2617.28555
907.528	2184.21434
907.707	2488.46727
907.885	2099.66629
908.063	2171.53295
908.242	2173.64653
908.42	2192.66843
908.598	2051.04564
908.777	2171.53295
908.955	1964.36502
909.133	2175.76011
909.311	1998.1929
909.49	2074.29947
909.668	2074.29947
909.846	2349.04337
910.024	2135.60076
910.202	2251.84321
910.38	2061.61567
910.559	2205.34931
910.737	2067.9576
910.915	2441.99778
911.093	2239.16348
911.271	2304.67187
911.449	1953.79348
911.627	2209.5762
911.805	2116.5769
911.983	2340.59198
912.161	2137.71448
912.339	2302.55884
912.517	2374.39655
912.695	2480.01867
912.872	2410.31104
913.05	2463.12093
913.228	2135.60076
913.406	2188.4414
913.584	2194.78193
913.762	2399.74826
913.939	2192.66843
914.117	2488.46727
914.295	2097.55243
914.473	2338.47912
914.65	2141.9419
914.828	2416.64858
915.006	2222.25667
915.184	2378.62194
915.361	2175.76011
915.539	2311.01092
915.716	2057.38768
915.894	2209.5762
916.072	2042.58948
916.249	2277.20169
916.427	2146.16929
916.604	2325.80169
916.782	1947.45048
916.959	2275.08854
917.137	2112.3493
917.314	2211.68964
917.492	1820.58026
917.669	2163.07853
917.847	1795.20411
918.024	2082.7552
918.201	1896.70467
918.379	2154.62397
918.556	1824.80956
918.733	2127.14579
918.911	1998.1929
919.088	2038.36137
919.265	1803.6629
919.442	2032.01914
919.62	1782.51581
919.797	2057.38768
919.974	1651.39576
920.151	2006.64962
920.328	1681.00457
920.506	1651.39576
920.683	1670.43006
920.86	1723.30188
921.037	1636.59117
921.214	1894.59019
921.391	1659.85547
921.568	1814.23629
921.745	1623.90143
921.922	1814.23629
922.099	1695.80877
922.276	1905.16252
922.453	1778.28634
922.63	1647.16589
922.807	1477.96521
922.984	1664.08531
923.161	1431.43407
923.338	1733.87601
923.514	1520.26612
923.691	1577.37175
923.868	1327.79745
924.045	1367.98279
924.222	1363.75273
924.399	1530.8413
924.575	1406.05349
924.752	1469.50501
924.929	1334.14247
925.105	1509.69092
925.282	1340.4875
925.459	1389.13314
925.635	1190.32703
925.812	1503.34579
925.989	1306.6475
926.165	1467.38996
926.342	1241.08402
926.518	1380.67299
926.695	1226.27971
926.871	1372.21285
927.048	1029.61216
927.224	1414.51368
927.401	1063.44449
927.577	1274.92295
927.754	1114.19554
927.93	1190.32703
928.107	1084.59041
928.283	1177.63809
928.459	1143.80159
928.636	1211.47555
928.812	1063.44449
928.988	1152.26062
929.165	942.92406
929.341	1101.50751
929.517	1000.01012
929.693	1082.47579
929.87	873.15945
930.046	1059.21537
930.222	894.29933
930.398	1004.23891
930.574	896.41337
930.751	1128.99846
930.927	1029.61216
931.103	1067.67363
931.279	940.80986
931.455	987.3239
931.631	957.72367
931.807	949.2667
931.983	921.78238
932.159	919.66825
932.335	811.8586
932.511	953.49517
932.687	830.8822
932.863	801.29026
933.039	670.26386
933.215	852.02039
933.391	706.18636
933.566	877.38736
933.742	699.84686
933.918	754.79243
934.094	693.50746
934.27	790.72215
934.445	575.19162
934.621	704.07318
934.797	518.16095
934.973	628.00643
935.148	475.92268
935.324	644.90883
935.5	408.35405
935.675	573.07919
935.851	492.81728
936.027	408.35405
936.202	425.2447
936.378	423.13331
936.553	332.35927
936.729	368.24296
936.904	311.25359
937.08	258.49735
937.255	209.9721
937.431	311.25359
937.606	273.26793
937.782	340.80204
937.957	262.71742
938.133	273.26793
938.308	182.54942
938.483	184.65873
938.659	266.93757
938.834	172.00315
939.009	167.78478
939.185	209.9721
939.36	233.17854
939.535	148.80318
939.71	150.91217
939.886	226.84928
940.061	205.753
940.236	188.87742
940.411	176.22159
940.586	129.82329
940.761	138.25859
940.937	197.31505
941.112	140.36746
941.287	142.47636
941.462	28.62739
941.637	108.73657
941.812	138.25859
941.987	93.97717
942.162	108.73657
942.337	163.5665
942.512	117.171
942.687	123.49705
942.862	104.51949
943.037	155.13019
943.212	190.9868
943.386	159.34831
943.561	79.21886
943.736	64.46165
943.911	106.62802
944.086	129.82329
944.26	180.44012
944.435	70.78603
944.61	45.48974
944.785	104.51949
944.959	45.48974
945.134	49.70556
945.309	138.25859
945.483	100.3025
945.658	58.13747
945.833	87.65205
946.007	123.49705
946.182	136.14973
946.357	155.13019
946.531	129.82329
946.706	93.97717
946.88	131.93208
947.055	136.14973
947.229	56.02946
947.404	125.60578
947.578	157.23924
947.752	81.32712
947.927	53.92147
948.101	28.62739
948.276	148.80318
948.45	93.97717
948.624	121.38835
948.799	123.49705
948.973	104.51949
949.147	165.67563
949.321	112.95374
949.496	100.3025
949.67	39.16618
949.844	62.35357
950.018	87.65205
950.193	155.13019
950.367	77.11062
950.541	138.25859
950.715	148.80318
950.889	28.62739
951.063	106.62802
951.237	110.84515
951.411	117.171
951.585	87.65205
951.759	108.73657
951.933	64.46165
952.107	70.78603
952.281	32.84284
952.455	79.21886
952.629	127.71452
952.803	115.06236
952.977	144.58528
953.151	131.93208
953.325	165.67563
953.499	115.06236
953.672	91.86877
953.846	89.7604
954.02	123.49705
954.194	134.0409
954.368	53.92147
954.541	144.58528
954.715	62.35357
954.889	155.13019
955.062	129.82329
955.236	108.73657
955.41	81.32712
955.583	96.08559
955.757	121.38835
955.93	146.69422
956.104	70.78603
956.278	142.47636
956.451	172.00315
956.625	115.06236
956.798	96.08559
956.972	155.13019
957.145	72.8942
957.319	165.67563
957.492	98.19403
957.665	155.13019
957.839	184.65873
958.012	66.56975
958.185	30.7351
958.359	79.21886
958.532	79.21886
958.705	153.02117
958.879	140.36746
959.052	70.78603
959.225	222.62986
959.398	121.38835
959.572	136.14973
959.745	148.80318
959.918	121.38835
960.091	180.44012
960.264	155.13019
960.438	75.0024
960.611	190.9868
960.784	89.7604
960.957	32.84284
961.13	123.49705
961.303	41.27401
961.476	134.0409
961.649	148.80318
961.822	165.67563
961.995	39.16618
962.168	112.95374
962.341	75.0024
962.514	64.46165
962.686	75.0024
962.859	115.06236
963.032	153.02117
963.205	110.84515
963.378	66.56975
963.551	150.91217
963.723	138.25859
963.896	131.93208
964.069	96.08559
964.242	39.16618
964.414	98.19403
964.587	142.47636
964.76	53.92147
964.932	110.84515
965.105	96.08559
965.278	115.06236
965.45	106.62802
965.623	104.51949
965.795	106.62802
965.968	96.08559
966.14	87.65205
966.313	125.60578
966.485	87.65205
966.658	96.08559
966.83	153.02117
967.003	123.49705
967.175	56.02946
967.348	77.11062
967.52	66.56975
967.692	96.08559
967.865	112.95374
968.037	30.7351
968.209	136.14973
968.382	79.21886
968.554	75.0024
968.726	41.27401
968.898	43.38186
969.071	81.32712
969.243	58.13747
969.415	79.21886
969.587	62.35357
969.759	110.84515
969.932	79.21886
970.104	51.8135
970.276	108.73657
970.448	60.24551
970.62	70.78603
970.792	89.7604
970.964	89.7604
971.136	68.67788
971.308	51.8135
971.48	89.7604
971.652	87.65205
971.824	121.38835
971.996	96.08559
972.168	53.92147
972.339	123.49705
972.511	28.62739
972.683	-2.98542
972.855	30.7351
973.027	131.93208
973.199	83.43541
973.37	15.98162
973.542	45.48974
973.714	-5.09275
973.886	-15.62904
974.057	51.8135
974.229	-45.12736
974.401	32.84284
974.572	112.95374
974.744	30.7351
974.915	98.19403
975.087	47.59764
975.259	121.38835
975.43	100.3025
975.602	56.02946
975.773	100.3025
975.945	45.48974
976.116	100.3025
976.288	15.98162
976.459	41.27401
976.63	26.51971
976.802	89.7604
976.973	28.62739
977.145	83.43541
977.316	28.62739
977.487	32.84284
977.659	79.21886
977.83	79.21886
978.001	32.84284
978.172	-2.98542
978.344	62.35357
978.515	112.95374
978.686	49.70556
978.857	37.05838
979.028	79.21886
979.2	47.59764
979.371	45.48974
979.542	20.19678
979.713	11.76656
979.884	62.35357
980.055	39.16618
980.226	117.171
980.397	-13.52183
980.568	28.62739
980.739	-15.62904
980.91	3.33671
981.081	96.08559
981.252	121.38835
981.423	39.16618
981.594	87.65205
981.765	68.67788
981.936	-5.09275
982.106	32.84284
982.277	22.3044
982.448	37.05838
982.619	79.21886
982.79	-47.2342
982.96	15.98162
983.131	58.13747
983.302	87.65205
983.472	45.48974
983.643	58.13747
983.814	3.33671
983.984	66.56975
984.155	5.44413
984.326	32.84284
984.496	-2.98542
984.667	89.7604
984.837	53.92147
985.008	85.54372
985.178	53.92147
985.349	-24.05762
985.519	5.44413
985.69	56.02946
985.86	47.59764
986.031	96.08559
986.201	45.48974
986.371	37.05838
986.542	66.56975
986.712	22.3044
986.882	45.48974
987.053	96.08559
987.223	37.05838
987.393	81.32712
987.563	66.56975
987.734	72.8942
987.904	66.56975
988.074	3.33671
988.244	87.65205
988.414	30.7351
988.585	-13.52183
988.755	-5.09275
988.925	142.47636
989.095	-11.4146
989.265	-5.09275
989.435	49.70556
989.605	32.84284
989.775	45.48974
989.945	53.92147
990.115	18.08919
990.285	56.02946
990.455	-11.4146
990.625	89.7604
990.795	79.21886
990.965	-0.87807
991.134	-30.3788
991.304	7.55158
991.474	53.92147
991.644	28.62739
991.814	13.87408
991.984	41.27401
992.153	20.19678
992.323	-59.87469
992.493	-7.20006
992.662	68.67788
992.832	96.08559
993.002	81.32712
993.171	-15.62904
993.341	13.87408
993.511	85.54372
993.68	53.92147
993.85	15.98162
994.019	11.76656
994.189	-13.52183
994.358	-38.8067
994.528	53.92147
994.697	104.51949
994.867	87.65205
995.036	22.3044
995.206	53.92147
995.375	96.08559
995.544	56.02946
995.714	91.86877
995.883	15.98162
996.052	119.27966
996.222	15.98162
996.391	-36.69976
996.56	83.43541
996.73	70.78603
996.899	45.48974
997.068	45.48974
997.237	15.98162
997.406	11.76656
997.576	20.19678
997.745	43.38186
997.914	3.33671
998.083	-55.66129
998.252	85.54372
998.421	-47.2342
998.59	1.22931
998.759	64.46165
998.928	47.59764
999.097	-11.4146
999.266	70.78603
999.435	5.44413
999.604	75.0024
999.773	66.56975
999.942	7.55158
1000.111	28.62739
1000.28	49.70556
1000.448	62.35357
1000.617	15.98162
1000.786	-11.4146
1000.955	-5.09275
1001.124	45.48974
1001.292	47.59764
1001.461	53.92147
1001.63	79.21886
1001.798	3.33671
1001.967	5.44413
1002.136	32.84284
1002.304	3.33671
1002.473	37.05838
1002.642	15.98162
1002.81	53.92147
1002.979	77.11062
1003.147	51.8135
1003.316	26.51971
1003.484	20.19678
1003.653	39.16618
1003.821	41.27401
1003.99	-11.4146
1004.158	-55.66129
1004.327	49.70556
1004.495	70.78603
1004.663	37.05838
1004.832	81.32712
1005	30.7351
1005.168	13.87408
1005.337	-38.8067
1005.505	-0.87807
1005.673	56.02946
1005.842	58.13747
1006.01	-64.08798
1006.178	45.48974
1006.346	26.51971
1006.514	9.65906
1006.683	45.48974
1006.851	62.35357
1007.019	60.24551
1007.187	-38.8067
1007.355	28.62739
1007.523	-24.05762
1007.691	47.59764
1007.859	85.54372
1008.027	24.41204
1008.195	-26.16471
1008.363	-13.52183
1008.531	-34.5928
1008.699	66.56975
1008.867	-49.34101
1009.035	11.76656
1009.203	56.02946
1009.37	15.98162
1009.538	13.87408
1009.706	32.84284
1009.874	-13.52183
1010.042	53.92147
1010.209	-5.09275
1010.377	22.3044
1010.545	-13.52183
1010.713	24.41204
1010.88	-24.05762
1011.048	24.41204
1011.216	-0.87807
1011.383	-21.95051
1011.551	-0.87807
1011.718	28.62739
1011.886	53.92147
1012.054	5.44413
1012.221	-9.30734
1012.389	-74.62077
1012.556	28.62739
1012.724	20.19678
1012.891	24.41204
1013.058	28.62739
1013.226	-28.27177
1013.393	20.19678
1013.561	-53.55456
1013.728	-0.87807
1013.895	-59.87469
1014.063	-53.55456
1014.23	7.55158
1014.397	62.35357
1014.565	-9.30734
1014.732	-5.09275
1014.899	13.87408
1015.066	70.78603
1015.233	-9.30734
1015.401	-11.4146
1015.568	37.05838
1015.735	3.33671
1015.902	13.87408
1016.069	-68.30117
1016.236	37.05838
1016.403	45.48974
1016.57	-17.73622
1016.737	-49.34101
1016.904	7.55158
1017.071	60.24551
1017.238	-26.16471
1017.405	-0.87807
1017.572	-64.08798
1017.739	89.7604
1017.906	32.84284
1018.073	45.48974
1018.24	3.33671
1018.407	11.76656
1018.573	11.76656
1018.74	-95.68442
1018.907	15.98162
1019.074	11.76656
1019.241	64.46165
1019.407	-2.98542
1019.574	-64.08798
1019.741	-15.62904
1019.907	-55.66129
1020.074	62.35357
1020.241	41.27401
1020.407	-34.5928
1020.574	5.44413
1020.74	-9.30734
1020.907	5.44413
1021.073	-0.87807
1021.24	7.55158
1021.406	-70.40773
1021.573	-36.69976
1021.739	-38.8067
1021.906	56.02946
1022.072	-5.09275
1022.239	-28.27177
1022.405	51.8135
1022.571	22.3044
1022.738	28.62739
1022.904	30.7351
1023.07	49.70556
1023.237	-43.0205
1023.403	-7.20006
1023.569	-9.30734
1023.735	-0.87807
1023.902	-55.66129
1024.068	-13.52183
1024.234	-38.8067
1024.4	-17.73622
1024.566	28.62739
1024.732	-11.4146
1024.898	11.76656
1025.065	-0.87807
1025.231	49.70556
1025.397	60.24551
1025.563	37.05838
1025.729	39.16618
1025.895	-13.52183
1026.061	32.84284
1026.227	30.7351
1026.392	68.67788
1026.558	-19.84338
1026.724	-59.87469
1026.89	24.41204
1027.056	-66.19459
1027.222	-38.8067
1027.388	-26.16471
1027.553	-30.3788
1027.719	45.48974
1027.885	-78.83371
1028.051	-55.66129
1028.216	-2.98542
1028.382	24.41204
1028.548	47.59764
1028.713	11.76656
1028.879	53.92147
1029.045	-28.27177
1029.21	-30.3788
1029.376	-17.73622
1029.541	-36.69976
1029.707	-38.8067
1029.873	56.02946
1030.038	45.48974
1030.204	3.33671
1030.369	-13.52183
1030.534	-11.4146
1030.7	37.05838
1030.865	-47.2342
1031.031	-30.3788
1031.196	20.19678
1031.361	41.27401
1031.527	-19.84338
1031.692	-5.09275
1031.857	62.35357
1032.023	-9.30734
1032.188	62.35357
1032.353	15.98162
1032.518	-0.87807
1032.684	49.70556
1032.849	34.9506
1033.014	-15.62904
1033.179	-104.10916
1033.344	20.19678
1033.509	-9.30734
1033.674	-66.19459
1033.839	-0.87807
1034.004	30.7351
1034.17	-30.3788
1034.335	62.35357
1034.5	-38.8067
1034.664	11.76656
1034.829	7.55158
1034.994	79.21886
1035.159	39.16618
1035.324	22.3044
1035.489	-5.09275
1035.654	45.48974
1035.819	41.27401
1035.984	-2.98542
1036.148	-24.05762
1036.313	30.7351
1036.478	32.84284
1036.643	-9.30734
1036.807	-5.09275
1036.972	45.48974
1037.137	30.7351
1037.301	-17.73622
1037.466	-64.08798
1037.631	-17.73622
1037.795	-66.19459
1037.96	-21.95051
1038.124	20.19678
1038.289	-21.95051
1038.454	30.7351
1038.618	-47.2342
1038.783	41.27401
1038.947	24.41204
1039.111	47.59764
1039.276	-64.08798
1039.44	5.44413
1039.605	93.97717
1039.769	-0.87807
1039.933	1.22931
1040.098	-53.55456
1040.262	-51.44779
1040.426	-5.09275
1040.591	15.98162
1040.755	70.78603
1040.919	51.8135
1041.083	-40.91361
1041.248	1.22931
1041.412	-2.98542
1041.576	-13.52183
1041.74	-0.87807
1041.904	-64.08798
1042.068	11.76656
1042.232	20.19678
1042.397	-19.84338
1042.561	-5.09275
1042.725	58.13747
1042.889	56.02946
1043.053	-2.98542
1043.217	-5.09275
1043.381	-2.98542
1043.544	7.55158
1043.708	5.44413
1043.872	-51.44779
1044.036	24.41204
1044.2	-118.85142
1044.364	-26.16471
1044.528	-0.87807
1044.691	62.35357
1044.855	7.55158
1045.019	-21.95051
1045.183	26.51971
1045.346	-9.30734
1045.51	26.51971
1045.674	-106.21527
1045.837	-55.66129
1046.001	32.84284
1046.165	22.3044
1046.328	30.7351
1046.492	-19.84338
1046.655	-0.87807
1046.819	45.48974
1046.983	43.38186
1047.146	-38.8067
1047.31	-30.3788
1047.473	-55.66129
1047.636	-5.09275
1047.8	-0.87807
1047.963	100.3025
1048.127	-11.4146
1048.29	-5.09275
