Data from absorb_only_2.23.25_USB4F045381__14__0119.txt Node

Date: Sun Feb 23 19:14:19 EST 2025
User: ssocol
Spectrometer: USB4F04538
Trigger mode: 4
Integration Time (sec): 2.600000E-3
Scans to average: 1
Electric dark correction enabled: true
Nonlinearity correction enabled: true
Boxcar width: 0
XAxis mode: Wavelengths
Number of Pixels in Spectrum: 3648
>>>>>Begin Spectral Data<<<<<
345.52	-27.56942
345.736	-27.56942
345.952	-27.56942
346.168	39.86879
346.384	-27.56942
346.6	33.54542
346.816	58.84015
347.032	-17.03383
347.248	23.00695
347.464	14.57659
347.68	16.68414
347.896	-19.141
348.112	6.14661
348.328	-27.56942
348.544	6.14661
348.76	-19.141
348.975	-76.0251
349.191	-8.60492
349.407	-23.35526
349.623	-35.99745
349.839	-6.49763
350.055	-19.141
350.27	50.4082
350.486	60.94819
350.702	-38.10439
350.918	-2.28298
351.133	-40.21131
351.349	-19.141
351.565	4.03918
351.781	14.57659
351.996	-27.56942
352.212	-42.31821
352.428	31.43768
352.644	10.36155
352.859	6.14661
353.075	-59.17246
353.291	-10.71218
353.506	-35.99745
353.722	-10.71218
353.938	-2.28298
354.153	-27.56942
354.369	-82.34441
354.584	1.93177
354.8	-23.35526
355.016	10.36155
355.231	52.51615
355.447	-2.28298
355.662	25.11459
355.878	16.68414
356.093	8.25407
356.309	-76.0251
356.524	-35.99745
356.74	-25.46235
356.955	-2.28298
357.171	-27.56942
357.386	-21.24814
357.602	-31.78348
357.817	-6.49763
358.033	-19.141
358.248	-27.56942
358.464	-78.13156
358.679	-46.53192
358.895	-38.10439
359.11	-25.46235
359.325	58.84015
359.541	60.94819
359.756	-29.67646
359.972	-10.71218
360.187	-6.49763
360.402	-10.71218
360.618	1.93177
360.833	-17.03383
361.048	-17.03383
361.264	-8.60492
361.479	-14.92664
361.694	-27.56942
361.909	-31.78348
362.125	6.14661
362.34	-2.28298
362.555	39.86879
362.77	25.11459
362.986	14.57659
363.201	39.86879
363.416	29.32996
363.631	1.93177
363.847	6.14661
364.062	6.14661
364.277	-50.74553
364.492	-33.89048
364.707	-23.35526
364.922	-42.31821
365.138	-2.28298
365.353	14.57659
365.568	-42.31821
365.783	48.30027
365.998	-40.21131
366.213	-0.17561
366.428	-31.78348
366.643	-17.03383
366.858	31.43768
367.073	44.08449
367.288	-29.67646
367.503	-42.31821
367.718	18.79172
367.933	-33.89048
368.148	31.43768
368.363	18.79172
368.578	-8.60492
368.793	1.93177
369.008	8.25407
369.223	84.13817
369.438	-0.17561
369.653	25.11459
369.868	-57.06577
370.083	14.57659
370.298	-4.39031
370.513	-0.17561
370.728	-27.56942
370.943	-69.70555
371.157	65.16435
371.372	1.93177
371.587	-33.89048
371.802	-6.49763
372.017	-12.81942
372.232	67.27246
372.446	-8.60492
372.661	14.57659
372.876	-52.8523
373.091	-8.60492
373.306	-10.71218
373.52	56.73213
373.735	-52.8523
373.95	-44.42508
374.165	-6.49763
374.379	18.79172
374.594	4.03918
374.809	1.93177
375.023	-25.46235
375.238	6.14661
375.453	6.14661
375.667	23.00695
375.882	-8.60492
376.097	6.14661
376.311	56.73213
376.526	-65.49239
376.741	-44.42508
376.955	-67.59898
377.17	-6.49763
377.384	-52.8523
377.599	18.79172
377.813	-52.8523
378.028	-8.60492
378.242	10.36155
378.457	94.67998
378.672	-42.31821
378.886	-25.46235
379.101	67.27246
379.315	-25.46235
379.53	23.00695
379.744	-97.08857
379.958	31.43768
380.173	-107.61934
380.387	18.79172
380.602	-31.78348
380.816	35.65319
381.031	48.30027
381.245	-19.141
381.459	-19.141
381.674	-50.74553
381.888	25.11459
382.103	-57.06577
382.317	48.30027
382.531	44.08449
382.746	-17.03383
382.96	-44.42508
383.174	-19.141
383.388	-2.28298
383.603	23.00695
383.817	50.4082
384.031	-73.91861
384.246	35.65319
384.46	-29.67646
384.674	-61.27913
384.888	-61.27913
385.103	6.14661
385.317	27.22227
385.531	35.65319
385.745	35.65319
385.959	39.86879
386.174	-92.87609
386.388	23.00695
386.602	-59.17246
386.816	-21.24814
387.03	16.68414
387.244	63.05626
387.458	-23.35526
387.672	-6.49763
387.887	14.57659
388.101	-6.49763
388.315	-8.60492
388.529	-6.49763
388.743	-76.0251
388.957	-61.27913
389.171	-8.60492
389.385	6.14661
389.599	35.65319
389.813	39.86879
390.027	4.03918
390.241	-19.141
390.455	-19.141
390.669	14.57659
390.883	25.11459
391.097	1.93177
391.311	1.93177
391.525	-19.141
391.738	-27.56942
391.952	29.32996
392.166	31.43768
392.38	6.14661
392.594	54.62413
392.808	94.67998
393.022	31.43768
393.236	33.54542
393.449	-4.39031
393.663	-2.28298
393.877	23.00695
394.091	23.00695
394.305	-42.31821
394.518	-31.78348
394.732	-17.03383
394.946	-0.17561
395.16	31.43768
395.373	-6.49763
395.587	-61.27913
395.801	-12.81942
396.015	10.36155
396.228	35.65319
396.442	-21.24814
396.656	23.00695
396.869	82.02988
397.083	-12.81942
397.297	-6.49763
397.51	-6.49763
397.724	103.11382
397.938	71.48875
398.151	-40.21131
398.365	56.73213
398.578	33.54542
398.792	58.84015
399.005	-31.78348
399.219	-35.99745
399.433	-0.17561
399.646	25.11459
399.86	-33.89048
400.073	-42.31821
400.287	33.54542
400.5	-84.4508
400.714	63.05626
400.927	39.86879
401.141	41.97663
401.354	29.32996
401.567	-35.99745
401.781	65.16435
401.994	-2.28298
402.208	73.59693
402.421	-10.71218
402.635	-2.28298
402.848	23.00695
403.061	98.89685
403.275	-6.49763
403.488	52.51615
403.701	-44.42508
403.915	69.38059
404.128	-92.87609
404.341	33.54542
404.555	-0.17561
404.768	65.16435
404.981	98.89685
405.195	31.43768
405.408	-86.55716
405.621	1.93177
405.834	54.62413
406.048	-0.17561
406.261	-35.99745
406.474	60.94819
406.687	50.4082
406.9	35.65319
407.114	44.08449
407.327	-27.56942
407.54	-10.71218
407.753	-8.60492
407.966	84.13817
408.179	-48.63874
408.392	44.08449
408.605	75.70514
408.819	1.93177
409.032	4.03918
409.245	41.97663
409.458	-14.92664
409.671	1.93177
409.884	-8.60492
410.097	-40.21131
410.31	69.38059
410.523	18.79172
410.736	14.57659
410.949	35.65319
411.162	56.73213
411.375	6.14661
411.588	29.32996
411.801	-6.49763
412.014	31.43768
412.227	52.51615
412.44	10.36155
412.653	50.4082
412.865	14.57659
413.078	48.30027
413.291	37.76098
413.504	10.36155
413.717	56.73213
413.93	1.93177
414.143	23.00695
414.356	-6.49763
414.568	65.16435
414.781	12.46906
414.994	143.17933
415.207	-0.17561
415.42	29.32996
415.632	1.93177
415.845	25.11459
416.058	18.79172
416.271	33.54542
416.483	25.11459
416.696	48.30027
416.909	98.89685
417.121	-17.03383
417.334	-2.28298
417.547	65.16435
417.759	23.00695
417.972	86.24649
418.185	60.94819
418.397	52.51615
418.61	12.46906
418.823	65.16435
419.035	65.16435
419.248	44.08449
419.46	82.02988
419.673	29.32996
419.885	25.11459
420.098	94.67998
420.311	73.59693
420.523	92.57157
420.736	67.27246
420.948	58.84015
421.161	79.92161
421.373	90.46319
421.586	77.81336
421.798	-2.28298
422.01	73.59693
422.223	4.03918
422.435	-35.99745
422.648	63.05626
422.86	77.81336
423.073	82.02988
423.285	-21.24814
423.497	48.30027
423.71	-10.71218
423.922	115.76524
424.134	48.30027
424.347	-8.60492
424.559	54.62413
424.771	27.22227
424.984	-2.28298
425.196	27.22227
425.408	14.57659
425.621	-2.28298
425.833	63.05626
426.045	8.25407
426.257	94.67998
426.47	25.11459
426.682	23.00695
426.894	60.94819
427.106	25.11459
427.318	39.86879
427.531	12.46906
427.743	90.46319
427.955	25.11459
428.167	33.54542
428.379	157.94226
428.591	60.94819
428.804	151.61516
429.016	31.43768
429.228	50.4082
429.44	58.84015
429.652	88.35483
429.864	79.92161
430.076	107.33087
430.288	143.17933
430.5	37.76098
430.712	20.89932
430.924	73.59693
431.136	90.46319
431.348	77.81336
431.56	132.63502
431.772	41.97663
431.984	119.98255
432.196	92.57157
432.408	130.52622
432.62	35.65319
432.832	39.86879
433.044	103.11382
433.256	109.43943
433.468	141.07043
433.679	54.62413
433.891	128.41744
434.103	56.73213
434.315	176.92467
434.527	75.70514
434.739	153.72418
434.95	155.83321
435.162	113.65661
435.374	20.89932
435.586	98.89685
435.798	79.92161
436.009	107.33087
436.221	111.54801
436.433	92.57157
436.645	172.70621
436.856	113.65661
437.068	149.50617
437.28	136.85268
437.491	168.48784
437.703	111.54801
437.915	191.68993
438.126	181.14322
438.338	82.02988
438.55	132.63502
438.761	115.76524
438.973	225.4428
439.184	157.94226
439.396	157.94226
439.608	126.30869
439.819	109.43943
440.031	189.58055
440.242	109.43943
440.454	124.19996
440.665	157.94226
440.877	157.94226
441.088	151.61516
441.3	179.03394
441.511	157.94226
441.723	174.81543
441.934	166.37868
442.146	191.68993
442.357	183.25252
442.569	174.81543
442.78	278.19166
442.991	191.68993
443.203	250.76076
443.414	195.90876
443.626	204.34665
443.837	157.94226
444.048	229.66226
444.26	208.56572
444.471	179.03394
444.682	219.11374
444.894	225.4428
445.105	79.92161
445.316	212.78487
445.528	208.56572
445.739	217.0041
445.95	240.21127
446.161	217.0041
446.373	284.52232
446.584	259.20069
446.795	208.56572
447.006	217.0041
447.217	263.42077
447.429	179.03394
447.64	257.09068
447.851	240.21127
448.062	320.39917
448.273	193.79933
448.484	282.41208
448.695	229.66226
448.907	246.5409
449.118	191.68993
449.329	217.0041
449.54	193.79933
449.751	284.52232
449.962	297.18413
450.173	314.06758
450.384	208.56572
450.595	314.06758
450.806	381.61266
451.017	267.64093
451.228	371.05758
451.439	250.76076
451.65	406.94654
451.861	271.86117
452.072	305.62571
452.283	309.84661
452.494	417.50302
452.705	394.2793
452.915	347.8379
453.126	453.39803
453.337	362.61382
453.548	347.8379
453.759	411.16909
453.97	385.8348
454.181	455.50964
454.391	444.95174
454.602	516.75291
454.813	377.39057
455.024	508.30483
455.235	463.95624
455.445	390.05702
455.656	461.84457
455.867	415.39169
456.078	504.08088
456.288	447.06329
456.499	440.72869
456.71	546.32299
456.921	480.85017
457.131	605.47113
457.342	444.95174
457.553	622.37247
457.763	516.75291
457.974	613.9217
458.184	518.86497
458.395	664.62926
458.606	495.63314
458.816	799.88117
459.027	706.89075
459.237	639.27461
459.448	696.32496
459.659	647.72597
459.869	757.61034
460.08	829.47302
460.29	782.97236
460.501	825.2455
460.711	825.2455
460.922	734.3631
461.132	827.35926
461.343	736.47644
461.553	810.44948
461.764	909.80243
461.974	810.44948
462.184	808.3358
462.395	954.19992
462.605	1030.31699
462.816	863.29445
463.026	994.37177
463.236	1019.74468
463.447	1076.83684
463.657	1070.49307
463.867	1252.36358
464.078	1083.18066
464.288	1136.04754
464.498	1286.20273
464.709	1210.06564
464.919	1100.09774
465.129	1286.20273
465.339	1303.12252
465.55	1277.74289
465.76	1358.11266
465.97	1290.43267
466.18	1396.18328
466.391	1487.13043
466.601	1442.71435
466.811	1495.59062
467.021	1559.04165
467.231	1637.29615
467.441	1501.93576
467.651	1804.3678
467.862	1688.05421
468.072	1891.06604
468.282	1833.97297
468.492	1806.48248
468.702	1952.38393
468.912	1975.64116
469.122	2030.60975
469.332	2182.80531
469.542	2134.19161
469.752	2189.14591
469.962	2187.03238
470.172	2322.28012
470.382	2353.97326
470.592	2436.36476
470.802	2360.31162
471.012	2579.98204
471.222	2495.50763
471.432	2567.31208
471.642	2560.97693
471.852	2797.41285
472.062	2710.87914
472.272	2926.11516
472.482	3048.43736
472.691	3050.54591
472.901	2782.6404
473.111	3029.45967
473.321	3031.56837
473.531	3193.89046
473.741	3166.49211
473.95	3364.53959
474.16	3257.10679
474.37	3516.13177
474.58	3484.55774
474.79	3604.51702
474.999	3471.92699
475.209	3345.58412
475.419	3638.17895
475.628	3814.82369
475.838	3793.80174
476.048	4043.83317
476.258	3922.00477
476.467	4169.78948
476.677	4132.01049
476.886	4176.08531
477.096	4434.04889
477.306	4404.70367
477.515	4322.93381
477.725	4452.9114
477.935	4440.33659
478.144	4754.46725
478.354	4559.76528
478.563	5132.83924
478.773	5082.71178
478.982	4967.78607
479.192	5093.15611
479.401	5201.74262
479.611	5043.01808
479.82	5155.80985
480.03	5247.66411
480.239	5577.13063
480.449	5354.07495
480.658	5806.15897
480.868	5718.74548
481.077	5768.70115
481.287	5741.64352
481.496	6078.53848
481.705	5731.23567
481.915	5939.28043
482.124	5806.15897
482.333	6113.85581
482.543	6068.14974
482.752	6211.46248
482.961	6279.96386
483.171	6530.91809
483.38	6454.21619
483.589	6731.85125
483.799	6657.30341
484.008	6872.58294
484.217	6771.18397
484.426	7106.21421
484.636	6870.51412
484.845	7128.94177
485.054	6978.06276
485.263	7141.33748
485.472	7060.75098
485.682	7554.07475
485.891	7465.40975
486.1	7184.71618
486.309	7549.95168
486.518	7504.59221
486.727	7430.34514
486.936	7797.18558
487.146	7768.35727
487.355	7817.77472
487.564	7743.64402
487.773	8093.47044
487.982	8130.47638
488.191	7939.20847
488.4	8183.91796
488.609	8171.58648
488.818	8502.23631
489.027	8617.12819
489.236	8651.99444
489.445	8826.24571
489.654	8797.55459
489.863	8795.50508
490.072	8781.15806
490.281	9000.36642
490.49	8777.05875
490.698	9172.31407
490.907	9008.55718
491.116	9360.50004
491.325	9002.41413
491.534	9245.96894
491.743	9313.46678
491.952	9382.99113
492.16	9485.19853
492.369	9656.81714
492.578	9434.09989
492.787	9713.99886
492.996	9652.73227
493.204	9867.10548
493.413	10018.08904
493.622	10046.64459
493.831	9973.21034
494.039	9956.88909
494.248	10173.07164
494.457	10193.45809
494.665	10287.21814
494.874	10311.67259
495.083	10499.0936
495.291	10366.68807
495.5	10332.04982
495.709	10309.63479
495.917	10592.76333
496.126	10623.30209
496.335	10743.39449
496.543	10727.11324
496.752	10853.27309
496.96	10926.50666
497.169	10816.65069
497.377	10859.37646
497.586	11056.66357
497.794	11034.29608
498.003	10893.96024
498.211	11266.04162
498.42	11288.39583
498.628	11308.71678
498.837	11359.51472
499.045	11259.9448
499.254	11245.71854
499.462	11385.92719
499.671	11430.62142
499.879	11532.18183
500.087	11568.73778
500.296	11820.48792
500.504	11688.53918
500.713	11757.5631
500.921	11802.22028
501.129	11739.29305
501.338	11731.1728
501.546	12331.7192
501.754	11871.22779
501.962	12222.21008
502.171	12260.74344
502.379	12226.26635
502.587	12096.45119
502.795	12252.63137
503.004	12264.79943
503.212	12358.07945
503.42	12191.78716
503.628	12433.09846
503.837	12319.55254
504.045	12445.26284
504.253	12621.62027
504.461	12710.79473
504.669	12611.48607
504.877	12666.20894
505.085	12581.08256
505.294	12866.82312
505.502	12998.51037
505.71	12964.0712
505.918	12862.77085
506.126	13095.7426
506.334	12727.00704
506.542	13184.86248
506.75	13036.99948
506.958	13275.99876
507.166	13199.03983
507.374	13263.84776
507.582	12976.22637
507.79	13361.05144
507.998	13077.51241
508.206	13375.22618
508.414	13314.47588
508.622	13480.51821
508.83	13518.98772
509.037	13887.42352
509.245	13577.70183
509.453	13579.7264
509.661	13660.70643
509.869	13816.57844
510.077	13705.24318
510.285	13725.48665
510.492	14130.29678
510.7	14118.15392
510.908	13753.82697
511.116	14035.17558
511.324	13786.21518
511.531	14075.6533
511.739	13917.78466
511.947	14166.72488
512.155	13986.60105
512.362	14101.96332
512.57	13960.28925
512.778	14114.10628
512.985	14178.86743
513.193	14041.24729
513.401	14150.5347
513.608	14460.15125
513.816	14276.00527
514.024	14377.18604
514.231	14462.17476
514.439	14696.89352
514.646	14711.05713
514.854	14547.16099
515.061	14480.3863
515.269	14381.23318
515.477	14478.3628
515.684	15008.48485
515.892	14990.2753
516.099	15101.55556
516.307	14872.92411
516.514	15320.06908
516.722	14919.46011
516.929	14959.92599
517.136	14945.76295
517.344	15237.11473
517.551	15057.04353
517.759	15271.51039
517.966	15348.39505
518.173	15038.83404
518.381	15360.53477
518.588	15459.67638
518.796	15538.58591
519.003	15530.49258
519.21	15680.22106
519.418	15589.16945
519.625	15534.53924
519.832	15740.92313
520.039	15805.67301
520.247	15991.83556
520.454	15759.13393
520.661	16155.74922
520.868	15840.07183
521.076	16283.24495
521.283	15846.14225
521.49	15975.64708
521.697	16006.00055
521.904	16056.59039
522.112	16026.23638
522.319	16418.84355
522.526	15918.98807
522.733	16667.80215
522.94	16216.46062
523.147	16331.8166
523.354	16366.22218
523.561	16613.14987
523.768	16615.174
523.975	16953.2369
524.183	16594.93281
524.39	16835.81804
524.597	16744.72303
524.804	16459.32244
525.011	16552.42703
525.218	16461.3464
525.425	16854.03765
525.632	16789.25775
525.838	16837.84243
526.045	16809.5012
526.252	16900.59979
526.459	17408.82873
526.666	16827.72051
526.873	17461.48456
527.08	17226.57447
527.287	16900.59979
527.494	17137.48107
527.701	17101.03536
527.907	17400.72802
528.114	17453.38353
528.321	17524.26929
528.528	17611.36286
528.735	17842.29165
528.941	17580.9807
529.148	17601.23539
529.355	17884.83597
529.562	17299.47326
529.768	17635.66912
529.975	17593.13348
530.182	18142.16094
530.388	17903.06972
530.595	18057.05497
530.802	17854.44701
531.008	18456.29882
531.215	18113.79157
531.422	18332.65963
531.628	18496.83934
531.835	18217.14057
532.042	17783.54245
532.248	18401.57154
532.455	18221.19367
532.661	18496.83934
532.868	18083.39661
533.074	18523.1915
533.281	18504.94762
533.487	18565.76175
533.694	19066.59932
533.9	18948.97185
534.107	18892.19103
534.313	19044.28961
534.52	18772.55599
534.726	18855.69073
534.933	18859.74626
535.139	18950.99979
535.345	18896.2467
535.552	19064.57114
535.758	18882.05193
535.965	19271.46604
536.171	19013.86808
536.377	19389.13123
536.584	19107.16368
536.79	19139.61634
536.996	19374.92952
537.203	19336.38305
537.409	19172.07004
537.615	19648.85552
537.821	19583.91805
538.028	19886.31967
538.234	19573.77195
538.44	19575.80116
538.646	19563.62596
538.853	19794.98051
539.059	19342.46923
539.265	19683.3553
539.471	19748.29933
539.677	19539.27601
539.883	19801.06952
540.09	19784.83224
540.296	19797.01018
540.502	19967.51718
540.708	19797.01018
540.914	20249.73084
541.12	20196.9365
541.326	20747.35517
541.532	20286.28244
541.738	20783.9252
541.944	20280.19041
542.15	20692.50265
542.356	20771.73504
542.562	20934.28273
542.768	20328.92769
542.974	20899.73913
543.18	20562.49399
543.386	20635.62176
543.592	20991.18065
543.798	21046.04956
544.004	21100.92144
544.21	21170.0236
544.415	21029.79179
544.621	21485.10733
544.827	21334.66821
545.033	21334.66821
545.239	21003.37348
545.445	21381.42397
545.651	21383.45688
545.856	21515.60441
546.062	21674.20353
546.268	21330.6026
546.474	21208.64156
546.679	21176.12108
546.885	20934.28273
547.091	21373.29238
547.297	21245.22834
547.502	21499.33919
547.708	21519.67075
547.914	21424.11586
548.119	21651.83554
548.325	21470.87567
548.531	21247.26098
548.736	21908.0789
548.942	21554.23532
549.147	21369.22661
549.353	21635.56821
549.559	21674.20353
549.764	21432.24785
549.97	21725.04164
550.175	22215.2441
550.381	22264.07292
550.586	22003.67738
550.792	22009.77969
550.997	21962.99614
551.203	21983.33657
551.408	22119.6272
551.614	22455.33945
551.819	21995.54101
552.025	22833.89607
552.23	22636.46157
552.435	22703.62634
552.641	23074.1175
552.846	22546.91452
553.052	22410.57206
553.257	22687.34362
553.462	22632.39111
553.668	22650.70833
553.873	22754.51127
554.078	23045.61421
554.283	22575.40602
554.489	22434.99042
554.694	22723.98005
554.899	22945.85785
555.105	22884.78651
555.31	23070.04556
555.515	23149.45073
555.72	23100.58542
555.925	22954.00092
556.131	23206.46264
556.336	23287.91263
556.541	23715.60749
556.746	23375.47708
556.951	23338.82148
557.156	23072.08153
557.361	23406.02419
557.567	23735.97727
557.772	23275.6948
557.977	23002.8605
558.182	23446.75477
558.387	23222.75223
558.592	23542.47654
558.797	23399.91471
559.002	23298.09424
559.207	23642.27878
559.412	23538.40313
559.617	23621.91038
559.822	24098.60782
560.027	24047.67112
560.232	23603.57909
560.437	23768.56952
560.642	24004.88565
560.847	24259.57907
561.051	23919.31844
561.256	23790.97713
561.461	23955.98949
561.666	23799.12545
561.871	23905.05773
562.076	23835.79342
562.281	24157.69655
562.485	23595.43192
562.69	23797.08836
562.895	23776.7177
563.1	24284.03187
563.305	24310.52285
563.509	24186.22297
563.714	24023.22213
563.919	24284.03187
564.123	24251.42822
564.328	24355.35475
564.533	23874.49954
564.737	23949.87758
564.942	24261.61679
565.147	24530.61883
565.351	24771.12784
565.556	24471.51602
565.761	24428.71878
565.965	24555.07579
566.17	24445.02236
566.374	24656.98368
566.579	24620.29613
566.784	24188.26059
566.988	24577.49499
567.193	24720.16968
567.397	24834.31804
567.602	25138.06995
567.806	24565.2663
568.011	24970.89817
568.215	25350.11406
568.42	24954.58954
568.624	24972.93675
568.828	24756.8594
569.033	24822.0875
569.237	25172.7294
569.442	25009.63174
569.646	24687.55726
569.85	25040.21145
570.055	25231.85581
570.259	25231.85581
570.463	25072.83038
570.668	24903.62605
570.872	24771.12784
571.076	24942.35817
571.281	25315.45141
571.485	25341.95809
571.689	25633.55453
571.893	25370.50413
572.098	25637.63309
572.302	25403.12869
572.506	25623.35815
572.71	25144.18628
572.914	25684.53714
573.119	25804.86088
573.323	25425.55838
573.527	25598.88705
573.731	26104.67864
573.935	25562.18094
574.139	25605.0048
574.343	25384.77731
574.547	26016.97281
574.751	25821.17647
574.955	25823.21593
575.159	25843.61061
575.364	25586.65161
575.568	25892.55859
575.772	26341.29633
575.976	26190.34792
576.18	25790.58483
576.383	26090.40073
576.587	26002.69543
576.791	25878.28199
576.995	26047.5675
577.199	25833.41324
577.403	25454.10562
577.607	26094.48012
577.811	26255.62178
578.015	26184.22859
578.219	26461.65355
578.422	25857.88699
578.626	26308.65806
578.83	26431.05372
579.034	26684.0229
579.238	26373.93501
579.442	26820.71761
579.645	26324.97714
579.849	26730.9472
580.053	26808.47602
580.257	26561.61547
580.46	26579.97624
580.664	26800.31499
580.868	26943.13634
581.071	27020.67084
581.275	26896.20855
581.479	26928.85389
581.682	26877.84571
581.886	26902.32952
582.09	27185.9484
582.293	27302.2601
582.497	27269.61077
582.7	27367.55975
582.904	27108.40967
583.107	27634.89367
583.311	26871.72479
583.515	27132.89537
583.718	26753.38954
583.922	26932.93458
584.125	27267.5702
584.329	27292.05715
584.532	27198.19153
584.735	27302.2601
584.939	27083.92416
585.142	27577.75181
585.346	27198.19153
585.549	27498.16297
585.753	27326.74731
585.956	27589.99642
586.159	27451.22684
586.363	27826.73393
586.566	27636.93447
586.769	27326.74731
586.973	27377.76294
587.176	27563.4665
587.379	27518.57019
587.582	27892.04362
587.786	27765.50718
587.989	27955.3135
588.192	27541.01827
588.395	28228.81515
588.599	28290.04958
588.802	28661.55917
589.005	27967.55941
589.208	28414.5626
589.411	28014.50245
589.615	28051.2409
589.818	28026.74856
590.021	28047.15883
590.224	28075.7334
590.427	28396.19158
590.63	28100.22606
590.833	28263.51454
591.036	28453.34616
591.239	28375.77943
591.442	28649.31105
591.645	28743.21432
591.848	28798.3325
592.051	28573.78176
592.254	28255.34995
592.457	28665.64189
592.66	28353.32619
592.863	28782.00111
593.066	28555.40999
593.269	28890.1978
593.472	29088.22572
593.675	29741.58346
593.878	29178.05603
594.081	28759.54555
594.284	28984.10673
594.486	29159.68149
594.689	29384.26507
594.892	28961.65005
595.095	28671.76598
595.298	28814.66395
595.5	29149.47344
595.703	29886.56209
595.906	29020.8543
596.109	29455.72614
596.311	29263.80503
596.514	29361.80614
596.717	29537.39752
596.92	29700.74541
597.122	29510.85413
597.325	29474.10205
597.528	29825.30284
597.73	29925.36013
597.933	29335.26393
598.136	29884.5201
598.338	29653.78219
598.541	30043.79878
598.743	30141.81988
598.946	29335.26393
599.148	29531.27211
599.351	30096.89321
599.554	30331.74346
599.756	30043.79878
599.959	30015.20979
600.161	29692.57785
600.363	30115.27224
600.566	29704.8292
600.768	30152.03057
600.971	29904.94006
601.173	30107.10377
601.376	29706.87109
601.578	29964.15858
601.78	30231.67492
601.983	30343.99695
602.185	30060.13545
602.388	29860.01629
602.59	30103.01955
602.792	30405.26505
602.995	30015.20979
603.197	29621.11245
603.399	30007.04155
603.601	29906.98206
603.804	29919.2341
604.006	29604.77769
604.208	29635.40543
604.41	30352.16596
604.613	29896.77206
604.815	30133.65136
605.017	30401.18048
605.219	29594.5685
605.421	29547.60656
605.623	29749.75113
605.826	30192.8736
606.028	30258.22343
606.23	30227.59055
606.432	30158.15699
606.634	30450.1957
606.836	30670.77321
607.038	30813.74826
607.24	30311.32107
607.442	30305.19438
607.644	30478.78825
607.846	30854.5995
608.048	30913.83477
608.25	30705.49512
608.452	30180.62064
608.654	30513.50809
608.856	29945.78032
609.058	30250.05464
609.26	30531.88934
609.462	30290.89881
609.664	30678.94304
609.866	30427.7303
610.067	30503.29634
610.269	30111.188
610.471	29747.70921
610.673	30123.44072
610.875	30156.11485
611.077	30544.14356
611.278	30425.688
611.48	30170.40987
611.682	30266.39225
611.884	30907.70693
612.085	30654.43362
612.287	30452.23802
612.489	30962.85795
612.69	30707.5376
612.892	30546.18593
613.094	30942.43153
613.295	30484.91525
613.497	30905.66431
613.699	30495.12695
613.9	30717.75001
614.102	30474.70358
614.304	30356.25048
614.505	30544.14356
614.707	30954.68736
614.908	30266.39225
615.11	30515.55045
615.311	30393.01134
615.513	30772.89758
615.714	30331.74346
615.916	30599.28812
616.117	30605.41535
616.319	30903.62171
616.52	30680.9855
616.722	31144.65951
616.923	30950.60208
617.124	30750.42993
617.326	30215.33747
617.527	30666.68831
617.729	30513.50809
617.93	30525.76225
618.131	30282.72993
618.333	30384.84223
618.534	30832.13125
618.735	30756.55745
618.937	30497.1693
619.138	31054.77864
619.339	30640.13655
619.54	30517.59281
619.742	30470.61892
619.943	30770.85506
620.144	30429.7726
620.345	30911.79215
620.546	30264.35004
620.748	30995.54053
620.949	30934.261
621.15	31146.70229
621.351	30864.81239
621.552	31257.01469
621.753	30866.85497
621.954	30930.17574
622.155	30395.05362
622.356	30840.3015
622.558	31056.82136
622.759	31038.43697
622.96	30776.98262
623.161	30642.17898
623.362	31232.50044
623.563	31293.78649
623.764	30785.15273
623.965	30838.25894
624.166	30605.41535
624.366	30499.21164
624.567	31079.29132
624.768	30713.66504
624.969	30484.91525
625.17	30589.07609
625.371	30529.84697
625.572	30423.6457
625.773	30346.0392
625.973	30801.493
626.174	30750.42993
626.375	31261.10042
626.576	31252.92897
626.777	30983.28452
626.977	30952.64472
627.178	31408.1909
627.379	30934.261
627.58	30946.5168
627.78	30934.261
627.981	30852.55692
628.182	30940.38889
628.382	31171.21578
628.583	31197.7723
628.784	31038.43697
628.984	30491.04227
629.185	31071.12041
629.386	30617.66985
629.586	31293.78649
629.787	30658.51851
629.987	30458.36497
630.188	30922.00524
630.388	31475.61016
630.589	30582.94889
630.79	31357.11689
630.99	31786.17123
631.191	31716.7001
631.391	31686.05174
631.591	31330.55879
631.792	31114.01799
631.992	31369.37456
632.193	31483.78232
632.393	31269.2719
632.594	31420.44882
632.794	31263.14329
632.994	31671.7493
633.195	31424.5348
633.395	31060.90679
633.595	31467.43804
633.796	31422.49181
633.996	31400.01899
634.196	31406.14792
634.397	31996.64091
634.597	31512.38506
634.797	31728.95956
634.997	31173.25858
635.198	31122.18903
635.398	31216.15773
635.598	31630.88568
635.798	31573.67777
635.998	31528.72964
636.199	31395.93305
636.399	32041.59823
636.599	31473.56713
636.799	31191.64385
636.999	31083.37679
637.199	31071.12041
637.399	31169.17298
637.599	31465.39501
637.799	31069.07768
637.999	31968.0322
638.199	31735.08932
638.399	31643.14469
638.599	31571.63465
638.799	31943.51074
638.999	31845.42767
639.199	31281.52917
639.399	31312.17258
639.599	31857.68782
639.799	31444.96482
639.999	31906.72908
640.199	31594.10901
640.399	31916.94615
640.599	30928.13311
640.799	32205.08755
640.998	31745.30561
641.198	31974.1626
641.398	31318.3013
641.598	32417.64366
641.798	32023.20648
641.997	31955.77144
642.197	31863.81792
642.397	32184.65067
642.597	32172.38864
642.796	32102.90521
642.996	31524.64348
643.196	31800.47436
643.395	31230.4576
643.595	31671.7493
643.795	32127.4285
643.994	32043.64177
644.194	31459.26594
644.394	32090.64367
644.593	32076.33863
644.793	32301.14368
644.992	32207.13125
645.192	31661.53333
645.392	31773.91146
645.591	32082.46935
645.791	32190.78171
645.99	32068.16437
646.19	31947.59763
646.389	31565.50532
646.589	31737.13257
646.788	31722.82983
646.987	31794.34444
647.187	32241.87446
647.386	31814.77759
647.586	32346.10775
647.785	32286.83716
647.984	32389.02897
648.184	32043.64177
648.383	31647.23105
648.582	31710.5704
648.782	32194.86908
648.981	31802.51768
649.18	32004.8149
649.38	32399.24845
649.579	32640.44463
649.778	32493.2703
649.977	32781.49828
650.177	32930.74185
650.376	32403.33626
650.575	32272.53073
650.774	32838.74079
650.973	32186.69435
651.173	32266.39944
651.372	32513.71046
651.571	32558.67962
651.77	32059.99013
651.969	32756.96638
652.168	32368.59017
652.367	32536.1949
652.566	32297.05609
652.765	32652.70971
652.964	32198.95646
653.163	32010.94541
653.362	32466.69842
653.561	32679.28434
653.76	32611.82645
653.959	32685.41701
654.158	32752.87776
654.357	31892.42527
654.556	32137.64663
654.755	32417.64366
654.954	31843.38432
655.153	32037.51116
655.352	32266.39944
655.551	32630.2238
655.749	32781.49828
655.948	32466.69842
656.147	32344.0639
656.346	31945.55419
656.545	32209.17495
656.743	32327.71323
656.942	32497.35831
657.141	33092.26767
657.34	32738.56768
657.538	32628.17964
657.737	32575.03233
657.936	32640.44463
658.135	32366.54631
658.333	32397.20455
658.532	32759.01069
658.731	32750.83346
658.929	32129.47213
659.128	32433.9951
659.326	32685.41701
659.525	32474.87434
659.724	32597.51753
659.922	32562.76779
660.121	32354.28315
660.319	32319.53795
660.518	32276.61827
660.716	32356.327
660.915	32278.66204
661.113	32603.64991
661.312	32266.39944
661.51	32393.11676
661.709	32415.59974
661.907	32384.94119
662.105	32517.79852
662.304	32875.54059
662.502	32961.41004
662.701	32597.51753
662.899	32832.60757
663.097	32992.07881
663.296	32201.00016
663.494	32908.25223
663.692	32436.03904
663.891	32748.78915
664.089	32372.67792
664.287	32513.71046
664.485	32771.27661
664.684	32967.54375
664.882	32305.23128
665.08	31882.20831
665.278	31761.65177
665.476	32084.51293
665.675	32170.34498
665.873	32066.12081
666.071	32127.4285
666.269	32182.60699
666.467	32374.72179
666.665	32393.11676
666.863	32427.86329
667.061	32732.43483
667.259	33032.97144
667.457	33378.55837
667.655	32587.29695
667.853	32162.17034
668.051	32012.98892
668.249	32532.1068
668.447	31947.59763
668.645	32252.09316
668.843	32258.22441
669.041	32335.88855
669.239	32190.78171
669.437	32397.20455
669.635	32123.34127
669.833	32299.09989
670.031	32411.5119
670.229	32452.39065
670.426	32499.40232
670.624	32070.20793
670.822	32346.10775
671.02	32487.13829
671.218	32509.62241
671.415	31859.73118
671.613	31700.35426
671.811	31800.47436
672.009	31553.2467
672.206	31780.04134
672.404	31679.92211
672.602	31630.88568
672.799	32458.52254
672.997	32319.53795
673.195	32033.4241
673.392	32166.25766
673.59	32478.96232
673.788	31769.82489
673.985	31984.37999
674.183	31765.73833
674.38	31996.64091
674.578	32335.88855
674.775	31927.16326
674.973	32094.73084
675.17	32276.61827
675.368	32374.72179
675.565	31884.2517
675.763	32008.9019
675.96	31743.26235
676.158	31459.26594
676.355	30966.94325
676.553	31430.66379
676.75	30985.32719
676.947	31716.7001
677.145	31118.1035
677.342	31929.20669
677.539	31657.44696
677.737	31780.04134
677.934	31798.43105
678.131	31906.72908
678.329	31042.52238
678.526	31453.13688
678.723	31545.07432
678.92	31972.11913
679.118	31283.57205
679.315	31510.342
679.512	31393.89008
679.709	31543.03122
679.906	31130.36009
680.104	31716.7001
680.301	31267.22903
680.498	31071.12041
680.695	31540.98814
680.892	31385.71821
681.089	31042.52238
681.286	31359.15983
681.483	30648.3063
681.68	31050.69322
681.877	31120.14626
682.075	31212.07207
682.272	31342.81634
682.469	31557.3329
682.665	31318.3013
682.862	31028.22348
683.059	31400.01899
683.256	31594.10901
683.453	31093.59049
683.65	30601.33053
683.847	30901.5791
684.044	30591.1185
684.241	31099.71872
684.438	31400.01899
684.635	31109.93247
684.831	31181.42979
685.028	31216.15773
685.225	30783.1102
685.422	30817.83336
685.619	30938.34626
685.815	30421.6034
686.012	30803.53554
686.209	30486.95759
686.405	30599.28812
686.602	30634.00925
686.799	30570.69453
686.996	30734.08992
687.192	30870.94014
687.389	30636.05168
687.586	30595.2033
687.782	31064.99223
687.979	30930.17574
688.175	30597.24571
688.372	30734.08992
688.568	30609.50018
688.765	30854.5995
688.962	30848.47178
689.158	30858.68465
689.355	30732.04743
689.551	30405.26505
689.748	30346.0392
689.944	30231.67492
690.14	30152.03057
690.337	30464.49194
690.533	30548.22831
690.73	30021.33599
690.926	30693.24029
691.123	30350.12371
691.319	30317.44777
691.515	30180.62064
691.712	29915.15008
691.908	29741.58346
692.104	30068.30381
692.301	29896.77206
692.497	29539.43933
692.693	29811.00915
692.889	30252.09683
693.086	30213.29529
693.282	30039.71463
693.478	30084.64058
693.674	29913.10808
693.87	30033.5884
694.067	29941.69627
694.263	29631.32172
694.459	29418.97457
694.655	29933.52819
694.851	29943.73829
695.047	29568.02473
695.243	29710.95488
695.439	29694.61974
695.635	29557.81563
695.831	30013.16773
696.027	29643.57287
696.224	29708.91299
696.42	29551.69019
696.615	29498.6034
696.811	29547.60656
697.007	29220.9303
697.203	29194.38903
697.399	29100.47519
697.595	29212.76374
697.791	28853.45143
697.987	28745.25572
698.183	29551.69019
698.379	28777.91827
698.575	29706.87109
698.77	29478.1856
698.966	29231.13853
699.162	29447.55909
699.358	29633.36357
699.554	28990.2313
699.749	29208.68046
699.945	29169.88956
700.141	28971.85761
700.337	29131.09903
700.532	29137.22382
700.728	29235.22183
700.924	29237.26348
701.119	28771.79402
701.315	28532.95572
701.511	28735.04873
701.706	28988.18978
701.902	28896.32223
702.097	29461.85143
702.293	28777.91827
702.489	28224.73289
702.684	28475.79997
702.88	28388.0267
703.075	28126.75996
703.271	28537.0383
703.466	28784.04253
703.662	28779.95969
703.857	28830.99547
704.053	28818.74683
704.248	28292.09075
704.443	28412.52137
704.639	28441.09868
704.834	28933.06899
705.03	28206.36278
705.225	28239.02082
705.42	28153.29405
705.616	28490.08883
705.811	27808.36579
706.006	27971.64139
706.202	28359.44979
706.397	27865.51141
706.592	28261.47339
706.787	28641.14565
706.983	28379.86185
707.178	28651.3524
707.373	28504.37774
707.568	28763.62837
707.763	28616.64956
707.959	28400.27402
708.154	28520.70799
708.349	28408.43892
708.544	28334.95546
708.739	27826.73393
708.934	28328.8319
709.129	28155.33514
709.324	27718.56739
709.519	28439.05743
709.714	27665.50577
709.909	28092.06182
710.104	27430.82004
710.299	27567.54801
710.494	27616.52654
710.689	28257.3911
710.884	27936.94471
711.079	28559.4926
711.274	28153.29405
711.469	28049.19987
711.664	27981.84636
711.859	28410.48014
712.054	28514.58414
712.249	28565.61652
712.443	27769.58893
712.638	27863.47048
712.833	27589.99642
713.028	28139.00644
713.223	27636.93447
713.417	27979.80537
713.612	27477.75588
713.807	27424.69802
714.002	27636.93447
714.196	27820.6112
714.391	27861.42955
714.586	28198.19831
714.78	28343.12022
714.975	28377.82064
715.17	27561.42574
715.364	27359.39722
715.559	27530.81457
715.754	27406.33204
715.948	27330.82853
716.143	27039.03457
716.337	26959.45922
716.532	27030.8729
716.726	27255.32679
716.921	27334.90976
717.115	27516.52946
717.31	27612.44497
717.504	27228.79958
717.699	27700.19981
717.893	27171.6648
718.088	27475.71517
718.282	26937.01528
718.476	26749.3091
718.671	26571.81588
718.865	26524.89433
719.059	26737.06782
719.254	26679.94257
719.448	26665.66144
719.642	26561.61547
719.837	26480.01362
720.031	26486.13367
720.225	26110.79777
720.419	26712.58543
720.614	26445.3336
720.808	26971.70145
721.002	26790.11374
721.196	27008.42842
721.39	26765.63088
721.585	26665.66144
721.779	26461.65355
721.973	26335.17662
722.167	26398.41431
722.361	26524.89433
722.555	27036.99415
722.749	26482.05364
722.943	26830.91897
723.137	26469.81357
723.331	26263.78113
723.525	26261.74129
723.719	25931.30984
723.913	26396.37436
724.107	25762.03302
724.301	26108.75806
724.495	25968.02215
724.689	25800.782
724.883	25723.28473
725.077	25861.96598
725.271	25759.99362
725.465	25598.88705
725.659	25678.41916
725.853	26098.55952
726.046	26288.25935
726.24	26300.49856
726.434	25880.3215
726.628	26114.8772
726.822	25413.32397
727.015	25876.24248
727.209	25319.52934
727.403	25486.73153
727.596	25295.06191
727.79	25929.27028
727.984	26247.46245
728.177	26310.69794
728.371	25953.74507
728.565	25668.22257
728.758	25727.36347
728.952	26039.40887
729.146	25658.02603
729.339	25833.41324
729.533	25666.18326
729.726	25578.49469
729.92	25688.6158
730.113	26178.10927
730.307	25808.93976
730.5	25851.76853
730.694	25947.62635
730.887	26037.36922
731.081	25835.45271
731.274	25927.23073
731.468	25360.30907
731.661	25768.15123
731.854	25704.93052
732.048	25462.26205
732.241	25468.37939
732.435	25855.8475
732.628	26235.22351
732.821	25786.50598
733.014	25959.86381
733.208	26153.63214
733.401	25686.57647
733.594	25529.55383
733.788	25876.24248
733.981	26145.47316
734.174	26061.84515
734.367	25819.13701
734.56	25829.33431
734.754	25207.38949
734.947	25203.3118
735.14	25266.51696
735.333	25301.17874
735.526	25144.18628
735.719	24797.62668
735.912	25250.20575
736.105	25166.61298
736.298	25270.59479
736.491	25435.75377
736.684	25488.77067
736.877	25193.11761
737.07	25180.88466
737.263	25462.26205
737.456	25598.88705
737.649	25250.20575
737.842	25959.86381
738.035	25706.96987
738.228	25513.24047
738.421	25456.14472
738.614	25737.56034
738.807	25333.80215
739	25152.34141
739.192	25237.97244
739.385	25129.91488
739.578	24903.62605
739.771	25023.90221
739.964	24693.67204
740.156	24879.16409
740.349	24540.80919
740.542	25231.85581
740.735	24467.44005
740.927	25240.01132
741.12	24453.17421
741.313	24585.64751
741.505	24275.8809
741.698	24330.90083
741.891	24510.23831
742.083	24463.36408
742.276	24068.04559
742.468	23972.28803
742.661	24192.33584
742.854	24504.1242
743.046	24522.46659
743.239	24555.07579
743.431	24775.20456
743.624	24127.13312
743.816	23990.6241
744.009	24176.0349
744.201	24068.04559
744.393	24408.33955
744.586	24015.07255
744.778	24304.40951
744.971	24161.77172
745.163	24546.92343
745.355	24561.19009
745.548	24322.7496
745.74	24449.09828
745.932	23988.58675
746.125	23776.7177
746.317	24072.12052
746.509	24002.84827
746.702	24143.43354
746.894	24013.03517
747.086	24178.07251
747.278	23905.05773
747.471	23650.42622
747.663	23786.903
747.855	23746.16227
748.047	23831.71916
748.239	23886.72273
748.431	24288.10738
748.623	24100.64532
748.815	23866.35079
749.008	23962.10142
749.2	23962.10142
749.392	23941.72841
749.584	23709.49662
749.776	24345.16557
749.968	24041.55883
750.16	24010.99778
750.352	23678.94265
750.544	23628.02087
750.736	24173.9973
750.928	24261.61679
751.12	23729.8663
751.311	23821.53354
751.503	23925.43022
751.695	23913.20669
751.887	23434.53547
752.079	23756.34734
752.271	23247.18699
752.463	23841.90485
752.654	23528.21967
752.846	23852.09061
753.038	23560.80701
753.23	23801.16253
753.421	23585.24803
753.613	23630.05771
753.805	23884.68553
753.997	23621.91038
754.188	24047.67112
754.38	23848.01629
754.572	23774.68065
754.763	23668.75815
754.955	23346.96708
755.146	23640.24193
755.338	23261.44082
755.53	23401.9512
755.721	23289.94895
755.913	23591.35836
756.104	23070.04556
756.296	22740.26327
756.487	23151.48682
756.679	22964.17984
756.87	23167.77571
757.062	22964.17984
757.253	22746.36953
757.445	23086.33339
757.636	22988.60959
757.827	23063.93768
758.019	22911.25038
758.21	22626.28543
758.401	22605.9334
758.593	22764.68851
758.784	22491.96861
758.975	22443.12999
759.167	22343.42427
759.358	22713.80315
759.549	22494.00359
759.74	22520.45876
759.932	22483.82869
760.123	22099.28424
760.314	22284.41889
760.505	21938.58813
760.696	21718.94094
760.888	21818.59011
761.079	21836.89403
761.27	22310.86919
761.461	22166.41742
761.652	22062.66786
761.843	22074.87318
762.034	22158.27985
762.225	21889.77377
762.416	21836.89403
762.607	21659.9693
762.798	21885.706
762.989	22060.63365
763.18	22455.33945
763.371	21875.53666
763.562	21869.4351
763.753	21863.33357
763.944	21672.17006
764.135	21460.71031
764.326	21847.063
764.517	21395.65441
764.708	21444.44595
764.899	21247.26098
765.089	21243.19571
765.28	21109.05086
765.471	21165.95864
765.662	20816.43302
765.853	21151.73139
766.043	21170.0236
766.234	21312.30752
766.425	20881.45183
766.615	21155.7963
766.806	21176.12108
766.997	21497.30605
767.187	21141.5692
767.378	21393.62148
767.569	21029.79179
767.759	21462.74338
767.95	21308.24199
768.141	21285.88186
768.331	21009.46995
768.522	20804.24246
768.712	20497.49606
768.903	20690.47113
769.093	20682.34511
769.284	20623.43342
769.474	20395.94539
769.665	20613.27659
769.855	20552.33778
770.046	20597.02587
770.236	20611.24523
770.426	20544.21289
770.617	20337.0508
770.807	20255.82268
770.998	20148.20578
771.188	20290.34381
771.378	20375.63651
771.569	20377.66738
771.759	20337.0508
771.949	20359.38971
772.139	20702.6603
772.33	20219.27222
772.52	20146.17538
772.71	20310.65092
772.9	20085.26552
773.09	20302.52803
773.281	19723.94482
773.471	19861.96173
773.661	19504.78128
773.851	19614.35696
774.041	19951.27714
774.231	19622.47416
774.421	19259.29457
774.611	19026.03658
774.802	19454.05591
774.992	19206.55325
775.182	19504.78128
775.372	19565.65515
775.562	19482.4618
775.752	19391.16006
775.942	18926.66472
776.131	19115.27674
776.321	19111.2202
776.511	19293.78079
776.701	19200.46789
776.891	19305.95268
777.081	19070.65568
777.271	19086.88129
777.461	19005.75582
777.651	19277.55183
777.84	19036.17711
778.03	19480.43278
778.22	19299.86671
778.41	19101.07892
778.599	19058.48664
778.789	18766.47323
778.979	18888.13538
779.169	18890.1632
779.358	18602.2519
779.548	19265.38029
779.738	19103.10717
779.927	19151.78635
780.117	19133.53138
780.307	18845.55199
780.496	18695.51023
780.686	18663.07161
780.875	18904.35808
781.065	18784.72164
781.254	18634.68864
781.444	18354.95418
781.633	18263.75207
781.823	18312.39226
782.012	18367.11504
782.202	18579.95221
782.391	18322.5259
782.581	18361.0346
782.77	18194.8488
782.96	18113.79157
783.149	17749.1046
783.338	18138.10813
783.528	17915.22571
783.717	17603.26088
783.906	17813.92961
784.096	17870.65436
784.285	18152.29303
784.474	18006.39967
784.663	18050.97622
784.853	17949.66837
785.042	18294.15193
785.231	18093.52818
785.42	17907.1217
785.61	17627.56698
785.799	17763.28477
785.988	17896.99177
786.177	17556.6755
786.366	17686.30867
786.555	18026.66152
786.744	17684.28305
786.933	17194.17623
787.122	17566.80261
787.312	17402.7532
787.501	17354.14989
787.69	17327.82383
787.879	17554.65009
788.068	17161.77872
788.257	17556.6755
788.445	17455.40878
788.634	17882.81002
788.823	17497.93984
789.012	17378.45132
789.201	17056.49183
789.39	16890.47747
789.579	17194.17623
789.768	17206.32548
789.957	17238.724
790.145	17084.83756
790.334	17024.09737
790.523	16607.0775
790.712	16629.34297
790.9	16977.53155
791.089	16704.23793
791.278	17005.8758
791.467	16882.37966
791.655	17279.22321
791.844	16906.67322
792.033	16854.03765
792.221	16645.53621
792.41	16435.03501
792.599	16165.86768
792.787	16692.09259
792.976	16358.1267
793.164	16769.01455
793.353	16435.03501
793.541	16833.79366
793.73	17038.26986
793.918	16914.77115
794.107	16222.53184
794.295	16439.08289
794.484	16406.70004
794.672	16287.29255
794.861	16337.88813
795.049	16665.77796
795.238	16463.37037
795.426	16536.23461
795.614	16062.66124
795.803	16129.44141
795.991	15989.81199
796.179	16062.66124
796.368	15825.90757
796.556	15991.83556
796.744	15751.04023
796.932	16615.174
797.121	16293.36396
797.309	15953.38806
797.497	16056.59039
797.685	16153.72553
797.874	16127.41774
798.062	16082.89747
798.25	15955.4116
798.438	15862.33007
798.626	15846.14225
798.814	15700.45499
799.002	15572.98267
799.19	15615.47308
799.378	15635.70673
799.566	15904.82348
799.755	15457.65307
799.943	15769.25107
800.131	15914.94104
800.318	16289.31635
800.506	15880.54147
800.694	15577.02936
800.882	15490.02609
801.07	15829.9545
801.258	15613.44972
801.446	15991.83556
801.634	15627.61326
801.822	15479.90951
802.01	15239.138
802.197	15419.21029
802.385	15352.44162
802.573	15678.19768
802.761	15680.22106
802.949	15617.49644
803.136	15471.81625
803.324	15271.51039
803.512	15052.99698
803.699	15067.15991
803.887	15311.97595
804.075	15271.51039
804.262	15210.81219
804.45	15512.28263
804.638	15678.19768
804.825	15872.4475
805.013	15479.90951
805.201	15635.70673
805.388	15722.71242
805.576	15637.7301
805.763	15581.07606
805.951	15350.41833
806.138	15403.0239
806.326	16040.40155
806.513	15409.09379
806.701	15530.49258
806.888	15182.4864
807.075	15639.75347
807.263	15085.36938
807.45	16003.97698
807.638	15421.23359
807.825	15558.81927
808.012	15708.54859
808.2	15805.67301
808.387	15572.98267
808.574	15676.17429
808.761	15698.4316
808.949	15245.20782
809.136	15516.32928
809.323	15364.58135
809.51	15390.88413
809.698	15218.90528
809.885	15097.50901
810.072	15401.00061
810.259	15405.0472
810.446	15202.71911
810.633	15046.92715
810.82	15259.37074
811.008	15372.6745
811.195	15198.67256
811.382	15354.46491
811.569	15293.76644
811.756	15200.69584
811.943	15396.95402
812.13	15214.85873
812.317	15789.48544
812.504	15643.80022
812.691	15967.55287
812.878	15583.0994
813.064	15838.04836
813.251	15477.88619
813.438	15700.45499
813.625	15352.44162
813.812	15008.48485
813.999	15125.83482
814.186	15299.83627
814.372	15613.44972
814.559	16088.96838
814.746	15494.07273
814.933	15530.49258
815.12	15384.81425
815.306	15160.23042
815.493	14899.2271
815.68	15494.07273
815.866	14996.34515
816.053	15465.74631
816.24	15311.97595
816.426	15431.3501
816.613	15263.41729
816.799	15439.44331
816.986	15303.88283
817.173	15334.23205
817.359	15069.18318
817.546	15370.65121
817.732	15247.2311
817.919	15328.16221
818.105	15101.55556
818.292	15401.00061
818.478	15093.46247
818.665	15198.67256
818.851	15131.90463
819.037	15299.83627
819.224	14961.94928
819.41	15233.06818
819.597	15273.53367
819.783	15166.30023
819.969	15508.23598
820.156	15154.16061
820.342	14949.80953
820.528	15048.95043
820.714	14741.40755
820.901	14842.57438
821.087	15024.67109
821.273	14970.04243
821.459	14937.66977
821.646	15318.04579
821.832	14680.7065
822.018	14771.7578
822.204	14532.99678
822.39	14727.24404
822.576	14646.30886
822.762	14974.08901
822.948	14615.95775
823.134	14854.71429
823.32	14713.08049
823.507	14603.81724
823.693	14613.93434
823.879	14441.93959
824.065	14583.58297
824.25	14628.09822
824.436	14456.10423
824.622	14595.72355
824.808	14510.73861
824.994	14723.19732
825.18	14450.03368
825.366	14715.10386
825.552	14476.3393
825.738	14563.34858
825.923	14207.19977
826.109	14156.60603
826.295	14245.65017
826.481	14445.98664
826.667	14360.9974
826.852	14363.02098
827.038	14112.08246
827.224	14470.26879
827.409	14223.38949
827.595	14057.43844
827.781	14065.53395
827.966	14358.97381
828.152	13921.83277
828.338	14162.67735
828.523	13757.87554
828.709	13723.46231
828.894	13547.33284
829.08	13719.41364
829.266	13565.55433
829.451	13796.33634
829.637	13948.1452
829.822	14136.36818
830.008	13816.57844
830.193	13940.04911
830.378	13976.48118
830.564	14073.62943
830.749	13514.93836
830.935	13223.34333
831.12	12773.61537
831.305	13450.14658
831.491	13184.86248
831.676	13077.51241
831.861	13093.71704
832.047	13466.34489
832.232	13476.4687
832.417	13257.77221
832.602	13231.44436
832.788	13032.94808
832.973	12801.98419
833.158	12858.71856
833.343	12968.12294
833.528	12856.6924
833.714	13243.59577
833.899	13107.89584
834.084	13154.48171
834.269	13565.55433
834.454	13186.88783
834.639	13225.3686
834.824	13144.35456
835.009	13381.30101
835.194	13401.55018
835.379	13553.4067
835.564	13053.20489
835.749	13512.91368
835.934	13377.25113
836.119	13269.92328
836.304	12666.20894
836.489	12887.08414
836.674	12872.90148
836.859	12824.2732
837.044	12856.6924
837.228	13036.99948
837.413	12818.19445
837.598	12897.21445
837.783	12321.58033
837.968	12889.11021
838.152	12664.18225
838.337	12907.34463
838.522	12550.67765
838.707	13022.81949
838.891	12643.91497
839.076	12508.10838
839.261	12601.35172
839.445	12396.60388
839.63	12250.60333
839.815	12542.56943
839.999	12497.97243
840.184	12447.29022
840.368	12416.87892
840.553	12451.34494
840.737	12652.02196
840.922	12343.88561
841.106	12007.18519
841.291	12082.25078
841.475	11816.4285
841.66	12360.10711
841.844	12228.29447
842.029	12325.6359
842.213	12268.85539
842.397	12536.4882
842.582	12104.56554
842.766	12299.27421
842.951	11960.51735
843.135	11980.80823
843.319	11944.28406
843.504	11954.42992
843.688	11820.48792
843.872	11694.62994
844.056	11923.99172
844.241	12068.05
844.425	11824.5473
844.609	11731.1728
844.793	11852.96204
844.977	11706.81121
845.161	11503.74732
845.346	11643.87117
845.53	11489.52937
845.714	11633.71874
845.898	11550.46018
846.082	11609.35198
846.266	11682.44834
846.45	11641.8407
846.634	11515.93376
846.818	11625.59663
847.002	11056.66357
847.186	11276.20278
847.37	11009.89367
847.554	11156.28461
847.738	11048.53009
847.922	11020.06153
848.106	10914.3021
848.29	10967.18561
848.473	11150.18611
848.657	10759.67497
848.841	11182.71038
849.025	11178.645
849.209	11237.58901
849.392	10983.45592
849.576	11066.83017
849.76	11300.58852
849.944	11060.73024
850.127	11272.13835
850.311	10816.65069
850.495	11044.46328
850.678	11024.1286
850.862	11219.29698
851.046	10792.23366
851.229	10570.36646
851.413	10676.22937
851.596	11036.32954
851.78	10763.74497
851.964	10904.13131
852.147	10382.9871
852.331	10812.58131
852.514	10735.25396
852.698	10633.48106
852.881	10372.8003
853.065	10617.19456
853.248	10421.69394
853.431	10285.18019
853.615	10034.40684
853.798	10478.72706
853.982	10246.45643
854.165	10550.00436
854.348	10207.72778
854.532	10071.11856
854.715	10144.5283
854.898	10450.21177
855.081	10325.93679
855.265	10611.08692
855.448	10001.77032
855.631	9993.61061
855.814	9916.08188
855.997	9818.12056
856.181	9566.93555
856.364	10022.16857
856.547	9795.66626
856.73	9771.16859
856.913	9744.62698
857.096	9834.44982
857.279	9662.94433
857.462	9603.70895
857.645	9393.2137
857.828	9773.21014
858.011	9746.66874
858.194	9667.02905
858.377	9548.54694
858.56	9869.14634
858.743	9687.4517
858.926	9860.98284
859.109	9585.32289
859.292	9595.53753
859.475	9534.2438
859.658	9750.7522
859.841	9575.10786
860.023	9399.34704
860.206	9479.06723
860.389	9630.26436
860.572	9501.54798
860.755	9417.7462
860.937	9225.51145
861.12	9470.89193
861.303	8926.63688
861.486	9049.50679
861.668	8943.0232
861.851	9229.60308
862.034	9133.43179
862.216	9065.88468
862.399	8918.44329
862.581	8883.61736
862.764	8795.50508
862.947	9024.93786
863.129	8775.00906
863.312	8965.55254
863.494	8727.86128
863.677	8551.48293
863.859	8820.09791
864.042	8606.87239
864.224	8528.91292
864.406	8797.55459
864.589	8516.60103
864.771	8606.87239
864.954	8452.97874
865.136	8537.12046
865.318	8288.7067
865.501	8401.65703
865.683	8370.85822
865.865	8399.60391
866.048	8270.21829
866.23	8471.45161
866.412	8146.92138
866.594	8262.00071
866.777	8130.47638
866.959	8054.40154
867.141	8136.6434
867.323	8360.59099
867.505	8354.43041
867.687	8455.03135
867.869	8377.01833
868.052	8565.84448
868.234	8155.1434
868.416	8551.48293
868.598	8259.94627
868.78	8452.97874
868.962	8315.40937
869.144	8179.80754
869.326	7889.82037
869.508	7914.51591
869.69	7844.5375
869.872	8002.98396
870.054	7974.18456
870.236	7943.32362
870.417	7768.35727
870.599	8007.09783
870.781	8002.98396
870.963	8095.5265
871.145	7702.44855
871.327	7731.28626
871.508	7690.08827
871.69	7891.87845
871.872	7760.11985
872.054	8179.80754
872.235	7756.00102
872.417	8058.5144
872.599	7834.24454
872.78	7953.61111
872.962	7788.94933
873.144	7994.75596
873.325	7809.53931
873.507	7912.45806
873.689	7685.96801
873.87	8089.35827
874.052	7834.24454
874.233	7729.22656
874.415	7539.64362
874.596	7795.12655
874.778	7467.47218
874.959	7819.83352
875.141	7743.64402
875.322	7970.07003
875.503	7481.90858
875.685	7475.72168
875.866	7409.71597
876.048	7677.72723
876.229	7688.02815
876.41	7941.26605
876.592	7438.5962
876.773	7720.98755
876.954	7486.03307
877.136	7883.64602
877.317	7739.52485
877.498	7926.86256
877.679	8009.15474
877.86	7879.52969
878.042	7681.84766
878.223	7865.12187
878.404	7720.98755
878.585	7776.59434
878.766	7498.40603
878.947	7737.46524
879.128	7455.09728
879.309	7659.18423
879.49	7587.05624
879.672	7920.68932
879.853	7720.98755
880.034	7930.97795
880.215	7735.4056
880.396	7780.71276
880.576	7982.41337
880.757	7813.65706
880.938	7846.59603
881.119	7994.75596
881.3	7762.17924
881.481	7836.30317
881.662	7823.95106
881.843	7685.96801
882.023	7320.98573
882.204	7710.68832
882.385	7401.46369
882.566	7648.88183
882.747	7519.0259
882.927	7826.0098
883.108	7776.59434
883.289	7826.0098
883.469	7852.7715
883.65	7941.26605
883.831	7924.80484
884.011	7774.53511
884.192	7609.72785
884.373	8017.38216
884.553	7712.74821
884.734	7718.92775
884.914	7566.44345
885.095	8000.92699
885.275	7483.97083
885.456	7648.88183
885.636	7671.54642
885.817	7727.16684
885.997	7844.5375
886.178	7828.06852
886.358	7650.94235
886.538	7677.72723
886.719	7858.94677
886.899	8027.66598
887.08	7935.09325
887.26	7970.07003
887.44	7554.07475
887.621	8015.32533
887.801	7591.17855
887.981	8066.73987
888.161	7710.68832
888.342	7867.18019
888.522	7970.07003
888.702	8023.55251
888.882	7926.86256
889.062	7924.80484
889.242	7741.58445
889.423	7813.65706
889.603	8011.21162
889.783	7982.41337
889.963	7446.84691
890.143	7776.59434
890.323	7345.75172
890.503	7535.52025
890.683	7331.30527
890.863	7638.57889
891.043	7397.33743
891.223	7869.23849
891.403	7865.12187
891.583	7928.92026
891.763	7706.56848
891.943	7747.7631
892.122	7545.82852
892.302	7704.50853
892.482	7461.28482
892.662	7677.72723
892.842	7648.88183
893.022	7688.02815
893.201	7525.21144
893.381	7669.48611
893.561	7648.88183
893.741	7626.21467
893.92	7434.47071
894.1	7508.71623
894.28	7378.76814
894.459	7632.39688
894.639	7275.57321
894.819	7320.98573
894.998	7368.45111
895.178	7574.68882
895.357	7389.08463
895.537	7446.84691
895.716	7455.09728
895.896	7405.58988
896.075	7145.46921
896.255	7135.13972
896.434	7232.21496
896.614	7159.92955
896.793	6951.18133
896.973	7199.17357
897.152	6748.4134
897.331	7141.33748
897.511	6843.61739
897.69	7071.08448
897.87	6918.09126
898.049	6913.95459
898.228	6827.06364
898.407	6831.20221
898.587	6445.92219
898.766	6665.58797
898.945	6487.38848
899.124	6584.79775
899.304	6512.26379
899.483	6818.78622
899.662	6479.09596
899.841	6678.01413
900.02	6559.93216
900.199	6731.85125
900.378	6553.71524
900.557	6603.44476
900.737	6578.58166
900.916	6570.29322
901.095	6327.69218
901.274	6622.0899
901.453	6447.99572
901.632	6568.22106
901.811	6435.55416
901.989	6657.30341
902.168	6462.50982
902.347	6454.21619
902.526	5843.60915
902.705	6257.1329
902.884	5974.62457
903.063	6329.76704
903.242	6036.97998
903.42	6450.06923
903.599	5922.64553
903.778	6157.47371
903.957	5727.07237
904.135	6072.30531
904.314	6001.64785
904.493	6159.55049
904.672	5912.24795
904.85	5675.02313
905.029	5597.96319
905.207	5477.10158
905.386	5147.45723
905.565	5372.84701
905.743	5143.28077
905.922	5437.49176
906.1	4978.23675
906.279	5289.40111
906.457	4959.42512
906.636	5527.12289
906.814	5295.66085
906.993	5356.16083
907.171	4984.50688
907.35	5168.33809
907.528	4913.43329
907.707	4997.04652
907.885	4591.18192
908.063	4779.57589
908.242	4503.20273
908.42	4725.16972
908.598	4417.28072
908.777	4729.35535
908.955	4547.19722
909.133	4595.37043
909.311	4467.58101
909.49	4781.66813
909.668	4771.20671
909.846	5022.1233
910.024	4779.57589
910.202	4913.43329
910.38	4823.50815
910.559	4767.02198
910.737	4478.05865
910.915	4907.16081
911.093	4902.97905
911.271	4842.33318
911.449	4436.14481
911.627	4894.61525
911.805	4750.28216
911.983	4758.65225
912.161	4601.65302
912.339	4685.40169
912.517	4710.51929
912.695	4879.97771
912.872	4825.59991
913.05	5057.64305
913.228	4570.23805
913.406	5030.48149
913.584	4836.05838
913.762	4773.29904
913.939	4888.34215
914.117	5043.01808
914.295	4557.67066
914.473	4729.35535
914.65	4551.38666
914.828	4879.97771
915.006	4712.61227
915.184	4946.88299
915.361	4377.45072
915.539	4702.14712
915.716	4522.05871
915.894	4633.06298
916.072	4440.33659
916.249	4545.10247
916.427	4501.10751
916.604	4706.33325
916.782	4450.81565
916.959	4681.21511
917.137	4494.82173
917.314	4756.55976
917.492	4125.71333
917.669	4463.38981
917.847	4333.41896
918.024	4515.77358
918.201	4276.79271
918.379	4394.22221
918.556	4306.15643
918.733	4545.10247
918.911	4024.93328
919.088	4517.86865
919.265	4048.03292
919.442	4222.24895
919.62	3926.20689
919.797	4295.66987
919.974	3999.73083
920.151	4203.36507
920.328	3949.31709
920.506	4102.62213
920.683	4041.73327
920.86	4316.64245
921.037	4171.88811
921.214	4245.32692
921.391	3985.02804
921.568	4010.23221
921.745	3739.13551
921.922	4136.20849
922.099	4041.73327
922.276	4115.21764
922.453	3705.48823
922.63	3892.58769
922.807	3646.59367
922.984	3663.42221
923.161	3360.32739
923.338	3697.07564
923.514	3495.08287
923.691	3697.07564
923.868	3501.39773
924.045	3703.38511
924.222	3648.69731
924.399	3682.35287
924.575	3362.4335
924.752	3806.41515
924.929	3402.44629
925.105	3461.40087
925.282	3394.02308
925.459	3617.14081
925.635	3427.71425
925.812	3202.32017
925.989	2845.94613
926.165	3284.49584
926.342	3107.47096
926.518	3145.41458
926.695	3018.91598
926.871	3107.47096
927.048	2991.50058
927.224	3202.32017
927.401	3056.87148
927.577	3337.15901
927.754	3073.73898
927.93	3225.5005
928.107	2877.59428
928.283	3212.85693
928.459	2759.42521
928.636	2936.66216
928.812	2791.08188
928.988	2968.30095
929.165	2668.65955
929.341	2816.40501
929.517	2905.02007
929.693	2837.50609
929.87	2630.65757
930.046	2774.1987
930.222	2531.41152
930.398	2769.97777
930.574	2563.08866
930.751	2698.2138
930.927	2465.93727
931.103	2814.29482
931.279	2451.15128
931.455	2563.08866
931.631	2392.00206
931.807	2501.84385
931.983	2301.15014
932.159	2632.7689
932.335	2170.12389
932.511	2522.96385
932.687	2009.4685
932.863	2237.7546
933.039	2144.76016
933.215	2449.03895
933.391	2170.12389
933.566	2489.17131
933.742	2055.97834
933.918	2303.26319
934.094	1927.01159
934.27	1937.5835
934.445	1685.93932
934.621	1806.48248
934.797	1594.99673
934.973	1704.9732
935.148	1561.15666
935.324	1639.4111
935.5	1472.32508
935.675	1611.9166
935.851	1451.17456
936.027	1594.99673
936.202	1385.60808
936.378	1394.06824
936.553	1129.70336
936.729	1375.0329
936.904	1047.23299
937.08	1315.81245
937.255	968.99979
937.431	1007.05811
937.606	956.31416
937.782	914.03062
937.957	742.8165
938.133	810.44948
938.308	704.77757
938.483	728.02317
938.659	675.19421
938.834	626.59793
939.009	531.53761
939.185	681.53331
939.36	520.97704
939.535	580.12066
939.71	512.52884
939.886	605.47113
940.061	436.5057
940.236	487.18564
940.411	419.61437
940.586	434.39422
940.761	463.95624
940.937	520.97704
941.112	402.72406
941.287	421.72573
941.462	362.61382
941.637	377.39057
941.812	371.05758
941.987	339.39489
942.162	428.0599
942.337	318.28862
942.512	335.1735
942.687	318.28862
942.862	320.39917
943.037	335.1735
943.212	267.64093
943.386	301.40489
943.561	297.18413
943.736	271.86117
943.911	311.95708
944.086	297.18413
944.26	252.87071
944.435	244.431
944.61	371.05758
944.785	385.8348
944.959	259.20069
945.134	286.63257
945.309	284.52232
945.483	354.17033
945.658	295.07378
945.833	360.50292
946.007	242.32113
946.182	309.84661
946.357	198.0182
946.531	305.62571
946.706	240.21127
946.88	295.07378
947.055	276.08147
947.229	318.28862
947.404	267.64093
947.578	229.66226
947.752	345.72712
947.927	257.09068
948.101	235.99161
948.276	311.95708
948.45	299.2945
948.624	337.28419
948.799	318.28862
948.973	392.16815
949.147	176.92467
949.321	318.28862
949.496	248.65082
949.67	307.73615
949.844	221.22341
950.018	297.18413
950.193	261.31072
950.367	217.0041
950.541	284.52232
950.715	273.97131
950.889	217.0041
951.063	364.72473
951.237	282.41208
951.411	280.30186
951.585	282.41208
951.759	288.74285
951.933	318.28862
952.107	373.16856
952.281	347.8379
952.455	322.50973
952.629	444.95174
952.803	421.72573
952.977	356.28118
953.151	292.96345
953.325	379.50161
953.499	352.0595
953.672	337.28419
953.846	292.96345
954.02	221.22341
954.194	328.84154
954.368	309.84661
954.541	311.95708
954.715	214.89448
954.889	364.72473
955.062	330.95217
955.236	438.61718
955.41	324.62032
955.583	328.84154
955.757	316.17809
955.93	280.30186
956.104	335.1735
956.278	354.17033
956.451	250.76076
956.625	330.95217
956.798	225.4428
956.972	444.95174
957.145	394.2793
957.319	326.73092
957.492	421.72573
957.665	396.39047
957.839	246.5409
958.012	409.05781
958.185	364.72473
958.359	360.50292
958.532	284.52232
958.705	390.05702
958.879	368.94661
959.052	377.39057
959.225	318.28862
959.398	278.19166
959.572	318.28862
959.745	423.8371
959.918	322.50973
960.091	411.16909
960.264	231.77202
960.438	411.16909
960.611	360.50292
960.784	377.39057
960.957	276.08147
961.13	330.95217
961.303	347.8379
961.476	337.28419
961.649	292.96345
961.822	411.16909
961.995	233.8818
962.168	318.28862
962.341	373.16856
962.514	341.50562
962.686	354.17033
962.859	347.8379
963.032	404.83529
963.205	377.39057
963.378	297.18413
963.551	349.94869
963.723	284.52232
963.896	292.96345
964.069	225.4428
964.242	297.18413
964.414	250.76076
964.587	244.431
964.76	269.75104
964.932	360.50292
965.105	309.84661
965.278	309.84661
965.45	330.95217
965.623	303.51529
965.795	244.431
965.968	311.95708
966.14	301.40489
966.313	233.8818
966.485	254.98069
966.658	269.75104
966.83	352.0595
967.003	233.8818
967.175	185.36184
967.348	320.39917
967.52	269.75104
967.692	276.08147
967.865	269.75104
968.037	242.32113
968.209	225.4428
968.382	191.68993
968.554	166.37868
968.726	269.75104
968.898	193.79933
969.071	263.42077
969.243	261.31072
969.415	278.19166
969.587	151.61516
969.759	176.92467
969.932	217.0041
970.104	204.34665
970.276	208.56572
970.448	191.68993
970.62	233.8818
970.792	204.34665
970.964	191.68993
971.136	174.81543
971.308	225.4428
971.48	141.07043
971.652	136.85268
971.824	174.81543
971.996	200.12766
972.168	189.58055
972.339	267.64093
972.511	269.75104
972.683	151.61516
972.855	176.92467
973.027	200.12766
973.199	219.11374
973.37	225.4428
973.542	223.33309
973.714	143.17933
973.886	143.17933
974.057	276.08147
974.229	107.33087
974.401	276.08147
974.572	166.37868
974.744	141.07043
974.915	168.48784
975.087	225.4428
975.259	149.50617
975.43	107.33087
975.602	191.68993
975.773	119.98255
975.945	202.23715
976.116	136.85268
976.288	202.23715
976.459	153.72418
976.63	191.68993
976.802	160.05133
976.973	117.87389
977.145	132.63502
977.316	191.68993
977.487	185.36184
977.659	90.46319
977.83	145.28826
978.001	73.59693
978.172	113.65661
978.344	170.59702
978.515	217.0041
978.686	86.24649
978.857	162.16043
979.028	109.43943
979.2	202.23715
979.371	187.47118
979.542	56.73213
979.713	153.72418
979.884	31.43768
980.055	101.00532
980.226	166.37868
980.397	117.87389
980.568	92.57157
980.739	56.73213
980.91	103.11382
981.081	136.85268
981.252	134.74384
981.423	126.30869
981.594	166.37868
981.765	82.02988
981.936	128.41744
982.106	134.74384
982.277	75.70514
982.448	124.19996
982.619	157.94226
982.79	138.96154
982.96	111.54801
983.131	107.33087
983.302	151.61516
983.472	122.09124
983.643	96.7884
983.814	56.73213
983.984	39.86879
984.155	50.4082
984.326	48.30027
984.496	31.43768
984.667	10.36155
984.837	48.30027
985.008	132.63502
985.178	82.02988
985.349	101.00532
985.519	90.46319
985.69	48.30027
985.86	65.16435
986.031	90.46319
986.201	107.33087
986.371	122.09124
986.542	109.43943
986.712	151.61516
986.882	69.38059
987.053	33.54542
987.223	109.43943
987.393	-2.28298
987.563	73.59693
987.734	73.59693
987.904	56.73213
988.074	90.46319
988.244	96.7884
988.414	31.43768
988.585	107.33087
988.755	6.14661
988.925	46.19237
989.095	10.36155
989.265	128.41744
989.435	58.84015
989.605	88.35483
989.775	39.86879
989.945	50.4082
990.115	107.33087
990.285	73.59693
990.455	73.59693
990.625	73.59693
990.795	31.43768
990.965	111.54801
991.134	77.81336
991.304	73.59693
991.474	27.22227
991.644	84.13817
991.814	44.08449
991.984	58.84015
992.153	39.86879
992.323	39.86879
992.493	52.51615
992.662	94.67998
992.832	111.54801
993.002	48.30027
993.171	23.00695
993.341	92.57157
993.511	52.51615
993.68	-23.35526
993.85	113.65661
994.019	23.00695
994.189	52.51615
994.358	-10.71218
994.528	-17.03383
994.697	90.46319
994.867	46.19237
995.036	117.87389
995.206	126.30869
995.375	-27.56942
995.544	39.86879
995.714	-0.17561
995.883	124.19996
996.052	65.16435
996.222	-0.17561
996.391	35.65319
996.56	52.51615
996.73	1.93177
996.899	56.73213
997.068	6.14661
997.237	25.11459
997.406	6.14661
997.576	14.57659
997.745	39.86879
997.914	48.30027
998.083	77.81336
998.252	8.25407
998.421	1.93177
998.59	56.73213
998.759	69.38059
998.928	48.30027
999.097	46.19237
999.266	23.00695
999.435	98.89685
999.604	50.4082
999.773	-10.71218
999.942	75.70514
1000.111	101.00532
1000.28	10.36155
1000.448	29.32996
1000.617	56.73213
1000.786	103.11382
1000.955	20.89932
1001.124	10.36155
1001.292	-10.71218
1001.461	35.65319
1001.63	-25.46235
1001.798	-0.17561
1001.967	84.13817
1002.136	6.14661
1002.304	58.84015
1002.473	79.92161
1002.642	-6.49763
1002.81	46.19237
1002.979	75.70514
1003.147	16.68414
1003.316	-35.99745
1003.484	67.27246
1003.653	14.57659
1003.821	23.00695
1003.99	-19.141
1004.158	52.51615
1004.327	65.16435
1004.495	96.7884
1004.663	33.54542
1004.832	-10.71218
1005	-25.46235
1005.168	33.54542
1005.337	33.54542
1005.505	8.25407
1005.673	60.94819
1005.842	1.93177
1006.01	-14.92664
1006.178	33.54542
1006.346	-21.24814
1006.514	1.93177
1006.683	1.93177
1006.851	-54.95905
1007.019	31.43768
1007.187	10.36155
1007.355	48.30027
1007.523	20.89932
1007.691	-8.60492
1007.859	25.11459
1008.027	1.93177
1008.195	-14.92664
1008.363	-52.8523
1008.531	52.51615
1008.699	14.57659
1008.867	44.08449
1009.035	-10.71218
1009.203	6.14661
1009.37	67.27246
1009.538	25.11459
1009.706	31.43768
1009.874	39.86879
1010.042	-35.99745
1010.209	4.03918
1010.377	65.16435
1010.545	1.93177
1010.713	101.00532
1010.88	-27.56942
1011.048	35.65319
1011.216	-0.17561
1011.383	-33.89048
1011.551	-48.63874
1011.718	12.46906
1011.886	-2.28298
1012.054	8.25407
1012.221	12.46906
1012.389	10.36155
1012.556	23.00695
1012.724	-14.92664
1012.891	1.93177
1013.058	16.68414
1013.226	58.84015
1013.393	-4.39031
1013.561	-23.35526
1013.728	-0.17561
1013.895	1.93177
1014.063	23.00695
1014.23	126.30869
1014.397	-8.60492
1014.565	6.14661
1014.732	77.81336
1014.899	-10.71218
1015.066	73.59693
1015.233	-10.71218
1015.401	31.43768
1015.568	-27.56942
1015.735	-12.81942
1015.902	10.36155
1016.069	73.59693
1016.236	1.93177
1016.403	-14.92664
1016.57	12.46906
1016.737	-73.91861
1016.904	58.84015
1017.071	14.57659
1017.238	54.62413
1017.405	-6.49763
1017.572	65.16435
1017.739	25.11459
1017.906	6.14661
1018.073	14.57659
1018.24	39.86879
1018.407	39.86879
1018.573	44.08449
1018.74	8.25407
1018.907	-0.17561
1019.074	14.57659
1019.241	52.51615
1019.407	-17.03383
1019.574	23.00695
1019.741	1.93177
1019.907	-2.28298
1020.074	-10.71218
1020.241	-2.28298
1020.407	16.68414
1020.574	16.68414
1020.74	-35.99745
1020.907	27.22227
1021.073	50.4082
1021.24	-31.78348
1021.406	8.25407
1021.573	-21.24814
1021.739	-8.60492
1021.906	44.08449
1022.072	-21.24814
1022.239	-4.39031
1022.405	39.86879
1022.571	-8.60492
1022.738	-14.92664
1022.904	4.03918
1023.07	16.68414
1023.237	77.81336
1023.403	58.84015
1023.569	14.57659
1023.735	-44.42508
1023.902	39.86879
1024.068	-10.71218
1024.234	-12.81942
1024.4	124.19996
1024.566	46.19237
1024.732	18.79172
1024.898	27.22227
1025.065	-0.17561
1025.231	-6.49763
1025.397	50.4082
1025.563	-23.35526
1025.729	-17.03383
1025.895	-31.78348
1026.061	56.73213
1026.227	-50.74553
1026.392	31.43768
1026.558	-42.31821
1026.724	-35.99745
1026.89	48.30027
1027.056	-19.141
1027.222	73.59693
1027.388	18.79172
1027.553	-8.60492
1027.719	-2.28298
1027.885	14.57659
1028.051	-48.63874
1028.216	6.14661
1028.382	25.11459
1028.548	25.11459
1028.713	6.14661
1028.879	-23.35526
1029.045	44.08449
1029.21	8.25407
1029.376	-17.03383
1029.541	-8.60492
1029.707	-63.38577
1029.873	-78.13156
1030.038	-35.99745
1030.204	-48.63874
1030.369	-48.63874
1030.534	-27.56942
1030.7	-23.35526
1030.865	-38.10439
1031.031	31.43768
1031.196	-61.27913
1031.361	-10.71218
1031.527	-19.141
1031.692	-50.74553
1031.857	44.08449
1032.023	10.36155
1032.188	-31.78348
1032.353	-23.35526
1032.518	-46.53192
1032.684	-10.71218
1032.849	25.11459
1033.014	20.89932
1033.179	-44.42508
1033.344	-35.99745
1033.509	35.65319
1033.674	1.93177
1033.839	31.43768
1034.004	50.4082
1034.17	31.43768
1034.335	31.43768
1034.5	-42.31821
1034.664	-27.56942
1034.829	-0.17561
1034.994	82.02988
1035.159	35.65319
1035.324	-2.28298
1035.489	-78.13156
1035.654	8.25407
1035.819	46.19237
1035.984	-17.03383
1036.148	-8.60492
1036.313	23.00695
1036.478	-19.141
1036.643	23.00695
1036.807	-54.95905
1036.972	39.86879
1037.137	14.57659
1037.301	23.00695
1037.466	-6.49763
1037.631	-23.35526
1037.795	-8.60492
1037.96	58.84015
1038.124	-59.17246
1038.289	-42.31821
1038.454	-0.17561
1038.618	39.86879
1038.783	-31.78348
1038.947	52.51615
1039.111	4.03918
1039.276	65.16435
1039.44	-69.70555
1039.605	14.57659
1039.769	-54.95905
1039.933	-10.71218
1040.098	18.79172
1040.262	-25.46235
1040.426	-8.60492
1040.591	73.59693
1040.755	31.43768
1040.919	14.57659
1041.083	-52.8523
1041.248	8.25407
1041.412	14.57659
1041.576	-4.39031
1041.74	35.65319
1041.904	60.94819
1042.068	-19.141
1042.232	-23.35526
1042.397	-35.99745
1042.561	8.25407
1042.725	20.89932
1042.889	-44.42508
1043.053	-21.24814
1043.217	8.25407
1043.381	-0.17561
1043.544	-10.71218
1043.708	39.86879
1043.872	-86.55716
1044.036	-21.24814
1044.2	27.22227
1044.364	-10.71218
1044.528	-23.35526
1044.691	1.93177
1044.855	-17.03383
1045.019	-25.46235
1045.183	-27.56942
1045.346	41.97663
1045.51	-27.56942
1045.674	8.25407
1045.837	16.68414
1046.001	31.43768
1046.165	-17.03383
1046.328	-0.17561
1046.492	29.32996
1046.655	90.46319
1046.819	31.43768
1046.983	6.14661
1047.146	35.65319
1047.31	-17.03383
1047.473	-17.03383
1047.636	14.57659
1047.8	37.76098
1047.963	-8.60492
1048.127	-6.49763
1048.29	60.94819
