Data from absorb_only_2.23.25_USB4F045381__63__0168.txt Node

Date: Sun Feb 23 19:24:42 EST 2025
User: ssocol
Spectrometer: USB4F04538
Trigger mode: 4
Integration Time (sec): 2.600000E-3
Scans to average: 1
Electric dark correction enabled: true
Nonlinearity correction enabled: true
Boxcar width: 0
XAxis mode: Wavelengths
Number of Pixels in Spectrum: 3648
>>>>>Begin Spectral Data<<<<<
345.52	-10.71218
345.736	-10.71218
345.952	-10.71218
346.168	-50.74553
346.384	54.62413
346.6	16.68414
346.816	6.14661
347.032	10.36155
347.248	-6.49763
347.464	-21.24814
347.68	-10.71218
347.896	33.54542
348.112	-12.81942
348.328	1.93177
348.544	-46.53192
348.76	41.97663
348.975	-12.81942
349.191	25.11459
349.407	-33.89048
349.623	-80.238
349.839	67.27246
350.055	-54.95905
350.27	-17.03383
350.486	-40.21131
350.702	84.13817
350.918	27.22227
351.133	29.32996
351.349	18.79172
351.565	29.32996
351.781	23.00695
351.996	16.68414
352.212	-35.99745
352.428	29.32996
352.644	71.48875
352.859	-65.49239
353.075	-33.89048
353.291	-25.46235
353.506	-4.39031
353.722	8.25407
353.938	27.22227
354.153	-0.17561
354.369	-82.34441
354.584	-25.46235
354.8	4.03918
355.016	-8.60492
355.231	1.93177
355.447	-0.17561
355.662	-76.0251
355.878	10.36155
356.093	-33.89048
356.309	-6.49763
356.524	-14.92664
356.74	16.68414
356.955	1.93177
357.171	10.36155
357.386	65.16435
357.602	4.03918
357.817	-8.60492
358.033	4.03918
358.248	-44.42508
358.464	44.08449
358.679	-46.53192
358.895	-25.46235
359.11	-46.53192
359.325	35.65319
359.541	52.51615
359.756	-109.72541
359.972	18.79172
360.187	33.54542
360.402	-25.46235
360.618	20.89932
360.833	31.43768
361.048	12.46906
361.264	41.97663
361.479	84.13817
361.694	14.57659
361.909	-73.91861
362.125	-12.81942
362.34	31.43768
362.555	46.19237
362.77	-10.71218
362.986	8.25407
363.201	25.11459
363.416	8.25407
363.631	-109.72541
363.847	-25.46235
364.062	12.46906
364.277	50.4082
364.492	-6.49763
364.707	50.4082
364.922	56.73213
365.138	-0.17561
365.353	29.32996
365.568	-6.49763
365.783	-29.67646
365.998	27.22227
366.213	-0.17561
366.428	8.25407
366.643	33.54542
366.858	37.76098
367.073	35.65319
367.288	-14.92664
367.503	-6.49763
367.718	-25.46235
367.933	-8.60492
368.148	8.25407
368.363	-2.28298
368.578	12.46906
368.793	35.65319
369.008	-23.35526
369.223	-29.67646
369.438	50.4082
369.653	6.14661
369.868	-2.28298
370.083	25.11459
370.298	18.79172
370.513	27.22227
370.728	-67.59898
370.943	29.32996
371.157	8.25407
371.372	63.05626
371.587	12.46906
371.802	29.32996
372.017	-17.03383
372.232	-38.10439
372.446	-25.46235
372.661	-50.74553
372.876	-31.78348
373.091	-17.03383
373.306	-46.53192
373.52	-25.46235
373.735	-71.81209
373.95	25.11459
374.165	-17.03383
374.379	44.08449
374.594	-4.39031
374.809	-2.28298
375.023	10.36155
375.238	-101.30096
375.453	-97.08857
375.667	-0.17561
375.882	-12.81942
376.097	-63.38577
376.311	18.79172
376.526	16.68414
376.741	50.4082
376.955	6.14661
377.17	16.68414
377.384	77.81336
377.599	-0.17561
377.813	16.68414
378.028	-17.03383
378.242	25.11459
378.457	-46.53192
378.672	75.70514
378.886	-4.39031
379.101	16.68414
379.315	63.05626
379.53	10.36155
379.744	-31.78348
379.958	-31.78348
380.173	-6.49763
380.387	-42.31821
380.602	-50.74553
380.816	46.19237
381.031	29.32996
381.245	41.97663
381.459	8.25407
381.674	-25.46235
381.888	4.03918
382.103	37.76098
382.317	6.14661
382.531	67.27246
382.746	-73.91861
382.96	25.11459
383.174	-33.89048
383.388	27.22227
383.603	29.32996
383.817	33.54542
384.031	33.54542
384.246	-19.141
384.46	-0.17561
384.674	-8.60492
384.888	-23.35526
385.103	48.30027
385.317	-0.17561
385.531	119.98255
385.745	27.22227
385.959	86.24649
386.174	41.97663
386.388	35.65319
386.602	44.08449
386.816	-27.56942
387.03	29.32996
387.244	-31.78348
387.458	50.4082
387.672	63.05626
387.887	10.36155
388.101	-12.81942
388.315	-33.89048
388.529	-17.03383
388.743	10.36155
388.957	58.84015
389.171	-27.56942
389.385	31.43768
389.599	35.65319
389.813	41.97663
390.027	-4.39031
390.241	-6.49763
390.455	-6.49763
390.669	-8.60492
390.883	12.46906
391.097	27.22227
391.311	-46.53192
391.525	-0.17561
391.738	4.03918
391.952	14.57659
392.166	-8.60492
392.38	52.51615
392.594	-4.39031
392.808	56.73213
393.022	33.54542
393.236	-8.60492
393.449	10.36155
393.663	-31.78348
393.877	25.11459
394.091	67.27246
394.305	-50.74553
394.518	-38.10439
394.732	-27.56942
394.946	8.25407
395.16	-31.78348
395.373	33.54542
395.587	10.36155
395.801	-8.60492
396.015	-40.21131
396.228	-31.78348
396.442	-73.91861
396.656	-59.17246
396.869	65.16435
397.083	39.86879
397.297	-29.67646
397.51	1.93177
397.724	16.68414
397.938	25.11459
398.151	-42.31821
398.365	29.32996
398.578	46.19237
398.792	-8.60492
399.005	44.08449
399.219	-10.71218
399.433	-44.42508
399.646	82.02988
399.86	12.46906
400.073	-21.24814
400.287	8.25407
400.5	8.25407
400.714	8.25407
400.927	71.48875
401.141	-6.49763
401.354	60.94819
401.567	10.36155
401.781	-0.17561
401.994	33.54542
402.208	18.79172
402.421	25.11459
402.635	-14.92664
402.848	1.93177
403.061	-38.10439
403.275	23.00695
403.488	-38.10439
403.701	63.05626
403.915	41.97663
404.128	-0.17561
404.341	-23.35526
404.555	-0.17561
404.768	8.25407
404.981	44.08449
405.195	-4.39031
405.408	18.79172
405.621	29.32996
405.834	-38.10439
406.048	20.89932
406.261	-6.49763
406.474	-0.17561
406.687	-8.60492
406.9	-40.21131
407.114	27.22227
407.327	8.25407
407.54	-31.78348
407.753	-17.03383
407.966	6.14661
408.179	10.36155
408.392	12.46906
408.605	-2.28298
408.819	8.25407
409.032	67.27246
409.245	-23.35526
409.458	41.97663
409.671	16.68414
409.884	-14.92664
410.097	10.36155
410.31	16.68414
410.523	6.14661
410.736	52.51615
410.949	10.36155
411.162	27.22227
411.375	-8.60492
411.588	-12.81942
411.801	-4.39031
412.014	25.11459
412.227	-33.89048
412.44	4.03918
412.653	-21.24814
412.865	86.24649
413.078	-40.21131
413.291	12.46906
413.504	-40.21131
413.717	58.84015
413.93	-31.78348
414.143	-29.67646
414.356	-35.99745
414.568	14.57659
414.781	-12.81942
414.994	14.57659
415.207	20.89932
415.42	79.92161
415.632	20.89932
415.845	20.89932
416.058	58.84015
416.271	44.08449
416.483	75.70514
416.696	-4.39031
416.909	12.46906
417.121	-0.17561
417.334	10.36155
417.547	-21.24814
417.759	14.57659
417.972	14.57659
418.185	-25.46235
418.397	18.79172
418.61	4.03918
418.823	25.11459
419.035	-35.99745
419.248	12.46906
419.46	58.84015
419.673	8.25407
419.885	29.32996
420.098	-40.21131
420.311	41.97663
420.523	73.59693
420.736	25.11459
420.948	-8.60492
421.161	-17.03383
421.373	25.11459
421.586	-2.28298
421.798	-40.21131
422.01	48.30027
422.223	-12.81942
422.435	65.16435
422.648	50.4082
422.86	69.38059
423.073	58.84015
423.285	33.54542
423.497	60.94819
423.71	94.67998
423.922	-29.67646
424.134	18.79172
424.347	-21.24814
424.559	-2.28298
424.771	-14.92664
424.984	77.81336
425.196	12.46906
425.408	44.08449
425.621	4.03918
425.833	16.68414
426.045	8.25407
426.257	29.32996
426.47	-31.78348
426.682	20.89932
426.894	-73.91861
427.106	20.89932
427.318	1.93177
427.531	-33.89048
427.743	-2.28298
427.955	52.51615
428.167	-23.35526
428.379	12.46906
428.591	16.68414
428.804	-12.81942
429.016	25.11459
429.228	6.14661
429.44	-27.56942
429.652	37.76098
429.864	27.22227
430.076	37.76098
430.288	75.70514
430.5	37.76098
430.712	60.94819
430.924	33.54542
431.136	33.54542
431.348	60.94819
431.56	20.89932
431.772	-4.39031
431.984	25.11459
432.196	-38.10439
432.408	4.03918
432.62	4.03918
432.832	63.05626
433.044	84.13817
433.256	41.97663
433.468	41.97663
433.679	113.65661
433.891	16.68414
434.103	58.84015
434.315	39.86879
434.527	-4.39031
434.739	12.46906
434.95	-4.39031
435.162	-0.17561
435.374	6.14661
435.586	-14.92664
435.798	75.70514
436.009	14.57659
436.221	71.48875
436.433	84.13817
436.645	-33.89048
436.856	75.70514
437.068	-2.28298
437.28	33.54542
437.491	63.05626
437.703	31.43768
437.915	27.22227
438.126	37.76098
438.338	-0.17561
438.55	10.36155
438.761	58.84015
438.973	23.00695
439.184	33.54542
439.396	1.93177
439.608	-59.17246
439.819	-12.81942
440.031	-46.53192
440.242	52.51615
440.454	27.22227
440.665	-14.92664
440.877	69.38059
441.088	67.27246
441.3	35.65319
441.511	1.93177
441.723	-2.28298
441.934	-4.39031
442.146	35.65319
442.357	41.97663
442.569	4.03918
442.78	31.43768
442.991	37.76098
443.203	-67.59898
443.414	25.11459
443.626	-17.03383
443.837	-12.81942
444.048	71.48875
444.26	33.54542
444.471	35.65319
444.682	8.25407
444.894	-88.66349
445.105	141.07043
445.316	16.68414
445.528	37.76098
445.739	4.03918
445.95	101.00532
446.161	67.27246
446.373	31.43768
446.584	29.32996
446.795	-59.17246
447.006	75.70514
447.217	115.76524
447.429	10.36155
447.64	58.84015
447.851	-23.35526
448.062	-38.10439
448.273	-40.21131
448.484	86.24649
448.695	58.84015
448.907	58.84015
449.118	-33.89048
449.329	-12.81942
449.54	41.97663
449.751	69.38059
449.962	-2.28298
450.173	33.54542
450.384	41.97663
450.595	4.03918
450.806	27.22227
451.017	101.00532
451.228	33.54542
451.439	-6.49763
451.65	14.57659
451.861	25.11459
452.072	1.93177
452.283	75.70514
452.494	-0.17561
452.705	-14.92664
452.915	25.11459
453.126	77.81336
453.337	52.51615
453.548	63.05626
453.759	8.25407
453.97	54.62413
454.181	44.08449
454.391	18.79172
454.602	-84.4508
454.813	50.4082
455.024	25.11459
455.235	27.22227
455.445	6.14661
455.656	54.62413
455.867	-4.39031
456.078	39.86879
456.288	14.57659
456.499	33.54542
456.71	126.30869
456.921	44.08449
457.131	25.11459
457.342	-8.60492
457.553	84.13817
457.763	25.11459
457.974	-4.39031
458.184	111.54801
458.395	111.54801
458.606	58.84015
458.816	65.16435
459.027	46.19237
459.237	79.92161
459.448	46.19237
459.659	-6.49763
459.869	88.35483
460.08	50.4082
460.29	18.79172
460.501	50.4082
460.711	27.22227
460.922	54.62413
461.132	69.38059
461.343	48.30027
461.553	18.79172
461.764	65.16435
461.974	69.38059
462.184	96.7884
462.395	58.84015
462.605	67.27246
462.816	84.13817
463.026	88.35483
463.236	88.35483
463.447	58.84015
463.657	122.09124
463.867	82.02988
464.078	44.08449
464.288	101.00532
464.498	63.05626
464.709	35.65319
464.919	126.30869
465.129	96.7884
465.339	193.79933
465.55	84.13817
465.76	111.54801
465.97	35.65319
466.18	119.98255
466.391	60.94819
466.601	63.05626
466.811	101.00532
467.021	109.43943
467.231	122.09124
467.441	96.7884
467.651	223.33309
467.862	151.61516
468.072	98.89685
468.282	160.05133
468.492	160.05133
468.702	138.96154
468.912	155.83321
469.122	113.65661
469.332	117.87389
469.542	122.09124
469.752	103.11382
469.962	138.96154
470.172	160.05133
470.382	151.61516
470.592	185.36184
470.802	176.92467
471.012	168.48784
471.222	160.05133
471.432	145.28826
471.642	181.14322
471.852	153.72418
472.062	151.61516
472.272	155.83321
472.482	202.23715
472.691	252.87071
472.901	210.67529
473.111	189.58055
473.321	271.86117
473.531	271.86117
473.741	172.70621
473.95	246.5409
474.16	267.64093
474.37	295.07378
474.58	337.28419
474.79	328.84154
474.999	314.06758
475.209	297.18413
475.419	311.95708
475.628	371.05758
475.838	303.51529
476.048	292.96345
476.258	265.53084
476.467	354.17033
476.677	409.05781
476.886	385.8348
477.096	366.83566
477.306	447.06329
477.515	373.16856
477.725	501.96892
477.935	548.43524
478.144	516.75291
478.354	495.63314
478.563	409.05781
478.773	447.06329
478.982	537.87412
479.192	514.64087
479.401	573.78333
479.611	561.10904
479.82	508.30483
480.03	512.52884
480.239	609.69639
480.449	658.29044
480.658	772.40468
480.868	664.62926
481.077	689.98561
481.287	683.64637
481.496	744.92987
481.705	685.75944
481.915	791.42669
482.124	713.23036
482.333	791.42669
482.543	844.26962
482.752	875.97805
482.961	801.99481
483.171	1074.72225
483.38	859.06665
483.589	907.68835
483.799	920.37296
484.008	926.71537
484.217	990.14304
484.426	1167.76901
484.636	1045.11847
484.845	1136.04754
485.054	1100.09774
485.263	1091.63916
485.472	1123.35923
485.682	1370.80283
485.891	1250.24866
486.1	1229.09956
486.309	1237.55917
486.518	1294.66261
486.727	1288.3177
486.936	1258.70837
487.146	1269.28308
487.355	1275.62793
487.564	1311.58247
487.773	1461.74982
487.982	1438.48424
488.191	1432.13909
488.4	1317.92745
488.609	1453.28961
488.818	1535.77637
489.027	1499.82071
489.236	1561.15666
489.445	1588.65175
489.654	1569.61672
489.863	1690.16909
490.072	1766.30277
490.281	1785.33545
490.49	1740.92537
490.698	1709.20292
490.907	1673.24993
491.116	1842.43143
491.325	1960.84119
491.534	1850.88981
491.743	1791.6796
491.952	2062.32033
492.16	1903.75289
492.369	2075.00412
492.578	1846.66063
492.787	2138.41905
492.996	2070.77622
493.204	2134.19161
493.413	2146.87385
493.622	2248.32109
493.831	2155.32852
494.039	2275.79292
494.248	2081.34592
494.457	2106.71244
494.665	2334.95764
494.874	2544.08269
495.083	2267.34022
495.291	2353.97326
495.5	2377.21348
495.709	2370.87536
495.917	2510.29198
496.126	2512.40399
496.335	2383.5515
496.543	2560.97693
496.752	2387.77681
496.96	2649.65907
497.169	2510.29198
497.377	2537.74716
497.586	2531.41152
497.794	2765.75679
498.003	2537.74716
498.211	2670.77065
498.42	2824.84561
498.628	2780.53
498.837	2784.75079
499.045	2881.81379
499.254	2681.32597
499.462	2976.73739
499.671	2831.17591
499.879	2928.22459
500.087	2757.31466
500.296	2987.2826
500.504	2841.72614
500.713	3063.19691
500.921	3080.06403
501.129	3193.89046
501.338	2945.0995
501.546	3257.10679
501.754	3025.24224
501.962	3202.32017
502.171	3109.57908
502.379	3313.98854
502.587	3050.54591
502.795	3290.81599
503.004	3214.96423
503.212	3366.64567
503.42	3202.32017
503.628	3307.66896
503.837	3240.25057
504.045	3419.29188
504.253	3535.07421
504.461	3354.00895
504.669	3375.0698
504.877	3625.55629
505.085	3381.38772
505.294	3627.66011
505.502	3387.70548
505.71	3484.55774
505.918	3181.24541
506.126	3528.76023
506.334	3490.87288
506.542	3598.20488
506.75	3526.65553
506.958	3678.14619
507.166	3671.83603
507.374	3802.21076
507.582	3726.51836
507.79	3806.41515
507.998	3684.45618
508.206	3919.90368
508.414	3518.23656
508.622	3812.72158
508.83	3724.41543
509.037	3835.84367
509.245	3665.5257
509.453	3734.92987
509.661	3749.64927
509.869	3926.20689
510.077	3850.55647
510.285	3842.14928
510.492	3844.25111
510.7	3943.01455
510.908	3968.22362
511.116	3930.40893
511.324	3785.39241
511.531	4010.23221
511.739	4027.03335
511.947	4006.03172
512.155	4060.63168
512.362	4045.93306
512.57	4048.03292
512.778	4081.62794
512.985	4090.02587
513.193	4123.61423
513.401	4272.59755
513.608	4180.28243
513.816	4106.82072
514.024	4161.39474
514.231	4039.63334
514.439	4354.38766
514.646	4157.19724
514.854	4320.83671
515.061	4119.41598
515.269	4396.31854
515.477	4325.03088
515.684	4471.77214
515.892	4102.62213
516.099	4438.24071
516.307	4314.54529
516.514	4408.89611
516.722	4322.93381
516.929	4624.68748
517.136	4576.52145
517.344	4589.08764
517.551	4496.91701
517.759	4767.02198
517.966	4381.64372
518.173	4540.91289
518.381	4691.6814
518.588	4817.23273
518.796	4630.96914
519.003	4739.81904
519.21	4622.59355
519.418	4760.74472
519.625	4846.51627
519.832	4900.88813
520.039	4689.58818
520.247	4716.79818
520.454	4940.61162
520.661	5068.08876
520.868	4513.6785
521.076	5011.67504
521.283	4798.40523
521.49	4896.70623
521.697	4798.40523
521.904	5107.77718
522.112	4806.77323
522.319	5091.06729
522.526	4915.52407
522.733	5040.9287
522.94	5043.01808
523.147	5124.48559
523.354	4967.78607
523.561	5132.83924
523.768	4907.16081
523.975	5220.53005
524.183	5015.85442
524.39	5199.65501
524.597	5230.9667
524.804	5283.14116
525.011	5203.83021
525.218	5370.76132
525.425	5404.12955
525.632	5216.35523
525.838	5289.40111
526.045	5251.83823
526.252	5218.44265
526.459	5337.38708
526.666	5287.31448
526.873	5437.49176
527.08	5447.91622
527.287	5510.45063
527.494	5335.30099
527.701	5585.46394
527.907	5443.74651
528.114	5462.50948
528.321	5408.30015
528.528	5370.76132
528.735	5531.29072
528.941	5835.28755
529.148	5589.63045
529.355	5883.1316
529.562	5604.21249
529.768	5768.70115
529.975	5479.18607
530.182	5851.93037
530.388	5510.45063
530.595	5945.51812
530.802	5737.48045
531.008	6101.39164
531.215	5833.20709
531.422	5935.12184
531.628	5903.92947
531.835	5960.07193
532.042	5770.78234
532.248	5980.86107
532.455	5995.41207
532.661	6066.07192
532.868	5985.01861
533.074	6178.2405
533.281	5783.26899
533.487	6072.30531
533.694	5949.67647
533.9	6201.08126
534.107	5935.12184
534.313	6093.08173
534.52	6136.70457
534.726	6275.81299
534.933	6009.96191
535.139	6389.92794
535.345	6151.24321
535.552	6427.25932
535.758	6252.98152
535.965	6410.66853
536.171	6236.37503
536.377	6367.1106
536.584	6441.77505
536.79	6456.28963
536.996	6373.33379
537.203	6541.28078
537.409	6464.58317
537.615	6443.84863
537.821	6493.60762
538.028	6584.79775
538.234	6578.58166
538.44	6630.37603
538.646	6342.21574
538.853	6414.81637
539.059	6284.11464
539.265	6806.3694
539.471	6468.7298
539.677	6655.23221
539.883	6702.86396
540.09	6771.18397
540.296	6779.46349
540.502	6800.16069
540.708	6709.0759
540.914	7145.46921
541.12	6870.51412
541.326	6990.46828
541.532	6911.88622
541.738	6847.7556
541.944	6719.42868
542.15	7031.81419
542.356	6961.52079
542.562	7145.46921
542.768	7044.21621
542.974	7151.66663
543.18	7161.99523
543.386	7310.66563
543.592	7223.95514
543.798	7263.18613
544.004	7358.13353
544.21	7242.53924
544.415	7201.23882
544.621	7161.99523
544.827	7265.2507
545.033	7143.40336
545.239	7211.56476
545.445	7535.52025
545.651	7168.19212
545.856	7455.09728
546.062	7188.84697
546.268	7481.90858
546.474	7209.49961
546.679	7252.86296
546.885	7337.49674
547.091	7420.03082
547.297	6980.1304
547.502	7444.78426
547.708	7318.92175
547.914	7483.97083
548.119	7306.53744
548.325	7683.90784
548.531	7240.47442
548.736	7481.90858
548.942	7448.90953
549.147	7422.09373
549.353	7514.9021
549.559	7729.22656
549.764	7376.70478
549.97	7702.44855
550.175	7613.84968
550.381	7650.94235
550.586	7440.65891
550.792	7710.68832
550.997	7747.7631
551.203	7871.29677
551.408	7626.21467
551.614	7902.16851
551.819	7844.5375
552.025	7797.18558
552.23	7774.53511
552.435	7854.82994
552.641	8025.60925
552.846	7846.59603
553.052	7704.50853
553.257	7992.69892
553.462	7778.65356
553.668	7898.05255
553.873	7883.64602
554.078	8179.80754
554.283	7898.05255
554.489	8083.18986
554.694	8027.66598
554.899	7935.09325
555.105	7782.77193
555.31	8381.12498
555.515	8200.35881
555.72	8229.12724
555.925	7961.84073
556.131	8463.24164
556.336	8202.41382
556.541	8155.1434
556.746	8083.18986
556.951	8354.43041
557.156	8132.53207
557.361	8194.19364
557.567	8194.19364
557.772	8327.73256
557.977	8029.72268
558.182	8255.83732
558.387	8309.24751
558.592	8362.64447
558.797	8364.69794
559.002	8331.84014
559.207	8200.35881
559.412	8233.2367
559.617	8405.76321
559.822	8580.2051
560.027	8372.91161
560.232	8498.13193
560.437	8360.59099
560.642	8793.45556
560.847	8364.69794
561.051	8500.18413
561.256	8262.00071
561.461	8635.58747
561.666	8461.1891
561.871	8541.22412
562.076	8670.45087
562.281	8598.6674
562.485	8518.65306
562.69	8682.75432
562.895	8315.40937
563.1	8582.25654
563.305	8643.7911
563.509	8889.76349
563.714	8672.50149
563.919	8455.03135
564.123	8348.26966
564.328	8604.82117
564.533	8569.94761
564.737	8574.05066
564.942	8567.89605
565.147	8766.81014
565.351	8861.08018
565.556	8619.1793
565.761	8526.86098
565.965	8805.75241
566.17	8938.92672
566.374	8815.99929
566.579	8785.2573
566.784	8485.81834
566.988	8934.83018
567.193	8959.40839
567.397	8947.1196
567.602	9051.55409
567.806	8541.22412
568.011	8805.75241
568.215	9080.21443
568.42	9188.68371
568.624	9086.35549
568.828	9018.79524
569.033	8791.40603
569.237	9231.64887
569.442	8859.03124
569.646	8936.87846
569.85	8953.26407
570.055	9233.69465
570.259	8945.07141
570.463	8900.00667
570.668	9053.60137
570.872	9411.61329
571.076	9200.96023
571.281	9344.14164
571.485	9102.73089
571.689	9319.60205
571.893	9521.98334
572.098	9092.49639
572.302	9108.87138
572.506	9180.49903
572.71	8973.7445
572.914	9190.72984
573.119	9153.89692
573.323	9268.47024
573.527	9127.29192
573.731	9333.9171
573.935	9487.24227
574.139	9675.19829
574.343	9245.96894
574.547	9407.52461
574.751	9524.02679
574.955	9487.24227
575.159	9329.82717
575.364	9344.14164
575.568	9297.10533
575.772	9272.56117
575.976	9321.64711
576.18	9483.15478
576.383	9497.46071
576.587	9577.1509
576.791	9605.75177
576.995	9540.37381
577.199	9366.63417
577.403	9438.18816
577.607	9671.1137
577.811	9630.26436
578.015	9256.19706
578.219	9573.06481
578.422	9689.49389
578.626	9609.83736
578.83	9509.72232
579.034	9575.10786
579.238	9642.51981
579.442	9622.09375
579.645	9658.85955
579.849	9850.77813
580.053	9528.11364
580.257	9789.54205
580.46	9738.50163
580.664	9879.35038
580.868	9432.05574
581.071	9746.66874
581.275	9765.04383
581.479	10083.35478
581.682	9885.47263
581.886	9656.81714
582.09	9816.07934
582.293	10089.4727
582.497	9940.5669
582.7	10007.88994
582.904	9981.37063
583.107	9801.79034
583.311	9952.80863
583.515	9958.9293
583.718	9760.96058
583.922	9997.69049
584.125	9954.84887
584.329	10128.21659
584.532	9801.79034
584.735	10260.72365
584.939	9860.98284
585.142	10158.80031
585.346	9814.0381
585.549	10266.83796
585.753	10183.26504
585.956	10297.40773
586.159	10065.00026
586.363	10327.97448
586.566	10317.7859
586.769	10344.27552
586.973	10203.6508
587.176	10684.3713
587.379	10171.03292
587.582	10397.24806
587.786	10427.80512
587.989	10130.2556
588.192	10262.76177
588.395	10590.72731
588.599	10382.9871
588.802	10260.72365
589.005	10219.95842
589.208	10515.3859
589.411	10091.51198
589.615	10236.26516
589.818	10346.31309
590.021	10596.83533
590.224	10378.91242
590.427	10490.94714
590.63	10330.01216
590.833	10576.47485
591.036	10613.12281
591.239	10753.56988
591.442	10380.94977
591.645	10735.25396
591.848	10484.83716
592.051	10661.98053
592.254	10374.83769
592.457	10790.19883
592.66	10464.46973
592.863	10747.46468
593.066	10244.41821
593.269	10920.40443
593.472	10735.25396
593.675	10940.74481
593.878	10472.61686
594.081	10957.01629
594.284	10527.6046
594.486	10773.91977
594.689	10782.05939
594.892	10934.64281
595.095	11221.32947
595.298	10865.47972
595.5	11026.16212
595.703	11058.69691
595.906	11140.02171
596.109	10898.0287
596.311	10967.18561
596.514	11103.42769
596.717	11186.77573
596.92	11066.83017
597.122	10969.21943
597.325	11064.79687
597.528	10979.38841
597.73	11294.49222
597.933	11001.75918
598.136	11294.49222
598.338	11105.46078
598.541	11253.84789
598.743	11048.53009
598.946	11233.52419
599.148	10936.67682
599.351	11093.26206
599.554	11333.10057
599.756	11241.65379
599.959	11101.39458
600.161	11274.17057
600.363	11044.46328
600.566	11123.75813
600.768	11119.69213
600.971	11363.57829
601.173	11028.19563
601.376	11280.26717
601.578	11201.00411
601.78	11264.00936
601.983	11359.51472
602.185	11217.26448
602.388	11351.38747
602.59	11440.77854
602.792	11530.15085
602.995	11556.5528
603.197	11211.16692
603.399	11546.39839
603.601	11166.44858
603.804	11270.10612
604.006	11213.19945
604.208	11406.24334
604.41	10871.58288
604.613	11166.44858
604.815	11125.79111
605.017	11233.52419
605.219	10971.25325
605.421	11329.03671
605.623	11509.84058
605.826	11587.01463
606.028	11454.9981
606.23	11432.65286
606.432	11485.46701
606.634	11656.05378
606.836	11481.40461
607.038	11741.32309
607.24	11562.64533
607.442	11621.53552
607.644	11656.05378
607.846	11526.08887
608.048	11304.65267
608.25	11639.81022
608.452	11339.19629
608.654	11676.35742
608.856	11288.39583
609.058	11239.62141
609.26	11369.67356
609.462	11704.78102
609.664	11572.79937
609.866	11574.83015
610.067	11534.21279
610.269	11725.08252
610.471	11387.95885
610.673	11454.9981
610.875	11335.13249
611.077	11361.54651
611.278	11465.15465
611.48	11619.50495
611.682	11524.05787
611.884	11873.25727
612.085	11483.43581
612.287	11534.21279
612.489	11465.15465
612.69	11591.07605
612.892	11599.19877
613.094	11682.44834
613.295	11365.61005
613.497	11446.8727
613.699	11335.13249
613.9	11599.19877
614.102	11361.54651
614.304	11493.59169
614.505	11235.55661
614.707	11637.77974
614.908	11457.02943
615.11	11584.9839
615.311	11477.34218
615.513	11781.92208
615.714	11452.96677
615.916	11637.77974
616.117	11718.99216
616.319	11595.13743
616.52	11542.33656
616.722	11753.50315
616.923	11656.05378
617.124	11694.62994
617.326	11432.65286
617.527	11739.29305
617.729	11501.71621
617.93	11704.78102
618.131	11469.21719
618.333	11392.02214
618.534	11647.93207
618.735	11765.6829
618.937	11611.38259
619.138	11696.66017
619.339	11387.95885
619.54	11909.78659
619.742	12049.7913
619.943	11970.66289
620.144	11389.9905
620.345	11668.23607
620.546	11613.4132
620.748	11936.16722
620.949	11601.22943
621.15	11940.22565
621.351	11603.26008
621.552	11863.10976
621.753	11428.58997
621.954	11743.35313
622.155	11432.65286
622.356	11972.69197
622.558	11452.96677
622.759	11838.75488
622.96	11727.11263
623.161	11532.18183
623.362	11461.09206
623.563	11871.22779
623.764	11534.21279
623.965	11846.87331
624.166	11854.9916
624.366	11682.44834
624.567	11562.64533
624.768	11696.66017
624.969	11343.26006
625.17	11765.6829
625.371	11544.36748
625.572	11696.66017
625.773	11871.22779
625.973	12003.12728
626.174	11587.01463
626.375	11767.71283
626.576	11881.37513
626.777	11988.92436
626.977	11645.90162
627.178	11881.37513
627.379	11312.78084
627.58	11802.22028
627.78	11605.29072
627.981	11457.02943
628.182	11668.23607
628.382	11879.34568
628.583	11700.72061
628.784	12035.58965
628.984	11564.67616
629.185	12072.10741
629.386	11507.8095
629.586	12057.90635
629.787	11755.53313
629.987	12080.22212
630.188	11923.99172
630.388	11785.98179
630.589	11721.02229
630.79	12039.6473
630.99	11757.5631
631.191	12043.70492
631.391	11721.02229
631.591	11828.60665
631.792	11905.72791
631.992	11974.72105
632.193	12023.4165
632.393	12171.5043
632.594	11964.57559
632.794	12029.50311
632.994	12116.73683
633.195	12005.15624
633.395	11771.77266
633.595	11883.40457
633.796	11838.75488
633.996	12132.9648
634.196	12130.93633
634.397	12218.15379
634.597	11907.75725
634.797	12307.38563
634.997	11995.01138
635.198	12049.7913
635.398	11757.5631
635.598	11944.28406
635.798	11613.4132
635.998	11808.30957
636.199	11867.16879
636.399	12078.19346
636.599	11538.2747
636.799	11708.84139
636.999	11619.50495
637.199	12165.41929
637.399	12088.33672
637.599	12021.38761
637.799	11769.74275
637.999	12104.56554
638.199	12005.15624
638.399	12311.44129
638.599	12057.90635
638.799	12059.9351
638.999	11964.57559
639.199	12139.05016
639.399	11905.72791
639.599	12027.47424
639.799	11885.43401
639.999	12094.42258
640.199	11986.89534
640.399	12181.64582
640.599	11530.15085
640.799	12347.94103
640.998	12074.1361
641.198	12228.29447
641.398	12057.90635
641.598	12019.35872
641.798	12366.19006
641.997	12208.01292
642.197	11812.36905
642.397	12516.21703
642.597	12094.42258
642.796	12228.29447
642.996	12220.18194
643.196	12082.25078
643.395	12059.9351
643.595	11970.66289
643.795	12082.25078
643.994	12396.60388
644.194	12110.65122
644.394	12161.36258
644.593	11844.84371
644.793	12232.35069
644.992	11968.6338
645.192	12349.96873
645.392	12224.23822
645.591	12575.00169
645.791	12408.76898
645.99	12627.70072
646.19	12315.49693
646.389	12435.12588
646.589	12086.30808
646.788	12173.53262
646.987	12149.19228
647.187	12341.8579
647.386	12333.74695
647.586	12289.13478
647.785	12264.79943
647.984	12327.66368
648.184	12313.46911
648.383	12392.54879
648.582	12447.29022
648.782	12291.16268
648.981	12366.19006
649.18	12597.29794
649.38	12536.4882
649.579	12587.16337
649.778	12443.23546
649.977	12597.29794
650.177	12276.96723
650.376	12366.19006
650.575	12137.02172
650.774	12499.99963
650.973	12222.21008
651.173	12386.46611
651.372	12240.46305
651.571	12143.10703
651.77	12313.46911
651.969	12479.7273
652.168	12315.49693
652.367	12453.3723
652.566	12291.16268
652.765	12159.33422
652.964	12210.04111
653.163	12272.91133
653.362	12404.71398
653.561	12522.29845
653.76	12106.59411
653.959	12374.30056
654.158	12400.65894
654.357	12394.57634
654.556	12293.19057
654.755	12455.39964
654.954	12157.30585
655.153	12420.93384
655.352	12384.43854
655.551	12475.67276
655.749	12260.74344
655.948	12242.49112
656.147	12281.02311
656.346	12390.52124
656.545	12112.67976
656.743	12427.01618
656.942	12287.10687
657.141	12712.82129
657.34	12597.29794
657.538	12599.32484
657.737	12508.10838
657.936	12955.96765
658.135	12609.45922
658.333	12597.29794
658.532	12315.49693
658.731	12457.42698
658.929	12408.76898
659.128	12461.48165
659.326	12236.40688
659.525	12479.7273
659.724	12195.84365
659.922	12514.18988
660.121	12499.99963
660.319	12672.28899
660.518	12735.11305
660.716	12502.02683
660.915	12380.38337
661.113	12860.7447
661.312	12554.73172
661.51	12570.94774
661.709	12473.64547
661.907	12538.51528
662.105	12504.05402
662.304	12737.13954
662.502	12396.60388
662.701	12587.16337
662.899	12394.57634
663.097	12621.62027
663.296	12400.65894
663.494	12599.32484
663.692	12396.60388
663.891	12607.43235
664.089	12337.80244
664.287	12625.67391
664.485	12433.09846
664.684	12929.63055
664.882	12398.63141
665.08	12483.78182
665.278	12465.53628
665.476	12627.70072
665.675	12406.74148
665.873	12489.86355
666.071	12441.20808
666.269	12512.16272
666.467	12327.66368
666.665	12504.05402
666.863	12406.74148
667.061	12649.99522
667.259	12376.32817
667.457	12664.18225
667.655	12366.19006
667.853	12451.34494
668.051	12544.59649
668.249	12398.63141
668.447	12613.51293
668.645	12443.23546
668.843	12757.40412
669.041	13095.7426
669.239	12473.64547
669.437	12552.70468
669.635	12299.27421
669.833	12791.85259
670.031	12520.27131
670.229	12613.51293
670.426	12362.13477
670.624	12552.70468
670.822	12530.40692
671.02	12712.82129
671.218	12487.83631
671.415	12414.85144
671.613	12185.70238
671.811	12260.74344
672.009	12175.56093
672.206	12495.94521
672.404	12475.67276
672.602	12341.8579
672.799	12398.63141
672.997	12487.83631
673.195	12264.79943
673.392	12652.02196
673.59	12540.54236
673.788	12291.16268
673.985	12264.79943
674.183	12390.52124
674.38	12057.90635
674.578	12351.99642
674.775	12126.87937
674.973	12633.78111
675.17	12218.15379
675.368	12660.12884
675.565	12266.82741
675.763	12455.39964
675.96	12124.85088
676.158	12349.96873
676.355	12305.35778
676.553	12506.0812
676.75	11978.77918
676.947	12122.82238
677.145	12134.99326
677.342	12218.15379
677.539	11970.66289
677.737	12130.93633
677.934	12179.61753
678.131	12370.24532
678.329	12226.26635
678.526	12212.06929
678.723	12398.63141
678.92	12386.46611
679.118	12220.18194
679.315	12224.23822
679.512	11995.01138
679.709	12301.30207
679.906	12070.07871
680.104	12187.73065
680.301	11944.28406
680.498	11911.81592
680.695	12068.05
680.892	12285.07896
681.089	12080.22212
681.286	12270.88336
681.483	11611.38259
681.68	12094.42258
681.877	11976.75012
682.075	12110.65122
682.272	11897.61045
682.469	12303.32993
682.665	11854.9916
682.862	12100.50838
683.059	12039.6473
683.256	11992.98238
683.453	12021.38761
683.65	11992.98238
683.847	11850.93247
684.044	11741.32309
684.241	11723.05241
684.438	11666.20572
684.635	11416.40104
684.831	11942.25486
685.028	11739.29305
685.225	11926.02099
685.422	11790.04146
685.619	12130.93633
685.815	12078.19346
686.012	11871.22779
686.209	11489.52937
686.405	12088.33672
686.602	11889.49285
686.799	12023.4165
686.996	11911.81592
687.192	11597.16811
687.389	12278.99517
687.586	11962.54647
687.782	12001.09832
687.979	11899.63983
688.175	11816.4285
688.372	12090.36535
688.568	11840.7845
688.765	11757.5631
688.962	11668.23607
689.158	11680.41804
689.355	11452.96677
689.551	11649.96251
689.748	11461.09206
689.944	11773.80256
690.14	11698.6904
690.337	11800.19049
690.533	11729.14272
690.73	11580.92243
690.926	11278.23498
691.123	11373.73703
691.319	11481.40461
691.515	11647.93207
691.712	11416.40104
691.908	11513.90271
692.104	11205.06926
692.301	11662.14497
692.497	11633.71874
692.693	11430.62142
692.889	11546.39839
693.086	11645.90162
693.282	11316.84487
693.478	11611.38259
693.674	11497.65397
693.87	11682.44834
694.067	11430.62142
694.263	11129.85705
694.459	11365.61005
694.655	11477.34218
694.851	11489.52937
695.047	11459.06075
695.243	11343.26006
695.439	11597.16811
695.635	11198.97151
695.831	11318.87687
696.027	11396.08539
696.224	11491.56053
696.42	11327.00476
696.615	11432.65286
696.811	11205.06926
697.007	11436.71572
697.203	11276.20278
697.399	11497.65397
697.595	11253.84789
697.791	11064.79687
697.987	10952.94849
698.183	11422.49555
698.379	10973.28706
698.575	11310.74881
698.77	11091.2289
698.966	11237.58901
699.162	11022.09507
699.358	11152.21895
699.554	11144.0875
699.749	10938.71082
699.945	11097.32834
700.141	11255.88021
700.337	11107.49386
700.532	11056.66357
700.728	11198.97151
700.924	11355.45112
701.119	11107.49386
701.315	11131.89001
701.511	11046.49669
701.706	11341.22818
701.902	10928.54072
702.097	11154.25179
702.293	10999.72553
702.489	10961.08405
702.684	10836.99694
702.88	10940.74481
703.075	11054.63021
703.271	10944.81274
703.466	10979.38841
703.662	11257.91251
703.857	10865.47972
704.053	11048.53009
704.248	10863.44531
704.443	10826.82396
704.639	10721.00757
704.834	10696.58383
705.03	11081.06295
705.225	10822.75469
705.42	10733.2188
705.616	11257.91251
705.811	10830.89319
706.006	10891.92599
706.202	11044.46328
706.397	10777.98961
706.592	10570.36646
706.787	11009.89367
706.983	10765.77996
707.178	11011.92726
707.373	10836.99694
707.568	10967.18561
707.763	10714.9018
707.959	10920.40443
708.154	10572.40261
708.349	10780.02451
708.544	10635.51681
708.739	10637.55256
708.934	10721.00757
709.129	10906.16549
709.324	10782.05939
709.519	10971.25325
709.714	10731.18362
709.909	10843.10058
710.104	10611.08692
710.299	10440.02712
710.494	10501.13018
710.689	10912.26796
710.884	10684.3713
711.079	10739.32425
711.274	10319.82364
711.469	10702.68993
711.664	10664.01612
711.859	10727.11324
712.054	10613.12281
712.249	10513.34941
712.443	10301.48347
712.638	10407.43407
712.833	10171.03292
713.028	10649.76677
713.223	10289.25609
713.417	10397.24806
713.612	10258.68551
713.807	10446.13795
714.002	10417.61976
714.196	10446.13795
714.391	10643.65972
714.586	10853.27309
714.78	10407.43407
714.975	10578.51095
715.17	10456.3224
715.364	10541.85917
715.559	10482.80047
715.754	10248.49465
715.948	9979.33058
716.143	10254.60921
716.337	10219.95842
716.532	10578.51095
716.726	10488.91049
716.921	10631.44529
717.115	10358.53823
717.31	10456.3224
717.504	10358.53823
717.699	10297.40773
717.893	10052.76327
718.088	10651.80242
718.282	10429.84215
718.476	10405.3969
718.671	10199.57375
718.865	10327.97448
719.059	10201.61228
719.254	10264.79987
719.448	9852.8191
719.642	10003.81021
719.837	9760.96058
720.031	9977.29051
720.225	9895.67608
720.419	9846.69614
720.614	9636.39216
720.808	9854.86006
721.002	9869.14634
721.196	10113.94311
721.39	9824.24415
721.585	9793.62487
721.779	9879.35038
721.973	10205.6893
722.167	9914.04136
722.361	9748.71047
722.555	9624.13642
722.749	9791.58347
722.943	9783.4177
723.137	9960.96949
723.331	9983.41066
723.525	10054.80281
723.719	9799.749
723.913	9995.65056
724.107	9434.09989
724.301	9881.39114
724.495	9756.87727
724.689	10077.23673
724.883	9458.6285
725.077	9828.32646
725.271	9573.06481
725.465	9814.0381
725.659	9579.19392
725.853	9850.77813
726.046	9856.901
726.24	9763.00221
726.434	9693.5782
726.628	9858.94192
726.822	9730.33429
727.015	9971.17024
727.209	9705.83078
727.403	9611.88013
727.596	9587.36585
727.79	9693.5782
727.984	9354.36576
728.177	9803.83167
728.371	9350.27616
728.565	9769.12702
728.758	9658.85955
728.952	9803.83167
729.146	9771.16859
729.339	9840.57305
729.533	9738.50163
729.726	9791.58347
729.92	9648.64733
730.113	10028.28777
730.307	9779.33472
730.5	9765.04383
730.694	9705.83078
730.887	9568.97865
731.081	9701.74665
731.274	9818.12056
731.468	9497.46071
731.661	9897.71672
731.854	9834.44982
732.048	9844.65513
732.241	9644.56234
732.435	9811.99684
732.628	10003.81021
732.821	9738.50163
733.014	9811.99684
733.208	9836.49091
733.401	9726.25052
733.594	9820.16177
733.788	9863.02373
733.981	9620.05105
734.174	9599.62327
734.367	9756.87727
734.56	9528.11364
734.754	9409.56896
734.947	9350.27616
735.14	9401.39146
735.333	9607.79457
735.526	9444.32043
735.719	9683.3673
735.912	9489.28599
736.105	9125.24526
736.298	9333.9171
736.491	9591.45172
736.684	9548.54694
736.877	9409.56896
737.07	9266.42475
737.263	9434.09989
737.456	9462.71637
737.649	9679.28283
737.842	9607.79457
738.035	9464.76029
738.228	9260.28818
738.421	9329.82717
738.614	9681.32507
738.807	9495.41706
739	9440.23226
739.192	9268.47024
739.385	9125.24526
739.578	9378.90199
739.771	9501.54798
739.964	9401.39146
740.156	9280.74282
740.349	9213.23615
740.542	9307.33136
740.735	9139.57151
740.927	9209.14424
741.12	9182.54522
741.313	9211.1902
741.505	9301.1958
741.698	9362.54477
741.891	9223.46561
742.083	9325.73717
742.276	9309.37652
742.468	9370.72351
742.661	9129.33856
742.854	9100.68402
743.046	9268.47024
743.239	9305.28619
743.431	9047.45947
743.624	8910.24942
743.816	9084.30849
744.009	9100.68402
744.201	8936.87846
744.393	8850.83529
744.586	9051.55409
744.778	9020.84279
744.971	8940.97497
745.163	8961.45645
745.355	9039.27004
745.548	8961.45645
745.74	8994.22316
745.932	9104.77773
746.125	9037.22264
746.317	9213.23615
746.509	9117.05846
746.702	8924.58851
746.894	8824.19647
747.086	8785.2573
747.278	9053.60137
747.471	8953.26407
747.663	8750.41143
747.855	8971.69653
748.047	8928.68523
748.239	9145.71107
748.431	8926.63688
748.623	9010.60482
748.815	8750.41143
749.008	9018.79524
749.2	9096.59024
749.392	9096.59024
749.584	8840.58995
749.776	9190.72984
749.968	9026.98537
750.16	8766.81014
750.352	8953.26407
750.544	8994.22316
750.736	8947.1196
750.928	9057.69587
751.12	8729.91139
751.311	8684.80483
751.503	8836.49169
751.695	8916.39485
751.887	8430.39867
752.079	8883.61736
752.271	8610.97476
752.463	8904.10382
752.654	8844.68814
752.846	9092.49639
753.038	8715.56027
753.23	8979.88828
753.421	8803.70298
753.613	8762.71057
753.805	8690.95625
753.997	8877.47107
754.188	8660.19748
754.38	8680.70379
754.572	8668.40023
754.763	8654.04523
754.955	8760.66076
755.146	8602.76993
755.338	8649.94364
755.53	8676.60268
755.721	8678.65324
755.913	8789.35647
756.104	8403.71013
756.296	8592.51347
756.487	8446.82076
756.679	8559.68964
756.87	8440.66262
757.062	8192.13854
757.253	8469.39915
757.445	8276.38127
757.636	8301.03142
757.827	8354.43041
758.019	8510.44484
758.21	8262.00071
758.401	8266.10954
758.593	8502.23631
758.784	8111.97422
758.975	8533.01673
759.167	8471.45161
759.358	8140.75465
759.549	8151.03243
759.74	8120.1976
759.932	8140.75465
760.123	8331.84014
760.314	8009.15474
760.505	8066.73987
760.696	7737.46524
760.888	7844.5375
761.079	8044.11904
761.27	7968.01274
761.461	8101.69454
761.652	8259.94627
761.843	8103.75052
762.034	8171.58648
762.225	7893.9365
762.416	7951.55365
762.607	7683.90784
762.798	7861.00516
762.989	7858.94677
763.18	8013.26849
763.371	7970.07003
763.562	8058.5144
763.753	7871.29677
763.944	8009.15474
764.135	7838.36179
764.326	8204.46882
764.517	7908.3423
764.708	7706.56848
764.899	7856.88837
765.089	7928.92026
765.28	7797.18558
765.471	7486.03307
765.662	7471.59697
765.853	7535.52025
766.043	7426.21948
766.234	7885.70416
766.425	7589.1174
766.615	7840.42038
766.806	7628.27543
766.997	7733.34594
767.187	7556.13625
767.378	7926.86256
767.569	7597.36184
767.759	7611.78878
767.95	7549.95168
768.141	7661.24465
768.331	7813.65706
768.522	7580.87263
768.712	7646.82128
768.903	7533.45853
769.093	7424.15662
769.284	7380.83148
769.474	7605.60593
769.665	7446.84691
769.855	7242.53924
770.046	7116.54525
770.236	7358.13353
770.426	7017.34414
770.617	7215.69497
770.807	7432.40794
770.998	7035.94828
771.188	7073.15111
771.378	7217.76005
771.569	7391.14786
771.759	7254.92764
771.949	7116.54525
772.139	7104.14793
772.33	7052.48377
772.52	7199.17357
772.71	7114.47909
772.9	7131.00778
773.09	7516.96401
773.281	7403.5268
773.471	7201.23882
773.661	7170.2577
773.851	7023.54573
774.041	6903.61253
774.231	7128.94177
774.421	6808.43893
774.611	6926.36432
774.802	6719.42868
774.992	7075.21772
775.182	7015.27691
775.372	7312.72969
775.562	7066.95115
775.752	7085.55044
775.942	6767.04407
776.131	6947.04539
776.321	6899.47555
776.511	6944.97738
776.701	7011.14236
776.891	7052.48377
777.081	6744.273
777.271	6820.85561
777.461	6775.32377
777.651	6696.65181
777.84	6572.36537
778.03	6729.78088
778.22	6707.00528
778.41	6630.37603
778.599	6713.21708
778.789	6949.11337
778.979	6957.38507
779.169	6754.62383
779.358	6742.20277
779.548	6980.1304
779.738	6824.99432
779.927	6847.7556
780.117	6667.65905
780.307	6895.33847
780.496	6707.00528
780.686	6673.87217
780.875	6518.4821
781.065	6733.9216
781.254	6439.70144
781.444	6582.72574
781.633	6829.13294
781.823	6899.47555
782.012	6655.23221
782.202	6584.79775
782.391	6371.25942
782.581	6356.73815
782.77	6458.36305
782.96	6526.77285
783.149	6433.48049
783.338	6248.83003
783.528	6248.83003
783.717	6232.22317
783.906	6215.6148
784.096	6300.71683
784.285	6165.78071
784.474	6329.76704
784.663	6348.43977
784.853	6161.62725
785.042	6049.44852
785.231	6309.01736
785.42	6086.84905
785.61	6140.85859
785.799	6147.08943
785.988	6145.01251
786.177	5841.52878
786.366	6290.34064
786.555	6086.84905
786.744	6061.91621
786.933	5851.93037
787.122	6103.46906
787.312	5799.91653
787.501	5930.96317
787.69	6072.30531
787.879	6093.08173
788.068	6018.27559
788.257	6082.69381
788.445	6032.82361
788.634	6267.51096
788.823	6055.68247
789.012	5982.93985
789.201	5976.70343
789.39	5999.56928
789.579	5881.05168
789.768	6016.1972
789.957	5758.29484
790.145	5993.33342
790.334	5764.53869
790.523	5843.60915
790.712	5777.02577
790.9	5874.81179
791.089	5785.35001
791.278	5801.99737
791.467	5620.87627
791.655	5689.5984
791.844	5866.4916
792.033	6070.22753
792.221	5652.11679
792.41	5816.56257
792.599	5485.43941
792.787	5620.87627
792.976	5508.36649
793.164	5450.00104
793.353	5493.77686
793.541	5512.53474
793.73	5458.34009
793.918	5485.43941
794.107	5241.40276
794.295	5389.53169
794.484	5450.00104
794.672	5562.54644
794.861	5593.79686
795.049	5579.21399
795.238	5370.76132
795.426	5652.11679
795.614	5304.00685
795.803	5633.37312
795.991	5237.2284
796.179	5424.98164
796.368	5314.43882
796.556	5502.11393
796.744	5370.76132
796.932	5452.08584
797.121	5285.22783
797.309	5364.50411
797.497	5289.40111
797.685	5466.67877
797.874	5245.57702
798.062	5164.1621
798.25	4909.25166
798.438	5063.91054
798.626	5222.61743
798.814	5126.57404
799.002	4961.51539
799.19	5049.28606
799.378	5191.30435
799.566	5145.36901
799.755	5088.97845
799.943	5297.74739
800.131	5406.21486
800.318	5331.12875
800.506	5199.65501
800.694	5166.25011
800.882	4942.7021
801.07	4999.13638
801.258	5120.30863
801.446	5114.04301
801.634	4748.18958
801.822	5015.85442
802.01	5084.80069
802.197	5385.36066
802.385	4948.97341
802.573	5176.68978
802.761	4980.32682
802.949	5178.77765
803.136	4861.15637
803.324	5151.63358
803.512	5168.33809
803.699	5256.01226
803.887	5057.64305
804.075	5235.14119
804.262	5053.4646
804.45	5149.54542
804.638	4990.7768
804.825	5132.83924
805.013	4923.88695
805.201	5155.80985
805.388	4898.79719
805.576	5024.21288
805.763	5126.57404
805.951	5218.44265
806.138	5149.54542
806.326	5241.40276
806.513	5218.44265
806.701	5178.77765
806.888	5116.13157
807.075	5208.00531
807.263	4992.86673
807.45	5172.51398
807.638	4974.05655
807.825	5299.8339
808.012	4919.70555
808.2	5241.40276
808.387	5036.74989
808.574	4959.42512
808.761	4982.41686
808.949	5032.57098
809.136	4932.24947
809.323	5139.10423
809.51	4873.70414
809.698	5132.83924
809.885	4817.23273
810.072	5009.58532
810.259	4831.87506
810.446	5030.48149
810.633	4842.33318
810.82	5065.99966
811.008	5101.51115
811.195	5289.40111
811.382	5097.33367
811.569	5374.93268
811.756	4810.9571
811.943	5137.01592
812.13	4844.42474
812.317	5026.30244
812.504	4806.77323
812.691	5157.89795
812.878	4823.50815
813.064	5045.10743
813.251	4986.59688
813.438	5308.17971
813.625	4919.70555
813.812	5272.70743
813.999	5003.31602
814.186	4948.97341
814.372	5076.44491
814.559	5116.13157
814.746	4999.13638
814.933	5082.71178
815.12	5047.19676
815.306	5109.86581
815.493	4848.60778
815.68	4932.24947
815.866	4948.97341
816.053	5082.71178
816.24	4861.15637
816.426	5120.30863
816.613	4852.79074
816.799	5212.18032
816.986	4999.13638
817.173	5193.39205
817.359	4923.88695
817.546	5143.28077
817.732	4741.91171
817.919	4965.69587
818.105	5068.08876
818.292	4925.97762
818.478	4919.70555
818.665	5145.36901
818.851	4963.60564
819.037	5233.05396
819.224	4999.13638
819.41	4982.41686
819.597	4769.11436
819.783	4873.70414
819.969	4840.2416
820.156	4940.61162
820.342	4821.41636
820.528	5053.4646
820.714	4856.9736
820.901	5057.64305
821.087	4823.50815
821.273	5091.06729
821.459	4689.58818
821.646	4982.41686
821.832	4616.31163
822.018	4848.60778
822.204	4752.37472
822.39	4930.15888
822.576	4752.37472
822.762	4800.49726
822.948	4725.16972
823.134	5172.51398
823.32	4854.88218
823.507	5091.06729
823.693	4921.79626
823.879	4875.79535
824.065	4626.78139
824.25	4746.09698
824.436	4586.99333
824.622	4773.29904
824.808	4540.91289
824.994	4785.85254
825.18	4478.05865
825.366	4612.12357
825.552	4452.9114
825.738	4758.65225
825.923	4396.31854
826.109	4643.53184
826.295	4247.42479
826.481	4683.30841
826.667	4383.74019
826.852	4480.15411
827.038	4480.15411
827.224	4666.56137
827.409	4532.53348
827.595	4670.74827
827.781	4364.87119
827.966	4681.21511
828.152	4415.1846
828.338	4572.33254
828.523	4278.89026
828.709	4637.25059
828.894	4488.53574
829.08	4538.81807
829.266	4283.08529
829.451	4446.62409
829.637	4385.83664
829.822	4538.81807
830.008	4176.08531
830.193	4285.18277
830.378	4366.96784
830.564	4543.00769
830.749	4169.78948
830.935	4404.70367
831.12	4123.61423
831.305	4201.26675
831.491	4373.25763
831.676	4234.83725
831.861	4171.88811
832.047	4148.80199
832.232	4194.97168
832.417	4224.34706
832.602	4069.03043
832.788	4106.82072
832.973	3987.1285
833.158	4211.75812
833.343	3955.61945
833.528	4207.56164
833.714	3932.50991
833.899	4222.24895
834.084	3968.22362
834.269	4163.49345
834.454	3848.4547
834.639	4138.30746
834.824	4069.03043
835.009	4102.62213
835.194	4064.8311
835.379	4127.8124
835.564	4027.03335
835.749	3926.20689
835.934	3924.10584
836.119	4087.92642
836.304	3751.75196
836.489	3800.10853
836.674	3680.24954
836.859	3858.96336
837.044	3623.45245
837.228	3791.69944
837.413	3522.44608
837.598	3705.48823
837.783	3602.413
837.968	3686.55947
838.152	3678.14619
838.337	3779.08521
838.522	3758.05993
838.707	3905.19549
838.891	3734.92987
839.076	3882.08063
839.261	3509.81729
839.445	3732.82702
839.63	3716.00354
839.815	3747.54656
839.999	3850.55647
840.184	4056.43218
840.368	3604.51702
840.553	3737.0327
840.737	3539.28344
840.922	3724.41543
841.106	3690.766
841.291	3591.89257
841.475	3642.38635
841.66	3589.78842
841.844	3398.23472
842.029	3705.48823
842.213	3463.50613
842.397	3684.45618
842.582	3341.3716
842.766	3680.24954
842.951	3387.70548
843.135	3591.89257
843.319	3356.11511
843.504	3389.81136
843.688	3313.98854
843.872	3501.39773
844.056	3326.62724
844.241	3690.766
844.425	3400.34052
844.609	3535.07421
844.793	3421.3975
844.977	3282.3891
845.161	3210.74961
845.346	3379.28176
845.53	3099.03835
845.714	3280.28233
845.898	3071.6306
846.082	3075.84735
846.266	3164.38443
846.45	3347.69035
846.634	3118.01137
846.818	3231.82206
847.002	2928.22459
847.186	3341.3716
847.37	2936.66216
847.554	3115.90332
847.738	2972.5192
847.922	3177.03026
848.106	2961.97346
848.29	3139.091
848.473	3206.53492
848.657	3299.24261
848.841	3084.28066
849.025	3233.92921
849.209	3071.6306
849.392	3185.4605
849.576	2978.84646
849.76	3092.71372
849.944	2753.09351
850.127	3101.14652
850.311	2807.96419
850.495	3002.04527
850.678	2712.98998
850.862	3126.44342
851.046	2957.75506
851.229	2810.07441
851.413	2647.54784
851.596	2945.0995
851.78	2698.2138
851.964	2723.544
852.147	2569.42377
852.331	2765.75679
852.514	2674.99282
852.698	2816.40501
852.881	2706.65741
853.065	2750.98292
853.248	2858.60577
853.431	2924.00572
853.615	2666.54844
853.798	2873.37471
853.982	2630.65757
854.165	2860.71566
854.348	2826.95572
854.532	2816.40501
854.715	2560.97693
854.898	2812.18462
855.081	2324.39307
855.265	2691.88096
855.448	2520.8519
855.631	2544.08269
855.814	2611.65507
855.997	2774.1987
856.181	2353.97326
856.364	2546.19451
856.547	2573.64711
856.73	2706.65741
856.913	2552.52991
857.096	2552.52991
857.279	2303.26319
857.462	2301.15014
857.645	2353.97326
857.828	2222.96114
858.011	2284.24548
858.194	2480.72272
858.377	2351.86046
858.56	2660.21502
858.743	2273.67976
858.926	2579.98204
859.109	2548.30632
859.292	2514.51598
859.475	2261.00059
859.658	2444.81427
859.841	2345.52198
860.023	2444.81427
860.206	2351.86046
860.389	2417.35274
860.572	2267.34022
860.755	2307.48924
860.937	2189.14591
861.12	2294.81097
861.303	2206.0538
861.486	2206.0538
861.668	2028.49565
861.851	2199.7134
862.034	2174.35106
862.216	2189.14591
862.399	2060.20634
862.581	2121.50908
862.764	1850.88981
862.947	2005.24018
863.129	2191.25942
863.312	2106.71244
863.494	1973.52689
863.677	2197.59992
863.859	1891.06604
864.042	2039.06605
864.224	1931.24037
864.406	1960.84119
864.589	1707.08806
864.771	2113.0539
864.954	1681.70954
865.136	2060.20634
865.318	1806.48248
865.501	1817.05584
865.683	1956.61257
865.865	2100.37091
866.048	1774.76177
866.23	2045.40821
866.412	1914.32511
866.594	2072.89017
866.777	1829.74372
866.959	1971.41263
867.141	1726.12166
867.323	1935.46913
867.505	1743.04018
867.687	1768.41752
867.869	1783.22072
868.052	1935.46913
868.234	1827.62908
868.416	1939.69786
868.598	1677.47974
868.78	1891.06604
868.962	1751.49935
869.144	1842.43143
869.326	1732.46613
869.508	1709.20292
869.69	1781.10599
869.872	1808.59716
870.054	1635.1812
870.236	1669.02012
870.417	1666.9052
870.599	1878.37901
870.781	1724.00682
870.963	1855.11898
871.145	1626.72138
871.327	1757.8437
871.508	1567.50171
871.69	1709.20292
871.872	1556.92663
872.054	1759.95847
872.235	1607.68664
872.417	1927.01159
872.599	1770.53228
872.78	1812.82651
872.962	1561.15666
873.144	1745.15498
873.325	1643.64099
873.507	1918.55396
873.689	1525.2012
873.87	1766.30277
874.052	1542.12146
874.233	1768.41752
874.415	1624.60641
874.596	1825.51444
874.778	1482.90033
874.959	1656.3306
875.141	1563.27168
875.322	1734.58094
875.503	1463.86487
875.685	1529.43128
875.866	1630.95129
876.048	1724.00682
876.229	1552.69659
876.41	1614.03157
876.592	1561.15666
876.773	1580.19175
876.954	1550.58156
877.136	1743.04018
877.317	1575.96174
877.498	1812.82651
877.679	1520.97113
877.86	1584.42175
878.042	1554.81161
878.223	1478.67023
878.404	1442.71435
878.585	1656.3306
878.766	1563.27168
878.947	1711.31777
879.128	1497.70566
879.309	1647.87087
879.49	1588.65175
879.672	1698.6286
879.853	1664.79029
880.034	1762.07324
880.215	1546.35152
880.396	1893.18053
880.576	1601.3417
880.757	1819.17049
880.938	1495.59062
881.119	1791.6796
881.3	1563.27168
881.481	1888.95155
881.662	1685.93932
881.843	1478.67023
882.023	1624.60641
882.204	1704.9732
882.385	1580.19175
882.566	1645.75593
882.747	1559.04165
882.927	1728.23648
883.108	1715.54747
883.289	1800.13841
883.469	1537.8914
883.65	1683.82443
883.831	1383.49304
884.011	1690.16909
884.192	1442.71435
884.373	1711.31777
884.553	1419.44879
884.734	1757.8437
884.914	1472.32508
885.095	1681.70954
885.275	1622.49145
885.456	1719.77715
885.636	1514.62601
885.817	1842.43143
885.997	1586.53675
886.178	1586.53675
886.358	1379.26297
886.538	1677.47974
886.719	1622.49145
886.899	1726.12166
887.08	1582.30675
887.26	1721.89199
887.44	1362.34271
887.621	1778.99126
887.801	1402.52841
887.981	1571.73173
888.161	1504.0508
888.342	1643.64099
888.522	1491.36052
888.702	1673.24993
888.882	1499.82071
889.062	1601.3417
889.242	1489.24548
889.423	1540.00643
889.603	1546.35152
889.783	1675.36484
889.963	1597.11172
890.143	1544.23649
890.323	1375.0329
890.503	1711.31777
890.683	1476.55518
890.863	1713.43262
891.043	1482.90033
891.223	1800.13841
891.403	1529.43128
891.583	1757.8437
891.763	1455.40466
891.943	1525.2012
892.122	1396.18328
892.302	1643.64099
892.482	1451.17456
892.662	1641.52605
892.842	1506.16584
893.022	1520.97113
893.201	1394.06824
893.381	1618.26152
893.561	1364.45774
893.741	1643.64099
893.92	1410.9886
894.1	1630.95129
894.28	1465.97992
894.459	1575.96174
894.639	1410.9886
894.819	1732.46613
894.998	1504.0508
895.178	1647.87087
895.357	1275.62793
895.537	1504.0508
895.716	1383.49304
895.896	1540.00643
896.075	1345.42254
896.255	1453.28961
896.434	1237.55917
896.614	1501.93576
896.793	1326.38745
896.973	1339.07749
897.152	1273.51298
897.331	1394.06824
897.511	1174.11341
897.69	1311.58247
897.87	1262.93825
898.049	1294.66261
898.228	1157.19508
898.407	1290.43267
898.587	1188.91714
898.766	1339.07749
898.945	1167.76901
899.124	1355.99764
899.304	1138.16228
899.483	1216.41025
899.662	1064.14935
899.841	1284.08777
900.02	1100.09774
900.199	1351.76759
900.378	1203.72105
900.557	1229.09956
900.737	1133.93281
900.916	1207.95077
901.095	905.57427
901.274	1207.95077
901.453	1013.40137
901.632	1123.35923
901.811	1034.54595
901.989	1159.30986
902.168	1026.08805
902.347	1351.76759
902.526	886.54795
902.705	1182.57266
902.884	922.48709
903.063	1083.18066
903.242	852.72501
903.42	1043.00395
903.599	865.40836
903.778	1068.37849
903.957	975.34269
904.135	1055.69112
904.314	892.88998
904.493	1106.44172
904.672	787.19951
904.85	949.97145
905.029	939.40039
905.207	911.91652
905.386	848.4973
905.565	810.44948
905.743	865.40836
905.922	713.23036
906.1	759.72379
906.279	689.98561
906.457	677.30723
906.636	840.04198
906.814	730.13647
906.993	780.85881
907.171	734.3631
907.35	738.58978
907.528	580.12066
907.707	641.38743
907.885	700.55124
908.063	692.09872
908.242	611.80904
908.42	744.92987
908.598	529.42547
908.777	740.70313
908.955	567.44613
909.133	700.55124
909.311	525.20123
909.49	573.78333
909.668	556.88439
909.846	702.6644
910.024	525.20123
910.202	692.09872
910.38	620.25976
910.559	755.4969
910.737	637.1618
910.915	709.00395
911.093	495.63314
911.271	687.87252
911.449	497.74505
911.627	660.40337
911.805	675.19421
911.983	605.47113
912.161	630.82344
912.339	685.75944
912.517	561.10904
912.695	666.74223
912.872	567.44613
913.05	728.02317
913.228	578.0082
913.406	812.56317
913.584	567.44613
913.762	713.23036
913.939	586.4581
914.117	635.049
914.295	529.42547
914.473	624.48519
914.65	582.23313
914.828	590.68313
915.006	575.89576
915.184	666.74223
915.361	580.12066
915.539	687.87252
915.716	531.53761
915.894	565.33375
916.072	516.75291
916.249	666.74223
916.427	607.58375
916.604	778.74526
916.782	493.52124
916.959	594.90821
917.137	569.55852
917.314	556.88439
917.492	493.52124
917.669	592.79566
917.847	421.72573
918.024	554.77208
918.201	533.64976
918.379	611.80904
918.556	510.41683
918.733	622.37247
918.911	480.85017
919.088	575.89576
919.265	520.97704
919.442	516.75291
919.62	480.85017
919.797	588.57061
919.974	463.95624
920.151	592.79566
920.328	430.17133
920.506	533.64976
920.683	459.73291
920.86	396.39047
921.037	364.72473
921.214	546.32299
921.391	425.9485
921.568	569.55852
921.745	533.64976
921.922	459.73291
922.099	501.96892
922.276	447.06329
922.453	487.18564
922.63	438.61718
922.807	413.28038
922.984	501.96892
923.161	371.05758
923.338	480.85017
923.514	406.94654
923.691	337.28419
923.868	396.39047
924.045	449.17485
924.222	352.0595
924.399	457.62127
924.575	349.94869
924.752	440.72869
924.929	400.61285
925.105	305.62571
925.282	337.28419
925.459	423.8371
925.635	320.39917
925.812	381.61266
925.989	345.72712
926.165	322.50973
926.342	333.06283
926.518	322.50973
926.695	250.76076
926.871	383.72372
927.048	229.66226
927.224	299.2945
927.401	292.96345
927.577	295.07378
927.754	290.85314
927.93	269.75104
928.107	271.86117
928.283	282.41208
928.459	305.62571
928.636	301.40489
928.812	198.0182
928.988	214.89448
929.165	238.10143
929.341	295.07378
929.517	195.90876
929.693	316.17809
929.87	261.31072
930.046	252.87071
930.222	210.67529
930.398	172.70621
930.574	261.31072
930.751	263.42077
930.927	227.55252
931.103	246.5409
931.279	202.23715
931.455	320.39917
931.631	174.81543
931.807	288.74285
931.983	235.99161
932.159	261.31072
932.335	160.05133
932.511	136.85268
932.687	160.05133
932.863	276.08147
933.039	200.12766
933.215	174.81543
933.391	138.96154
933.566	273.97131
933.742	160.05133
933.918	198.0182
934.094	198.0182
934.27	248.65082
934.445	170.59702
934.621	195.90876
934.797	92.57157
934.973	176.92467
935.148	145.28826
935.324	117.87389
935.5	84.13817
935.675	71.48875
935.851	52.51615
936.027	82.02988
936.202	130.52622
936.378	86.24649
936.553	151.61516
936.729	145.28826
936.904	92.57157
937.08	41.97663
937.255	84.13817
937.431	-12.81942
937.606	126.30869
937.782	84.13817
937.957	113.65661
938.133	113.65661
938.308	-42.31821
938.483	96.7884
938.659	25.11459
938.834	79.92161
939.009	94.67998
939.185	29.32996
939.36	39.86879
939.535	92.57157
939.71	143.17933
939.886	52.51615
940.061	46.19237
940.236	-0.17561
940.411	101.00532
940.586	18.79172
940.761	-17.03383
940.937	90.46319
941.112	12.46906
941.287	145.28826
941.462	46.19237
941.637	41.97663
941.812	84.13817
941.987	71.48875
942.162	50.4082
942.337	52.51615
942.512	86.24649
942.687	-6.49763
942.862	122.09124
943.037	35.65319
943.212	126.30869
943.386	88.35483
943.561	63.05626
943.736	84.13817
943.911	29.32996
944.086	-33.89048
944.26	35.65319
944.435	44.08449
944.61	79.92161
944.785	54.62413
944.959	29.32996
945.134	46.19237
945.309	65.16435
945.483	-10.71218
945.658	20.89932
945.833	16.68414
946.007	101.00532
946.182	-33.89048
946.357	88.35483
946.531	58.84015
946.706	33.54542
946.88	96.7884
947.055	27.22227
947.229	-14.92664
947.404	-6.49763
947.578	1.93177
947.752	84.13817
947.927	33.54542
948.101	58.84015
948.276	-8.60492
948.45	33.54542
948.624	-21.24814
948.799	56.73213
948.973	96.7884
949.147	88.35483
949.321	65.16435
949.496	75.70514
949.67	48.30027
949.844	8.25407
950.018	8.25407
950.193	41.97663
950.367	71.48875
950.541	39.86879
950.715	52.51615
950.889	75.70514
951.063	63.05626
951.237	77.81336
951.411	-0.17561
951.585	37.76098
951.759	138.96154
951.933	18.79172
952.107	12.46906
952.281	63.05626
952.455	54.62413
952.629	-21.24814
952.803	41.97663
952.977	52.51615
953.151	105.22233
953.325	79.92161
953.499	52.51615
953.672	-8.60492
953.846	-10.71218
954.02	1.93177
954.194	94.67998
954.368	50.4082
954.541	1.93177
954.715	-8.60492
954.889	16.68414
955.062	130.52622
955.236	44.08449
955.41	-6.49763
955.583	-4.39031
955.757	18.79172
955.93	63.05626
956.104	94.67998
956.278	50.4082
956.451	35.65319
956.625	20.89932
956.798	-2.28298
956.972	77.81336
957.145	31.43768
957.319	37.76098
957.492	25.11459
957.665	48.30027
957.839	79.92161
958.012	-8.60492
958.185	52.51615
958.359	14.57659
958.532	23.00695
958.705	14.57659
958.879	16.68414
959.052	75.70514
959.225	41.97663
959.398	58.84015
959.572	88.35483
959.745	8.25407
959.918	109.43943
960.091	16.68414
960.264	69.38059
960.438	67.27246
960.611	84.13817
960.784	84.13817
960.957	-10.71218
961.13	48.30027
961.303	44.08449
961.476	-12.81942
961.649	84.13817
961.822	8.25407
961.995	71.48875
962.168	37.76098
962.341	-105.51324
962.514	33.54542
962.686	-8.60492
962.859	27.22227
963.032	-19.141
963.205	44.08449
963.378	56.73213
963.551	-23.35526
963.723	50.4082
963.896	69.38059
964.069	44.08449
964.242	79.92161
964.414	8.25407
964.587	37.76098
964.76	58.84015
964.932	71.48875
965.105	73.59693
965.278	88.35483
965.45	25.11459
965.623	101.00532
965.795	109.43943
965.968	-8.60492
966.14	155.83321
966.313	82.02988
966.485	41.97663
966.658	41.97663
966.83	48.30027
967.003	37.76098
967.175	143.17933
967.348	27.22227
967.52	-0.17561
967.692	12.46906
967.865	54.62413
968.037	-6.49763
968.209	138.96154
968.382	8.25407
968.554	75.70514
968.726	31.43768
968.898	-33.89048
969.071	56.73213
969.243	12.46906
969.415	-17.03383
969.587	69.38059
969.759	84.13817
969.932	79.92161
970.104	-42.31821
970.276	27.22227
970.448	88.35483
970.62	6.14661
970.792	35.65319
970.964	65.16435
971.136	31.43768
971.308	-29.67646
971.48	52.51615
971.652	-21.24814
971.824	27.22227
971.996	86.24649
972.168	71.48875
972.339	-71.81209
972.511	16.68414
972.683	71.48875
972.855	-33.89048
973.027	12.46906
973.199	96.7884
973.37	33.54542
973.542	84.13817
973.714	1.93177
973.886	-6.49763
974.057	8.25407
974.229	-4.39031
974.401	41.97663
974.572	63.05626
974.744	18.79172
974.915	4.03918
975.087	-12.81942
975.259	39.86879
975.43	29.32996
975.602	58.84015
975.773	54.62413
975.945	88.35483
976.116	25.11459
976.288	-6.49763
976.459	105.22233
976.63	12.46906
976.802	18.79172
976.973	4.03918
977.145	63.05626
977.316	-23.35526
977.487	14.57659
977.659	67.27246
977.83	50.4082
978.001	39.86879
978.172	92.57157
978.344	75.70514
978.515	29.32996
978.686	58.84015
978.857	-14.92664
979.028	60.94819
979.2	69.38059
979.371	-61.27913
979.542	46.19237
979.713	16.68414
979.884	-4.39031
980.055	73.59693
980.226	88.35483
980.397	33.54542
980.568	-0.17561
980.739	4.03918
980.91	4.03918
981.081	-25.46235
981.252	69.38059
981.423	25.11459
981.594	54.62413
981.765	37.76098
981.936	20.89932
982.106	-48.63874
982.277	16.68414
982.448	54.62413
982.619	54.62413
982.79	48.30027
982.96	-23.35526
983.131	56.73213
983.302	101.00532
983.472	71.48875
983.643	-6.49763
983.814	44.08449
983.984	37.76098
984.155	31.43768
984.326	-17.03383
984.496	10.36155
984.667	63.05626
984.837	41.97663
985.008	58.84015
985.178	54.62413
985.349	-42.31821
985.519	8.25407
985.69	-33.89048
985.86	-4.39031
986.031	-12.81942
986.201	-38.10439
986.371	69.38059
986.542	8.25407
986.712	8.25407
986.882	52.51615
987.053	20.89932
987.223	-21.24814
987.393	39.86879
987.563	18.79172
987.734	50.4082
987.904	-50.74553
988.074	4.03918
988.244	25.11459
988.414	-25.46235
988.585	-25.46235
988.755	-12.81942
988.925	-33.89048
989.095	27.22227
989.265	33.54542
989.435	-63.38577
989.605	41.97663
989.775	39.86879
989.945	44.08449
990.115	109.43943
990.285	65.16435
990.455	56.73213
990.625	-33.89048
990.795	94.67998
990.965	20.89932
991.134	41.97663
991.304	-21.24814
991.474	-12.81942
991.644	41.97663
991.814	8.25407
991.984	33.54542
992.153	14.57659
992.323	25.11459
992.493	122.09124
992.662	79.92161
992.832	71.48875
993.002	82.02988
993.171	86.24649
993.341	-65.49239
993.511	-6.49763
993.68	35.65319
993.85	58.84015
994.019	20.89932
994.189	16.68414
994.358	50.4082
994.528	-27.56942
994.697	41.97663
994.867	-8.60492
995.036	27.22227
995.206	18.79172
995.375	12.46906
995.544	-29.67646
995.714	-10.71218
995.883	60.94819
996.052	54.62413
996.222	-33.89048
996.391	52.51615
996.56	-17.03383
996.73	-44.42508
996.899	48.30027
997.068	41.97663
997.237	-0.17561
997.406	-6.49763
997.576	94.67998
997.745	1.93177
997.914	29.32996
998.083	56.73213
998.252	-14.92664
998.421	-25.46235
998.59	-82.34441
998.759	8.25407
998.928	-21.24814
999.097	-14.92664
999.266	1.93177
999.435	10.36155
999.604	6.14661
999.773	-63.38577
999.942	-23.35526
1000.111	-8.60492
1000.28	33.54542
1000.448	-59.17246
1000.617	33.54542
1000.786	-14.92664
1000.955	-0.17561
1001.124	4.03918
1001.292	41.97663
1001.461	-23.35526
1001.63	67.27246
1001.798	65.16435
1001.967	-8.60492
1002.136	-27.56942
1002.304	-12.81942
1002.473	20.89932
1002.642	-35.99745
1002.81	-10.71218
1002.979	-54.95905
1003.147	37.76098
1003.316	6.14661
1003.484	12.46906
1003.653	54.62413
1003.821	33.54542
1003.99	52.51615
1004.158	-0.17561
1004.327	44.08449
1004.495	31.43768
1004.663	41.97663
1004.832	37.76098
1005	1.93177
1005.168	37.76098
1005.337	73.59693
1005.505	-17.03383
1005.673	-46.53192
1005.842	-27.56942
1006.01	48.30027
1006.178	-46.53192
1006.346	33.54542
1006.514	-59.17246
1006.683	84.13817
1006.851	-12.81942
1007.019	71.48875
1007.187	8.25407
1007.355	31.43768
1007.523	50.4082
1007.691	-48.63874
1007.859	63.05626
1008.027	86.24649
1008.195	-17.03383
1008.363	41.97663
1008.531	27.22227
1008.699	-21.24814
1008.867	-44.42508
1009.035	-25.46235
1009.203	33.54542
1009.37	20.89932
1009.538	-107.61934
1009.706	58.84015
1009.874	67.27246
1010.042	33.54542
1010.209	-10.71218
1010.377	46.19237
1010.545	39.86879
1010.713	94.67998
1010.88	35.65319
1011.048	6.14661
1011.216	29.32996
1011.383	33.54542
1011.551	4.03918
1011.718	-84.4508
1011.886	-57.06577
1012.054	-42.31821
1012.221	44.08449
1012.389	-84.4508
1012.556	-14.92664
1012.724	-12.81942
1012.891	-8.60492
1013.058	1.93177
1013.226	-8.60492
1013.393	33.54542
1013.561	60.94819
1013.728	67.27246
1013.895	-31.78348
1014.063	-4.39031
1014.23	-17.03383
1014.397	37.76098
1014.565	-12.81942
1014.732	50.4082
1014.899	-33.89048
1015.066	-8.60492
1015.233	12.46906
1015.401	37.76098
1015.568	23.00695
1015.735	8.25407
1015.902	33.54542
1016.069	-8.60492
1016.236	6.14661
1016.403	16.68414
1016.57	10.36155
1016.737	-10.71218
1016.904	8.25407
1017.071	-33.89048
1017.238	-33.89048
1017.405	-6.49763
1017.572	-2.28298
1017.739	8.25407
1017.906	-17.03383
1018.073	-59.17246
1018.24	10.36155
1018.407	-4.39031
1018.573	-14.92664
1018.74	33.54542
1018.907	58.84015
1019.074	105.22233
1019.241	-12.81942
1019.407	-69.70555
1019.574	86.24649
1019.741	-12.81942
1019.907	-12.81942
1020.074	-59.17246
1020.241	16.68414
1020.407	23.00695
1020.574	-38.10439
1020.74	-4.39031
1020.907	12.46906
1021.073	-42.31821
1021.24	82.02988
1021.406	-23.35526
1021.573	8.25407
1021.739	27.22227
1021.906	16.68414
1022.072	44.08449
1022.239	18.79172
1022.405	-42.31821
1022.571	-67.59898
1022.738	48.30027
1022.904	-42.31821
1023.07	-25.46235
1023.237	-48.63874
1023.403	25.11459
1023.569	-25.46235
1023.735	41.97663
1023.902	-25.46235
1024.068	16.68414
1024.234	-17.03383
1024.4	52.51615
1024.566	-6.49763
1024.732	8.25407
1024.898	33.54542
1025.065	8.25407
1025.231	16.68414
1025.397	20.89932
1025.563	44.08449
1025.729	52.51615
1025.895	-33.89048
1026.061	-42.31821
1026.227	-14.92664
1026.392	48.30027
1026.558	-17.03383
1026.724	-63.38577
1026.89	8.25407
1027.056	-6.49763
1027.222	35.65319
1027.388	18.79172
1027.553	-25.46235
1027.719	20.89932
1027.885	-6.49763
1028.051	14.57659
1028.216	12.46906
1028.382	67.27246
1028.548	-40.21131
1028.713	-8.60492
1028.879	-52.8523
1029.045	-17.03383
1029.21	-0.17561
1029.376	1.93177
1029.541	-23.35526
1029.707	50.4082
1029.873	18.79172
1030.038	33.54542
1030.204	4.03918
1030.369	1.93177
1030.534	20.89932
1030.7	-14.92664
1030.865	-76.0251
1031.031	44.08449
1031.196	8.25407
1031.361	4.03918
1031.527	-4.39031
1031.692	25.11459
1031.857	46.19237
1032.023	44.08449
1032.188	50.4082
1032.353	-8.60492
1032.518	-59.17246
1032.684	-48.63874
1032.849	41.97663
1033.014	20.89932
1033.179	29.32996
1033.344	73.59693
1033.509	-23.35526
1033.674	46.19237
1033.839	-12.81942
1034.004	-33.89048
1034.17	41.97663
1034.335	-42.31821
1034.5	18.79172
1034.664	50.4082
1034.829	-2.28298
1034.994	29.32996
1035.159	-48.63874
1035.324	44.08449
1035.489	52.51615
1035.654	37.76098
1035.819	29.32996
1035.984	75.70514
1036.148	25.11459
1036.313	14.57659
1036.478	12.46906
1036.643	-31.78348
1036.807	73.59693
1036.972	20.89932
1037.137	50.4082
1037.301	4.03918
1037.466	-14.92664
1037.631	-25.46235
1037.795	-14.92664
1037.96	4.03918
1038.124	-33.89048
1038.289	-8.60492
1038.454	-17.03383
1038.618	-59.17246
1038.783	-33.89048
1038.947	-25.46235
1039.111	44.08449
1039.276	37.76098
1039.44	-59.17246
1039.605	52.51615
1039.769	-38.10439
1039.933	25.11459
1040.098	-76.0251
1040.262	-33.89048
1040.426	67.27246
1040.591	31.43768
1040.755	-50.74553
1040.919	-0.17561
1041.083	-92.87609
1041.248	12.46906
1041.412	-40.21131
1041.576	18.79172
1041.74	-57.06577
1041.904	1.93177
1042.068	-12.81942
1042.232	73.59693
1042.397	-10.71218
1042.561	-0.17561
1042.725	-46.53192
1042.889	12.46906
1043.053	12.46906
1043.217	27.22227
1043.381	-33.89048
1043.544	-0.17561
1043.708	-92.87609
1043.872	-12.81942
1044.036	-8.60492
1044.2	35.65319
1044.364	48.30027
1044.528	16.68414
1044.691	20.89932
1044.855	31.43768
1045.019	-6.49763
1045.183	-12.81942
1045.346	-25.46235
1045.51	4.03918
1045.674	1.93177
1045.837	-57.06577
1046.001	-23.35526
1046.165	-116.04347
1046.328	88.35483
1046.492	-2.28298
1046.655	23.00695
1046.819	50.4082
1046.983	16.68414
1047.146	25.11459
1047.31	10.36155
1047.473	58.84015
1047.636	-21.24814
1047.8	50.4082
1047.963	-21.24814
1048.127	-17.03383
1048.29	4.03918
