Data from absorb_only_2.23.25_USB4F045381__31__0136.txt Node

Date: Sun Feb 23 19:17:34 EST 2025
User: ssocol
Spectrometer: USB4F04538
Trigger mode: 4
Integration Time (sec): 2.600000E-3
Scans to average: 1
Electric dark correction enabled: true
Nonlinearity correction enabled: true
Boxcar width: 0
XAxis mode: Wavelengths
Number of Pixels in Spectrum: 3648
>>>>>Begin Spectral Data<<<<<
345.52	15.10348
345.736	15.10348
345.952	15.10348
346.168	-86.03057
346.384	-14.39983
346.6	-5.9708
346.816	31.96461
347.032	23.53386
347.248	19.31862
347.464	38.28793
347.68	-60.75247
347.896	-12.29261
348.112	-31.25673
348.328	-69.17891
348.544	8.78094
348.76	69.90763
348.975	-12.29261
349.191	27.74919
349.407	-86.03057
349.623	-46.00521
349.839	-1.75614
350.055	23.53386
350.27	36.18013
350.486	-39.68458
350.702	8.78094
350.918	-14.39983
351.133	19.31862
351.349	36.18013
351.565	-24.93558
351.781	2.45862
351.996	-3.86348
352.212	-24.93558
352.428	2.45862
352.644	4.56604
352.859	-3.86348
353.075	48.82725
353.291	-33.36373
353.506	6.67348
353.722	-92.34952
353.938	-35.47071
354.153	12.99594
354.369	-43.89836
354.584	27.74919
354.8	8.78094
355.016	55.15113
355.231	-75.49848
355.447	-39.68458
355.662	-18.61421
355.878	36.18013
356.093	-10.18537
356.309	25.64151
356.524	21.42623
356.74	17.21104
356.955	-16.50703
357.171	-5.9708
357.386	-12.29261
357.602	-60.75247
357.817	19.31862
358.033	19.31862
358.248	21.42623
358.464	-73.39198
358.679	-67.07234
358.895	27.74919
359.11	-22.82848
359.325	15.10348
359.541	36.18013
359.756	-5.9708
359.972	-22.82848
360.187	-3.86348
360.402	-56.53909
360.618	-39.68458
360.833	-18.61421
361.048	-77.60495
361.264	-98.66823
361.479	-5.9708
361.694	-64.96574
361.909	4.56604
362.125	38.28793
362.34	23.53386
362.555	-22.82848
362.77	-48.11204
362.986	-14.39983
363.201	-20.72135
363.416	-81.81781
363.631	-88.13691
363.847	-16.50703
364.062	2.45862
364.277	-24.93558
364.492	-56.53909
364.707	44.61145
364.922	-10.18537
365.138	6.67348
365.353	-22.82848
365.568	40.39575
365.783	-10.18537
365.998	-3.86348
366.213	-8.0781
366.428	-10.18537
366.643	-48.11204
366.858	-20.72135
367.073	-56.53909
367.288	69.90763
367.503	-5.9708
367.718	-1.75614
367.933	19.31862
368.148	-73.39198
368.363	-31.25673
368.578	-18.61421
368.793	63.58328
369.008	31.96461
369.223	19.31862
369.438	-39.68458
369.653	-27.04265
369.868	-27.04265
370.083	-14.39983
370.298	-39.68458
370.513	2.45862
370.728	-27.04265
370.943	6.67348
371.157	8.78094
371.372	-113.41097
371.587	-58.64579
371.802	-10.18537
372.017	-3.86348
372.232	-8.0781
372.446	-22.82848
372.661	10.88843
372.876	-14.39983
373.091	-48.11204
373.306	12.99594
373.52	40.39575
373.735	-5.9708
373.95	-27.04265
374.165	-24.93558
374.379	19.31862
374.594	-18.61421
374.809	-8.0781
375.023	61.47521
375.238	-48.11204
375.453	27.74919
375.667	-5.9708
375.882	-14.39983
376.097	-29.1497
376.311	4.56604
376.526	-88.13691
376.741	-39.68458
376.955	-5.9708
377.17	-3.86348
377.384	2.45862
377.599	-43.89836
377.813	-31.25673
378.028	40.39575
378.242	-24.93558
378.457	-10.18537
378.672	-14.39983
378.886	-52.32561
379.101	15.10348
379.315	-39.68458
379.53	-64.96574
379.744	29.85689
379.958	-29.1497
380.173	-90.24323
380.387	10.88843
380.602	-5.9708
380.816	10.88843
381.031	19.31862
381.245	27.74919
381.459	-31.25673
381.674	15.10348
381.888	-73.39198
382.103	-10.18537
382.317	-16.50703
382.531	61.47521
382.746	-18.61421
382.96	-22.82848
383.174	15.10348
383.388	-22.82848
383.603	-54.43236
383.817	-10.18537
384.031	10.88843
384.246	-27.04265
384.46	-37.57766
384.674	12.99594
384.888	-41.79148
385.103	10.88843
385.317	-27.04265
385.531	-54.43236
385.745	40.39575
385.959	-3.86348
386.174	27.74919
386.388	23.53386
386.602	-54.43236
386.816	10.88843
387.03	12.99594
387.244	46.71934
387.458	-35.47071
387.672	17.21104
387.887	-24.93558
388.101	-37.57766
388.315	-3.86348
388.529	46.71934
388.743	-31.25673
388.957	46.71934
389.171	15.10348
389.385	15.10348
389.599	-22.82848
389.813	15.10348
390.027	-54.43236
390.241	36.18013
390.455	19.31862
390.669	2.45862
390.883	25.64151
391.097	78.34042
391.311	-1.75614
391.525	19.31862
391.738	10.88843
391.952	-54.43236
392.166	-12.29261
392.38	90.99028
392.594	-20.72135
392.808	-54.43236
393.022	10.88843
393.236	2.45862
393.449	-35.47071
393.663	-29.1497
393.877	-48.11204
394.091	48.82725
394.305	72.0158
394.518	27.74919
394.732	-27.04265
394.946	-56.53909
395.16	-22.82848
395.373	-18.61421
395.587	-20.72135
395.801	-39.68458
396.015	17.21104
396.228	-48.11204
396.442	8.78094
396.656	19.31862
396.869	-20.72135
397.083	-39.68458
397.297	-14.39983
397.51	0.35123
397.724	48.82725
397.938	12.99594
398.151	-14.39983
398.365	21.42623
398.578	-88.13691
398.792	36.18013
399.005	21.42623
399.219	0.35123
399.433	-43.89836
399.646	-48.11204
399.86	-60.75247
400.073	57.25913
400.287	-18.61421
400.5	-3.86348
400.714	-5.9708
400.927	27.74919
401.141	-22.82848
401.354	-12.29261
401.567	-39.68458
401.781	2.45862
401.994	-22.82848
402.208	-5.9708
402.421	44.61145
402.635	-1.75614
402.848	12.99594
403.061	6.67348
403.275	34.07236
403.488	-64.96574
403.701	29.85689
403.915	31.96461
404.128	-56.53909
404.341	-10.18537
404.555	4.56604
404.768	44.61145
404.981	-52.32561
405.195	59.36716
405.408	-62.85911
405.621	12.99594
405.834	6.67348
406.048	-5.9708
406.261	-12.29261
406.474	-39.68458
406.687	50.93519
406.9	10.88843
407.114	31.96461
407.327	-16.50703
407.54	-12.29261
407.753	21.42623
407.966	-64.96574
408.179	-58.64579
408.392	19.31862
408.605	53.04315
408.819	6.67348
409.032	-5.9708
409.245	-27.04265
409.458	-14.39983
409.671	36.18013
409.884	40.39575
410.097	-50.21884
410.31	-12.29261
410.523	2.45862
410.736	-29.1497
410.949	2.45862
411.162	2.45862
411.375	-22.82848
411.588	46.71934
411.801	76.23219
412.014	-48.11204
412.227	2.45862
412.44	-24.93558
412.653	15.10348
412.865	-31.25673
413.078	-48.11204
413.291	-27.04265
413.504	-10.18537
413.717	6.67348
413.93	-16.50703
414.143	-3.86348
414.356	-20.72135
414.568	74.12398
414.781	-18.61421
414.994	118.40105
415.207	-1.75614
415.42	-12.29261
415.632	27.74919
415.845	-29.1497
416.058	17.21104
416.271	10.88843
416.483	-12.29261
416.696	-10.18537
416.909	-37.57766
417.121	80.44868
417.334	31.96461
417.547	-35.47071
417.759	-54.43236
417.972	40.39575
418.185	10.88843
418.397	48.82725
418.61	-35.47071
418.823	27.74919
419.035	-5.9708
419.248	46.71934
419.46	-14.39983
419.673	-27.04265
419.885	15.10348
420.098	61.47521
420.311	-27.04265
420.523	48.82725
420.736	80.44868
420.948	-39.68458
421.161	-37.57766
421.373	42.50359
421.586	2.45862
421.798	2.45862
422.01	-71.28546
422.223	19.31862
422.435	72.0158
422.648	10.88843
422.86	-48.11204
423.073	4.56604
423.285	57.25913
423.497	-54.43236
423.71	-54.43236
423.922	25.64151
424.134	2.45862
424.347	57.25913
424.559	-64.96574
424.771	-1.75614
424.984	-5.9708
425.196	-69.17891
425.408	10.88843
425.621	2.45862
425.833	112.07516
426.045	17.21104
426.257	2.45862
426.47	-10.18537
426.682	-39.68458
426.894	-18.61421
427.106	23.53386
427.318	-10.18537
427.531	-24.93558
427.743	29.85689
427.955	-29.1497
428.167	21.42623
428.379	4.56604
428.591	10.88843
428.804	-54.43236
429.016	-5.9708
429.228	19.31862
429.44	34.07236
429.652	-46.00521
429.864	-22.82848
430.076	-79.71139
430.288	90.99028
430.5	10.88843
430.712	46.71934
430.924	82.55695
431.136	-18.61421
431.348	-46.00521
431.56	10.88843
431.772	-24.93558
431.984	10.88843
432.196	65.69137
432.408	23.53386
432.62	-77.60495
432.832	-20.72135
433.044	-1.75614
433.256	61.47521
433.468	-10.18537
433.679	-20.72135
433.891	36.18013
434.103	-1.75614
434.315	-12.29261
434.527	12.99594
434.739	-1.75614
434.95	-35.47071
435.162	21.42623
435.374	31.96461
435.586	19.31862
435.798	82.55695
436.009	-33.36373
436.221	88.88192
436.433	25.64151
436.645	-5.9708
436.856	55.15113
437.068	27.74919
437.28	74.12398
437.491	23.53386
437.703	36.18013
437.915	63.58328
438.126	46.71934
438.338	44.61145
438.55	-31.25673
438.761	86.77357
438.973	27.74919
439.184	27.74919
439.396	-29.1497
439.608	10.88843
439.819	57.25913
440.031	2.45862
440.242	86.77357
440.454	27.74919
440.665	10.88843
440.877	74.12398
441.088	-1.75614
441.3	-64.96574
441.511	67.79949
441.723	44.61145
441.934	38.28793
442.146	15.10348
442.357	61.47521
442.569	-48.11204
442.78	25.64151
442.991	38.28793
443.203	59.36716
443.414	84.66525
443.626	-75.49848
443.837	2.45862
444.048	61.47521
444.26	2.45862
444.471	19.31862
444.682	36.18013
444.894	46.71934
445.105	-22.82848
445.316	27.74919
445.528	48.82725
445.739	6.67348
445.95	23.53386
446.161	19.31862
446.373	25.64151
446.584	-14.39983
446.795	-50.21884
447.006	34.07236
447.217	29.85689
447.429	6.67348
447.64	6.67348
447.851	61.47521
448.062	-62.85911
448.273	-43.89836
448.484	48.82725
448.695	31.96461
448.907	-14.39983
449.118	82.55695
449.329	57.25913
449.54	19.31862
449.751	8.78094
449.962	19.31862
450.173	-1.75614
450.384	44.61145
450.595	90.99028
450.806	10.88843
451.017	103.64094
451.228	53.04315
451.439	8.78094
451.65	90.99028
451.861	-67.07234
452.072	-5.9708
452.283	80.44868
452.494	59.36716
452.705	46.71934
452.915	-12.29261
453.126	-35.47071
453.337	31.96461
453.548	27.74919
453.759	46.71934
453.97	57.25913
454.181	-14.39983
454.391	23.53386
454.602	15.10348
454.813	82.55695
455.024	80.44868
455.235	0.35123
455.445	-3.86348
455.656	44.61145
455.867	72.0158
456.078	48.82725
456.288	86.77357
456.499	38.28793
456.71	63.58328
456.921	36.18013
457.131	2.45862
457.342	86.77357
457.553	36.18013
457.763	53.04315
457.974	63.58328
458.184	72.0158
458.395	90.99028
458.606	48.82725
458.816	90.99028
459.027	120.50972
459.237	40.39575
459.448	40.39575
459.659	42.50359
459.869	84.66525
460.08	2.45862
460.29	112.07516
460.501	114.18377
460.711	107.85801
460.922	72.0158
461.132	137.37989
461.343	63.58328
461.553	61.47521
461.764	44.61145
461.974	74.12398
462.184	99.42397
462.395	48.82725
462.605	152.14241
462.816	78.34042
463.026	55.15113
463.236	128.94464
463.447	171.12431
463.657	120.50972
463.867	21.42623
464.078	145.81549
464.288	84.66525
464.498	78.34042
464.709	86.77357
464.919	147.92445
465.129	118.40105
465.339	116.2924
465.55	80.44868
465.76	128.94464
465.97	65.69137
466.18	44.61145
466.391	76.23219
466.601	150.03342
466.811	112.07516
467.021	107.85801
467.231	103.64094
467.441	65.69137
467.651	175.34274
467.862	187.99852
468.072	171.12431
468.282	221.75083
468.492	112.07516
468.702	154.25143
468.912	171.12431
469.122	63.58328
469.332	99.42397
469.542	198.54556
469.752	196.43612
469.962	194.32669
470.172	223.86052
470.382	276.60902
470.592	228.07995
470.802	181.67054
471.012	251.28824
471.222	310.37423
471.432	278.71921
471.642	221.75083
471.852	348.36559
472.062	225.97022
472.272	346.25481
472.482	291.38072
472.691	266.05836
472.901	259.7282
473.111	318.81625
473.321	285.04988
473.531	344.14405
473.741	323.03738
473.95	449.70275
474.16	348.36559
474.37	390.5848
474.58	356.80889
474.79	477.15454
474.999	477.15454
475.209	335.70117
475.419	430.69919
475.628	470.81928
475.838	502.49691
476.048	553.18786
476.258	608.11191
476.467	555.30016
476.677	534.1778
476.886	584.87373
477.096	567.97422
477.306	654.59284
477.515	523.61715
477.725	633.46441
477.935	770.81955
478.144	732.77811
478.354	753.91183
478.563	844.79808
478.773	798.29594
478.982	694.74011
479.192	703.19269
479.401	846.91191
479.611	874.39258
479.82	846.91191
480.03	933.58639
480.239	923.01562
480.449	977.98559
480.658	935.70057
480.868	1032.96009
481.077	1047.76162
481.287	1024.5022
481.496	1121.7732
481.705	942.04314
481.915	1147.14995
482.124	1174.64211
482.333	1282.50154
482.543	1096.3971
482.752	1362.87147
482.961	1413.63241
483.171	1436.89795
483.38	1238.08789
483.589	1250.77739
483.799	1593.41049
484.008	1532.07507
484.217	1413.63241
484.426	1568.03046
484.636	1474.96889
484.845	1697.04245
485.054	1589.1805
485.263	1574.37549
485.472	1764.71669
485.682	1745.68368
485.891	1794.32299
486.1	1646.28466
486.309	1705.50191
486.518	1900.05258
486.727	1857.76219
486.936	1823.92846
487.146	2039.59457
487.355	2048.05076
487.564	2071.30471
487.773	2001.54037
487.982	1993.08359
488.191	2246.73613
488.4	2071.30471
488.609	2185.44723
488.818	2259.41567
489.027	2162.19785
489.236	2274.20805
489.445	2377.74165
489.654	2379.85433
489.863	2449.56704
490.072	2369.29081
490.281	2563.61659
490.49	2396.75543
490.698	2597.40255
490.907	2578.39832
491.116	2675.52058
491.325	2451.67936
491.534	2677.63164
491.743	2660.74281
491.952	2700.85245
492.16	2802.16099
492.369	2901.32828
492.578	2751.51057
492.787	3084.80773
492.996	2844.36364
493.204	2878.12172
493.413	2920.31416
493.622	3082.69943
493.831	2939.29886
494.039	3230.24168
494.248	3065.83246
494.457	3255.52656
494.665	3013.11678
494.874	3198.63221
495.083	3145.94153
495.291	3226.0273
495.5	3297.66264
495.709	3426.13508
495.917	3310.30213
496.126	3541.91417
496.335	3356.64165
496.543	3527.18171
496.752	3352.42931
496.96	3655.53399
497.169	3428.24064
497.377	3432.45171
497.586	3445.08448
497.794	3470.3481
498.003	3596.62682
498.211	3798.53185
498.42	3522.97226
498.628	3788.02036
498.837	3512.44834
499.045	3869.9969
499.254	3588.2103
499.462	3827.96141
499.671	3727.04409
499.879	3848.98015
500.087	3756.48295
500.296	4010.75726
500.504	3804.83851
500.713	4031.75843
500.921	4073.75459
501.129	3983.45268
501.338	3924.6311
501.546	4331.84622
501.754	4042.25825
501.962	4092.65015
502.171	4019.15798
502.379	4166.11682
502.587	4071.65498
502.795	4319.26387
503.004	4056.95712
503.212	4466.00932
503.42	4168.21549
503.628	4291.99945
503.837	4088.45128
504.045	4453.43533
504.253	4621.02309
504.461	4562.38352
504.669	4329.74922
504.877	4671.27162
505.085	4549.81563
505.294	4604.27071
505.502	4388.45716
505.71	4543.53139
505.918	4547.72091
506.126	4600.0824
506.334	4510.01204
506.542	4870.04446
506.75	4635.68025
506.958	4859.58784
507.166	4706.85651
507.374	4834.48964
507.582	4834.48964
507.79	4888.86492
507.998	4874.22694
508.206	4727.78575
508.414	4723.60008
508.622	4849.13066
508.83	4805.20426
509.037	5166.7721
509.245	4675.45842
509.453	4968.30862
509.661	5010.10776
509.869	4982.93937
510.077	4855.40504
510.285	5010.10776
510.492	5223.13927
510.7	5248.18588
510.908	4974.57908
511.116	5402.56555
511.324	4968.30862
511.531	5279.48942
511.739	5235.663
511.947	5371.28274
512.155	5164.6841
512.362	5260.70793
512.57	5229.40124
512.778	5473.45366
512.985	5369.19704
513.193	5504.71919
513.401	5402.56555
513.608	5471.36911
513.816	5310.78769
514.024	5446.35259
514.231	5348.33867
514.439	5690.11893
514.646	5435.92804
514.854	5610.98233
515.061	5460.94597
515.269	5696.3651
515.477	5373.36843
515.684	5648.47234
515.892	5673.46142
516.099	5694.28307
516.307	5544.31458
516.514	5864.93153
516.722	5877.41177
516.929	5802.51757
517.136	5767.14024
517.344	5808.75993
517.551	5752.57112
517.759	5973.06542
517.966	5881.57166
518.173	5968.9076
518.381	5948.1171
518.588	5985.5383
518.796	5819.16337
519.003	5979.30196
519.21	6008.40305
519.418	6288.78416
519.625	6126.83841
519.832	6226.51421
520.039	6004.24604
520.247	6348.95843
520.454	6243.12159
520.661	6145.53174
520.868	6112.29783
521.076	6436.07258
521.283	6218.20996
521.49	6292.93474
521.697	6160.06969
521.904	6452.66109
522.112	6101.911
522.319	6477.54107
522.526	6226.51421
522.733	6587.38772
522.94	6386.2981
523.147	6645.3937
523.354	6587.38772
523.561	6635.03682
523.768	6527.29101
523.975	6494.12587
524.183	6492.05285
524.39	6668.17682
524.597	6485.83366
524.804	6877.23771
525.011	6811.02581
525.218	6699.24023
525.425	6610.17794
525.632	6775.84124
525.838	6647.46501
526.045	6831.71953
526.252	6701.31094
526.459	6986.85009
526.666	6724.08724
526.873	6823.44231
527.08	6891.71846
527.287	7084.00057
527.494	6889.64985
527.701	7179.03619
527.907	6728.22809
528.114	7323.56566
528.321	6924.81315
528.528	7183.16711
528.735	7280.21816
528.941	7261.63769
529.148	7042.666
529.355	7356.58585
529.562	7253.37913
529.768	7263.70227
529.975	6926.88137
530.182	7238.9258
530.388	7243.05543
530.595	7399.91635
530.802	7199.68989
531.008	7271.96039
531.215	7575.20415
531.422	7558.7131
531.628	7391.66366
531.835	7742.09934
532.042	7414.35772
532.248	7814.17177
532.455	7478.29958
532.661	7618.48664
532.868	7492.73518
533.074	7575.20415
533.281	7503.04569
533.487	7702.96355
533.694	7517.47948
533.9	7900.62503
534.107	7822.40699
534.313	7917.08819
534.52	7610.24308
534.726	7877.98604
534.933	7954.12547
535.139	7834.7592
535.345	7884.16056
535.552	7824.46575
535.758	8155.65726
535.965	8081.64772
536.171	7700.90356
536.377	8032.29353
536.584	7777.10915
536.79	7987.04193
536.996	8065.19762
537.203	8178.26612
537.409	7982.92766
537.615	8190.5972
537.821	8143.32414
538.028	8463.75477
538.234	8276.89485
538.44	8398.06406
538.646	8093.98445
538.853	8367.26475
539.059	8112.48819
539.265	8258.40542
539.471	8338.51478
539.677	8334.40733
539.883	8266.62314
540.09	8270.73188
540.296	8381.6383
540.502	8465.80729
540.708	8582.7694
540.914	8689.41841
541.12	8691.46886
541.326	8927.14897
541.532	8621.74315
541.738	8925.1006
541.944	8572.51202
542.15	8777.57116
542.356	8927.14897
542.562	8937.39053
542.768	8685.31745
542.974	8740.67414
543.18	8974.25649
543.386	9060.25491
543.592	8882.0808
543.798	9127.80358
544.004	9043.87663
544.21	8804.21534
544.415	8798.06696
544.621	9166.68675
544.827	9135.99003
545.033	9129.85022
545.239	9144.1762
545.445	9311.93294
545.651	8898.47022
545.856	9152.36209
546.062	9140.08314
546.268	9401.90256
546.474	9045.92398
546.679	9176.91814
546.885	9062.30211
547.091	9017.25955
547.297	9004.97375
547.502	9338.51819
547.708	9144.1762
547.914	9144.1762
548.119	9017.25955
548.325	9318.06825
548.531	9004.97375
548.736	9363.05595
548.942	9007.02143
549.147	9320.11332
549.353	9250.57164
549.559	9387.59134
549.764	9271.02708
549.97	9363.05595
550.175	9418.25726
550.381	9708.38333
550.586	9295.57139
550.792	9636.9028
550.997	9822.71326
551.203	9685.92006
551.408	9628.73239
551.614	9936.9963
551.819	9739.01208
552.025	9863.53396
552.23	9769.63741
552.435	9606.26247
552.641	9969.64015
552.846	10006.36005
553.052	9669.58196
553.257	9969.64015
553.462	9761.47099
553.668	10073.66781
553.873	9990.04067
554.078	10112.41377
554.283	9781.88659
554.489	10196.0063
554.694	9810.46589
554.899	10130.76535
555.105	10014.51939
555.31	10126.68732
555.515	10124.64828
555.72	10120.57017
555.925	9865.57483
556.131	10352.9351
556.336	10242.88953
556.541	10316.25758
556.746	10222.5064
556.951	10389.60834
557.156	10096.1003
557.361	10173.58132
557.567	10281.61373
557.772	10352.9351
557.977	10320.33307
558.182	10312.18203
558.387	10283.65171
558.592	10334.59688
558.797	10132.80435
559.002	10454.79475
559.207	10198.04485
559.412	10145.03802
559.617	10322.3708
559.822	10515.89503
560.027	10656.38261
560.232	10583.09214
560.437	10703.19876
560.642	10674.70274
560.847	10876.16018
561.051	10908.7082
561.256	10517.9315
561.461	10654.34698
561.666	10556.62218
561.871	10642.13294
562.076	10754.07864
562.281	10945.32123
562.485	10745.93836
562.69	10540.33193
562.895	10493.49293
563.1	10747.97345
563.305	10725.58683
563.509	10900.57147
563.714	10631.95423
563.919	10837.50558
564.123	10780.53323
564.328	10886.33175
564.533	10654.34698
564.737	11049.03844
564.942	10792.74236
565.147	11120.20038
565.351	11148.66146
565.556	10888.36603
565.761	10750.00853
565.965	11118.16736
566.17	11020.56992
566.374	11120.20038
566.579	11193.38182
566.784	11244.19426
566.988	11022.60346
567.193	11114.1013
567.397	11042.93822
567.602	10967.69406
567.806	11038.87136
568.011	10831.40184
568.215	11286.87172
568.42	11148.66146
568.624	11240.12951
568.828	11036.83791
569.033	10937.18532
569.237	11266.54969
569.442	11103.93596
569.646	11266.54969
569.85	11244.19426
570.055	11816.93593
570.259	11366.11799
570.463	11492.06832
570.668	11402.68808
570.872	11038.87136
571.076	11388.46676
571.281	11624.07372
571.485	11567.21468
571.689	11583.46085
571.893	11431.12928
572.098	11699.19795
572.302	11425.0349
572.506	11548.93702
572.71	11116.13434
572.914	11668.74366
573.119	11362.05445
573.323	11443.31778
573.527	11534.72053
573.731	11727.62015
573.935	11652.50055
574.139	11794.60855
574.343	11457.53726
574.547	11721.52982
574.751	11687.01648
574.955	11867.67617
575.159	11658.59179
575.364	11697.16773
575.568	11739.80056
575.772	11942.76216
575.976	11646.40924
576.18	11735.74046
576.383	11820.99535
576.587	11918.41118
576.791	11634.22636
576.995	11942.76216
577.199	11847.3807
577.403	11961.02463
577.607	11837.23266
577.811	11979.28644
578.015	11800.69794
578.219	12076.67195
578.422	11865.64666
578.626	12125.358
578.83	11733.7104
579.034	12137.52883
579.238	12013.77922
579.442	12180.1246
579.645	12011.7503
579.849	12103.04411
580.053	12451.85178
580.257	12253.13838
580.46	12281.53009
580.664	12431.5779
580.868	12119.27248
581.071	12449.82442
581.275	12305.86474
581.479	12275.44627
581.682	12143.61414
581.886	12259.22243
582.09	12364.66933
582.293	12291.66965
582.497	12464.0158
582.7	12350.47565
582.904	12498.47923
583.107	12498.47923
583.311	12259.22243
583.515	12486.31588
583.718	12236.91391
583.922	12632.26102
584.125	12733.59318
584.329	12770.06919
584.532	12851.12045
584.735	12512.66951
584.939	12320.05949
585.142	12810.59593
585.346	12472.12501
585.549	12976.73283
585.753	12938.24086
585.956	12887.59066
586.159	12721.4341
586.363	12824.77976
586.566	12609.96593
586.769	12879.48632
586.973	12401.16582
587.176	12790.33284
587.379	12727.51367
587.582	12891.64279
587.786	12626.18061
587.989	13102.32563
588.192	12800.46446
588.395	13035.48021
588.599	13003.06838
588.802	13323.0824
589.005	12913.92917
589.208	13005.09416
589.411	13043.58296
589.615	13039.53159
589.818	12936.21491
590.021	13173.21664
590.224	13118.52979
590.427	12930.13705
590.63	13073.96761
590.833	13154.98807
591.036	12917.98117
591.239	13086.12116
591.442	13146.88636
591.645	13027.37737
591.848	13086.12116
592.051	13312.95708
592.254	13231.95067
592.457	13395.9817
592.66	13292.70612
592.863	13507.34577
593.066	13335.23265
593.269	13258.27851
593.472	13246.12729
593.675	13693.60304
593.878	13294.73123
594.081	13580.23254
594.284	13420.28031
594.486	13669.31024
594.689	13562.01128
594.892	13468.87585
595.095	13673.35908
595.298	13505.32107
595.5	13444.57835
595.703	13725.99273
595.906	13325.10745
596.109	13612.62519
596.311	13483.04914
596.514	13624.77221
596.717	13446.60317
596.92	13723.9684
597.122	13669.31024
597.325	13661.21254
597.528	13511.39516
597.73	14078.18312
597.933	13756.35733
598.136	13873.76081
598.338	13616.67421
598.541	13979.01115
598.743	13859.59193
598.946	13808.98769
599.148	13873.76081
599.351	13885.90545
599.554	13946.62719
599.756	13871.73669
599.959	13940.55512
600.161	14136.87412
600.363	14009.37053
600.566	14260.32185
600.768	14106.51694
600.971	14013.41841
601.173	14175.32586
601.376	14029.60982
601.578	13645.01697
601.78	14017.46628
601.983	14231.99024
602.185	13962.81925
602.388	14061.99217
602.59	14175.32586
602.792	13904.12222
602.995	14223.89542
603.197	13993.17893
603.399	14361.50329
603.601	14057.94441
603.804	14223.89542
604.006	14209.72942
604.208	13875.78492
604.41	14005.32265
604.613	13950.67522
604.815	13916.26662
605.017	14219.848
605.219	13999.2508
605.421	14104.49311
605.623	14049.84886
605.826	14329.1257
606.028	14102.46928
606.23	14436.37489
606.432	14335.19654
606.634	14584.08883
606.836	14151.04064
607.038	14017.46628
607.24	13815.06029
607.442	14642.76791
607.644	14193.53958
607.846	14458.63362
608.048	14331.14932
608.25	14450.53956
608.452	14264.36919
608.654	14501.12707
608.856	14197.58705
609.058	14422.21016
609.26	14023.53806
609.462	14292.70039
609.664	14588.13569
609.866	14209.72942
610.067	14144.96929
610.269	14282.58215
610.471	14442.44547
610.673	14563.85445
610.875	14329.1257
611.077	14669.07203
611.278	14462.68064
611.48	14385.78621
611.682	14491.00964
611.884	14673.11881
612.085	14438.39842
612.287	14911.87273
612.489	14497.0801
612.69	14596.22941
612.892	14314.96037
613.094	14476.84517
613.295	14175.32586
613.497	14563.85445
613.699	14438.39842
613.9	14750.00681
614.102	14663.00186
614.304	14428.28077
614.505	14474.82167
614.707	14535.52611
614.908	14215.80057
615.11	14357.45612
615.311	14304.84223
615.513	14966.50168
615.714	14768.21694
615.916	14592.18255
616.117	14296.74768
616.319	14650.8615
616.52	14482.91567
616.722	14792.49703
616.923	14926.03582
617.124	14432.32783
617.326	14331.14932
617.527	14561.831
617.729	14539.57303
617.93	14841.05689
618.131	14693.35262
618.333	14677.16558
618.534	14580.04196
618.735	14762.14691
618.937	14476.84517
619.138	14851.17349
619.339	14865.33669
619.54	14743.93675
619.742	14727.74989
619.943	14832.96361
620.144	14733.81997
620.345	14573.97165
620.546	14986.73455
620.748	15223.45764
620.949	14780.357
621.15	14924.01253
621.351	14592.18255
621.552	14602.29968
621.753	14381.73907
621.954	14885.56979
622.155	14671.09542
622.356	14697.39937
622.558	14681.21234
622.759	14826.89364
622.96	14515.29143
623.161	14867.36
623.362	14476.84517
623.563	14784.40368
623.764	14642.76791
623.965	14802.6137
624.166	14754.05351
624.366	14693.35262
624.567	14776.31032
624.768	14794.52037
624.969	14551.71376
625.17	14610.39336
625.371	14743.93675
625.572	15029.22347
625.773	14543.61994
625.973	14786.42702
626.174	14830.94029
626.375	14909.84943
626.576	14934.12901
626.777	14930.08242
626.977	14624.55726
627.178	15164.78278
627.379	14802.6137
627.58	14903.77953
627.78	14745.9601
627.981	14626.58067
628.182	14741.91339
628.382	14660.97847
628.583	14756.07686
628.784	14547.66685
628.984	14497.0801
629.185	14703.46949
629.386	14525.40878
629.586	15047.43297
629.787	14741.91339
629.987	14725.72652
630.188	14851.17349
630.388	14743.93675
630.589	14594.20598
630.79	14735.84332
630.99	15039.33986
631.191	15193.10857
631.391	15172.87586
631.591	14950.31536
631.792	15067.66573
631.992	15367.11046
632.193	15308.43521
632.393	14976.61812
632.594	14612.41678
632.794	15079.80537
632.994	14610.39336
633.195	14855.22012
633.395	14790.47369
633.595	14889.6164
633.796	14893.66301
633.996	15132.41045
634.196	15067.66573
634.397	15421.73941
634.597	15025.17691
634.797	15134.43372
634.997	14871.40662
635.198	14986.73455
635.398	14612.41678
635.598	14899.73292
635.798	14826.89364
635.998	14903.77953
636.199	14725.72652
636.399	15140.50353
636.599	14952.33865
636.799	15140.50353
636.999	15089.92174
637.199	14946.26877
637.399	14992.8044
637.599	15002.92082
637.799	14895.68631
637.999	15063.61918
638.199	15373.18033
638.399	15425.78601
638.599	15385.32008
638.799	15561.34845
638.999	15168.82932
639.199	15549.20841
639.399	15199.17838
639.599	15201.20165
639.799	15035.29331
639.999	15316.52833
640.199	14832.96361
640.399	15533.02174
640.599	14654.90829
640.799	15464.22883
640.998	15249.76019
641.198	15219.4111
641.398	14897.70962
641.598	15482.43865
641.798	15365.08717
641.997	15215.36455
642.197	15168.82932
642.397	15407.57632
642.597	15189.06203
642.796	15354.97073
642.996	15075.75883
643.196	15409.59962
643.395	14921.98923
643.595	15255.83001
643.795	15389.36666
643.994	15460.18221
644.194	15530.99841
644.394	15779.8741
644.593	15524.92842
644.793	15577.5352
644.992	15237.62055
645.192	15573.48851
645.392	15308.43521
645.591	15721.19487
645.791	15741.42899
645.99	15771.78036
646.19	15448.04236
646.389	15395.43654
646.589	15328.66803
646.788	15429.83262
646.987	15361.04059
647.187	15595.74535
647.386	15213.34128
647.586	15460.18221
647.785	15490.53192
647.984	15512.78846
648.184	15640.25932
648.383	15476.36871
648.582	15433.87922
648.782	15658.46969
648.981	15688.82047
649.18	15751.54609
649.38	15753.56951
649.579	15915.44692
649.778	15792.01474
649.977	15980.20008
650.177	15840.5777
650.376	15777.85066
650.575	15450.06567
650.774	15846.64811
650.973	15761.66321
651.173	15516.83511
651.372	15480.41534
651.571	15899.25884
651.77	15648.35281
651.969	15953.89394
652.168	15688.82047
652.367	15883.07083
652.566	15678.70352
652.765	15982.22364
652.964	15694.89065
653.163	15949.84687
653.362	15828.4369
653.561	15763.68664
653.76	15446.01905
653.959	15767.7335
654.158	15939.72919
654.357	15642.28269
654.556	15427.80932
654.755	15688.82047
654.954	15923.54099
655.153	15684.77369
655.352	15757.61636
655.551	15832.48383
655.749	15787.96786
655.948	15488.5086
656.147	15539.09174
656.346	15771.78036
656.545	15533.02174
656.743	15688.82047
656.942	15482.43865
657.141	15688.82047
657.34	15838.55423
657.538	15789.9913
657.737	15484.46197
657.936	15814.27268
658.135	15551.23175
658.333	15494.57856
658.532	15486.48529
658.731	15721.19487
658.929	15715.12465
659.128	15877.00035
659.326	15854.74202
659.525	16198.75297
659.724	15747.49925
659.922	16026.74228
660.121	15891.16482
660.319	16117.80535
660.518	15822.36651
660.716	16032.81306
660.915	15721.19487
661.113	16077.33249
661.312	16040.90745
661.51	16063.16714
661.709	16150.18408
661.907	16156.25514
662.105	16044.95465
662.304	15953.89394
662.502	15846.64811
662.701	16065.19076
662.899	15931.63508
663.097	16186.61066
663.296	15664.53983
663.494	16212.91908
663.692	15769.75693
663.891	15646.32943
664.089	15828.4369
664.287	16253.39414
664.485	15842.60117
664.684	15998.41216
664.882	15881.04734
665.08	15804.15542
665.278	15624.07237
665.476	15846.64811
665.675	15818.3196
665.873	15759.63978
666.071	15672.63336
666.269	15680.72691
666.467	15705.00764
666.665	15947.82333
666.863	15615.97892
667.061	15731.31192
667.259	15925.56451
667.457	15972.10586
667.655	15814.27268
667.853	15678.70352
668.051	15834.50729
668.249	15798.08507
668.447	15559.32511
668.645	15903.30585
668.843	15794.03818
669.041	15787.96786
669.239	15838.55423
669.437	15727.26509
669.635	15717.14805
669.833	15885.09433
670.031	15745.47583
670.229	15688.82047
670.426	15733.33533
670.624	15557.30177
670.822	15328.66803
671.02	15792.01474
671.218	15607.88548
671.415	15747.49925
671.613	15751.54609
671.811	15456.13559
672.009	15545.16174
672.206	15512.78846
672.404	15767.7335
672.602	15514.81178
672.799	15518.85844
672.997	15729.2885
673.195	15551.23175
673.392	16002.4593
673.59	15441.97244
673.788	15700.96084
673.985	15401.50643
674.183	15300.34209
674.38	15504.69516
674.578	15796.06163
674.775	15700.96084
674.973	15998.41216
675.17	15707.03104
675.368	15895.21183
675.565	15893.18833
675.763	15648.35281
675.96	15601.81541
676.158	15565.39513
676.355	15488.5086
676.553	15567.41847
676.75	15189.06203
676.947	15500.64852
677.145	15128.36391
677.342	15433.87922
677.539	15611.9322
677.737	15929.61156
677.934	15640.25932
678.131	15674.65675
678.329	15423.76271
678.526	15195.13184
678.723	15132.41045
678.92	15494.57856
679.118	15267.96966
679.315	15365.08717
679.512	15148.59662
679.709	15575.51185
679.906	15377.22691
680.104	15387.34337
680.301	15324.62146
680.498	15350.92416
680.695	15371.15704
680.892	15510.76513
681.089	15373.18033
681.286	15425.78601
681.483	14723.70316
681.68	15354.97073
681.877	15334.73788
682.075	15326.64474
682.272	15178.94567
682.469	15512.78846
682.665	15095.99156
682.862	15439.94914
683.059	15367.11046
683.256	15407.57632
683.453	15025.17691
683.65	14970.54826
683.847	14818.80034
684.044	15100.0381
684.241	15057.54935
684.438	14974.59483
684.635	14816.77701
684.831	15318.55162
685.028	15008.99067
685.225	15122.29409
685.422	15130.38718
685.619	15187.03876
685.815	14982.68798
686.012	15047.43297
686.209	14703.46949
686.405	15191.0853
686.602	14830.94029
686.799	15021.13035
686.996	15276.06276
687.192	14735.84332
687.389	15017.08379
687.586	15185.01549
687.782	15089.92174
687.979	14944.24548
688.175	14588.13569
688.372	14578.01853
688.568	14895.68631
688.765	14891.6397
688.962	14458.63362
689.158	14788.45036
689.355	14865.33669
689.551	14632.65089
689.748	14624.55726
689.944	14832.96361
690.14	14855.22012
690.337	14978.64141
690.533	14958.40852
690.73	14828.91696
690.926	14968.52497
691.123	14735.84332
691.319	14685.2591
691.515	14701.44612
691.712	14379.7155
691.908	14754.05351
692.104	14750.00681
692.301	14665.02525
692.497	14557.78411
692.693	14691.32924
692.889	14750.00681
693.086	14822.84699
693.282	14832.96361
693.478	14800.59037
693.674	15002.92082
693.87	15017.08379
694.067	14620.51043
694.263	14602.29968
694.459	14426.25723
694.655	14612.41678
694.851	14302.81859
695.047	14614.44019
695.243	14764.17025
695.439	14410.0689
695.635	14296.74768
695.831	14606.34652
696.027	14482.91567
696.224	14367.57404
696.42	14412.09244
696.615	14525.40878
696.811	14669.07203
697.007	14594.20598
697.203	14399.95114
697.399	14444.46899
697.595	14426.25723
697.791	14373.64478
697.987	13936.50706
698.183	14333.17293
698.379	13979.01115
698.575	14248.17978
698.77	14288.6531
698.966	14274.48752
699.162	14053.89664
699.358	14296.74768
699.554	13636.91911
699.749	14138.89792
699.945	14256.2745
700.141	14144.96929
700.337	14280.55849
700.532	14444.46899
700.728	13831.25378
700.924	14343.29095
701.119	14337.22014
701.315	14624.55726
701.511	14288.6531
701.706	14205.68197
701.902	14179.37337
702.097	14055.92053
702.293	14199.61079
702.489	14031.63373
702.684	14037.70546
702.88	14211.75314
703.075	14078.18312
703.271	14116.63606
703.466	13987.10704
703.662	14122.7075
703.857	13999.2508
704.053	13987.10704
704.248	13900.07407
704.443	14165.20706
704.639	13823.15706
704.834	14325.07848
705.03	14096.39777
705.225	13900.07407
705.42	13991.15497
705.616	14047.82497
705.811	14017.46628
706.006	13979.01115
706.202	14072.11153
706.397	14395.90402
706.592	14041.75327
706.787	13750.28447
706.983	13863.6402
707.178	13926.38687
707.373	13857.5678
707.568	14017.46628
707.763	14142.9455
707.959	14140.92171
708.154	13843.39877
708.349	13910.19443
708.544	13786.72124
708.739	13606.55164
708.934	13472.92538
709.129	13612.62519
709.324	13406.10619
709.519	13877.80903
709.714	13430.40456
709.909	13748.26017
710.104	13721.94406
710.299	13891.97773
710.494	13981.03513
710.689	13837.32629
710.884	13703.72491
711.079	13715.87104
711.274	13659.1881
711.469	13833.27795
711.664	14013.41841
711.859	13756.35733
712.054	14011.39447
712.249	13786.72124
712.443	13687.52989
712.638	13434.45424
712.833	13689.55428
713.028	13701.70054
713.223	13400.0315
713.417	13697.6518
713.612	13535.69118
713.807	13701.70054
714.002	13689.55428
714.196	13699.67617
714.391	13414.20571
714.586	13422.30517
714.78	13317.00722
714.975	13750.28447
715.17	13474.95014
715.364	13671.33466
715.559	13476.97489
715.754	13163.0897
715.948	13355.48274
716.143	13375.73242
716.337	13177.26739
716.532	13448.62798
716.726	13296.75634
716.921	13280.55534
717.115	13193.47018
717.31	13294.73123
717.504	13359.53271
717.699	13335.23265
717.893	13213.72327
718.088	13412.18083
718.282	13383.83218
718.476	13187.39417
718.671	13009.1457
718.865	13165.1151
719.059	13027.37737
719.254	13527.59257
719.448	13104.35117
719.642	12986.86199
719.837	12654.55537
720.031	12905.82511
720.225	12980.78451
720.419	13100.30009
720.614	12968.62941
720.808	13007.11993
721.002	12889.61673
721.196	12982.81034
721.39	13049.65998
721.585	13122.58079
721.779	13144.86092
721.973	12808.56965
722.167	12656.58209
722.361	12920.00716
722.555	13009.1457
722.749	12891.64279
722.943	12622.12698
723.137	12518.75096
723.331	12395.08323
723.525	12492.39758
723.719	12565.37353
723.913	12830.85847
724.107	12581.5893
724.301	12794.3855
724.495	12386.973
724.689	12907.85113
724.883	12705.22166
725.077	12723.46063
725.271	12395.08323
725.465	12766.01639
725.659	12611.99279
725.853	12618.07332
726.046	12717.38102
726.24	12541.04913
726.434	12441.71492
726.628	12782.22745
726.822	12553.21144
727.015	12814.64848
727.209	12676.84899
727.403	12632.26102
727.596	12486.31588
727.79	12658.60881
727.984	12490.37035
728.177	12946.34458
728.371	12909.87715
728.565	12766.01639
728.758	12626.18061
728.952	12504.56081
729.146	12530.91369
729.339	12624.1538
729.533	12449.82442
729.726	12672.79566
729.92	12715.35448
730.113	12656.58209
730.307	12680.9023
730.5	12887.59066
730.694	12630.23422
730.887	12516.72382
731.081	12532.94079
731.274	12557.2655
731.468	12680.9023
731.661	12703.19508
731.854	12393.05568
732.048	12660.63552
732.241	12350.47565
732.435	12449.82442
732.628	12741.69912
732.821	12648.47516
733.014	12609.96593
733.208	12338.30937
733.401	12007.69243
733.594	12433.60532
733.788	12526.85947
733.981	12753.85786
734.174	12766.01639
734.367	12421.44071
734.56	12571.45449
734.754	12380.89026
734.947	12589.69703
735.14	12476.17957
735.333	12763.98998
735.526	12587.67011
735.719	12484.28863
735.912	12648.47516
736.105	12528.88659
736.298	12626.18061
736.491	12328.17062
736.684	12068.55718
736.877	12376.83507
737.07	12368.7246
737.263	12157.81294
737.456	12478.20685
737.649	12356.5587
737.842	12226.77338
738.035	12289.64176
738.228	11977.25739
738.421	12336.28164
738.614	12441.71492
738.807	12328.17062
739	12395.08323
739.192	12121.301
739.385	12281.53009
739.578	12190.26597
739.771	12050.29849
739.964	11670.77401
740.156	12125.358
740.349	11924.49903
740.542	12354.53102
740.735	12021.89483
740.927	12050.29849
741.12	11865.64666
741.313	12155.78456
741.505	12129.41497
741.698	12070.58588
741.891	12011.7503
742.083	12161.86967
742.276	12176.068
742.468	12214.60451
742.661	12129.41497
742.854	12459.96115
743.046	11930.58682
743.239	11729.65024
743.431	11950.87889
743.624	11924.49903
743.816	11981.31549
744.009	11906.23525
744.201	11715.43942
744.393	11804.75749
744.586	11782.42954
744.778	11816.93593
744.971	11548.93702
745.163	11894.05902
745.355	11668.74366
745.548	11887.97079
745.74	11552.99878
745.932	11441.28639
746.125	11569.24548
746.317	11597.67577
746.509	11548.93702
746.702	11548.93702
746.894	11613.92085
747.086	11908.26459
747.278	11646.40924
747.471	11514.41048
747.663	11727.62015
747.855	12174.03969
748.047	12064.49975
748.239	11670.77401
748.431	11922.46976
748.623	11920.44047
748.815	11674.83468
749.008	11664.68294
749.2	11650.47012
749.392	11788.51909
749.584	11798.66815
749.776	12048.26971
749.968	11613.92085
750.16	11894.05902
750.352	11713.40927
750.544	11820.99535
750.736	11776.33992
750.928	11910.29392
751.12	11630.16533
751.311	11784.4594
751.503	12015.80813
751.695	11782.42954
751.887	11498.16175
752.079	11648.43969
752.271	11420.97193
752.463	11804.75749
752.654	11544.87521
752.846	11429.09783
753.038	11351.89543
753.23	11431.12928
753.421	11483.94361
753.613	11477.84998
753.805	11252.32365
753.997	11307.19274
754.188	11384.40344
754.38	11577.36861
754.572	11473.78752
754.763	11542.84429
754.955	11510.34835
755.146	11508.31727
755.338	11114.1013
755.53	11557.06051
755.721	11678.89532
755.913	11445.34917
756.104	11451.44326
756.296	11475.81876
756.487	11337.67237
756.679	11532.68957
756.87	11091.73719
757.062	10882.26316
757.253	11073.43831
757.445	10953.45697
757.636	10882.26316
757.827	11028.704
758.019	10861.9195
758.21	11055.13855
758.401	11097.83663
758.593	10837.50558
758.784	11199.47966
758.975	10945.32123
759.167	10884.29746
759.358	10929.04923
759.549	11002.26759
759.74	10983.96436
759.932	10813.08998
760.123	10831.40184
760.314	10792.74236
760.505	10837.50558
760.696	10729.65723
760.888	10841.57468
761.079	10688.95105
761.27	10943.28727
761.461	10941.2533
761.652	10916.84475
761.843	10674.70274
762.034	10890.4003
762.225	10524.04086
762.416	10522.00442
762.607	10601.41626
762.798	10475.16279
762.989	10668.59614
763.18	10442.57331
763.371	10727.62204
763.562	10475.16279
763.753	10534.22287
763.944	10646.20433
764.135	10369.23485
764.326	10656.38261
764.517	10460.9053
764.708	10574.94776
764.899	10381.4591
765.089	10189.89056
765.28	10226.58314
765.471	10495.52955
765.662	10377.3844
765.853	10412.01767
766.043	10409.98053
766.234	10483.30965
766.425	10012.47958
766.615	10104.25715
766.806	9961.47954
766.997	10306.06861
767.187	10291.8035
767.378	10526.07729
767.569	10134.84333
767.759	10354.97262
767.95	10134.84333
768.141	10226.58314
768.331	10079.78594
768.522	10236.77473
768.712	10348.86003
768.903	10208.2374
769.093	9865.57483
769.284	9922.71345
769.474	9920.67298
769.665	9908.42987
769.855	9724.71909
770.046	10014.51939
770.236	10006.36005
770.426	9932.91556
770.617	9775.76207
770.807	9651.20042
770.998	9681.83563
771.188	9663.45492
771.378	9834.9601
771.569	10073.66781
771.759	9730.84475
771.949	9671.62428
772.139	9747.17917
772.33	9620.56173
772.52	9643.03045
772.71	9802.30068
772.9	9530.66789
773.09	9598.09112
773.281	9471.40289
773.471	9626.68975
773.661	9442.78737
773.851	9510.2332
774.041	9526.58108
774.231	9794.13522
774.421	9636.9028
774.611	9391.68034
774.802	9383.50227
774.992	9170.77936
775.182	9174.8719
775.372	9426.43423
775.562	9205.56377
775.752	9346.69771
775.942	9389.63585
776.131	9340.56309
776.321	9144.1762
776.511	9262.84511
776.701	9309.88781
776.891	9416.21298
777.081	9113.47664
777.271	9264.89062
777.461	9113.47664
777.651	9334.42833
777.84	9279.20878
778.03	9287.39022
778.22	9045.92398
778.41	9025.44974
778.599	8693.51929
778.789	9144.1762
778.979	9039.78189
779.169	9221.93122
779.358	8943.53525
779.548	9264.89062
779.738	8884.12954
779.927	9074.58499
780.117	9007.02143
780.307	8750.92391
780.496	8679.16588
780.686	8859.54348
780.875	8668.91289
781.065	8834.95482
781.254	8750.92391
781.444	9033.63964
781.633	9056.16044
781.823	8802.1659
782.012	8875.93447
782.202	8908.71303
782.391	8662.76087
782.581	8627.89629
782.77	8400.11719
782.96	8432.9647
783.149	8270.73188
783.338	8617.64097
783.528	8572.51202
783.717	8646.35468
783.906	8529.4259
784.096	8572.51202
784.285	8451.43926
784.474	8373.42496
784.663	8219.36696
784.853	8586.87222
785.042	8482.22675
785.231	8266.62314
785.42	8344.67581
785.61	8428.85903
785.799	8196.76248
785.988	8375.47832
786.177	7952.06802
786.366	8340.56848
786.555	7987.04193
786.744	8200.87256
786.933	8126.87887
787.122	8301.54493
787.312	8301.54493
787.501	8418.59452
787.69	8217.31211
787.879	8332.35358
788.068	8093.98445
788.257	8252.24193
788.445	8180.32135
788.634	8484.27909
788.823	8254.29645
789.012	8114.54406
789.201	7950.01054
789.39	7880.04424
789.579	8061.08489
789.768	8180.32135
789.957	7950.01054
790.145	7937.66528
790.334	8126.87887
790.523	7886.21869
790.712	8075.47909
790.9	8147.43526
791.089	7917.08819
791.278	7935.60766
791.467	7890.33489
791.655	8007.61206
791.844	7770.93139
792.033	7937.66528
792.221	7807.99514
792.41	8030.23685
792.599	7709.14339
792.787	8065.19762
792.976	8046.68971
793.164	7937.66528
793.353	8009.66896
793.541	7793.58226
793.73	7900.62503
793.918	7785.34587
794.107	7457.67545
794.295	7503.04569
794.484	7585.51036
794.672	7566.9588
794.861	7630.85134
795.049	7760.6347
795.238	7459.73796
795.426	7651.45748
795.614	7342.14021
795.803	7432.92363
795.991	7527.78869
796.179	7523.66507
796.368	7327.69349
796.556	7404.04257
796.744	7154.24883
796.932	7624.66909
797.121	7410.23173
797.309	7672.06149
797.497	7280.21816
797.685	7550.46706
797.874	7455.61291
798.062	7480.36187
798.25	7222.40639
798.438	7329.75737
798.626	7269.8959
798.814	7424.67233
799.002	7362.77651
799.19	7288.47557
799.378	7362.77651
799.566	7183.16711
799.755	7090.19998
799.943	7181.10166
800.131	7005.45721
800.318	7174.90519
800.506	7055.06731
800.694	7133.59025
800.882	7048.86676
801.07	7141.85395
801.258	7017.86095
801.446	7148.05149
801.634	6968.24114
801.822	7327.69349
802.01	7203.82036
802.197	7187.29794
802.385	7036.46504
802.573	7125.3262
802.761	7228.60133
802.949	7385.47392
803.136	7055.06731
803.324	7040.59903
803.512	7073.66777
803.699	6962.03775
803.887	6873.10015
804.075	7201.75513
804.262	7292.60415
804.45	7071.60114
804.638	7073.66777
804.825	7265.76684
805.013	7050.93363
805.201	7304.98935
805.388	7055.06731
805.576	7311.18165
805.763	7238.9258
805.951	7044.73294
806.138	7216.21124
806.326	7240.99063
806.513	6873.10015
806.701	7129.45827
806.888	7017.86095
807.075	7393.72687
807.263	7003.38984
807.45	7313.24571
807.638	7114.99563
807.825	7214.14615
808.012	6875.16894
808.2	7212.08104
808.387	7042.666
808.574	7348.33133
808.761	7176.9707
808.949	7401.97947
809.136	7137.72215
809.323	7185.23253
809.51	6939.29025
809.698	7261.63769
809.885	6916.54002
810.072	7158.38028
810.259	6997.1876
810.446	7191.42867
810.633	6866.89363
810.82	7197.62462
811.008	7282.28254
811.195	7449.42519
811.382	7203.82036
811.569	7395.79005
811.756	7059.2009
811.943	7385.47392
812.13	7145.98567
812.317	7315.30974
812.504	7110.86324
812.691	7371.03042
812.878	7228.60133
813.064	7311.18165
813.251	7352.45863
813.438	7189.36332
813.625	7084.00057
813.812	6984.78252
813.999	7104.6645
814.186	7129.45827
814.372	7230.66627
814.559	7474.17492
814.746	7032.33095
814.933	7261.63769
815.12	6895.85561
815.306	7092.26641
815.493	7001.32245
815.68	6949.63036
815.866	6931.01776
816.053	6939.29025
816.24	7007.52456
816.426	6924.81315
816.613	6914.47168
816.799	6978.57967
816.986	6881.37518
817.173	7013.72646
817.359	7009.59188
817.546	7162.51164
817.732	6912.40332
817.919	7129.45827
818.105	6968.24114
818.292	7092.26641
818.478	7181.10166
818.665	7166.64291
818.851	6829.65026
819.037	6931.01776
819.224	7046.79986
819.41	6775.84124
819.597	6703.38163
819.783	6734.43918
819.969	6719.9463
820.156	6777.91111
820.342	6835.858
820.528	7065.40112
820.714	6815.16473
820.901	7075.73437
821.087	6817.23416
821.273	7191.42867
821.459	6829.65026
821.646	6931.01776
821.832	6693.02796
822.018	6800.67809
822.204	6697.1695
822.39	6726.15767
822.576	6742.72033
822.762	6856.54899
822.948	6740.65008
823.134	6773.77136
823.32	6657.8212
823.507	6885.51256
823.693	6620.53621
823.879	6742.72033
824.065	6682.67372
824.25	6527.29101
824.436	6326.13602
824.622	6645.3937
824.808	6676.4609
824.994	6748.93095
825.18	6599.8191
825.366	6579.09968
825.552	6599.8191
825.738	6645.3937
825.923	6226.51421
826.109	6473.39464
826.295	6292.93474
826.481	6394.59477
826.667	6295.00999
826.852	6440.21984
827.038	6151.76243
827.224	6456.80799
827.409	6211.98153
827.595	6307.46103
827.781	6010.48152
827.966	6309.53613
828.152	5937.72097
828.338	6172.52986
828.523	5775.46493
828.709	6176.68307
828.894	6018.79518
829.08	6512.78199
829.266	6172.52986
829.451	6574.95552
829.637	5998.01034
829.822	6278.4073
830.008	6176.68307
830.193	6195.37133
830.378	6201.60033
830.564	6195.37133
830.749	6081.13557
830.935	6124.76125
831.12	6008.40305
831.305	6303.31078
831.491	6184.9892
831.676	6375.92672
831.861	5943.95872
832.047	6220.28606
832.232	6072.82475
832.417	6056.20196
832.602	5935.64167
832.788	5952.27539
832.973	5854.53068
833.158	6228.59022
833.343	5981.38077
833.528	6064.51354
833.714	5785.87027
833.899	6178.75964
834.084	5710.93868
834.269	6359.33132
834.454	5706.77492
834.639	5977.22314
834.824	5979.30196
835.009	6147.60866
835.194	6106.0658
835.379	6122.68407
835.564	5910.68826
835.749	5762.97775
835.934	5752.57112
836.119	5723.4294
836.304	5513.05577
836.489	5656.80241
836.674	5435.92804
836.859	5498.46651
837.044	5498.46651
837.228	5602.65019
837.413	5298.26902
837.598	5283.66283
837.783	5333.73641
837.968	5585.98476
838.152	5321.21928
838.337	5733.83769
838.522	5552.64937
838.707	5710.93868
838.891	5706.77492
839.076	5594.31766
839.261	5189.73856
839.445	5552.64937
839.63	5331.65028
839.815	5431.75806
839.999	5427.58798
840.184	5490.12927
840.368	5535.97942
840.553	5837.88809
840.737	5677.62594
840.922	5513.05577
841.106	5515.13985
841.291	5521.39197
841.475	5244.01168
841.66	5535.97942
841.844	5122.91924
842.029	5339.99466
842.213	5022.6457
842.397	5269.05549
842.582	5152.15562
842.766	5523.47596
842.951	5442.18284
843.135	5406.73619
843.319	5337.9086
843.504	5344.16671
843.688	5150.06746
843.872	5402.56555
844.056	5235.663
844.241	5125.0077
844.425	5118.74224
844.609	5175.12387
844.793	4945.31517
844.977	4941.13424
845.161	4702.67039
845.346	4890.95597
845.53	4909.77437
845.714	4926.50028
845.898	4769.63745
846.082	5170.94803
846.266	4947.4056
846.45	5053.98691
846.634	4652.42994
846.818	4951.58639
847.002	4652.42994
847.186	4911.86519
847.37	4662.89777
847.554	4610.55302
847.738	4604.27071
847.922	4784.2834
848.106	4614.74112
848.29	4606.36484
848.473	4792.65202
848.657	4616.83513
848.841	4641.96155
849.025	4807.29622
849.209	4417.80474
849.392	4558.19432
849.576	4453.43533
849.76	4719.41432
849.944	4415.70863
850.127	4690.11149
850.311	4396.84262
850.495	4801.02027
850.678	4390.55356
850.862	4644.05527
851.046	4224.87158
851.229	4367.49199
851.413	4472.29602
851.596	4516.29735
851.78	4308.77799
851.964	4428.28499
852.147	4298.29156
852.331	4231.16575
852.514	4189.20103
852.698	4283.60966
852.881	4092.65015
853.065	4302.4862
853.248	4126.2381
853.431	4357.00859
853.615	4203.88964
853.798	4086.35182
853.982	4050.65773
854.165	4359.10532
854.348	4035.95842
854.532	4096.84894
854.715	3886.80887
854.898	4264.73139
855.081	4031.75843
855.265	4189.20103
855.448	3996.05522
855.631	4180.80706
855.814	3895.21437
855.997	3962.4468
856.181	3960.3461
856.364	4042.25825
856.547	4084.25233
856.73	4088.45128
856.913	3851.08191
857.096	3951.9431
857.279	3773.30345
857.462	3949.8423
857.645	3855.28538
857.828	4082.15282
858.011	3830.06337
858.194	3811.14499
858.377	3748.07224
858.56	3939.33799
858.743	3834.26724
858.926	4098.9483
859.109	3800.63409
859.292	3882.606
859.475	3668.15502
859.658	3987.65361
859.841	3537.70499
860.023	3769.09844
860.206	3344.00443
860.389	3598.7309
860.572	3600.83496
860.755	3903.61956
860.937	3642.91227
861.12	3682.8787
861.303	3613.45894
861.486	3634.49741
861.668	3440.87363
861.851	3514.55316
862.034	3358.74779
862.216	3362.96002
862.399	3316.62165
862.581	3474.55845
862.764	3221.81285
862.947	3291.34266
863.129	3335.57927
863.312	3424.0295
863.494	3221.81285
863.677	3430.34618
863.859	3384.02014
864.042	3508.23865
864.224	3306.08904
864.406	3573.48069
864.589	3314.51516
864.771	3369.27824
864.954	3242.88442
865.136	3453.50598
865.318	3107.99799
865.501	3339.79189
865.683	3158.58822
865.865	3316.62165
866.048	3135.40218
866.23	3188.09489
866.412	2930.86136
866.594	3124.86243
866.777	3011.00796
866.959	3293.44934
867.141	2941.40819
867.323	2985.70084
867.505	3055.2901
867.687	3080.59112
867.869	3021.55194
868.052	3120.64642
868.234	3036.31287
868.416	3356.64165
868.598	2949.8454
868.78	3204.9544
868.962	2951.95466
869.144	3158.58822
869.326	2869.68254
869.508	3080.59112
869.69	2835.92356
869.872	3023.66069
870.054	2951.95466
870.236	3048.9645
870.417	2819.04272
870.599	3105.88987
870.781	2757.8423
870.963	3086.91602
871.145	2937.1895
871.327	2973.04647
871.508	2694.51966
871.69	2939.29886
871.872	2673.40951
872.054	2810.60197
872.235	2740.95742
872.417	2865.46287
872.599	2726.18246
872.78	3032.09554
872.962	2823.26301
873.144	2926.64252
873.325	2850.69356
873.507	3048.9645
873.689	2694.51966
873.87	2943.51752
874.052	2673.40951
874.233	3112.2142
874.415	2842.25364
874.596	2977.26466
874.778	2740.95742
874.959	2700.85245
875.141	2719.85013
875.322	2865.46287
875.503	2791.60947
875.685	2717.73933
875.866	2548.83427
876.048	2907.65703
876.229	2766.28441
876.41	2926.64252
876.592	2506.59595
876.773	2894.99939
876.954	2656.52047
877.136	2989.91885
877.317	2709.296
877.498	2846.47363
877.679	2593.17947
877.86	2774.72631
878.042	2588.95635
878.223	2835.92356
878.404	2711.40685
878.585	2911.87613
878.766	2601.62558
878.947	2793.7198
879.128	2681.85372
879.309	2907.65703
879.49	2618.5172
879.672	2876.01195
879.853	2711.40685
880.034	2791.60947
880.215	2487.58721
880.396	2804.27126
880.576	2487.58721
880.757	2802.16099
880.938	2580.50995
881.119	2954.06391
881.3	2669.18733
881.481	2810.60197
881.662	2724.0717
881.843	2787.38876
882.023	2732.51466
882.204	2787.38876
882.385	2557.28138
882.566	2865.46287
882.747	2869.68254
882.927	2958.28236
883.108	2844.36364
883.289	2911.87613
883.469	2926.64252
883.65	3011.00796
883.831	2618.5172
884.011	2954.06391
884.192	2852.8035
884.373	3084.80773
884.553	2842.25364
884.734	2768.39491
884.914	2838.0336
885.095	3145.94153
885.275	2694.51966
885.456	2901.32828
885.636	2709.296
885.817	2947.73612
885.997	2785.27839
886.178	2994.13679
886.358	2766.28441
886.538	2876.01195
886.719	2732.51466
886.899	2956.17314
887.08	2894.99939
887.26	2859.13325
887.44	2637.51934
887.621	3019.44317
887.801	2838.0336
887.981	2884.45095
888.161	2810.60197
888.342	2937.1895
888.522	2937.1895
888.702	2768.39491
888.882	2808.49174
889.062	2806.38151
889.242	2861.24313
889.423	2947.73612
889.603	2804.27126
889.783	2850.69356
889.963	2793.7198
890.143	2886.56067
890.323	2620.6286
890.503	2926.64252
890.683	2787.38876
890.863	2897.10903
891.043	2610.07149
891.223	2730.40394
891.403	2624.85136
891.583	3061.61557
891.763	2548.83427
891.943	2681.85372
892.122	2523.49183
892.302	2808.49174
892.482	2555.16962
892.662	2850.69356
892.842	2897.10903
893.022	2930.86136
893.201	2859.13325
893.381	2776.83676
893.561	2631.18541
893.741	2802.16099
893.92	2563.61659
894.1	2707.18513
894.28	2719.85013
894.459	2673.40951
894.639	2550.94607
894.819	2648.07565
894.998	2377.74165
895.178	2624.85136
895.357	2417.88087
895.537	2538.27512
895.716	2466.46533
895.896	2504.48391
896.075	2487.58721
896.255	2462.24082
896.434	2250.96268
896.614	2648.07565
896.793	2362.95258
896.973	2747.28935
897.152	2244.62285
897.331	2597.40255
897.511	2333.37297
897.69	2567.84
897.87	2481.25076
898.049	2191.7878
898.228	2303.79144
898.407	2496.03565
898.587	2236.16961
898.766	2377.74165
898.945	2073.41866
899.124	2331.26007
899.304	2170.65229
899.483	2314.35649
899.662	2130.49256
899.841	2377.74165
900.02	2155.85694
900.199	2428.44319
900.378	2058.62084
900.557	2202.35524
900.737	2151.62962
900.916	2043.82268
901.095	1980.39823
901.274	2219.2627
901.453	1887.36568
901.632	1997.31199
901.811	1916.96814
901.989	2157.97058
902.168	1870.44952
902.347	2208.6956
902.526	1861.99132
902.705	1993.08359
902.884	1832.387
903.063	1980.39823
903.242	1878.90764
903.42	1861.99132
903.599	1616.67529
903.778	1853.53304
903.957	1667.43393
904.135	1982.51247
904.314	1752.02805
904.493	1853.53304
904.672	1597.64047
904.85	1692.81269
905.029	1436.89795
905.207	1718.19102
905.386	1430.5528
905.565	1618.79026
905.743	1447.47322
905.922	1635.70994
906.1	1466.50869
906.279	1536.30513
906.457	1477.08394
906.636	1458.04848
906.814	1396.71204
906.993	1544.76525
907.171	1320.5712
907.35	1375.56166
907.528	1180.98655
907.707	1309.99623
907.885	1235.97299
908.063	1252.89232
908.242	1100.6264
908.42	1371.33159
908.598	1109.08506
908.777	1231.74319
908.955	1216.93897
909.133	1244.43263
909.311	1075.2509
909.49	1286.73147
909.668	1126.00261
909.846	1329.0312
910.024	1104.85572
910.202	1295.19135
910.38	1147.14995
910.559	1358.64142
910.737	1286.73147
910.915	1286.73147
911.093	1090.05319
911.271	1415.74745
911.449	1206.36463
911.627	1305.76625
911.805	1235.97299
911.983	1301.53629
912.161	1115.42911
912.339	1413.63241
912.517	1111.19974
912.695	1381.90676
912.872	1149.26471
913.05	1373.44662
913.228	1265.58192
913.406	1235.97299
913.584	1263.46698
913.762	1303.65127
913.939	1219.05385
914.117	1339.60625
914.295	1128.11733
914.473	1371.33159
914.65	1106.97039
914.828	1286.73147
915.006	1164.06812
915.184	1231.74319
915.361	1085.82394
915.539	1307.88124
915.716	1164.06812
915.894	1225.3985
916.072	1170.4125
916.249	1314.22621
916.427	1119.6585
916.604	1282.50154
916.782	1132.34677
916.959	1263.46698
917.137	1170.4125
917.314	1354.41137
917.492	1172.5273
917.669	1219.05385
917.847	1035.07458
918.024	1104.85572
918.201	999.12912
918.379	1151.37947
918.556	948.38578
918.733	1151.37947
918.911	1121.7732
919.088	1068.90714
919.265	992.78599
919.442	1100.6264
919.62	931.47222
919.797	1049.87614
919.974	874.39258
920.151	1028.73113
920.328	796.18231
920.506	965.29979
920.683	874.39258
920.86	1041.41807
921.037	916.67325
921.214	1007.58672
921.391	779.27365
921.568	923.01562
921.745	772.93306
921.922	965.29979
922.099	865.93684
922.276	939.92894
922.453	772.93306
922.63	849.02576
922.807	789.84149
922.984	857.48123
923.161	779.27365
923.338	817.319
923.514	722.21165
923.691	876.50654
923.868	686.28771
924.045	711.64545
924.222	732.77811
924.399	696.85324
924.575	677.83549
924.752	694.74011
924.929	703.19269
925.105	842.68425
925.282	753.91183
925.459	737.00477
925.635	637.69
925.812	612.3372
925.989	660.9316
926.165	711.64545
926.342	601.77407
926.518	787.7279
926.695	618.67523
926.871	641.91564
927.048	584.87373
927.224	772.93306
927.401	737.00477
927.577	705.30587
927.754	521.50506
927.93	593.3238
928.107	542.62658
928.283	703.19269
928.459	544.73881
928.636	589.09874
928.812	481.37812
928.988	601.77407
929.165	487.7136
929.341	559.52479
929.517	513.05685
929.693	563.74948
929.87	536.28998
930.046	555.30016
930.222	407.47436
930.398	424.36495
930.574	460.26082
930.751	646.14132
930.927	472.93102
931.103	500.38496
931.279	428.58776
931.455	551.07558
931.631	407.47436
931.807	519.39299
931.983	339.92257
932.159	371.58532
932.335	287.16014
932.511	453.92593
932.687	418.03086
932.863	399.02945
933.039	293.49103
933.215	519.39299
933.391	316.70572
933.566	358.91976
933.742	365.25246
933.918	327.25857
934.094	287.16014
934.27	266.05836
934.445	287.16014
934.621	247.06838
934.797	249.1783
934.973	236.51906
935.148	213.31227
935.324	200.65503
935.5	247.06838
935.675	251.28824
935.851	247.06838
936.027	150.03342
936.202	160.57861
936.378	169.01513
936.553	204.87403
936.729	175.34274
936.904	204.87403
937.08	154.25143
937.255	147.92445
937.431	128.94464
937.606	99.42397
937.782	128.94464
937.957	164.79683
938.133	80.44868
938.308	107.85801
938.483	112.07516
938.659	139.48876
938.834	150.03342
939.009	109.96657
939.185	88.88192
939.36	88.88192
939.535	171.12431
939.71	67.79949
939.886	145.81549
940.061	90.99028
940.236	88.88192
940.411	114.18377
940.586	44.61145
940.761	17.21104
940.937	103.64094
941.112	63.58328
941.287	65.69137
941.462	78.34042
941.637	59.36716
941.812	55.15113
941.987	147.92445
942.162	38.28793
942.337	2.45862
942.512	97.31551
942.687	46.71934
942.862	69.90763
943.037	-5.9708
943.212	2.45862
943.386	53.04315
943.561	-56.53909
943.736	59.36716
943.911	31.96461
944.086	27.74919
944.26	27.74919
944.435	48.82725
944.61	61.47521
944.785	55.15113
944.959	55.15113
945.134	15.10348
945.309	82.55695
945.483	59.36716
945.658	-43.89836
945.833	78.34042
946.007	12.99594
946.182	46.71934
946.357	145.81549
946.531	46.71934
946.706	-14.39983
946.88	72.0158
947.055	65.69137
947.229	17.21104
947.404	69.90763
947.578	44.61145
947.752	4.56604
947.927	90.99028
948.101	57.25913
948.276	156.36047
948.45	29.85689
948.624	27.74919
948.799	124.72714
948.973	2.45862
949.147	78.34042
949.321	50.93519
949.496	-22.82848
949.67	78.34042
949.844	103.64094
950.018	31.96461
950.193	38.28793
950.367	80.44868
950.541	162.68771
950.715	-12.29261
950.889	88.88192
951.063	27.74919
951.237	61.47521
951.411	103.64094
951.585	114.18377
951.759	160.57861
951.933	0.35123
952.107	105.74946
952.281	69.90763
952.455	-12.29261
952.629	145.81549
952.803	31.96461
952.977	63.58328
953.151	48.82725
953.325	12.99594
953.499	29.85689
953.672	59.36716
953.846	23.53386
954.02	86.77357
954.194	78.34042
954.368	95.20708
954.541	88.88192
954.715	-1.75614
954.889	143.70656
955.062	29.85689
955.236	44.61145
955.41	99.42397
955.583	95.20708
955.757	36.18013
955.93	74.12398
956.104	-10.18537
956.278	84.66525
956.451	55.15113
956.625	-10.18537
956.798	6.67348
956.972	55.15113
957.145	19.31862
957.319	69.90763
957.492	21.42623
957.665	112.07516
957.839	82.55695
958.012	57.25913
958.185	-5.9708
958.359	19.31862
958.532	109.96657
958.705	67.79949
958.879	120.50972
959.052	57.25913
959.225	63.58328
959.398	-1.75614
959.572	48.82725
959.745	118.40105
959.918	4.56604
960.091	61.47521
960.264	122.61842
960.438	209.09311
960.611	59.36716
960.784	99.42397
960.957	4.56604
961.13	103.64094
961.303	38.28793
961.476	36.18013
961.649	74.12398
961.822	112.07516
961.995	103.64094
962.168	72.0158
962.341	38.28793
962.514	86.77357
962.686	42.50359
962.859	76.23219
963.032	65.69137
963.205	95.20708
963.378	4.56604
963.551	86.77357
963.723	19.31862
963.896	31.96461
964.069	6.67348
964.242	6.67348
964.414	72.0158
964.587	74.12398
964.76	36.18013
964.932	61.47521
965.105	48.82725
965.278	19.31862
965.45	65.69137
965.623	57.25913
965.795	95.20708
965.968	72.0158
966.14	40.39575
966.313	67.79949
966.485	-3.86348
966.658	36.18013
966.83	48.82725
967.003	48.82725
967.175	19.31862
967.348	72.0158
967.52	-1.75614
967.692	135.27105
967.865	-5.9708
968.037	53.04315
968.209	6.67348
968.382	44.61145
968.554	0.35123
968.726	53.04315
968.898	61.47521
969.071	10.88843
969.243	90.99028
969.415	103.64094
969.587	69.90763
969.759	90.99028
969.932	-39.68458
970.104	97.31551
970.276	53.04315
970.448	-48.11204
970.62	29.85689
970.792	10.88843
970.964	4.56604
971.136	34.07236
971.308	74.12398
971.48	23.53386
971.652	44.61145
971.824	57.25913
971.996	15.10348
972.168	105.74946
972.339	88.88192
972.511	50.93519
972.683	2.45862
972.855	57.25913
973.027	34.07236
973.199	25.64151
973.37	36.18013
973.542	74.12398
973.714	72.0158
973.886	-22.82848
974.057	40.39575
974.229	4.56604
974.401	10.88843
974.572	-14.39983
974.744	21.42623
974.915	97.31551
975.087	78.34042
975.259	76.23219
975.43	25.64151
975.602	25.64151
975.773	40.39575
975.945	61.47521
976.116	19.31862
976.288	42.50359
976.459	-22.82848
976.63	53.04315
976.802	40.39575
976.973	44.61145
977.145	53.04315
977.316	-16.50703
977.487	31.96461
977.659	-3.86348
977.83	31.96461
978.001	36.18013
978.172	90.99028
978.344	-3.86348
978.515	61.47521
978.686	-5.9708
978.857	46.71934
979.028	36.18013
979.2	44.61145
979.371	4.56604
979.542	2.45862
979.713	63.58328
979.884	61.47521
980.055	10.88843
980.226	40.39575
980.397	-39.68458
980.568	0.35123
980.739	-16.50703
980.91	12.99594
981.081	-22.82848
981.252	29.85689
981.423	65.69137
981.594	21.42623
981.765	-14.39983
981.936	69.90763
982.106	19.31862
982.277	-16.50703
982.448	57.25913
982.619	6.67348
982.79	2.45862
982.96	-1.75614
983.131	-8.0781
983.302	0.35123
983.472	36.18013
983.643	63.58328
983.814	0.35123
983.984	53.04315
984.155	15.10348
984.326	29.85689
984.496	-1.75614
984.667	34.07236
984.837	99.42397
985.008	-10.18537
985.178	29.85689
985.349	10.88843
985.519	69.90763
985.69	-22.82848
985.86	67.79949
986.031	19.31862
986.201	29.85689
986.371	-8.0781
986.542	86.77357
986.712	0.35123
986.882	-33.36373
987.053	69.90763
987.223	2.45862
987.393	10.88843
987.563	-33.36373
987.734	27.74919
987.904	2.45862
988.074	15.10348
988.244	44.61145
988.414	-5.9708
988.585	69.90763
988.755	57.25913
988.925	27.74919
989.095	15.10348
989.265	19.31862
989.435	8.78094
989.605	82.55695
989.775	38.28793
989.945	-16.50703
990.115	15.10348
990.285	36.18013
990.455	-60.75247
990.625	27.74919
990.795	69.90763
990.965	4.56604
991.134	2.45862
991.304	65.69137
991.474	27.74919
991.644	40.39575
991.814	19.31862
991.984	10.88843
992.153	12.99594
992.323	23.53386
992.493	-41.79148
992.662	57.25913
992.832	109.96657
993.002	0.35123
993.171	-22.82848
993.341	31.96461
993.511	27.74919
993.68	-64.96574
993.85	59.36716
994.019	36.18013
994.189	69.90763
994.358	10.88843
994.528	-5.9708
994.697	38.28793
994.867	-8.0781
995.036	103.64094
995.206	25.64151
995.375	-54.43236
995.544	40.39575
995.714	63.58328
995.883	65.69137
996.052	31.96461
996.222	-27.04265
996.391	-48.11204
996.56	-14.39983
996.73	21.42623
996.899	-1.75614
997.068	65.69137
997.237	-10.18537
997.406	36.18013
997.576	15.10348
997.745	4.56604
997.914	-1.75614
998.083	36.18013
998.252	67.79949
998.421	2.45862
998.59	48.82725
998.759	-3.86348
998.928	34.07236
999.097	95.20708
999.266	-48.11204
999.435	-1.75614
999.604	4.56604
999.773	12.99594
999.942	-43.89836
1000.111	-5.9708
1000.28	40.39575
1000.448	-29.1497
1000.617	-1.75614
1000.786	-18.61421
1000.955	-64.96574
1001.124	-20.72135
1001.292	-18.61421
1001.461	38.28793
1001.63	-64.96574
1001.798	17.21104
1001.967	4.56604
1002.136	0.35123
1002.304	-33.36373
1002.473	-71.28546
1002.642	4.56604
1002.81	2.45862
1002.979	48.82725
1003.147	19.31862
1003.316	-14.39983
1003.484	10.88843
1003.653	88.88192
1003.821	42.50359
1003.99	19.31862
1004.158	-8.0781
1004.327	-8.0781
1004.495	-18.61421
1004.663	-31.25673
1004.832	19.31862
1005	72.0158
1005.168	-43.89836
1005.337	31.96461
1005.505	-12.29261
1005.673	31.96461
1005.842	-96.56202
1006.01	-18.61421
1006.178	-64.96574
1006.346	-31.25673
1006.514	10.88843
1006.683	-12.29261
1006.851	38.28793
1007.019	-48.11204
1007.187	-27.04265
1007.355	38.28793
1007.523	-5.9708
1007.691	97.31551
1007.859	-35.47071
1008.027	-48.11204
1008.195	69.90763
1008.363	-24.93558
1008.531	12.99594
1008.699	-14.39983
1008.867	-1.75614
1009.035	-5.9708
1009.203	-31.25673
1009.37	-10.18537
1009.538	38.28793
1009.706	2.45862
1009.874	-31.25673
1010.042	-83.9242
1010.209	-1.75614
1010.377	40.39575
1010.545	27.74919
1010.713	-31.25673
1010.88	25.64151
1011.048	44.61145
1011.216	36.18013
1011.383	48.82725
1011.551	-43.89836
1011.718	44.61145
1011.886	-5.9708
1012.054	-5.9708
1012.221	-52.32561
1012.389	6.67348
1012.556	-10.18537
1012.724	-5.9708
1012.891	-12.29261
1013.058	19.31862
1013.226	-18.61421
1013.393	4.56604
1013.561	-5.9708
1013.728	-12.29261
1013.895	-29.1497
1014.063	-14.39983
1014.23	-22.82848
1014.397	-22.82848
1014.565	-48.11204
1014.732	10.88843
1014.899	10.88843
1015.066	-14.39983
1015.233	55.15113
1015.401	-3.86348
1015.568	19.31862
1015.735	12.99594
1015.902	44.61145
1016.069	46.71934
1016.236	6.67348
1016.403	-52.32561
1016.57	2.45862
1016.737	-16.50703
1016.904	-67.07234
1017.071	-69.17891
1017.238	36.18013
1017.405	-10.18537
1017.572	-10.18537
1017.739	19.31862
1017.906	23.53386
1018.073	19.31862
1018.24	-48.11204
1018.407	-107.09281
1018.573	-22.82848
1018.74	-8.0781
1018.907	-14.39983
1019.074	-5.9708
1019.241	55.15113
1019.407	-50.21884
1019.574	-39.68458
1019.741	-92.34952
1019.907	-12.29261
1020.074	0.35123
1020.241	2.45862
1020.407	36.18013
1020.574	-31.25673
1020.74	-8.0781
1020.907	-5.9708
1021.073	36.18013
1021.24	19.31862
1021.406	80.44868
1021.573	-12.29261
1021.739	15.10348
1021.906	-10.18537
1022.072	-5.9708
1022.239	17.21104
1022.405	10.88843
1022.571	-16.50703
1022.738	6.67348
1022.904	-5.9708
1023.07	10.88843
1023.237	-31.25673
1023.403	-22.82848
1023.569	12.99594
1023.735	29.85689
1023.902	-31.25673
1024.068	19.31862
1024.234	44.61145
1024.4	84.66525
1024.566	-31.25673
1024.732	2.45862
1024.898	-39.68458
1025.065	46.71934
1025.231	10.88843
1025.397	55.15113
1025.563	10.88843
1025.729	46.71934
1025.895	2.45862
1026.061	-48.11204
1026.227	-10.18537
1026.392	4.56604
1026.558	-98.66823
1026.724	36.18013
1026.89	-10.18537
1027.056	-39.68458
1027.222	-31.25673
1027.388	-1.75614
1027.553	10.88843
1027.719	-27.04265
1027.885	15.10348
1028.051	31.96461
1028.216	-115.51698
1028.382	10.88843
1028.548	29.85689
1028.713	-54.43236
1028.879	-12.29261
1029.045	4.56604
1029.21	-12.29261
1029.376	23.53386
1029.541	10.88843
1029.707	38.28793
1029.873	21.42623
1030.038	10.88843
1030.204	44.61145
1030.369	15.10348
1030.534	31.96461
1030.7	-48.11204
1030.865	21.42623
1031.031	42.50359
1031.196	-10.18537
1031.361	6.67348
1031.527	-3.86348
1031.692	44.61145
1031.857	-54.43236
1032.023	53.04315
1032.188	-22.82848
1032.353	-10.18537
1032.518	-35.47071
1032.684	-29.1497
1032.849	-73.39198
1033.014	-29.1497
1033.179	-8.0781
1033.344	63.58328
1033.509	-71.28546
1033.674	65.69137
1033.839	2.45862
1034.004	46.71934
1034.17	-5.9708
1034.335	-5.9708
1034.5	10.88843
1034.664	-56.53909
1034.829	23.53386
1034.994	17.21104
1035.159	-27.04265
1035.324	2.45862
1035.489	-79.71139
1035.654	-18.61421
1035.819	10.88843
1035.984	10.88843
1036.148	27.74919
1036.313	-58.64579
1036.478	-10.18537
1036.643	-60.75247
1036.807	17.21104
1036.972	4.56604
1037.137	-29.1497
1037.301	-81.81781
1037.466	42.50359
1037.631	-14.39983
1037.795	-60.75247
1037.96	-14.39983
1038.124	-27.04265
1038.289	72.0158
1038.454	72.0158
1038.618	19.31862
1038.783	19.31862
1038.947	82.55695
1039.111	2.45862
1039.276	-27.04265
1039.44	-113.41097
1039.605	2.45862
1039.769	-39.68458
1039.933	46.71934
1040.098	-37.57766
1040.262	-5.9708
1040.426	31.96461
1040.591	-12.29261
1040.755	19.31862
1040.919	53.04315
1041.083	-58.64579
1041.248	21.42623
1041.412	-10.18537
1041.576	-18.61421
1041.74	44.61145
1041.904	27.74919
1042.068	-8.0781
1042.232	-20.72135
1042.397	2.45862
1042.561	-98.66823
1042.725	-64.96574
1042.889	-39.68458
1043.053	31.96461
1043.217	-24.93558
1043.381	-27.04265
1043.544	27.74919
1043.708	-71.28546
1043.872	-3.86348
1044.036	-33.36373
1044.2	-56.53909
1044.364	-24.93558
1044.528	-20.72135
1044.691	-52.32561
1044.855	40.39575
1045.019	42.50359
1045.183	-20.72135
1045.346	6.67348
1045.51	-46.00521
1045.674	-10.18537
1045.837	-56.53909
1046.001	-54.43236
1046.165	-56.53909
1046.328	-64.96574
1046.492	23.53386
1046.655	10.88843
1046.819	-79.71139
1046.983	0.35123
1047.146	10.88843
1047.31	95.20708
1047.473	40.39575
1047.636	-35.47071
1047.8	-83.9242
1047.963	-56.53909
1048.127	-10.18537
1048.29	6.67348
