Data from absorb_only_2.23.25_USB4F045381__7__0112.txt Node

Date: Sun Feb 23 19:13:06 EST 2025
User: ssocol
Spectrometer: USB4F04538
Trigger mode: 4
Integration Time (sec): 2.600000E-3
Scans to average: 1
Electric dark correction enabled: true
Nonlinearity correction enabled: true
Boxcar width: 0
XAxis mode: Wavelengths
Number of Pixels in Spectrum: 3648
>>>>>Begin Spectral Data<<<<<
345.52	-24.23321
345.736	-24.23321
345.952	-24.23321
346.168	-7.37567
346.384	-22.12611
346.6	11.59093
346.816	-13.69743
347.032	-32.6614
347.248	119.10394
347.464	-79.00925
347.68	3.16109
347.896	34.77495
348.112	-36.87534
348.328	26.34407
348.544	-51.62336
348.76	9.48343
348.975	9.48343
349.191	1.05369
349.407	-9.48295
349.623	-7.37567
349.839	-43.19607
350.055	-20.01897
350.27	60.06984
350.486	-20.01897
350.702	-1.05368
350.918	-7.37567
351.133	-1.05368
351.349	13.69845
351.565	-5.26836
351.781	47.42198
351.996	-24.23321
352.212	15.80599
352.428	1.05369
352.644	-11.5902
352.859	13.69845
353.075	-49.51657
353.291	-62.1569
353.506	-3.16104
353.722	9.48343
353.938	9.48343
354.153	60.06984
354.369	-5.26836
354.584	34.77495
354.8	9.48343
355.016	-15.80464
355.231	47.42198
355.447	-24.23321
355.662	1.05369
355.878	24.2364
356.093	-55.83685
356.309	-5.26836
356.524	20.02115
356.74	95.90989
356.955	-55.83685
357.171	-15.80464
357.386	64.28597
357.602	11.59093
357.817	30.55946
358.033	7.37596
358.248	26.34407
358.464	22.12877
358.679	1.05369
358.895	13.69845
359.11	43.20621
359.325	1.05369
359.541	53.7458
359.756	62.17789
359.972	32.66719
360.187	36.88273
360.402	5.26851
360.618	-55.83685
360.833	-83.22208
361.048	55.85379
361.264	-11.5902
361.479	-13.69743
361.694	47.42198
361.909	47.42198
362.125	53.7458
362.34	3.16109
362.555	60.06984
362.77	123.32132
362.986	32.66719
363.201	-15.80464
363.416	22.12877
363.631	38.99053
363.847	43.20621
364.062	-30.55439
364.277	-13.69743
364.492	22.12877
364.707	17.91356
364.922	100.12679
365.138	45.31408
365.353	-62.1569
365.568	-34.76838
365.783	-9.48295
365.998	-24.23321
366.213	49.5299
366.428	17.91356
366.643	34.77495
366.858	7.37596
367.073	38.99053
367.288	-5.26836
367.503	70.61035
367.718	-7.37567
367.933	34.77495
368.148	-85.32845
368.363	-60.05024
368.578	89.5847
368.793	30.55946
369.008	-3.16104
369.223	-36.87534
369.438	17.91356
369.653	17.91356
369.868	34.77495
370.083	43.20621
370.298	-9.48295
370.513	17.91356
370.728	28.45175
370.943	7.37596
371.157	-28.44736
371.372	9.48343
371.587	104.34378
371.802	70.61035
372.017	70.61035
372.232	-15.80464
372.446	-15.80464
372.661	51.63784
372.876	38.99053
373.091	1.05369
373.306	24.2364
373.52	70.61035
373.735	60.06984
373.95	55.85379
374.165	13.69845
374.379	-5.26836
374.594	7.37596
374.809	-24.23321
375.023	41.09836
375.238	36.88273
375.453	43.20621
375.667	-53.73012
375.882	-3.16104
376.097	66.39408
376.311	-28.44736
376.526	34.77495
376.741	26.34407
376.955	68.5022
377.17	-5.26836
377.384	57.9618
377.599	-7.37567
377.813	-15.80464
378.028	1.05369
378.242	26.34407
378.457	-7.37567
378.672	9.48343
378.886	-34.76838
379.101	43.20621
379.315	5.26851
379.53	55.85379
379.744	13.69845
379.958	-9.48295
380.173	26.34407
380.387	22.12877
380.602	34.77495
380.816	7.37596
381.031	1.05369
381.245	34.77495
381.459	-3.16104
381.674	-108.49687
381.888	38.99053
382.103	102.23527
382.317	17.91356
382.531	-38.98228
382.746	-20.01897
382.96	34.77495
383.174	28.45175
383.388	13.69845
383.603	-20.01897
383.817	-32.6614
384.031	-26.3403
384.246	79.04317
384.46	-17.91182
384.674	-49.51657
384.888	-7.37567
385.103	62.17789
385.317	100.12679
385.531	-3.16104
385.745	-57.94356
385.959	70.61035
386.174	20.02115
386.388	28.45175
386.602	51.63784
386.816	22.12877
387.03	-30.55439
387.244	15.80599
387.458	36.88273
387.672	-38.98228
387.887	22.12877
388.101	95.90989
388.315	38.99053
388.529	51.63784
388.743	85.36802
388.957	53.7458
389.171	62.17789
389.385	45.31408
389.599	36.88273
389.813	47.42198
390.027	28.45175
390.241	32.66719
390.455	-3.16104
390.669	28.45175
390.883	13.69845
391.097	43.20621
391.311	-62.1569
391.525	11.59093
391.738	17.91356
391.952	76.93493
392.166	24.2364
392.38	9.48343
392.594	5.26851
392.808	9.48343
393.022	43.20621
393.236	15.80599
393.449	-49.51657
393.663	53.7458
393.877	-24.23321
394.091	43.20621
394.305	-7.37567
394.518	13.69845
394.732	-11.5902
394.946	9.48343
395.16	3.16109
395.373	22.12877
395.587	11.59093
395.801	76.93493
396.015	22.12877
396.228	91.69308
396.442	-1.05368
396.656	7.37596
396.869	34.77495
397.083	9.48343
397.297	57.9618
397.51	51.63784
397.724	51.63784
397.938	43.20621
398.151	-22.12611
398.365	98.01833
398.578	22.12877
398.792	64.28597
399.005	-28.44736
399.219	1.05369
399.433	-62.1569
399.646	9.48343
399.86	70.61035
400.073	55.85379
400.287	68.5022
400.5	36.88273
400.714	17.91356
400.927	43.20621
401.141	45.31408
401.354	36.88273
401.567	112.77803
401.781	24.2364
401.994	45.31408
402.208	72.71852
402.421	-20.01897
402.635	51.63784
402.848	5.26851
403.061	49.5299
403.275	93.80147
403.488	53.7458
403.701	85.36802
403.915	38.99053
404.128	62.17789
404.341	127.53879
404.555	3.16109
404.768	32.66719
404.981	34.77495
405.195	22.12877
405.408	104.34378
405.621	11.59093
405.834	24.2364
406.048	17.91356
406.261	-3.16104
406.474	34.77495
406.687	43.20621
406.9	85.36802
407.114	47.42198
407.327	43.20621
407.54	51.63784
407.753	1.05369
407.966	17.91356
408.179	-5.26836
408.392	43.20621
408.605	7.37596
408.819	7.37596
409.032	15.80599
409.245	11.59093
409.458	62.17789
409.671	89.5847
409.884	43.20621
410.097	85.36802
410.31	62.17789
410.523	15.80599
410.736	45.31408
410.949	20.02115
411.162	102.23527
411.375	83.25972
411.588	36.88273
411.801	13.69845
412.014	-3.16104
412.227	34.77495
412.44	36.88273
412.653	28.45175
412.865	98.01833
413.078	-24.23321
413.291	89.5847
413.504	72.71852
413.717	3.16109
413.93	32.66719
414.143	30.55946
414.356	11.59093
414.568	110.66943
414.781	93.80147
414.994	9.48343
415.207	38.99053
415.42	43.20621
415.632	106.45231
415.845	34.77495
416.058	43.20621
416.271	43.20621
416.483	91.69308
416.696	43.20621
416.909	38.99053
417.121	28.45175
417.334	85.36802
417.547	36.88273
417.759	45.31408
417.972	43.20621
418.185	79.04317
418.397	30.55946
418.61	106.45231
418.823	43.20621
419.035	-9.48295
419.248	79.04317
419.46	169.71819
419.673	43.20621
419.885	83.25972
420.098	28.45175
420.311	68.5022
420.523	79.04317
420.736	121.21262
420.948	70.61035
421.161	-7.37567
421.373	76.93493
421.586	43.20621
421.798	53.7458
422.01	79.04317
422.223	36.88273
422.435	93.80147
422.648	64.28597
422.86	81.15143
423.073	140.19172
423.285	76.93493
423.497	53.7458
423.71	79.04317
423.922	119.10394
424.134	161.28164
424.347	66.39408
424.559	38.99053
424.771	60.06984
424.984	102.23527
425.196	129.64756
425.408	-7.37567
425.621	53.7458
425.833	51.63784
426.045	87.47635
426.257	108.56086
426.47	152.84542
426.682	169.71819
426.894	81.15143
427.106	104.34378
427.318	89.5847
427.531	76.93493
427.743	66.39408
427.955	110.66943
428.167	34.77495
428.379	110.66943
428.591	55.85379
428.804	68.5022
429.016	68.5022
429.228	53.7458
429.44	68.5022
429.652	89.5847
429.864	142.30062
430.076	102.23527
430.288	125.43005
430.5	43.20621
430.712	133.86516
430.924	138.08285
431.136	108.56086
431.348	95.90989
431.56	34.77495
431.772	68.5022
431.984	135.97399
432.196	74.82672
432.408	102.23527
432.62	114.88664
432.832	138.08285
433.044	176.04582
433.256	119.10394
433.468	121.21262
433.679	169.71819
433.891	222.45405
434.103	152.84542
434.315	142.30062
434.527	110.66943
434.739	190.81102
434.95	171.82738
435.162	108.56086
435.374	135.97399
435.586	157.06349
435.798	131.75635
436.009	207.68674
436.221	220.34438
436.433	173.93659
436.645	152.84542
436.856	152.84542
437.068	154.95444
437.28	230.89295
437.491	201.3582
437.703	241.44201
437.915	178.15507
438.126	195.02983
438.338	104.34378
438.55	214.01547
438.761	165.49987
438.973	254.10153
439.184	165.49987
439.396	313.1882
439.608	230.89295
439.819	241.44201
440.031	178.15507
440.242	129.64756
440.454	184.48295
440.665	233.00273
440.877	254.10153
441.088	275.20224
441.3	171.82738
441.511	205.57721
441.723	304.74637
441.934	167.60902
442.146	264.65165
442.357	279.42261
442.569	197.13926
442.78	292.08415
442.991	197.13926
443.203	349.06919
443.414	355.40166
443.626	365.95611
443.837	357.51251
444.048	342.73688
444.26	211.90588
444.471	264.65165
444.682	283.64305
444.894	237.22233
445.105	256.21151
445.316	209.7963
445.528	376.51098
445.739	340.62615
445.95	306.8568
446.161	319.51977
446.373	319.51977
446.584	317.40923
446.795	391.28851
447.006	361.73427
447.217	338.51543
447.429	313.1882
447.64	315.29871
447.851	380.73305
448.062	315.29871
448.273	355.40166
448.484	319.51977
448.695	397.62199
448.907	264.65165
449.118	435.62591
449.329	465.18806
449.54	439.84889
449.751	340.62615
449.962	380.73305
450.173	313.1882
450.384	460.96471
450.595	376.51098
450.806	547.55513
451.017	412.40067
451.228	393.39965
451.439	422.95736
451.65	444.07193
451.861	486.30571
452.072	458.85306
452.283	473.63494
452.494	414.51198
452.705	509.53683
452.915	484.19387
453.126	591.91544
453.337	596.14053
453.548	496.86509
453.759	541.21844
453.97	566.56597
454.181	604.59088
454.391	551.77967
454.602	684.87899
454.813	543.33065
455.024	648.95847
455.235	596.14053
455.445	752.50288
455.656	608.81612
455.867	608.81612
456.078	636.28146
456.288	553.89196
456.499	602.47827
456.71	646.84561
456.921	600.36568
457.131	805.34143
457.342	718.68955
457.553	792.65962
457.763	646.84561
457.974	879.32516
458.184	737.70922
458.395	841.27503
458.606	782.09171
458.816	824.36477
459.027	972.34743
459.237	847.61653
459.448	989.26206
459.659	898.35124
459.869	883.55312
460.08	993.49078
460.29	1069.612
460.501	1082.29957
460.711	946.9763
460.922	1105.56061
461.132	1147.85487
461.343	1040.0084
461.553	1141.51062
461.764	1135.1664
461.974	1099.21663
462.184	1105.56061
462.395	1177.46186
462.605	1310.70122
462.816	1063.26828
463.026	1285.32149
463.236	1268.40185
463.447	1369.92157
463.657	1270.5168
463.867	1484.13411
464.078	1424.91267
464.288	1488.36421
464.498	1369.92157
464.709	1611.03536
464.919	1437.60297
465.129	1792.91318
465.339	1617.38028
465.55	1646.98964
465.76	1570.85047
465.97	1820.40404
466.18	1644.8747
466.391	2055.0975
466.601	1646.98964
466.811	1991.67411
467.021	1991.67411
467.231	2038.18519
467.441	1615.26531
467.651	2116.40076
467.862	2152.33418
468.072	2260.12008
468.282	2376.33319
468.492	2065.66747
468.702	2452.38347
468.912	2579.1022
469.122	2401.68479
469.332	2496.73968
469.542	2334.07727
469.752	2562.20877
469.962	2720.55373
470.172	2868.27599
470.382	2665.6688
470.592	2766.98791
470.802	2701.55609
471.012	3009.60206
471.222	3081.29389
471.432	3108.7007
471.642	2963.20381
471.852	3283.61803
472.062	3180.36726
472.272	3300.47147
472.482	3302.57807
472.691	3569.9735
472.901	3348.91898
473.111	3519.46434
473.321	3508.94027
473.531	3872.79899
473.741	3784.51642
473.95	3969.44899
474.16	3742.46492
474.37	4005.1566
474.58	4103.84673
474.79	4257.03975
474.999	4221.37474
475.209	4173.1123
475.419	4313.67147
475.628	4447.84664
475.838	4349.32042
476.048	4602.87462
476.258	4741.03976
476.467	4927.19716
476.677	4776.61185
476.886	4960.64445
477.096	4994.08584
477.306	5161.20405
477.515	5060.95092
477.725	5067.21831
477.935	5205.04796
478.144	5449.13237
478.354	5234.27151
478.563	5540.84164
478.773	5499.16126
478.982	5809.45351
479.192	5724.12331
479.401	5755.34628
479.611	5925.93797
479.82	6085.98338
480.03	6123.37647
480.239	6108.83562
480.449	6067.28398
480.658	6252.11663
480.868	6532.1271
481.077	6619.15514
481.287	6507.25445
481.496	6656.44041
481.705	6826.20142
481.915	6991.67433
482.124	6730.9886
482.333	6948.25171
482.543	6869.65211
482.752	7173.52817
482.961	7130.14694
483.171	7330.44533
483.38	7349.01922
483.589	7274.71302
483.799	7448.05011
484.008	7524.35235
484.217	7547.03111
484.426	7956.86871
484.636	7816.91688
484.845	8020.63876
485.054	7952.75384
485.263	8072.05199
485.472	8144.00934
485.682	8230.32585
485.891	8363.84233
486.1	8376.16277
486.309	8409.01388
486.518	8417.22588
486.727	8632.68194
486.936	8700.35393
487.146	8778.25439
487.355	8696.25317
487.564	8790.55205
487.773	9015.8945
487.982	8915.54132
488.191	9124.39248
488.4	9193.96951
488.609	9316.70486
488.818	9376.00547
489.027	9494.56553
489.236	9678.43189
489.445	9500.69647
489.654	9686.60079
489.863	9841.76366
490.072	9690.68515
490.281	10058.03204
490.49	9947.878
490.698	10013.15952
490.907	10027.43789
491.116	10294.52071
491.325	10127.367
491.534	10190.57009
491.743	10282.29306
491.952	10526.75609
492.16	10530.8289
492.369	10561.37336
492.578	10632.63282
492.787	10935.82932
492.996	10825.9762
493.204	11104.61366
493.413	10954.13494
493.622	11244.87172
493.831	11267.2271
494.039	11315.9982
494.248	11289.58125
494.457	11460.24568
494.665	11322.09418
494.874	11482.58948
495.083	11332.25394
495.291	11521.1806
495.5	11590.22992
495.709	11462.27698
495.917	11498.83879
496.126	11898.79425
496.335	11817.6125
496.543	11864.29365
496.752	11807.46384
496.96	12229.47754
497.169	12168.63083
497.377	12249.75832
497.586	11979.9628
497.794	12424.14397
498.003	12243.67416
498.211	12756.55977
498.42	12403.86918
498.628	12480.90987
498.837	12786.9556
499.045	12641.04373
499.254	12576.18408
499.462	12813.29763
499.671	12920.68249
499.879	13021.97543
500.087	13034.12974
500.296	12926.76043
500.504	13090.8475
500.713	13256.92838
500.921	13072.6172
501.129	13222.49947
501.338	12823.42893
501.546	13210.34779
501.754	13317.68224
501.962	13429.05467
502.171	13242.75192
502.379	13623.42255
502.587	13439.17884
502.795	13348.05775
503.004	13510.04537
503.212	13696.30222
503.42	13510.04537
503.628	13763.10493
503.837	13898.72468
504.045	14167.90541
504.253	14030.28445
504.461	13902.77284
504.669	14103.14389
504.877	14287.304
505.085	14271.11475
505.294	14281.23305
505.502	14070.76229
505.71	14570.59925
505.918	14224.56999
506.126	14390.50786
506.334	14113.26303
506.542	14669.74649
506.75	14526.08327
506.958	14924.68696
507.166	14214.45143
507.374	14534.17713
507.582	14627.25514
507.79	14694.02708
507.998	14665.69972
508.206	14716.28416
508.414	14876.12768
508.622	14948.9665
508.83	14866.01113
509.037	15054.17723
509.245	14665.69972
509.453	15139.15469
509.661	15357.66845
509.869	15333.38902
510.077	15246.38807
510.285	15096.66598
510.492	15752.22056
510.7	15709.72891
510.908	15163.43393
511.116	15185.68991
511.324	15373.85476
511.531	15511.43958
511.739	15468.94989
511.947	15665.21429
512.155	15570.11627
512.362	15432.53036
512.57	15487.15972
512.778	15768.40798
512.985	16003.13382
513.193	16009.20455
513.401	16003.13382
513.608	16146.81128
513.816	16173.11927
514.024	15930.28606
514.231	16029.4404
514.439	16324.90182
514.646	16104.31433
514.854	16142.76392
515.061	16124.55088
515.269	16314.78267
515.477	16175.14298
515.684	16399.78501
515.892	16658.862
516.099	16644.6928
516.307	16646.71697
516.514	16857.24297
516.722	16865.34065
516.929	16800.56031
517.136	16668.98293
517.344	16822.82826
517.551	16588.01712
517.759	17057.67289
517.966	17079.94451
518.173	16926.07458
518.381	17063.74694
518.588	17233.83043
518.796	17422.16126
519.003	17436.33777
519.21	17035.40161
519.418	17124.48875
519.625	17183.20824
519.832	17359.38141
520.039	17266.22959
520.247	17570.00955
520.454	17728.00346
520.661	17580.13677
520.868	17630.77407
521.076	17869.81022
521.283	17418.11086
521.49	17758.38922
521.697	17886.01778
521.904	17778.64682
522.112	17681.41342
522.319	18149.42226
522.526	17944.77205
522.733	18003.52927
522.94	18072.42086
523.147	18250.74794
523.354	18273.04083
523.561	18418.96911
523.768	18321.68142
523.975	18380.45836
524.183	18214.26964
524.39	18386.53891
524.597	18473.69727
524.804	18871.06801
525.011	18595.32543
525.218	18273.04083
525.425	18846.73484
525.632	18798.07021
525.838	18869.04023
526.045	18763.60082
526.252	18838.62391
526.459	19090.09264
526.666	18864.98467
526.873	18761.57324
527.08	18542.61819
527.287	19185.42369
527.494	18923.79187
527.701	19495.81961
527.907	19035.33207
528.114	19459.29741
528.321	19540.45968
528.528	19611.48213
528.735	19648.00996
528.941	19861.11598
529.148	19183.39528
529.355	19915.92215
529.562	19370.0266
529.768	19792.10516
529.975	19696.71583
530.182	19924.04184
530.388	19656.12743
530.595	19579.01409
530.802	19538.43054
531.008	20007.27258
531.215	20277.31363
531.422	20210.30403
531.628	20224.5178
531.835	20031.63413
532.042	20090.51038
532.248	20397.13009
532.455	20291.52838
532.661	20577.89777
532.868	20224.5178
533.074	20541.33534
533.281	20425.56325
533.487	20937.50008
533.694	20588.05424
533.9	21317.55885
534.107	20437.74915
534.313	20803.3959
534.52	20746.50866
534.726	20978.14126
534.933	20630.71255
535.139	20844.03163
535.345	20827.77714
535.552	20961.88459
535.758	21264.70795
535.965	21274.87138
536.171	21596.08708
536.377	21293.16579
536.584	21189.50177
536.79	21600.15374
536.996	21421.2358
537.203	21173.24171
537.409	21187.46925
537.615	21661.15548
537.821	21421.2358
538.028	22074.02559
538.234	21563.55439
538.44	21895.02798
538.646	21490.35954
538.853	21734.36222
539.059	21831.97905
539.265	21819.77646
539.471	22120.81388
539.677	21840.11419
539.883	22143.19159
540.09	21644.888
540.296	22110.64234
540.502	22232.70694
540.708	22281.53652
540.914	22440.24722
541.12	22261.1906
541.326	22631.54309
541.532	22454.49156
541.738	22731.27355
541.944	22478.91086
542.15	23020.33505
542.356	22739.41518
542.562	22708.88435
542.768	22495.19067
542.974	22670.21309
543.18	22910.40217
543.386	23128.24159
543.592	23413.32166
543.798	23317.60922
544.004	23287.06417
544.21	23576.25233
544.415	23248.3748
544.621	23680.13085
544.827	22985.7255
545.033	23765.68372
545.239	23535.51781
545.445	24054.97194
545.651	23696.42623
545.856	23741.23951
546.062	23712.7218
546.268	23413.32166
546.474	23148.60236
546.679	23217.83139
546.885	22953.15268
547.091	23456.08904
547.297	23038.65815
547.502	23655.68814
547.708	23716.79572
547.914	23716.79572
548.119	23755.49858
548.325	23641.43009
548.531	23464.23537
548.736	23896.05997
548.942	23855.31611
549.147	23429.61384
549.353	23957.17792
549.559	24344.31647
549.764	23951.06601
549.97	23914.39508
550.175	24107.9464
550.381	24344.31647
550.586	24091.64637
550.792	24931.31603
550.997	24344.31647
551.203	24756.0101
551.408	24886.46867
551.614	24625.56142
551.819	25006.74368
552.025	24792.70058
552.23	24599.06527
552.435	24774.35524
552.641	25275.86199
552.846	25061.78745
553.052	24741.74179
553.257	24696.8993
553.462	24996.55057
553.668	24733.58852
553.873	25006.74368
554.078	25269.74524
554.283	25310.52393
554.489	25489.96016
554.694	25322.7577
554.899	25753.02568
555.105	25612.31213
555.31	25628.62627
555.515	25127.02664
555.72	25742.82874
555.925	25302.36812
556.131	25775.45912
556.336	25457.3342
556.541	25767.30148
556.746	25744.86812
556.951	25328.87462
557.156	25426.74784
557.361	25746.90751
557.567	25816.24779
557.772	25687.76608
557.977	25820.3267
558.182	26050.79696
558.387	26438.36365
558.592	26020.20223
558.797	26103.82876
559.002	26101.78906
559.207	25950.85567
559.412	25748.9469
559.617	25875.39268
559.822	26403.68418
560.027	26134.42457
560.232	26640.32962
560.437	26369.00519
560.642	26207.8561
560.847	26538.32469
561.051	26497.52381
561.256	26477.1236
561.461	26493.44375
561.666	26685.213
561.871	26468.96356
562.076	26787.22339
562.281	26715.81573
562.485	26324.12718
562.69	26540.36475
562.895	25993.68712
563.1	26603.6074
563.305	26779.06243
563.509	26734.17753
563.714	26811.70644
563.919	26979.0128
564.123	26630.12895
564.328	26842.31054
564.533	26879.03589
564.737	26575.04602
564.942	26742.33836
565.147	27107.55948
565.351	27109.59994
565.556	27072.87174
565.761	27009.61865
565.965	27507.51626
566.17	26911.68103
566.374	27144.2881
566.579	27085.11442
566.784	26879.03589
566.988	27248.35488
567.193	27236.11155
567.397	27358.54696
567.602	27421.80707
567.806	27219.78718
568.011	27836.08811
568.215	27752.41159
568.42	27568.73845
568.624	27727.92128
568.828	27744.24814
569.033	27366.70949
569.237	27874.86569
569.442	27805.47452
569.646	27107.55948
569.85	27701.3903
570.055	27913.6437
570.259	27789.14738
570.463	27864.66102
570.668	27732.00299
570.872	27680.98199
571.076	27848.33361
571.281	27852.41546
571.485	28036.10326
571.689	28585.1791
571.893	28393.29985
572.098	28556.60075
572.302	28215.71792
572.506	27915.68465
572.71	27958.54506
572.914	28423.91825
573.119	28370.84651
573.323	28076.92401
573.527	28309.61079
573.731	28450.45439
573.935	28662.74997
574.139	28132.03274
574.343	28017.73406
574.547	28225.92355
574.751	28640.29509
574.955	28668.87405
575.159	28826.06199
575.364	28570.8899
575.568	28824.02054
575.772	28795.44047
575.976	28497.40339
576.18	28817.89623
576.383	28987.33914
576.587	29303.78783
576.791	28630.08837
576.995	28903.63753
577.199	29089.41664
577.403	28744.40514
577.607	29042.46067
577.811	29060.83468
578.015	28958.75791
578.219	28979.17305
578.422	28979.17305
578.626	29030.21137
578.83	28975.09002
579.034	28999.5883
579.238	29428.33257
579.442	29714.18789
579.645	29567.17397
579.849	29589.63407
580.053	29561.04851
580.257	29550.83943
580.46	29642.72209
580.664	29581.46674
580.868	29481.41841
581.071	29601.88508
581.275	29877.5433
581.479	29703.97841
581.682	30028.6534
581.886	30165.47468
582.09	30132.80047
582.293	30296.17455
582.497	29761.15185
582.7	30208.36004
582.904	30216.52874
583.107	30334.97701
583.311	30089.91602
583.515	30375.82219
583.718	30161.39039
583.922	30373.77991
584.125	30275.75237
584.329	30091.95812
584.532	29789.73889
584.735	30036.82169
584.939	29853.03954
585.142	29928.59332
585.346	30077.66341
585.549	30306.38568
585.753	30467.72562
585.956	30541.2502
586.159	31072.312
586.363	30723.02643
586.566	30767.96149
586.769	30653.5826
586.973	30390.11811
587.176	30498.36066
587.379	30802.68448
587.582	30688.30432
587.786	30484.06428
587.989	31113.16684
588.192	31384.86698
588.395	30714.85649
588.599	31162.19343
588.802	31121.33788
589.005	31049.84209
589.208	31272.50645
589.411	30990.60408
589.615	30490.19129
589.818	30753.6639
590.021	31011.03084
590.224	31450.24261
590.427	31388.95291
590.63	31674.98437
590.833	31662.72519
591.036	31585.08519
591.239	31544.22303
591.442	31055.97023
591.645	31531.96451
591.848	31636.16386
592.051	31151.97948
592.254	30882.34461
592.457	31151.97948
592.66	31284.76373
592.863	31589.17144
593.066	31556.48161
593.269	31773.06009
593.472	31341.96512
593.675	32040.74676
593.878	31625.94804
594.081	31198.96394
594.284	31337.87927
594.486	32212.41081
594.689	31764.88696
594.892	31425.72655
595.095	31773.06009
595.298	32063.22576
595.5	32032.57263
595.703	32435.1874
595.906	32253.28535
596.109	32222.62937
596.311	31901.79085
596.514	32191.97386
596.717	31807.79624
596.92	32369.78243
597.122	32676.38837
597.325	32958.51357
597.528	32999.40533
597.73	33126.1766
597.933	32416.79202
598.136	32138.83875
598.338	32373.87018
598.541	32073.44357
598.743	32948.2908
598.946	32445.40713
599.148	32666.16733
599.351	32631.41623
599.554	33019.85161
599.756	32874.68874
599.959	33113.90795
600.161	32692.74216
600.363	33400.20289
600.566	33165.02796
600.768	33087.32623
600.971	33183.43159
601.173	33228.41919
601.376	33332.71398
601.578	32884.91105
601.78	33314.30847
601.983	33003.49457
602.185	33289.76816
602.388	33199.79056
602.59	33355.20992
602.792	33189.56618
602.995	33357.25503
603.197	32983.0485
603.399	33248.86856
603.601	32985.0931
603.804	32572.13652
604.006	32784.73516
604.208	33232.50905
604.41	33048.47685
604.613	33160.93829
604.815	33142.53494
605.017	33453.37826
605.219	32933.97902
605.421	32909.44485
605.623	33234.55397
605.826	33631.32637
606.028	33263.18329
606.23	33518.8277
606.432	33248.86856
606.634	33762.24612
606.836	33522.9184
607.038	33919.77701
607.24	33502.46505
607.442	33827.71106
607.644	33594.50757
607.846	33889.08759
608.048	33878.85795
608.25	33418.60952
608.452	33277.49816
608.654	33426.79032
608.856	33338.8492
609.058	33011.67307
609.26	33903.40922
609.462	34063.00473
609.664	33385.88679
609.866	33201.83544
610.067	33201.83544
610.269	33529.05446
610.471	32966.69184
610.673	33379.75136
610.875	33447.24254
611.077	33866.5825
611.278	33428.83553
611.48	33930.00699
611.682	33741.78902
611.884	34238.9945
612.085	33394.0674
612.287	34707.75847
612.489	33940.23705
612.69	33837.94027
612.892	33878.85795
613.094	34226.71525
613.295	33762.24612
613.497	33676.32853
613.699	33619.05332
613.9	33756.10895
614.102	33375.66109
614.304	33130.26617
614.505	32952.3799
614.707	33365.43547
614.908	32604.84232
615.11	33275.45317
615.311	33555.6444
615.513	33852.2613
615.714	33702.92145
615.916	33541.32668
616.117	33347.02954
616.319	34322.90637
616.52	33905.45518
616.722	34724.1384
616.923	34507.12616
617.124	34245.13418
617.326	33745.88041
617.527	33633.37189
617.729	33833.84857
617.93	34028.21926
618.131	33983.20429
618.333	33893.17946
618.534	33801.11551
618.735	34034.3578
618.937	33829.75689
619.138	33676.32853
619.339	33813.39031
619.54	33678.37412
619.742	33919.77701
619.943	33704.96708
620.144	34126.43976
620.345	34322.90637
620.546	34341.32691
620.748	34574.68157
620.949	34144.85704
621.15	34605.39005
621.351	34017.98843
621.552	33975.01994
621.753	33966.83564
621.954	34044.58876
622.155	33770.42905
622.356	34537.83261
622.558	34284.01958
622.759	34290.15951
622.96	33972.97386
623.161	33811.3445
623.362	33563.82603
623.563	34120.30074
623.764	34648.38351
623.965	34449.80989
624.166	34208.29664
624.366	33610.87136
624.567	34181.6925
624.768	34157.1354
624.969	33694.73896
625.17	33827.71106
625.371	33991.3887
625.572	33954.55929
625.773	33768.38331
625.973	34198.0642
626.174	34007.7577
626.375	34103.93016
626.576	34288.11286
626.777	34828.56696
626.977	34310.62618
627.178	34445.71599
627.379	34400.68415
627.58	34795.80384
627.78	34492.79679
627.981	34167.36746
628.182	34326.9998
628.382	34386.35624
628.583	34157.1354
628.784	34163.27462
628.984	33975.01994
629.185	34374.07533
629.386	33997.52705
629.586	34541.92687
629.787	34433.43439
629.987	34271.73983
630.188	34024.12692
630.388	34404.77787
630.589	34058.91227
630.79	34457.99773
630.99	34222.6222
631.191	34126.43976
631.391	34157.1354
631.591	34382.26259
631.792	34576.72877
631.992	35107.09987
632.193	34363.84134
632.393	34392.49675
632.594	34339.28017
632.794	34263.55341
632.994	34279.92632
633.195	34267.64661
633.395	34554.20976
633.595	34142.81066
633.796	34181.6925
633.996	34717.9959
634.196	34646.33616
634.397	35090.71323
634.597	34398.63729
634.797	35240.25262
634.997	34189.87832
635.198	34695.4737
635.398	33995.48093
635.598	34619.721
635.798	34488.70273
635.998	34378.16895
636.199	34550.11545
636.399	34726.18591
636.599	34765.08943
636.799	34275.83307
636.999	34476.42062
637.199	34298.34613
637.399	34660.66769
637.599	34570.58717
637.799	34623.81559
637.999	35217.71765
638.199	35037.45871
638.399	34724.1384
638.599	34939.15086
638.799	35354.98527
638.999	34947.34277
639.199	35182.89204
639.399	34840.85342
639.599	34398.63729
639.799	34157.1354
639.999	34558.30409
640.199	34527.59702
640.399	34808.08988
640.599	34128.48611
640.799	35285.32432
640.998	34951.43876
641.198	35443.09414
641.398	35176.74648
641.598	35256.64206
641.798	35289.42187
641.997	35133.72881
642.197	35230.00938
642.397	35248.4473
642.597	34681.14167
642.796	34930.95901
642.996	34500.98498
643.196	34570.58717
643.395	34593.10655
643.595	34777.37508
643.795	35006.73637
643.994	35937.09322
644.194	35113.24494
644.394	35502.52171
644.593	35463.58592
644.793	35363.18105
644.992	35043.6033
645.192	35414.40651
645.392	35092.76154
645.591	35529.16306
645.791	35670.58194
645.99	35084.56832
646.19	35512.76828
646.389	35234.10666
646.589	35285.32432
646.788	34693.42626
646.987	34713.90091
647.187	35316.05639
647.386	35176.74648
647.586	35395.96498
647.785	35422.60287
647.984	35791.52553
648.184	35490.226
648.383	35949.39601
648.582	35328.34952
648.782	35869.43149
648.981	35402.11211
649.18	35604.99325
649.38	36041.67352
649.579	36119.60588
649.778	35648.03522
649.977	35691.07953
650.177	34961.67881
650.376	35367.27897
650.575	34869.52244
650.774	35398.01402
650.973	35807.92612
651.173	35891.98472
651.372	35902.23641
651.571	35920.68981
651.77	35406.21022
651.969	35976.05276
652.168	35354.98527
652.367	36070.38446
652.566	35818.17667
652.765	36435.52552
652.964	35932.99233
653.163	35885.83377
653.362	35982.20446
653.561	35291.47065
653.76	35078.42345
653.959	35344.74065
654.158	35324.25179
654.357	35324.25179
654.556	35375.47487
654.755	36070.38446
654.954	35424.65198
655.153	35262.78818
655.352	35650.08489
655.551	35383.67086
655.749	35469.73355
655.948	35357.0342
656.147	35496.37383
656.346	35248.4473
656.545	35621.38992
656.743	35986.30562
656.942	36160.62631
657.141	36236.5204
657.34	36094.99474
657.538	36002.71048
657.737	35857.13002
657.936	35781.27534
658.135	35885.83377
658.333	36228.31524
658.532	35877.63259
658.731	35988.35621
658.929	35576.2999
659.128	35578.34939
659.326	35639.83657
659.525	35576.2999
659.724	35678.78091
659.922	35627.53875
660.121	35297.61701
660.319	35338.59394
660.518	35465.63513
660.716	35494.32455
660.915	36023.21708
661.113	36168.83069
661.312	35648.03522
661.51	35730.02643
661.709	36751.59403
661.907	36213.95644
662.105	35924.79063
662.304	36390.38525
662.502	35902.23641
662.701	36349.35124
662.899	35902.23641
663.097	36293.95925
663.296	35445.1433
663.494	35602.94369
663.692	36056.02884
663.891	35937.09322
664.089	35559.90417
664.287	35797.67571
664.485	35633.68764
664.684	35777.1753
664.882	35875.58231
665.08	35910.43787
665.278	35783.32536
665.476	35500.47241
665.675	35660.33335
665.873	35869.43149
666.071	35725.92666
666.269	35707.47799
666.467	35387.76888
666.665	35414.40651
666.863	34756.89909
667.061	35311.95871
667.259	35834.57783
667.457	36345.24798
667.655	36033.4706
667.853	36119.60588
668.051	36497.08535
668.249	36191.3932
668.447	36595.59299
668.645	36183.18857
668.843	36252.93102
669.041	35971.95166
669.239	35789.47548
669.437	35461.53672
669.635	35887.88408
669.833	35877.63259
670.031	35586.54741
670.229	35781.27534
670.426	35611.14196
670.624	35613.19154
670.822	35389.8179
671.02	35445.1433
671.218	35623.43952
671.415	35631.638
671.613	35398.01402
671.811	35203.37752
672.009	35404.16116
672.206	35326.30065
672.404	35062.03733
672.602	35205.4261
672.799	35395.96498
672.997	35820.22679
673.195	35055.89261
673.392	35414.40651
673.59	34976.01507
673.788	34611.53186
673.985	34787.61324
674.183	34992.39963
674.38	34998.54392
674.578	35623.43952
674.775	35494.32455
674.973	35277.12929
675.17	35141.92249
675.368	35551.70642
675.565	35656.23395
675.763	35691.07953
675.96	35387.76888
676.158	35635.73727
676.355	34992.39963
676.553	35570.15146
676.75	34443.66904
676.947	34748.70881
677.145	34310.62618
677.342	34640.19413
677.539	34672.95203
677.737	35103.00318
677.934	34992.39963
678.131	34859.28341
678.329	34617.67371
678.526	34666.80984
678.723	35211.57186
678.92	34953.48676
679.118	34509.17323
679.315	34564.44561
679.512	34384.30941
679.709	34257.41363
679.906	34525.54992
680.104	35094.80986
680.301	34462.09168
680.498	34611.53186
680.695	34736.42353
680.892	34810.13757
681.089	34519.40863
681.286	34687.28394
681.483	34423.19983
681.68	34693.42626
681.877	34797.8515
682.075	34212.38964
682.272	34007.7577
682.469	34828.56696
682.665	34406.82474
682.862	34210.34313
683.059	34390.44991
683.256	34363.84134
683.453	34398.63729
683.65	34537.83261
683.847	34953.48676
684.044	34079.37473
684.241	34218.52916
684.438	34603.34279
684.635	33764.29184
684.831	34208.29664
685.028	34073.23595
685.225	33942.28308
685.422	34108.02278
685.619	34505.07909
685.815	34136.67155
686.012	34238.9945
686.209	33680.41971
686.405	34181.6925
686.602	34183.73895
686.799	33831.80273
686.996	34627.9102
687.192	34265.60001
687.389	33987.29649
687.586	34036.40398
687.782	34300.3928
687.979	34406.82474
688.175	33905.45518
688.372	33858.39894
688.568	33864.53661
688.765	34099.83755
688.962	33809.2987
689.158	33923.86899
689.355	33549.50821
689.551	33614.96233
689.748	33259.09335
689.944	33880.90387
690.14	34108.02278
690.337	33336.80412
690.533	33997.52705
690.73	32936.02356
690.926	33422.69991
691.123	33228.41919
691.319	33238.64384
691.515	33275.45317
691.712	32725.45021
691.908	32782.69082
692.104	32461.75882
692.301	32715.22888
692.497	32535.34321
692.693	33058.70027
692.889	32876.73319
693.086	33349.07463
693.282	33398.15772
693.478	33844.07783
693.674	33610.87136
693.87	33490.19319
694.067	33402.24806
694.263	32936.02356
694.459	32938.06809
694.655	32396.35293
694.851	32283.9418
695.047	32006.00694
695.243	32993.2715
695.439	32893.08894
695.635	33154.80382
695.831	33191.61105
696.027	33171.16248
696.224	33144.57975
696.42	32584.40113
696.615	32972.82557
696.811	32572.13652
697.007	32660.03473
697.203	32406.57245
697.399	32615.06301
697.595	32285.98558
697.791	32022.35502
697.987	32014.18096
698.183	32439.27529
698.379	31701.54614
698.575	31893.61725
698.77	31846.61962
698.966	32003.96344
699.162	31795.53637
699.358	31885.44368
699.554	32112.27171
699.749	32110.22811
699.945	31815.96953
700.141	32251.2416
700.337	32363.65083
700.532	32606.88646
700.728	32408.61636
700.924	32467.89074
701.119	32234.8917
701.315	32089.79218
701.511	32173.58078
701.706	32854.24431
701.902	32296.20451
702.097	31914.05131
702.293	32457.67089
702.489	32177.66812
702.684	31934.48556
702.88	31683.15719
703.075	31830.27286
703.271	31834.35954
703.466	31705.63259
703.662	31744.45425
703.857	31679.07078
704.053	32357.51925
704.248	31668.85477
704.443	31938.57243
704.639	31650.46608
704.834	31717.89199
705.03	31746.49751
705.225	31658.63881
705.42	31521.74913
705.616	31401.21073
705.811	31029.41505
706.006	31319.493
706.202	30947.70834
706.397	31072.312
706.592	31278.63508
706.787	31793.49306
706.983	31476.80193
707.178	32061.18221
707.373	31885.44368
707.568	31656.59563
707.763	31409.38264
707.959	31476.80193
708.154	31466.58677
708.349	30847.6207
708.544	31689.28683
708.739	30774.08905
708.934	30729.1539
709.129	30794.51433
709.324	30428.92164
709.519	31149.9367
709.714	30980.39075
709.909	31366.48038
710.104	31035.54315
710.299	30939.53779
710.494	30606.60676
710.689	30941.58043
710.884	30880.30201
711.079	31139.7228
711.274	30868.04648
711.469	31164.23622
711.664	30737.32388
711.859	31070.26927
712.054	30884.3872
712.249	31011.03084
712.443	30479.97961
712.638	30743.45138
712.833	30594.3523
713.028	31125.4234
713.223	30743.45138
713.417	30718.94146
713.612	30198.14919
713.807	30486.10661
714.002	30467.72562
714.196	30559.6316
714.391	30083.78971
714.586	30332.93477
714.78	30770.00401
714.975	30933.4099
715.17	30200.19136
715.364	30735.28138
715.559	30637.2431
715.754	29832.61986
715.948	29969.43384
716.143	29926.55131
716.337	29701.93651
716.532	30541.2502
716.726	30140.96899
716.921	30522.8689
717.115	30422.79474
717.31	30457.51401
717.504	30218.57092
717.699	30226.73964
717.893	29373.20573
718.088	30038.86376
718.282	29832.61986
718.476	29832.61986
718.671	29699.89462
718.865	30094.00023
719.059	29879.58529
719.254	30124.63196
719.448	29979.64404
719.642	30020.48513
719.837	29497.75266
720.031	29593.71774
720.225	28950.59188
720.419	29362.99714
720.614	29385.45607
720.808	29452.83364
721.002	29111.87403
721.196	29260.91267
721.39	28844.43501
721.585	28926.09389
721.779	28985.29762
721.973	28903.63753
722.167	28411.67086
722.361	29011.8375
722.555	29313.99627
722.749	29309.91289
722.943	29218.03797
723.137	29042.46067
723.331	28485.15577
723.525	29056.75155
723.719	29062.87624
723.913	28556.60075
724.107	28711.74287
724.301	29058.79311
724.495	28532.10518
724.689	28942.42586
724.883	28589.26174
725.077	28828.10343
725.271	28664.79133
725.465	28634.17105
725.659	28238.17035
725.853	28709.70149
726.046	28503.52721
726.24	28650.50183
726.434	28581.09647
726.628	28505.56849
726.822	28442.2894
727.015	28542.31165
727.209	28285.11677
727.403	28854.64227
727.596	28721.9498
727.79	28922.0109
727.984	28995.50524
728.177	29164.95565
728.371	29040.41911
728.565	28770.94343
728.758	28593.34439
728.952	28519.85745
729.146	28491.27957
729.339	28595.38571
729.533	28662.74997
729.726	28509.65104
729.92	28448.41314
730.113	28391.25863
730.307	28646.41913
730.5	29042.46067
730.694	28395.34107
730.887	28421.87701
731.081	28158.56687
731.274	28338.18734
731.468	28521.89874
731.661	28617.84033
731.854	28358.59929
732.048	28507.60976
732.241	28132.03274
732.435	28697.45321
732.628	28127.95059
732.821	28540.27035
733.014	28760.73638
733.208	28193.26562
733.401	28472.90819
733.594	28019.77508
733.788	27732.00299
733.981	27848.33361
734.174	27795.27005
734.367	27766.69769
734.56	28211.63567
734.754	27803.43362
734.947	27938.13528
735.14	28413.71209
735.333	28074.88297
735.526	27983.03694
735.719	27723.83958
735.912	28446.37189
736.105	28236.12921
736.298	28301.4461
736.491	28117.74522
736.684	28064.67774
736.877	28070.80087
737.07	28499.44466
737.263	28303.48727
737.456	28107.53988
737.649	28327.9814
737.842	27929.9714
738.035	28542.31165
738.228	27934.05334
738.421	28046.3084
738.614	27744.24814
738.807	27827.92446
739	27670.77788
739.192	27040.22482
739.385	27242.23321
739.578	27299.36926
739.771	27429.96976
739.964	27258.55769
740.156	27903.43892
740.349	27474.86488
740.542	27717.71703
740.735	27495.27196
740.927	27932.01237
741.12	27795.27005
741.313	27625.88016
741.505	27209.58449
741.698	26942.28619
741.891	26915.7617
742.083	27021.86108
742.276	26997.37627
742.468	26883.11651
742.661	26660.73107
742.854	26981.05318
743.046	27095.3167
743.239	26968.81092
743.431	26932.08444
743.624	26593.40687
743.816	26485.28366
744.009	26770.90148
744.201	26550.56508
744.393	26632.16908
744.586	26524.04431
744.778	26797.42464
744.971	26509.764
745.163	26364.92533
745.355	26560.76544
745.548	26532.20452
745.74	27019.82067
745.932	27338.14073
746.125	26991.2551
746.317	26581.16629
746.509	26834.14941
746.702	26656.65077
746.894	26836.18969
747.086	26697.45405
747.278	26930.04409
747.471	26544.44488
747.663	26342.48627
747.855	26497.52381
748.047	26550.56508
748.239	27048.38652
748.431	26509.764
748.623	26171.14006
748.815	26187.45823
749.008	26142.58352
749.2	26232.33377
749.392	26440.40363
749.584	25720.39563
749.776	26707.65497
749.968	26487.32368
750.16	26925.9634
750.352	26313.92775
750.544	26677.05233
750.736	26497.52381
750.928	26063.03496
751.12	26177.25936
751.311	26107.90818
751.503	26073.23335
751.695	25971.2515
751.887	25769.34089
752.079	26187.45823
752.271	25799.93223
752.463	26144.62326
752.654	26067.11431
752.846	27103.47854
753.038	26477.1236
753.23	26209.8959
753.421	26018.1626
753.613	26058.95562
753.805	26297.60874
753.997	26152.78225
754.188	26048.7573
754.38	26140.54378
754.572	26087.51116
754.763	26024.2815
754.955	26036.51937
755.146	25575.60579
755.338	25773.41971
755.53	25565.40969
755.721	25755.06508
755.913	25516.46914
756.104	25897.82736
756.296	25804.01111
756.487	25767.30148
756.679	25540.93927
756.87	25102.56167
757.062	25339.06952
757.253	25628.62627
757.445	25618.42992
757.636	25526.665
757.827	24939.47022
758.019	25673.4908
758.21	25351.30347
758.401	25385.96674
758.593	25298.29023
758.784	25390.04482
758.975	25027.13007
759.167	24737.66515
759.358	24668.36378
759.549	24350.42997
759.74	24629.63779
759.932	24548.11232
760.123	24647.98157
760.314	24756.0101
760.505	24486.97086
760.696	24385.07357
760.888	24364.69489
761.079	24383.03569
761.27	24784.54707
761.461	24605.17973
761.652	24570.53142
761.843	24142.58456
762.034	24209.82559
762.225	23887.91111
762.416	24042.74733
762.607	23743.27651
762.798	24283.18281
762.989	24458.43897
763.18	24544.03615
763.371	24323.93832
763.562	24385.07357
763.753	24107.9464
763.944	24281.14506
764.135	24270.95637
764.326	24523.65546
764.517	24544.03615
764.708	24205.75029
764.899	23796.23958
765.089	23991.81256
765.28	23969.40181
765.471	24334.12736
765.662	23924.58136
765.853	23806.42501
766.043	23629.20902
766.234	23855.31611
766.425	23246.33855
766.615	23507.00438
766.806	23223.94002
766.997	23124.16948
767.187	23150.63845
767.378	23384.81084
767.569	23199.50569
767.759	23643.46695
767.95	23716.79572
768.141	23454.05247
768.331	23097.70106
768.522	23262.62864
768.712	22979.61803
768.903	22649.8603
769.093	22861.54628
769.284	23077.34112
769.474	23368.51922
769.665	23236.15735
769.855	23160.81897
770.046	23384.81084
770.236	22704.81363
770.426	22973.51059
770.617	22541.99642
770.807	22448.38682
770.998	22511.47072
771.188	22065.8887
771.378	22255.0869
771.569	22438.21232
771.759	22692.60156
771.949	22004.86394
772.139	22676.31899
772.33	22316.12542
772.52	22613.22617
772.71	22857.47504
772.9	22537.92628
773.09	22242.87959
773.281	22320.19477
773.471	22218.46538
773.661	22275.4327
773.851	22189.98281
774.041	21907.23143
774.231	21569.65419
774.421	21795.3717
774.611	21823.84398
774.802	21909.26535
774.992	21990.62532
775.182	21573.72075
775.372	21791.30429
775.562	21598.12041
775.752	21465.9624
775.942	21087.88063
776.131	21104.13933
776.321	20630.71255
776.511	21116.33352
776.701	20939.5321
776.891	21132.59268
777.081	21122.43068
777.271	21112.26878
777.461	21453.76405
777.651	21577.78732
777.84	21350.08383
778.03	21492.39266
778.22	21075.68678
778.41	21242.34878
778.599	20904.98833
778.789	21045.20279
778.979	20813.55468
779.169	20752.60356
779.358	20697.75075
779.548	21026.91284
779.738	20594.14817
779.927	20500.71201
780.117	20768.85683
780.307	20699.78229
780.496	20439.78015
780.686	20657.121
780.875	20301.6819
781.065	20756.66686
781.254	20480.40097
781.444	20622.58701
781.633	20738.38217
781.823	20655.08955
782.012	21004.55891
782.202	20482.43205
782.391	20376.82119
782.581	20460.09035
782.77	20094.57095
782.96	20153.45098
783.149	19615.54071
783.338	19966.67134
783.528	19895.62321
783.717	20214.36508
783.906	20187.96851
784.096	20076.29855
784.285	20045.84532
784.474	20135.17749
784.663	20129.0864
784.853	19958.55129
785.042	19926.07178
785.231	19800.22383
785.42	19777.89765
785.61	19686.56857
785.799	19483.64539
785.988	19893.59334
786.177	19558.72211
786.366	19857.05638
786.555	19552.63459
786.744	19321.3368
786.933	19284.82102
787.122	19581.04331
787.312	19729.18775
787.501	19288.87826
787.69	19439.00789
787.879	19993.06195
788.068	19355.82516
788.257	19518.13939
788.445	19242.22096
788.634	19538.43054
788.823	19252.36366
789.012	19516.1103
789.201	19280.76379
789.39	19248.30657
789.579	19191.50896
789.768	18986.65848
789.957	19305.1074
790.145	19015.05112
790.334	19211.79345
790.523	18741.2977
790.712	19096.17733
790.9	19260.4779
791.089	18864.98467
791.278	18506.13009
791.467	18427.07681
791.655	18603.43447
791.844	18664.25425
792.033	18526.4011
792.221	18390.59263
792.41	18416.94219
792.599	18309.52107
792.787	18937.98722
792.976	18840.65164
793.164	18449.3733
793.353	18706.83019
793.541	18846.73484
793.73	18761.57324
793.918	18696.69291
794.107	17997.4508
794.295	17934.64179
794.484	18309.52107
794.672	18475.72429
794.861	18350.0561
795.049	18573.02589
795.238	18127.13184
795.426	18149.42226
795.614	17683.43904
795.803	17780.67259
795.991	17478.8682
796.179	17875.88803
796.368	17798.90475
796.556	18052.15819
796.744	17630.77407
796.932	17954.90239
797.121	17624.69749
797.309	17640.90177
797.497	17746.23482
797.685	17847.52519
797.874	17963.00673
798.062	18048.1057
798.25	17642.92733
798.438	17958.95455
798.626	17541.65377
798.814	17632.7996
799.002	17278.37947
799.19	17083.99393
799.378	17118.41445
799.566	17357.3563
799.755	17519.37467
799.943	17728.00346
800.131	17444.4387
800.318	17628.74854
800.506	17691.54154
800.694	17590.26406
800.882	17474.81763
801.07	17663.18302
801.258	17416.08566
801.446	17436.33777
801.634	17073.8704
801.822	16717.56417
802.01	17017.1799
802.197	17227.75567
802.385	17231.8055
802.573	17264.20462
802.761	17304.70457
802.949	17128.53829
803.136	17152.83579
803.324	17614.56991
803.512	17480.8935
803.699	17574.06043
803.887	17703.69539
804.075	17422.16126
804.262	17156.88541
804.45	17584.18768
804.638	17156.88541
804.825	17337.1054
805.013	17503.17193
805.201	17484.94409
805.388	17306.7296
805.576	17632.7996
805.763	17511.27328
805.951	17523.42539
806.138	17407.98491
806.326	17486.96939
806.513	17248.00497
806.701	17205.48178
806.888	16762.09818
807.075	17167.00952
807.263	16577.89665
807.45	17120.43921
807.638	17177.1337
807.825	17225.73075
808.012	16922.02558
808.2	16980.73713
808.387	17375.58238
808.574	16956.44243
808.761	16992.88462
808.949	17171.05918
809.136	17079.94451
809.323	17195.3574
809.51	17053.62354
809.698	17248.00497
809.885	17146.76138
810.072	17478.8682
810.259	17262.17965
810.446	17183.20824
810.633	17225.73075
810.82	17537.603
811.008	17557.857
811.195	17430.2621
811.382	17448.48918
811.569	17565.95868
811.756	17191.30767
811.943	17077.9198
812.13	17021.22915
812.317	16942.27069
812.504	17223.70584
812.691	17221.68094
812.878	17061.72225
813.064	17037.42626
813.251	16901.78073
813.438	17600.39144
813.625	17187.25795
813.812	17371.53212
813.999	17237.88028
814.186	17096.14226
814.372	17241.93015
814.559	17557.857
814.746	17205.48178
814.933	17318.87984
815.12	17077.9198
815.306	17213.58133
815.493	16926.07458
815.68	16849.14533
815.866	16545.5115
816.053	16901.78073
816.24	16978.71255
816.426	17286.47944
816.613	17450.51443
816.799	17033.37696
816.986	17395.83387
817.173	17472.79234
817.359	17088.04336
817.546	16920.00109
817.732	16828.9014
817.919	17179.15854
818.105	17416.08566
818.292	17446.46394
818.478	17225.73075
818.665	17019.20452
818.851	17266.22959
819.037	17229.78059
819.224	16942.27069
819.41	17090.06808
819.597	16428.11989
819.783	16583.96893
819.969	16687.20074
820.156	16768.17109
820.342	16436.21564
820.528	16703.3945
820.714	16671.00712
820.901	16399.78501
821.087	16537.4153
821.273	17094.11753
821.459	16859.26739
821.646	16839.02333
821.832	16440.26353
822.018	16612.30648
822.204	16088.12519
822.39	16563.72808
822.576	16225.73611
822.762	16284.4255
822.948	16128.59821
823.134	16290.4969
823.32	16005.1574
823.507	16503.00683
823.693	16290.4969
823.879	16179.19039
824.065	16037.53478
824.25	15859.46347
824.436	15608.55994
824.622	16290.4969
824.808	16031.46399
824.994	16288.4731
825.18	16260.14005
825.366	16361.33115
825.552	15948.49784
825.738	16173.11927
825.923	15521.55621
826.109	15576.1863
826.295	15424.43715
826.481	15614.63002
826.667	15703.65871
826.852	15675.33121
827.038	15638.9104
827.224	15576.1863
827.409	15454.78672
827.595	15705.68211
827.781	15301.01652
827.966	15833.15832
828.152	15661.16753
828.338	15825.06446
828.523	15632.84029
828.709	16017.29887
828.894	15608.55994
829.08	15653.07402
829.266	15438.60027
829.451	15661.16753
829.637	15303.0398
829.822	15497.27632
830.008	15290.90013
830.193	15357.66845
830.378	15129.03833
830.564	15226.15534
830.749	15007.64181
830.935	14920.64036
831.12	14906.47726
831.305	15187.71318
831.491	15090.59617
831.676	14801.26481
831.861	15375.87805
832.047	15444.67018
832.232	15347.55201
832.417	15363.73831
832.602	15280.78374
832.788	15383.97121
832.973	15025.85134
833.158	15260.55098
833.343	14659.62955
833.528	15003.59525
833.714	14562.50548
833.899	14710.21406
834.084	14528.10674
834.269	14505.84853
834.454	14435.02587
834.639	14447.16702
834.824	14380.39003
835.009	14667.72311
835.194	14414.7905
835.379	14857.91787
835.564	14677.84004
835.749	14596.90388
835.934	14437.0494
836.119	14623.20832
836.304	14226.5937
836.489	14343.96549
836.674	14105.16772
836.859	14082.90546
837.044	14198.26163
837.228	14441.09646
837.413	14242.78328
837.598	14155.76279
837.783	13963.49392
837.968	14386.46073
838.152	14101.12006
838.337	13910.86912
838.522	13925.03751
838.707	14052.54738
838.891	13874.43551
839.076	13898.72468
839.261	13777.27477
839.445	14186.1192
839.63	13716.54582
839.815	13844.07349
839.999	13631.5205
840.184	13918.96536
840.368	13627.47153
840.553	13793.46869
840.737	13888.60424
840.922	13817.75922
841.106	14030.28445
841.291	14186.1192
841.475	13789.42023
841.66	13977.66183
841.844	13414.88066
842.029	13708.44842
842.213	13706.42406
842.397	13831.9285
842.582	13295.40627
842.766	13459.42689
842.951	13175.91714
843.135	13609.251
843.319	13204.27188
843.504	13463.47645
843.688	13364.25765
843.872	13303.50668
844.056	13568.75993
844.241	13388.55701
844.425	13360.2077
844.609	13344.00774
844.793	13161.73943
844.977	13331.8576
845.161	12959.17532
845.346	13479.67456
845.53	13105.02634
845.714	13327.80752
845.898	12626.85622
846.082	12863.95276
846.266	12865.97889
846.45	12975.38227
846.634	12872.05726
846.818	12770.74465
847.002	12472.80077
847.186	12744.40108
847.37	12489.01886
847.554	12320.73542
847.738	12308.56853
847.922	12622.80259
848.106	12636.99018
848.29	12391.70398
848.473	12618.74893
848.657	12596.4534
848.841	12679.5512
849.025	12744.40108
849.209	12501.18216
849.392	12748.454
849.576	12728.18917
849.76	12651.17748
849.944	12482.93713
850.127	12555.91415
850.311	11862.26412
850.495	11846.02764
850.678	11703.9351
850.862	12257.87043
851.046	11996.19495
851.229	12239.61802
851.413	11797.31496
851.596	12117.92014
851.78	11917.05831
851.964	12126.03416
852.147	11998.22394
852.331	11839.93882
852.514	11681.60238
852.698	12095.60594
852.881	11695.81424
853.065	11886.61784
853.248	11460.24568
853.431	11710.02566
853.615	11714.08598
853.798	11588.19921
853.982	11653.17736
854.165	11502.90102
854.348	11640.99467
854.532	11673.48113
854.715	11419.6176
854.898	11297.70972
855.081	10931.76128
855.265	11090.38175
855.448	10815.80291
855.631	11498.83879
855.814	11636.9337
855.997	11263.16258
856.181	10931.76128
856.364	11145.27335
856.547	10994.81083
856.73	11039.54917
856.913	10685.55865
857.096	11192.02674
857.279	10844.28739
857.462	10941.93129
857.645	11002.94547
857.828	11078.18255
858.011	11118.84504
858.194	10897.18111
858.377	10762.89706
858.56	10834.11462
858.743	10809.69879
858.926	10787.31613
859.109	10677.41675
859.292	10671.3102
859.475	10695.73575
859.658	10465.65787
859.841	10488.06188
860.023	10278.21706
860.206	10286.369
860.389	10679.45224
860.572	10369.91398
860.755	10740.5114
860.937	10716.08904
861.12	10616.34628
861.303	10642.81151
861.486	10538.97437
861.668	10290.44488
861.851	10176.29959
862.034	10125.32796
862.216	10247.64539
862.399	9986.64068
862.581	10206.87842
862.764	9831.55825
862.947	10121.24986
863.129	10033.55697
863.312	9939.71676
863.494	9821.35247
863.677	9890.74446
863.859	10055.99253
864.042	10151.83429
864.224	10080.46572
864.406	10068.22938
864.589	9684.55859
864.771	9874.41847
864.954	9582.42867
865.136	9664.13571
865.318	9502.74008
865.501	9635.54108
865.683	9510.91438
865.865	9672.30505
866.048	9414.85012
866.23	9457.77685
866.412	9216.47552
866.594	9165.32254
866.777	9232.84224
866.959	9204.19977
867.141	9271.7089
867.323	9275.79977
867.505	9146.90486
867.687	9443.46873
867.869	9700.89578
868.052	9723.35782
868.234	9406.67279
868.416	9604.9006
868.598	9279.89058
868.78	9404.62842
868.962	9498.65284
869.144	9529.30563
869.326	9345.33447
869.508	9535.43576
869.69	9439.38055
869.872	9543.60904
870.054	9357.60332
870.236	9549.73883
870.417	9337.15491
870.599	9392.36183
870.781	9189.87729
870.963	9490.47815
871.145	9345.33447
871.327	9414.85012
871.508	9001.56092
871.69	9120.2991
871.872	8921.68662
872.054	9196.0156
872.235	8745.45742
872.417	9155.09066
872.599	8692.15234
872.78	9044.55908
872.962	8784.4033
873.144	8829.49032
873.325	8727.00707
873.507	9013.8469
873.689	8579.35033
873.87	8987.22648
874.052	8782.35368
874.233	8929.88009
874.415	8815.1454
874.596	8948.31437
874.778	8669.59644
874.959	8925.78339
875.141	8560.88643
875.322	8985.17863
875.503	8890.95855
875.685	8933.97672
875.866	8749.5573
876.048	9015.8945
876.229	8790.55205
876.41	8708.55523
876.592	8712.65577
876.773	8759.80667
876.954	8505.48555
877.136	8800.79959
877.317	8349.4676
877.498	8759.80667
877.679	8448.01816
877.86	8833.58871
878.042	8815.1454
878.223	8880.71497
878.404	8661.39374
878.585	8579.35033
878.766	8339.19935
878.947	8683.95045
879.128	8626.52894
879.309	8556.78313
879.49	8421.33177
879.672	8659.34301
879.853	8271.41666
880.034	8776.20471
880.215	8386.42927
880.396	8620.37577
880.576	8423.38469
880.757	8727.00707
880.938	8441.86005
881.119	8893.00721
881.3	8841.78526
881.481	8880.71497
881.662	8909.39587
881.843	8964.69919
882.023	8905.29881
882.204	9013.8469
882.385	8997.46545
882.566	8956.50692
882.747	8829.49032
882.927	9251.25352
883.108	8929.88009
883.289	9044.55908
883.469	8991.32212
883.65	9153.04424
883.831	8757.75683
884.011	9036.36955
884.192	8749.5573
884.373	8913.49286
884.553	8698.30356
884.734	8962.65115
884.914	8837.68702
885.095	8718.80643
885.275	8509.5898
885.456	8741.35747
885.636	8501.38124
885.817	8847.93249
885.997	8681.89993
886.178	8622.42684
886.358	8792.60159
886.538	8796.70063
886.719	8724.95694
886.899	8790.55205
887.08	8931.92842
887.26	8874.5686
887.44	8573.19586
887.621	8987.22648
887.801	8700.35393
887.981	9142.81185
888.161	8712.65577
888.342	8696.25317
888.522	8694.20277
888.702	8780.30404
888.882	8677.79884
889.062	8897.10448
889.242	8835.63787
889.423	9015.8945
889.603	8823.34261
889.783	8884.81245
889.963	8729.05718
890.143	8907.34735
890.323	8474.70131
890.503	9044.55908
890.683	8755.70697
890.863	8804.89849
891.043	8702.40428
891.223	8884.81245
891.403	8757.75683
891.583	8858.17751
891.763	8493.17237
891.943	8745.45742
892.122	8585.50462
892.302	8673.69768
892.482	8562.93805
892.662	8560.88643
892.842	8421.33177
893.022	8314.55356
893.201	8515.74602
893.381	8919.6382
893.561	8610.12011
893.741	8710.60551
893.92	8427.49046
894.1	8794.65112
894.28	8593.71008
894.459	8507.53769
894.639	8353.57476
894.819	8610.12011
894.998	8388.48252
895.178	8413.11992
895.357	8012.41146
895.537	8435.70177
895.716	8166.61943
895.896	8275.52531
896.075	8104.94983
896.255	8189.22712
896.434	7969.21283
896.614	8146.0649
896.793	7697.4702
896.973	8137.84253
897.152	7895.13702
897.331	8211.8324
897.511	7845.73831
897.69	7973.32737
897.87	7816.91688
898.049	7923.94744
898.228	7866.32256
898.407	7862.20587
898.587	7722.1891
898.766	8109.0617
898.945	7544.96952
899.124	7468.67525
899.304	7598.56412
899.483	7833.38677
899.662	7569.70728
899.841	7849.85533
900.02	7571.76863
900.199	7724.24887
900.378	7417.10834
900.557	7604.74719
900.737	7400.60406
900.916	7470.73765
901.095	7384.09839
901.274	7501.67098
901.453	7402.66717
901.632	7192.11712
901.811	7061.95658
901.989	7256.13202
902.168	7033.01998
902.347	7260.26129
902.526	7297.42071
902.705	7095.02161
902.884	6908.956
903.063	7181.79015
903.242	6855.16966
903.42	6929.63897
903.599	6805.50709
903.778	6879.99603
903.957	6453.35225
904.135	6646.08414
904.314	6689.57661
904.493	6737.19961
904.672	6521.7639
904.85	6675.08025
905.029	6374.54383
905.207	6606.72506
905.386	6077.67278
905.565	6349.64997
905.743	5965.44268
905.922	6169.06879
906.1	5659.57902
906.279	6316.45293
906.457	6127.53079
906.636	6503.10868
906.814	6071.43957
906.993	5859.38448
907.171	5736.61313
907.35	5724.12331
907.528	5526.25458
907.707	5638.75344
907.885	5459.55617
908.063	5699.14111
908.242	5494.9927
908.42	5667.90859
908.598	5561.6783
908.777	5634.58804
908.955	5403.26066
909.133	5645.00136
909.311	5442.87781
909.49	5747.02067
909.668	5276.01151
909.846	5742.85773
910.024	5292.70489
910.202	5690.81296
910.38	5367.80655
910.559	5459.55617
910.737	5340.69001
910.915	5359.46342
911.093	5288.53168
911.271	5509.58224
911.449	5307.31037
911.627	5634.58804
911.805	5409.51656
911.983	5551.26027
912.161	5336.51788
912.339	5221.74769
912.517	5486.65531
912.695	5663.74385
912.872	5198.78517
913.05	5497.07699
913.228	5545.00916
913.406	5492.90839
913.584	5603.34455
913.762	5771.99635
913.939	5492.90839
914.117	5730.36833
914.295	5376.1493
914.473	5709.55077
914.65	5334.43178
914.828	5542.92541
915.006	5313.56951
915.184	5467.89479
915.361	5228.00971
915.539	5761.59023
915.716	5434.53806
915.894	5699.14111
916.072	5534.59018
916.249	5547.09289
916.427	5330.25952
916.604	5422.02773
916.782	5100.64085
916.959	5186.25897
917.137	5328.17335
917.314	5349.03398
917.492	5159.11599
917.669	5246.79449
917.847	4795.44147
918.024	4996.17574
918.201	4724.2977
918.379	4985.72605
918.556	4897.92596
918.733	5169.55607
918.911	4868.65027
919.088	4931.37839
919.265	4724.2977
919.442	4784.9808
919.62	4699.18189
919.797	4904.19874
919.974	4868.65027
920.151	4753.59537
920.328	4579.8376
920.506	4860.28497
920.683	4734.76166
920.86	4684.5295
921.037	4600.78045
921.214	4935.55953
921.391	4617.53313
921.568	4900.01691
921.745	4799.62559
921.922	4941.83107
922.099	4531.6606
922.276	4824.72834
922.453	4521.18579
922.63	4690.80923
922.807	4286.4063
922.984	4288.50375
923.161	3969.44899
923.338	4208.78562
923.514	4028.25838
923.691	4311.57428
923.868	4133.23491
924.045	4347.2236
924.222	4208.78562
924.399	4389.15597
924.575	4204.58908
924.752	4363.99759
924.929	4091.25054
925.105	4305.28257
925.282	4015.65772
925.459	4181.50657
925.635	3834.96788
925.812	4173.1123
925.989	3942.13919
926.165	3986.25331
926.342	3822.35608
926.518	3885.40792
926.695	3689.88964
926.871	3837.06977
927.048	3473.15501
927.224	3805.53924
927.401	3218.30076
927.577	3532.09263
927.754	3283.61803
927.93	3481.57554
928.107	3612.05631
928.283	3742.46492
928.459	3652.02802
928.636	3551.03381
928.812	3422.62577
928.988	3363.66206
929.165	3292.04489
929.341	3435.25905
929.517	3239.37261
929.693	3601.53631
929.87	3498.41574
930.046	3508.94027
930.222	3249.90791
930.398	3367.87421
930.574	3296.25821
930.751	3386.82802
930.927	3127.67307
931.103	3357.3437
931.279	3258.33585
931.455	3355.23755
931.631	3110.8088
931.807	3270.97724
931.983	3011.7109
932.159	3093.94352
932.335	2895.7026
932.511	3037.01575
932.687	2739.55031
932.863	2766.98791
933.039	2661.44653
933.215	2851.39687
933.391	2505.18792
933.566	2623.44378
933.742	2477.73047
933.918	2714.2213
934.094	2329.85146
934.27	2372.10778
934.445	2346.75447
934.621	2308.72183
934.797	1919.78737
934.973	2165.01601
935.148	1928.24498
935.324	2285.47813
935.5	2116.40076
935.675	1928.24498
935.851	1900.7574
936.027	1953.61729
936.202	1691.40277
936.378	1630.07006
936.553	1598.34546
936.729	1539.12517
936.904	1397.41706
937.08	1488.36421
937.255	1247.25252
937.431	1217.64393
937.606	1086.52881
937.782	1173.23224
937.957	1133.05168
938.133	1293.78137
938.308	944.86208
938.483	1073.84117
938.659	1044.23742
938.834	1037.8939
939.009	872.98328
939.185	796.88685
939.36	720.80281
939.535	703.89708
939.71	706.01026
939.886	837.04742
940.061	667.9748
940.236	583.4654
940.411	613.04142
940.586	629.94312
940.761	515.8729
940.937	598.2531
941.112	528.54541
941.287	507.42484
941.462	577.12802
941.637	564.4536
941.812	425.06875
941.987	556.00426
942.162	384.95518
942.337	509.53683
942.512	490.52941
942.687	549.6674
942.862	477.85847
943.037	482.08206
943.212	543.33065
943.386	524.32118
943.561	414.51198
943.736	425.06875
943.911	494.75318
944.086	460.96471
944.26	425.06875
944.435	450.40661
944.61	370.17801
944.785	382.84411
944.959	374.39997
945.134	448.29503
945.309	342.73688
945.483	378.62201
945.658	321.63033
945.833	336.40473
946.007	279.42261
946.182	473.63494
946.357	382.84411
946.531	448.29503
946.706	368.06705
946.88	374.39997
947.055	389.17739
947.229	368.06705
947.404	321.63033
947.578	355.40166
947.752	351.18
947.927	384.95518
948.101	321.63033
948.276	520.09701
948.45	469.41147
948.624	515.8729
948.799	372.28898
948.973	433.51445
949.147	393.39965
949.321	536.99404
949.496	361.73427
949.67	450.40661
949.844	393.39965
950.018	501.08894
950.193	389.17739
950.367	435.62591
950.541	376.51098
950.715	456.74142
950.889	406.06685
951.063	507.42484
951.237	351.18
951.411	422.95736
951.585	429.29157
951.759	406.06685
951.933	427.18015
952.107	433.51445
952.281	425.06875
952.455	401.84439
952.629	473.63494
952.803	444.07193
952.977	422.95736
953.151	456.74142
953.325	425.06875
953.499	543.33065
953.672	473.63494
953.846	507.42484
954.02	368.06705
954.194	486.30571
954.368	545.44289
954.541	566.56597
954.715	420.84599
954.889	600.36568
955.062	435.62591
955.236	456.74142
955.41	484.19387
955.583	653.18424
955.757	482.08206
955.93	494.75318
956.104	380.73305
956.278	507.42484
956.451	399.73318
956.625	395.51081
956.798	498.97701
956.972	501.08894
957.145	319.51977
957.319	511.64884
957.492	408.17811
957.665	509.53683
957.839	541.21844
958.012	560.2289
958.185	492.64129
958.359	439.84889
958.532	412.40067
958.705	585.57789
958.879	418.73464
959.052	517.98495
959.225	524.32118
959.398	581.35293
959.572	492.64129
959.745	549.6674
959.918	448.29503
960.091	528.54541
960.264	452.5182
960.438	530.65755
960.611	471.52319
960.784	693.33136
960.957	473.63494
961.13	384.95518
961.303	380.73305
961.476	439.84889
961.649	479.97025
961.822	486.30571
961.995	363.84518
962.168	534.88186
962.341	444.07193
962.514	477.85847
962.686	469.41147
962.859	484.19387
963.032	448.29503
963.205	456.74142
963.378	317.40923
963.551	435.62591
963.723	475.74669
963.896	351.18
964.069	450.40661
964.242	410.28938
964.414	376.51098
964.587	378.62201
964.76	342.73688
964.932	408.17811
965.105	363.84518
965.278	452.5182
965.45	441.9604
965.623	393.39965
965.795	342.73688
965.968	281.53282
966.14	441.9604
966.313	431.403
966.485	397.62199
966.658	384.95518
966.83	384.95518
967.003	433.51445
967.175	393.39965
967.348	389.17739
967.52	365.95611
967.692	346.9584
967.865	228.7832
968.037	372.28898
968.209	279.42261
968.382	393.39965
968.554	351.18
968.726	393.39965
968.898	332.18339
969.071	344.84764
969.243	266.76173
969.415	397.62199
969.587	195.02983
969.759	323.7409
969.932	279.42261
970.104	292.08415
970.276	270.98194
970.448	374.39997
970.62	296.30482
970.792	315.29871
970.964	279.42261
971.136	340.62615
971.308	195.02983
971.48	294.19448
971.652	243.55189
971.824	397.62199
971.996	273.09208
972.168	355.40166
972.339	304.74637
972.511	258.32152
972.683	262.54158
972.855	197.13926
973.027	300.52556
973.199	308.96725
973.37	245.66178
973.542	279.42261
973.714	256.21151
973.886	247.77168
974.057	311.07772
974.229	266.76173
974.401	226.67346
974.572	287.86356
974.744	237.22233
974.915	304.74637
975.087	230.89295
975.259	281.53282
975.43	197.13926
975.602	266.76173
975.773	302.63595
975.945	275.20224
976.116	346.9584
976.288	294.19448
976.459	256.21151
976.63	256.21151
976.802	216.12509
976.973	241.44201
977.145	211.90588
977.316	249.88161
977.487	254.10153
977.659	277.31241
977.83	106.45231
978.001	220.34438
978.172	216.12509
978.344	140.19172
978.515	167.60902
978.686	249.88161
978.857	239.33216
979.028	256.21151
979.2	85.36802
979.371	157.06349
979.542	163.39074
979.713	237.22233
979.884	176.04582
980.055	159.17255
980.226	199.24872
980.397	163.39074
980.568	127.53879
980.739	154.95444
980.91	127.53879
981.081	116.99528
981.252	114.88664
981.423	201.3582
981.594	159.17255
981.765	233.00273
981.936	135.97399
982.106	100.12679
982.277	197.13926
982.448	266.76173
982.619	169.71819
982.79	273.09208
982.96	89.5847
983.131	171.82738
983.302	207.68674
983.472	140.19172
983.643	68.5022
983.814	110.66943
983.984	188.70164
984.155	95.90989
984.326	161.28164
984.496	144.40954
984.667	195.02983
984.837	211.90588
985.008	127.53879
985.178	129.64756
985.349	51.63784
985.519	135.97399
985.69	108.56086
985.86	112.77803
986.031	161.28164
986.201	135.97399
986.371	121.21262
986.542	135.97399
986.712	135.97399
986.882	146.51847
987.053	127.53879
987.223	154.95444
987.393	106.45231
987.563	76.93493
987.734	93.80147
987.904	123.32132
988.074	114.88664
988.244	110.66943
988.414	190.81102
988.585	17.91356
988.755	169.71819
988.925	173.93659
989.095	144.40954
989.265	127.53879
989.435	106.45231
989.605	102.23527
989.775	66.39408
989.945	144.40954
990.115	102.23527
990.285	89.5847
990.455	28.45175
990.625	76.93493
990.795	133.86516
990.965	76.93493
991.134	-7.37567
991.304	127.53879
991.474	72.71852
991.644	146.51847
991.814	81.15143
991.984	68.5022
992.153	79.04317
992.323	72.71852
992.493	79.04317
992.662	159.17255
992.832	85.36802
993.002	93.80147
993.171	83.25972
993.341	127.53879
993.511	81.15143
993.68	123.32132
993.85	53.7458
994.019	55.85379
994.189	55.85379
994.358	60.06984
994.528	146.51847
994.697	89.5847
994.867	152.84542
995.036	89.5847
995.206	93.80147
995.375	45.31408
995.544	110.66943
995.714	17.91356
995.883	36.88273
996.052	68.5022
996.222	70.61035
996.391	121.21262
996.56	135.97399
996.73	62.17789
996.899	60.06984
997.068	17.91356
997.237	89.5847
997.406	17.91356
997.576	43.20621
997.745	106.45231
997.914	55.85379
998.083	106.45231
998.252	148.62743
998.421	11.59093
998.59	81.15143
998.759	26.34407
998.928	104.34378
999.097	57.9618
999.266	26.34407
999.435	85.36802
999.604	5.26851
999.773	72.71852
999.942	95.90989
1000.111	24.2364
1000.28	81.15143
1000.448	93.80147
1000.617	123.32132
1000.786	79.04317
1000.955	36.88273
1001.124	85.36802
1001.292	51.63784
1001.461	-17.91182
1001.63	62.17789
1001.798	93.80147
1001.967	106.45231
1002.136	51.63784
1002.304	17.91356
1002.473	20.02115
1002.642	49.5299
1002.81	41.09836
1002.979	43.20621
1003.147	38.99053
1003.316	5.26851
1003.484	68.5022
1003.653	60.06984
1003.821	45.31408
1003.99	51.63784
1004.158	62.17789
1004.327	70.61035
1004.495	112.77803
1004.663	152.84542
1004.832	17.91356
1005	89.5847
1005.168	43.20621
1005.337	26.34407
1005.505	60.06984
1005.673	89.5847
1005.842	17.91356
1006.01	76.93493
1006.178	85.36802
1006.346	-38.98228
1006.514	89.5847
1006.683	68.5022
1006.851	43.20621
1007.019	26.34407
1007.187	36.88273
1007.355	-15.80464
1007.523	89.5847
1007.691	-43.19607
1007.859	34.77495
1008.027	-47.40976
1008.195	87.47635
1008.363	55.85379
1008.531	-15.80464
1008.699	-13.69743
1008.867	26.34407
1009.035	68.5022
1009.203	60.06984
1009.37	129.64756
1009.538	45.31408
1009.706	17.91356
1009.874	38.99053
1010.042	68.5022
1010.209	30.55946
1010.377	9.48343
1010.545	43.20621
1010.713	140.19172
1010.88	-32.6614
1011.048	83.25972
1011.216	36.88273
1011.383	62.17789
1011.551	1.05369
1011.718	34.77495
1011.886	76.93493
1012.054	51.63784
1012.221	-9.48295
1012.389	13.69845
1012.556	62.17789
1012.724	-5.26836
1012.891	20.02115
1013.058	51.63784
1013.226	5.26851
1013.393	1.05369
1013.561	125.43005
1013.728	34.77495
1013.895	79.04317
1014.063	68.5022
1014.23	53.7458
1014.397	-3.16104
1014.565	7.37596
1014.732	30.55946
1014.899	68.5022
1015.066	68.5022
1015.233	-22.12611
1015.401	93.80147
1015.568	9.48343
1015.735	43.20621
1015.902	-20.01897
1016.069	1.05369
1016.236	7.37596
1016.403	-15.80464
1016.57	-55.83685
1016.737	60.06984
1016.904	-17.91182
1017.071	1.05369
1017.238	22.12877
1017.405	47.42198
1017.572	34.77495
1017.739	17.91356
1017.906	9.48343
1018.073	-7.37567
1018.24	95.90989
1018.407	3.16109
1018.573	72.71852
1018.74	17.91356
1018.907	9.48343
1019.074	60.06984
1019.241	70.61035
1019.407	51.63784
1019.574	36.88273
1019.741	7.37596
1019.907	62.17789
1020.074	17.91356
1020.241	20.02115
1020.407	-3.16104
1020.574	-17.91182
1020.74	119.10394
1020.907	51.63784
1021.073	57.9618
1021.24	55.85379
1021.406	47.42198
1021.573	-13.69743
1021.739	1.05369
1021.906	17.91356
1022.072	64.28597
1022.239	-1.05368
1022.405	26.34407
1022.571	66.39408
1022.738	104.34378
1022.904	-3.16104
1023.07	68.5022
1023.237	62.17789
1023.403	11.59093
1023.569	-15.80464
1023.735	-24.23321
1023.902	-7.37567
1024.068	57.9618
1024.234	62.17789
1024.4	45.31408
1024.566	13.69845
1024.732	26.34407
1024.898	-13.69743
1025.065	9.48343
1025.231	-11.5902
1025.397	-22.12611
1025.563	47.42198
1025.729	34.77495
1025.895	45.31408
1026.061	55.85379
1026.227	17.91356
1026.392	26.34407
1026.558	20.02115
1026.724	57.9618
1026.89	3.16109
1027.056	57.9618
1027.222	17.91356
1027.388	43.20621
1027.553	32.66719
1027.719	81.15143
1027.885	9.48343
1028.051	-81.11567
1028.216	47.42198
1028.382	11.59093
1028.548	-15.80464
1028.713	24.2364
1028.879	9.48343
1029.045	22.12877
1029.21	-15.80464
1029.376	62.17789
1029.541	-60.05024
1029.707	98.01833
1029.873	-9.48295
1030.038	26.34407
1030.204	15.80599
1030.369	79.04317
1030.534	45.31408
1030.7	45.31408
1030.865	-3.16104
1031.031	-32.6614
1031.196	38.99053
1031.361	-3.16104
1031.527	-5.26836
1031.692	60.06984
1031.857	34.77495
1032.023	60.06984
1032.188	-7.37567
1032.353	17.91356
1032.518	51.63784
1032.684	-43.19607
1032.849	70.61035
1033.014	-70.58328
1033.179	62.17789
1033.344	1.05369
1033.509	60.06984
1033.674	5.26851
1033.839	-28.44736
1034.004	38.99053
1034.17	34.77495
1034.335	57.9618
1034.5	26.34407
1034.664	26.34407
1034.829	1.05369
1034.994	81.15143
1035.159	57.9618
1035.324	3.16109
1035.489	-15.80464
1035.654	-74.79631
1035.819	26.34407
1035.984	11.59093
1036.148	74.82672
1036.313	-3.16104
1036.478	9.48343
1036.643	38.99053
1036.807	-13.69743
1036.972	30.55946
1037.137	45.31408
1037.301	15.80599
1037.466	45.31408
1037.631	74.82672
1037.795	30.55946
1037.96	34.77495
1038.124	-30.55439
1038.289	45.31408
1038.454	41.09836
1038.618	-20.01897
1038.783	43.20621
1038.947	-7.37567
1039.111	34.77495
1039.276	51.63784
1039.44	-7.37567
1039.605	17.91356
1039.769	36.88273
1039.933	-34.76838
1040.098	51.63784
1040.262	83.25972
1040.426	9.48343
1040.591	13.69845
1040.755	24.2364
1040.919	-32.6614
1041.083	36.88273
1041.248	36.88273
1041.412	-20.01897
1041.576	45.31408
1041.74	-7.37567
1041.904	55.85379
1042.068	36.88273
1042.232	53.7458
1042.397	-30.55439
1042.561	43.20621
1042.725	-24.23321
1042.889	72.71852
1043.053	47.42198
1043.217	20.02115
1043.381	51.63784
1043.544	17.91356
1043.708	-49.51657
1043.872	98.01833
1044.036	26.34407
1044.2	34.77495
1044.364	68.5022
1044.528	34.77495
1044.691	34.77495
1044.855	20.02115
1045.019	11.59093
1045.183	70.61035
1045.346	119.10394
1045.51	34.77495
1045.674	-3.16104
1045.837	-15.80464
1046.001	-15.80464
1046.165	62.17789
1046.328	-30.55439
1046.492	-20.01897
1046.655	43.20621
1046.819	-15.80464
1046.983	26.34407
1047.146	41.09836
1047.31	1.05369
1047.473	-41.08919
1047.636	89.5847
1047.8	17.91356
1047.963	60.06984
1048.127	100.12679
1048.29	13.69845
