Data from absorb_only_2.23.25_USB4F045381__78__0183.txt Node

Date: Sun Feb 23 19:28:42 EST 2025
User: ssocol
Spectrometer: USB4F04538
Trigger mode: 4
Integration Time (sec): 2.600000E-3
Scans to average: 1
Electric dark correction enabled: true
Nonlinearity correction enabled: true
Boxcar width: 0
XAxis mode: Wavelengths
Number of Pixels in Spectrum: 3648
>>>>>Begin Spectral Data<<<<<
345.52	-25.81353
345.736	-25.81353
345.952	-25.81353
346.168	60.59685
346.384	12.11781
346.6	-38.45555
346.816	22.65567
347.032	14.22533
347.248	24.76332
347.464	20.54805
347.68	-21.59933
347.896	-42.66935
348.112	-30.02763
348.328	52.16483
348.544	7.90283
348.76	3.68794
348.975	-13.17063
349.191	-17.38502
349.407	18.44046
349.623	-15.27784
349.839	7.90283
350.055	3.68794
350.27	24.76332
350.486	12.11781
350.702	35.30189
350.918	-38.45555
351.133	-89.01455
351.349	50.05688
351.565	-13.17063
351.781	-63.73688
351.996	-46.88306
352.212	-38.45555
352.428	-74.26969
352.644	-8.95613
352.859	-40.56246
353.075	-30.02763
353.291	-8.95613
353.506	-13.17063
353.722	66.92111
353.938	-0.52684
354.153	14.22533
354.369	7.90283
354.584	-32.13465
354.8	-4.74153
355.016	-38.45555
355.231	20.54805
355.447	7.90283
355.662	-34.24164
355.878	20.54805
356.093	-32.13465
356.309	-0.52684
356.524	35.30189
356.74	-63.73688
356.955	-53.20343
357.171	-67.95008
357.386	-4.74153
357.602	-25.81353
357.817	3.68794
358.033	-0.52684
358.248	-57.41689
358.464	-8.95613
358.679	-34.24164
358.895	43.73317
359.11	50.05688
359.325	-42.66935
359.541	-36.3486
359.756	-72.16318
359.972	41.62532
360.187	3.68794
360.402	3.68794
360.618	-0.52684
360.833	3.68794
361.048	-82.69548
361.264	-0.52684
361.479	-17.38502
361.694	60.59685
361.909	-0.52684
362.125	41.62532
362.34	-4.74153
362.555	-59.52357
362.77	-8.95613
362.986	-34.24164
363.201	33.19413
363.416	-110.07642
363.631	-25.81353
363.847	7.90283
364.062	-15.27784
364.277	-38.45555
364.492	-13.17063
364.707	-70.05664
364.922	35.30189
365.138	-17.38502
365.353	12.11781
365.568	28.97868
365.783	28.97868
365.998	-17.38502
366.213	12.11781
366.428	-21.59933
366.643	10.01031
366.858	-0.52684
367.073	24.76332
367.288	-8.95613
367.503	-32.13465
367.718	-32.13465
367.933	-6.84884
368.148	58.48881
368.363	18.44046
368.578	-0.52684
368.793	20.54805
369.008	-8.95613
369.223	-23.70644
369.438	-67.95008
369.653	7.90283
369.868	-8.95613
370.083	33.19413
370.298	-34.24164
370.513	-17.38502
370.728	-53.20343
370.943	-6.84884
371.157	-34.24164
371.372	-15.27784
371.587	7.90283
371.802	62.70491
372.017	-46.88306
372.232	-76.37618
372.446	5.79537
372.661	20.54805
372.876	-0.52684
373.091	-17.38502
373.306	-15.27784
373.52	-143.7699
373.735	-8.95613
373.95	71.13739
374.165	-63.73688
374.379	16.33288
374.594	-6.84884
374.809	-4.74153
375.023	-67.95008
375.238	-44.77622
375.453	18.44046
375.667	7.90283
375.882	7.90283
376.097	-32.13465
376.311	24.76332
376.526	12.11781
376.741	16.33288
376.955	10.01031
377.17	-15.27784
377.384	92.22017
377.599	-25.81353
377.813	26.87099
378.028	-17.38502
378.242	7.90283
378.457	-55.31017
378.672	-51.09666
378.886	-42.66935
379.101	10.01031
379.315	60.59685
379.53	62.70491
379.744	12.11781
379.958	10.01031
380.173	10.01031
380.387	-0.52684
380.602	10.01031
380.816	33.19413
381.031	-0.52684
381.245	-48.98987
381.459	7.90283
381.674	-0.52684
381.888	24.76332
382.103	-0.52684
382.317	-65.84349
382.531	24.76332
382.746	-46.88306
382.96	1.58054
383.174	-55.31017
383.388	-4.74153
383.603	-0.52684
383.817	24.76332
384.031	-55.31017
384.246	24.76332
384.46	16.33288
384.674	66.92111
384.888	-17.38502
385.103	-44.77622
385.317	-8.95613
385.531	-13.17063
385.745	-13.17063
385.959	-4.74153
386.174	18.44046
386.388	16.33288
386.602	71.13739
386.816	3.68794
387.03	-51.09666
387.244	10.01031
387.458	-42.66935
387.672	50.05688
387.887	58.48881
388.101	-53.20343
388.315	-34.24164
388.529	-27.92059
388.743	-34.24164
388.957	-42.66935
389.171	24.76332
389.385	-74.26969
389.599	-84.80186
389.813	-0.52684
390.027	-2.6342
390.241	22.65567
390.455	-25.81353
390.669	-17.38502
390.883	-25.81353
391.097	-34.24164
391.311	14.22533
391.525	-19.49219
391.738	-30.02763
391.952	28.97868
392.166	-44.77622
392.38	12.11781
392.594	-59.52357
392.808	43.73317
393.022	45.84105
393.236	24.76332
393.449	-8.95613
393.663	-40.56246
393.877	-25.81353
394.091	-30.02763
394.305	12.11781
394.518	12.11781
394.732	45.84105
394.946	-8.95613
395.16	-30.02763
395.373	-0.52684
395.587	-6.84884
395.801	-55.31017
396.015	-6.84884
396.228	-25.81353
396.442	-13.17063
396.656	1.58054
396.869	-25.81353
397.083	7.90283
397.297	-15.27784
397.51	-6.84884
397.724	-0.52684
397.938	35.30189
398.151	-0.52684
398.365	-15.27784
398.578	-17.38502
398.792	62.70491
399.005	1.58054
399.219	-23.70644
399.433	54.2728
399.646	3.68794
399.86	-0.52684
400.073	37.40968
400.287	-38.45555
400.5	20.54805
400.714	-17.38502
400.927	-30.02763
401.141	35.30189
401.354	41.62532
401.567	3.68794
401.781	-95.33338
401.994	-2.6342
402.208	-25.81353
402.421	-36.3486
402.635	18.44046
402.848	-82.69548
403.061	-0.52684
403.275	-34.24164
403.488	-40.56246
403.701	-25.81353
403.915	16.33288
404.128	-46.88306
404.341	18.44046
404.555	7.90283
404.768	31.08639
404.981	-17.38502
405.195	66.92111
405.408	-15.27784
405.621	-42.66935
405.834	7.90283
406.048	-13.17063
406.261	-55.31017
406.474	-51.09666
406.687	39.51749
406.9	-21.59933
407.114	26.87099
407.327	-8.95613
407.54	24.76332
407.753	16.33288
407.966	-15.27784
408.179	83.78679
408.392	58.48881
408.605	14.22533
408.819	-13.17063
409.032	26.87099
409.245	-25.81353
409.458	3.68794
409.671	45.84105
409.884	12.11781
410.097	31.08639
410.31	-42.66935
410.523	-48.98987
410.736	43.73317
410.949	-32.13465
411.162	60.59685
411.375	-67.95008
411.588	14.22533
411.801	7.90283
412.014	54.2728
412.227	-67.95008
412.44	54.2728
412.653	-67.95008
412.865	-63.73688
413.078	1.58054
413.291	-38.45555
413.504	66.92111
413.717	41.62532
413.93	60.59685
414.143	35.30189
414.356	-40.56246
414.568	60.59685
414.781	-53.20343
414.994	1.58054
415.207	20.54805
415.42	-0.52684
415.632	-34.24164
415.845	-40.56246
416.058	18.44046
416.271	-34.24164
416.483	-67.95008
416.696	7.90283
416.909	54.2728
417.121	50.05688
417.334	50.05688
417.547	-4.74153
417.759	66.92111
417.972	-17.38502
418.185	12.11781
418.397	45.84105
418.61	-17.38502
418.823	43.73317
419.035	31.08639
419.248	12.11781
419.46	-34.24164
419.673	64.813
419.885	-32.13465
420.098	-0.52684
420.311	-8.95613
420.523	22.65567
420.736	33.19413
420.948	-65.84349
421.161	7.90283
421.373	50.05688
421.586	-30.02763
421.798	-4.74153
422.01	-32.13465
422.223	10.01031
422.435	-27.92059
422.648	24.76332
422.86	-8.95613
423.073	-17.38502
423.285	-15.27784
423.497	41.62532
423.71	58.48881
423.922	14.22533
424.134	37.40968
424.347	-30.02763
424.559	-74.26969
424.771	3.68794
424.984	18.44046
425.196	-30.02763
425.408	-17.38502
425.621	-46.88306
425.833	-21.59933
426.045	-34.24164
426.257	24.76332
426.47	10.01031
426.682	-25.81353
426.894	-21.59933
427.106	60.59685
427.318	-17.38502
427.531	-27.92059
427.743	18.44046
427.955	-53.20343
428.167	45.84105
428.379	-2.6342
428.591	-25.81353
428.804	-34.24164
429.016	-25.81353
429.228	-6.84884
429.44	-116.39447
429.652	20.54805
429.864	-15.27784
430.076	-4.74153
430.288	50.05688
430.5	-4.74153
430.712	-34.24164
430.924	18.44046
431.136	-27.92059
431.348	-25.81353
431.56	7.90283
431.772	56.38079
431.984	31.08639
432.196	37.40968
432.408	24.76332
432.62	-19.49219
432.832	94.32857
433.044	1.58054
433.256	-15.27784
433.468	-21.59933
433.679	7.90283
433.891	52.16483
434.103	-0.52684
434.315	16.33288
434.527	-19.49219
434.739	28.97868
434.95	-21.59933
435.162	-63.73688
435.374	14.22533
435.586	3.68794
435.798	35.30189
436.009	37.40968
436.221	43.73317
436.433	-34.24164
436.645	7.90283
436.856	-8.95613
437.068	-6.84884
437.28	26.87099
437.491	16.33288
437.703	47.94895
437.915	20.54805
438.126	52.16483
438.338	85.8951
438.55	-51.09666
438.761	43.73317
438.973	31.08639
439.184	-25.81353
439.396	-32.13465
439.608	58.48881
439.819	28.97868
440.031	-67.95008
440.242	-42.66935
440.454	-25.81353
440.665	1.58054
440.877	26.87099
441.088	-13.17063
441.3	-34.24164
441.511	66.92111
441.723	35.30189
441.934	71.13739
442.146	35.30189
442.357	7.90283
442.569	-0.52684
442.78	96.437
442.991	24.76332
443.203	24.76332
443.414	-42.66935
443.626	-17.38502
443.837	16.33288
444.048	-0.52684
444.26	47.94895
444.471	-19.49219
444.682	100.65391
444.894	12.11781
445.105	7.90283
445.316	-38.45555
445.528	58.48881
445.739	-46.88306
445.95	54.2728
446.161	-51.09666
446.373	50.05688
446.584	10.01031
446.795	16.33288
447.006	-6.84884
447.217	-19.49219
447.429	-8.95613
447.64	-0.52684
447.851	26.87099
448.062	-0.52684
448.273	43.73317
448.484	66.92111
448.695	41.62532
448.907	37.40968
449.118	16.33288
449.329	-30.02763
449.54	1.58054
449.751	18.44046
449.962	-17.38502
450.173	-25.81353
450.384	-70.05664
450.595	-34.24164
450.806	35.30189
451.017	50.05688
451.228	45.84105
451.439	41.62532
451.65	-0.52684
451.861	10.01031
452.072	-13.17063
452.283	28.97868
452.494	-57.41689
452.705	41.62532
452.915	-6.84884
453.126	-0.52684
453.337	12.11781
453.548	20.54805
453.759	12.11781
453.97	115.4138
454.181	3.68794
454.391	12.11781
454.602	-48.98987
454.813	-57.41689
455.024	24.76332
455.235	16.33288
455.445	-38.45555
455.656	14.22533
455.867	-57.41689
456.078	-13.17063
456.288	-0.52684
456.499	-0.52684
456.71	18.44046
456.921	20.54805
457.131	-21.59933
457.342	28.97868
457.553	-4.74153
457.763	-23.70644
457.974	-67.95008
458.184	-17.38502
458.395	-23.70644
458.606	-59.52357
458.816	3.68794
459.027	62.70491
459.237	47.94895
459.448	81.6785
459.659	3.68794
459.869	54.2728
460.08	-17.38502
460.29	43.73317
460.501	-15.27784
460.711	35.30189
460.922	52.16483
461.132	24.76332
461.343	1.58054
461.553	-8.95613
461.764	7.90283
461.974	26.87099
462.184	104.87091
462.395	24.76332
462.605	-38.45555
462.816	18.44046
463.026	43.73317
463.236	-21.59933
463.447	1.58054
463.657	-8.95613
463.867	37.40968
464.078	134.39237
464.288	-25.81353
464.498	83.78679
464.709	64.813
464.919	54.2728
465.129	-6.84884
465.339	69.02924
465.55	-13.17063
465.76	20.54805
465.97	35.30189
466.18	77.46199
466.391	50.05688
466.601	33.19413
466.811	106.97945
467.021	26.87099
467.231	79.57023
467.441	-59.52357
467.651	-42.66935
467.862	37.40968
468.072	-46.88306
468.282	12.11781
468.492	26.87099
468.702	77.46199
468.912	20.54805
469.122	77.46199
469.332	94.32857
469.542	66.92111
469.752	69.02924
469.962	52.16483
470.172	71.13739
470.382	28.97868
470.592	41.62532
470.802	45.84105
471.012	66.92111
471.222	75.35377
471.432	39.51749
471.642	111.19658
471.852	94.32857
472.062	58.48881
472.272	28.97868
472.482	66.92111
472.691	56.38079
472.901	115.4138
473.111	28.97868
473.321	75.35377
473.531	47.94895
473.741	60.59685
473.95	28.97868
474.16	79.57023
474.37	134.39237
474.58	113.30518
474.79	125.95723
474.999	33.19413
475.209	-25.81353
475.419	138.61006
475.628	45.84105
475.838	79.57023
476.048	117.52244
476.258	119.63111
476.467	125.95723
476.677	168.13631
476.886	168.13631
477.096	212.43327
477.306	142.82785
477.515	125.95723
477.725	193.44776
477.935	88.00344
478.144	125.95723
478.354	138.61006
478.563	138.61006
478.773	161.80891
478.982	96.437
479.192	113.30518
479.401	159.69982
479.611	195.55718
479.82	216.6525
480.03	159.69982
480.239	282.06037
480.449	201.88557
480.658	212.43327
480.868	147.04571
481.077	265.17916
481.287	189.22898
481.496	246.18925
481.705	254.62902
481.915	197.66663
482.124	218.76214
482.333	252.51905
482.543	153.37267
482.752	229.31064
482.961	212.43327
483.171	284.17061
483.38	229.31064
483.589	282.06037
483.799	246.18925
484.008	387.59405
484.217	265.17916
484.426	282.06037
484.636	222.98148
484.845	341.15383
485.054	349.59689
485.263	332.71105
485.472	396.03861
485.682	396.03861
485.891	429.81942
486.1	353.81853
486.309	415.03981
486.518	410.8172
486.727	317.93686
486.936	505.84085
487.146	400.26098
487.355	446.71136
487.564	412.9285
487.773	488.94552
487.982	482.61001
488.191	467.82768
488.4	590.33104
488.609	444.59982
488.818	482.61001
489.027	472.05113
489.236	446.71136
489.445	480.4982
489.654	463.6043
489.863	592.44357
490.072	550.19546
490.281	592.44357
490.49	603.00642
490.698	638.92247
490.907	569.20645
491.116	573.43126
491.325	624.13307
491.534	698.0859
491.743	609.34428
491.952	666.39007
492.16	531.18558
492.369	750.91783
492.578	531.18558
492.787	647.37382
492.996	708.65175
493.204	691.74653
493.413	740.35091
493.622	700.19905
493.831	852.3727
494.039	763.59846
494.248	772.05243
494.457	822.77947
494.665	820.66573
494.874	848.14499
495.083	776.27947
495.291	930.59132
495.5	793.18802
495.709	1013.04897
495.917	695.97277
496.126	939.04803
496.335	886.19561
496.543	945.39064
496.752	862.94213
496.96	936.93384
497.169	822.77947
497.377	1017.27783
497.586	839.68967
497.794	1025.73564
498.003	922.13473
498.211	1110.31863
498.42	996.13375
498.628	1042.65153
498.837	1048.99509
499.045	1059.5678
499.254	996.13375
499.462	1038.42252
499.671	1165.30175
499.879	1252.0111
500.087	1093.40136
500.296	1334.49497
500.504	1173.76094
500.713	1241.4365
500.921	1167.41654
501.129	1182.22019
501.338	1097.63065
501.546	1262.58576
501.754	1106.08928
501.962	1226.63219
502.171	1275.27544
502.379	1258.35589
502.587	1216.05777
502.795	1332.37996
503.004	1283.73527
503.212	1376.79543
503.42	1249.89617
503.628	1372.56536
503.837	1304.88501
504.045	1471.97257
504.253	1436.01668
504.461	1427.55648
504.669	1279.50535
504.877	1455.05215
505.085	1332.37996
505.294	1478.31772
505.502	1446.59194
505.71	1615.79405
505.918	1414.86618
506.126	1550.22906
506.334	1402.1759
506.542	1689.81661
506.75	1507.92838
506.958	1698.27612
507.166	1641.17355
507.374	1569.26422
507.582	1520.61862
507.79	1567.1492
507.998	1495.23811
508.206	1757.49123
508.414	1600.9892
508.622	1562.91918
508.83	1545.99901
509.037	1812.47406
509.245	1586.18425
509.453	1702.50586
509.661	1617.90902
509.869	1751.14689
510.077	1706.73558
510.285	1897.05708
510.492	1719.42468
510.7	1985.86001
510.908	1675.01235
511.116	1884.37013
511.324	1791.32715
511.531	1818.81805
511.739	1774.40932
511.947	1825.162
512.155	1897.05708
512.362	1844.1936
512.57	1909.74383
512.778	1854.76655
512.985	1871.683
513.193	1943.57418
513.401	1863.22481
513.608	2053.51199
513.816	1717.30984
514.024	1846.3082
514.231	1956.26019
514.439	1842.079
514.646	1956.26019
514.854	2066.19596
515.061	1947.80287
515.269	2047.16991
515.477	1926.65919
515.684	2059.85401
515.892	1852.65197
516.099	2055.626
516.307	1875.91207
516.514	2154.97625
516.722	2051.39797
516.929	2159.20354
517.136	2057.74001
517.344	2176.11237
517.551	2182.45305
517.759	2231.06237
517.966	2040.82777
518.173	2269.10121
518.381	2317.70204
518.588	2427.56301
518.796	2222.60891
519.003	2091.56312
519.21	2332.4926
519.418	2311.36309
519.625	2264.87482
519.832	2298.68492
520.039	2224.72229
520.247	2598.63427
520.454	2247.96888
520.661	2366.29777
520.868	2218.38212
521.076	2577.51847
521.283	2353.62113
521.49	2452.91155
521.697	2433.90029
521.904	2512.05199
522.112	2368.41051
522.319	2550.06615
522.526	2425.45056
522.733	2541.61889
522.94	2801.28171
523.147	2609.19171
523.354	2577.51847
523.561	2596.52274
523.768	2404.3255
523.975	2769.62603
524.183	2309.25008
524.39	2602.85728
524.597	2689.41816
524.804	2670.4188
525.011	2653.52962
525.218	2794.95082
525.425	2611.30317
525.632	2672.52989
525.838	2581.74173
526.045	2773.84696
526.252	2619.74885
526.459	2904.66847
526.666	2712.63818
526.873	2854.0343
527.08	2851.92436
527.287	2944.74795
527.494	2685.19617
527.701	2887.79133
527.907	2775.95741
528.114	2786.50944
528.321	2932.09184
528.528	2970.05856
528.735	2970.05856
528.941	2974.27678
529.148	2790.73016
529.355	2999.58488
529.562	2866.69361
529.768	3130.30802
529.975	2803.39198
530.182	2883.5719
530.388	2851.92436
530.595	3086.03757
530.802	2786.50944
531.008	3035.43427
531.215	3092.36234
531.422	3183.00171
531.628	3134.52389
531.835	3248.32764
532.042	3307.31787
532.248	3235.68516
532.455	3159.81773
532.661	3256.75563
532.868	3153.49449
533.074	3370.50677
533.281	3231.47086
533.487	3399.98955
533.694	3128.20006
533.9	3355.76409
534.107	3138.73969
534.313	3408.41257
534.52	3311.53094
534.726	3391.56625
534.933	3378.93077
535.139	3583.12518
535.345	3303.10472
535.552	3395.77794
535.758	3414.72965
535.965	3562.08215
536.171	3496.83702
536.377	3566.2909
536.584	3526.30474
536.79	3488.41701
536.996	3488.41701
537.203	3597.8542
537.409	3509.46648
537.615	3566.2909
537.821	3572.6039
538.028	3734.5794
538.234	3610.47834
538.44	3801.86039
538.646	3458.94471
538.853	3778.7348
539.059	3501.04691
539.265	3883.83184
539.471	3732.47655
539.677	3526.30474
539.883	3795.55365
540.09	3648.3467
540.296	3682.00231
540.502	3778.7348
540.708	3700.93145
540.914	3879.62892
541.12	3946.86613
541.326	3944.76528
541.532	3862.8164
541.738	3871.22282
541.944	3774.5299
542.15	4068.68049
542.356	3791.34905
542.562	3955.26933
542.768	3808.16695
542.974	4133.75966
543.18	4129.56161
543.386	4127.46256
543.592	4087.57651
543.798	4112.76857
544.004	3984.67796
544.21	3997.28043
544.415	3965.77287
544.621	4173.63695
544.827	4045.58308
545.033	4263.85736
545.239	4169.4397
545.445	4289.02811
545.651	3997.28043
545.856	4351.94142
546.062	4167.34105
546.268	4416.93137
546.474	4026.68334
546.679	4068.68049
546.885	4035.08343
547.091	4265.95504
547.297	3974.17533
547.502	4169.4397
547.708	4133.75966
547.914	4360.3284
548.119	4093.8748
548.325	4649.46395
548.531	4077.07893
548.736	4280.6382
548.942	4163.14367
549.147	4410.64293
549.353	4362.42509
549.559	4548.94283
549.764	4240.78146
549.97	4330.97248
550.175	4238.68353
550.381	4429.50765
550.586	4356.13495
550.792	4662.02547
550.997	4414.83524
551.203	4553.13224
551.408	4387.58366
551.614	4509.13907
551.819	4523.80454
552.025	4523.80454
552.23	4475.61392
552.435	4586.64427
552.641	4768.76563
552.846	4856.62503
553.052	4534.27922
553.257	4657.83839
553.462	4666.21246
553.668	4812.70035
553.873	4548.94283
554.078	4586.64427
554.283	4435.79549
554.489	4768.76563
554.694	4716.44936
554.899	4873.3556
555.105	4592.92715
555.31	4906.81234
555.515	4743.65558
555.72	4710.17045
555.925	4816.88408
556.131	4885.90256
556.336	4655.74481
556.541	4894.26675
556.746	4666.21246
556.951	4975.79831
557.156	4825.25128
557.361	4890.0847
557.567	4795.96449
557.772	4854.53361
557.977	4852.44216
558.182	4823.15952
558.387	4931.90104
558.592	4839.893
558.797	4741.56293
559.002	4942.35369
559.207	4802.24061
559.412	4925.62917
559.617	4814.79223
559.822	5186.78091
560.027	4988.33852
560.232	5055.20563
560.437	4940.26321
560.642	5149.19739
560.847	5178.42967
561.051	5236.88054
561.256	5034.3122
561.461	5149.19739
561.666	4858.71643
561.871	5151.28556
562.076	4917.26636
562.281	5291.13995
562.485	5013.41646
562.69	5282.79337
562.895	5109.51771
563.1	5276.5332
563.305	5065.65148
563.509	5165.90211
563.714	5159.63801
563.919	5211.8324
564.123	5199.30708
564.328	5209.74491
564.533	5094.89677
564.737	5193.0441
564.942	5174.25391
565.147	5405.86731
565.351	5289.05334
565.556	5211.8324
565.761	5174.25391
565.965	5345.38354
566.17	5180.51752
566.374	5603.86531
566.579	5193.0441
566.784	5213.91988
566.988	5207.65739
567.193	5599.69913
567.397	5293.22653
567.602	5483.00758
567.806	5351.6414
568.011	5426.71921
568.215	5424.63412
568.42	5489.26078
568.624	5307.83197
568.828	5491.34514
569.033	5380.84194
569.237	5528.8595
569.442	5316.17742
569.646	5303.65911
569.85	5286.96671
570.055	5453.82316
570.259	5286.96671
570.463	5510.10327
570.668	5241.0549
570.872	5601.78223
571.076	5220.18215
571.281	5535.11115
571.485	5485.092
571.689	5516.35556
571.893	5624.69484
572.098	5578.86677
572.302	5658.01718
572.506	5703.82553
572.71	5568.44971
572.914	5793.32706
573.119	5603.86531
573.323	5641.35677
573.527	5703.82553
573.731	5834.94081
573.935	5662.18205
574.139	5861.98468
574.343	5568.44971
574.547	5764.19182
574.751	5751.70387
574.955	5710.07124
575.159	5635.10872
575.364	5843.26242
575.568	5753.78525
575.772	5774.59779
575.976	5757.94795
576.18	5820.37707
576.383	5747.54103
576.587	5751.70387
576.791	5743.3781
576.995	5847.42309
577.199	5714.23493
577.403	5776.67892
577.607	5849.50339
577.811	5961.80444
578.015	5624.69484
578.219	6042.86801
578.422	6024.16421
578.626	6011.69396
578.83	5624.69484
579.034	5941.01314
579.238	5920.21948
579.442	5878.62508
579.645	5949.32995
579.849	6092.73548
580.053	6090.65794
580.257	6173.74123
580.46	5924.3784
580.664	6040.7899
580.868	5834.94081
581.071	6242.25666
581.275	6030.39902
581.479	6134.28135
581.682	5953.48821
581.886	6175.81783
582.09	6119.74137
582.293	6182.04749
582.497	6271.31611
582.7	6258.86262
582.904	6130.12719
583.107	6455.94406
583.311	6225.6492
583.515	6389.58224
583.718	6098.96796
583.922	6335.6457
584.125	6200.7352
584.329	6157.12758
584.532	6076.11449
584.735	6464.23761
584.939	6011.69396
585.142	6358.46693
585.346	6196.58254
585.549	6358.46693
585.753	6049.10218
585.956	6435.20855
586.159	6372.98806
586.363	6389.58224
586.566	6296.22055
586.769	6470.45753
586.973	6198.65889
587.176	6335.6457
587.379	6389.58224
587.582	6632.10226
587.786	6306.59641
587.989	6414.47072
588.192	6528.50005
588.395	6576.16424
588.599	6433.13487
588.802	6741.85773
589.005	6462.16426
589.208	6675.598
589.411	6389.58224
589.615	6513.99112
589.818	6545.08028
590.021	6683.88175
590.224	6426.9137
590.427	6737.71718
590.63	6561.65904
590.833	6679.73992
591.036	6632.10226
591.239	6748.06837
591.442	6499.48106
591.645	6706.66017
591.848	6634.17372
592.051	6688.02348
592.254	6534.71781
592.457	6745.99818
592.66	6356.39239
592.863	6826.71875
593.066	6683.88175
593.269	6837.06504
593.472	6656.95821
593.675	7035.60378
593.878	6781.18834
594.081	6832.92659
594.284	6690.09432
594.486	6839.13422
594.689	6708.7308
594.892	6700.44815
595.095	6565.8035
595.298	6826.71875
595.5	6961.17615
595.703	7039.73779
595.906	7138.92727
596.109	6977.71815
596.311	6816.3719
596.514	6923.95138
596.717	7002.52843
596.92	7161.65095
597.122	6901.1993
597.325	7122.39926
597.528	6973.58278
597.73	7312.38569
597.933	6886.71928
598.136	7132.72943
598.338	6936.36045
598.541	7076.93988
598.743	7019.06683
598.946	6998.39361
599.148	7054.20613
599.351	6998.39361
599.554	7273.16467
599.756	7147.19074
599.959	7072.80668
600.161	6930.15602
600.363	6806.02448
600.566	7085.20603
600.768	7260.77744
600.971	7242.1951
601.173	7184.37194
601.376	7081.073
601.578	7099.67092
601.78	7225.67597
601.983	7114.13472
602.185	7128.59743
602.388	6985.9886
602.59	7233.93571
602.792	7163.71661
602.995	7361.91671
603.197	7126.5314
603.399	7308.25753
603.601	7089.33897
603.804	7194.69878
604.006	7002.52843
604.208	7300.00096
604.41	7233.93571
604.613	7458.87858
604.815	7192.63346
605.017	7399.05671
605.219	7110.00232
605.421	7157.51957
605.623	7200.89462
605.826	7543.4233
606.028	7159.58527
606.23	7217.41587
606.432	7128.59743
606.634	7376.36088
606.836	6969.44733
607.038	7570.22262
607.24	7209.15542
607.442	7388.74075
607.644	6994.2587
607.846	7695.92516
608.048	7335.08897
608.25	7537.23833
608.452	7248.38941
608.654	7316.51375
608.856	7275.22913
609.058	7300.00096
609.26	7188.50274
609.462	7252.51884
609.664	7370.17065
609.866	7250.45414
610.067	7184.37194
610.269	7190.56811
610.471	7279.35799
610.673	7479.50258
610.875	7337.15277
611.077	7324.76962
611.278	7300.00096
611.48	7277.29357
611.682	7287.61544
611.884	7634.11412
612.085	7182.30651
612.287	7343.34405
612.489	7475.37796
612.69	7586.71271
612.892	7335.08897
613.094	7407.30909
613.295	7266.97115
613.497	7518.68225
613.699	7498.06234
613.9	7547.54651
614.102	7219.48093
614.304	7496.00023
614.505	7250.45414
614.707	7477.44028
614.908	7396.99357
615.11	7430.00134
615.311	7219.48093
615.513	7510.43455
615.714	7304.12929
615.916	7601.14042
616.117	7244.25989
616.319	7697.9852
616.52	7308.25753
616.722	7745.36031
616.923	7654.71992
617.124	7755.65778
617.326	7366.04372
617.527	7679.44408
617.729	7450.62837
617.93	7716.52462
618.131	7337.15277
618.333	7411.43515
618.534	7390.80399
618.735	7623.81043
618.937	7528.9914
619.138	7648.5384
619.339	7456.81606
619.54	7415.56112
619.742	7467.12844
619.943	7514.55844
620.144	7520.74412
620.345	7570.22262
620.546	7545.48492
620.748	7792.72432
620.949	7388.74075
621.15	7621.74962
621.351	7366.04372
621.552	7440.31512
621.753	7551.66963
621.954	7745.36031
622.155	7328.89743
622.356	7629.99271
622.558	7607.32341
622.759	7514.55844
622.96	7374.29749
623.161	7399.05671
623.362	7479.50258
623.563	7897.70955
623.764	7607.32341
623.965	7638.23545
624.166	7413.49815
624.366	7357.7896
624.567	7607.32341
624.768	7761.83601
624.969	7382.55092
625.17	7465.06601
625.371	7500.12443
625.572	7599.07939
625.773	7322.70569
625.973	7728.88328
626.174	7597.01833
626.375	7720.64426
626.576	7582.59032
626.777	7586.71271
626.977	7640.29609
627.178	7693.8651
627.379	7314.44973
627.58	7572.28396
627.78	7374.29749
627.981	7586.71271
628.182	7496.00023
628.382	7621.74962
628.583	7605.26243
628.784	7545.48492
628.984	7498.06234
629.185	7689.74492
629.386	7432.06414
629.586	7726.82355
629.787	7390.80399
629.987	7772.13264
630.188	7547.54651
630.388	7743.30076
630.589	7295.87254
630.79	7537.23833
630.99	7295.87254
631.191	7862.72046
631.391	7535.17663
631.591	7634.11412
631.792	7467.12844
631.992	7763.89538
632.193	7669.14272
632.393	7667.08238
632.594	7605.26243
632.794	7465.06601
632.994	7712.4049
633.195	7813.31392
633.395	7574.34527
633.595	7665.02203
633.796	7493.9381
633.996	7761.83601
634.196	7821.54917
634.397	8191.79602
634.597	7638.23545
634.797	7977.95614
634.997	7739.18158
635.198	7957.38306
635.398	7850.36995
635.598	7877.12846
635.798	7693.8651
635.998	7592.89615
636.199	7491.87595
636.399	7733.00266
636.599	7889.47736
636.799	7772.13264
636.999	7524.8678
637.199	7856.5453
637.399	7566.09989
637.599	7448.56577
637.799	7498.06234
637.999	8041.71971
638.199	7772.13264
638.399	7922.40413
638.599	7753.59833
638.799	7827.7254
638.999	7926.51961
639.199	7807.13726
639.399	7726.82355
639.599	7916.23076
639.799	7805.07833
639.999	7963.5552
640.199	7819.49039
640.399	7856.5453
640.599	7448.56577
640.799	8021.15295
640.998	7662.96165
641.198	7990.299
641.398	7749.47936
641.598	7916.23076
641.798	7862.72046
641.997	7994.41312
642.197	8033.49325
642.397	8068.45347
642.597	7891.53544
642.796	7975.89892
642.996	7868.89544
643.196	7992.35607
643.395	7580.52909
643.595	7899.76754
643.795	7955.32564
643.994	7790.66525
644.194	7786.54703
644.394	8101.35188
644.593	8019.09616
644.793	8025.26647
644.992	7642.3567
645.192	7922.40413
645.392	7770.07335
645.591	8119.85497
645.791	7957.38306
645.99	8193.85112
646.19	7827.7254
646.389	7786.54703
646.589	7782.42874
646.788	7994.41312
646.987	7856.5453
647.187	8025.26647
647.386	7881.24484
647.586	8010.86881
647.785	7870.95373
647.984	8019.09616
648.184	7936.80794
648.383	8017.03936
648.582	7984.12766
648.782	8148.63433
648.981	8115.74331
649.18	8197.96126
649.38	8097.23986
649.579	8210.29121
649.778	8041.71971
649.977	8173.29923
650.177	7984.12766
650.376	8165.07791
650.575	7901.82552
650.774	8021.15295
650.973	8218.51077
651.173	8263.71274
651.372	8202.07132
651.571	8197.96126
651.77	8064.34081
651.969	8280.14745
652.168	7868.89544
652.367	8265.76714
652.566	8144.52323
652.765	8284.25593
652.964	7926.51961
653.163	8037.60652
653.362	8132.18946
653.561	8154.80082
653.76	8181.52022
653.959	8049.94585
654.158	7942.98069
654.357	7903.88347
654.556	7794.78337
654.755	8160.96714
654.954	7980.01333
655.153	8121.91077
655.352	8171.24393
655.551	8089.01558
655.749	7844.19441
655.948	8109.57568
656.147	8019.09616
656.346	8062.28445
656.545	8128.07804
656.743	8288.36433
656.942	8101.35188
657.141	8230.83953
657.34	8093.12776
657.538	8232.89425
657.737	8181.52022
657.936	8212.34613
658.135	8004.69808
658.333	8440.3205
658.532	8247.27676
658.731	8076.67856
658.929	7947.09576
659.128	8158.91172
659.326	7951.21074
659.525	8393.10224
659.724	8171.24393
659.922	8101.35188
660.121	8128.07804
660.319	8216.45591
660.518	8140.41205
660.716	8132.18946
660.915	8117.79915
661.113	8415.68616
661.312	8099.29588
661.51	8234.94896
661.709	8144.52323
661.907	8222.62044
662.105	7786.54703
662.304	8374.62276
662.502	8095.18382
662.701	8325.33644
662.899	8132.18946
663.097	8160.96714
663.296	8296.58091
663.494	8298.635
663.692	8173.29923
663.891	8249.33133
664.089	8150.68984
664.287	8384.88933
664.485	8068.45347
664.684	8208.23627
664.882	8165.07791
665.08	8095.18382
665.278	8076.67856
665.476	8167.13327
665.675	8158.91172
665.873	8189.7409
666.071	8091.07168
666.269	8103.40786
666.467	7823.60794
666.665	8386.94259
666.863	8224.67524
667.061	8259.60386
667.259	8249.33133
667.457	8302.74313
667.655	8263.71274
667.853	8473.16199
668.051	7965.61254
668.249	8187.68576
668.447	8230.83953
668.645	8284.25593
668.843	8165.07791
669.041	8516.25903
669.239	8134.24514
669.437	8183.57542
669.635	8183.57542
669.833	8257.54939
670.031	8345.87377
670.229	8290.41851
670.426	8177.40977
670.624	8105.46382
670.822	8023.20972
671.02	8043.77628
671.218	8095.18382
671.415	8156.85628
671.613	8177.40977
671.811	8119.85497
672.009	8191.79602
672.206	8288.36433
672.404	8070.50977
672.602	8123.96655
672.799	8117.79915
672.997	8341.76646
673.195	7918.28857
673.392	8263.71274
673.59	8054.0588
673.788	8273.98458
673.985	8029.3799
674.183	8243.16757
674.38	8107.51976
674.578	8165.07791
674.775	8054.0588
674.973	8107.51976
675.17	7924.46188
675.368	8014.98253
675.565	7848.31146
675.763	8043.77628
675.96	7889.47736
676.158	7811.25505
676.355	7638.23545
676.553	8317.12096
676.75	7712.4049
676.947	7844.19441
677.145	7885.36114
677.342	8142.46765
677.539	7835.96007
677.737	8222.62044
677.934	7741.24118
678.131	8214.40103
678.329	8210.29121
678.526	7852.42842
678.723	7920.34636
678.92	8070.50977
679.118	7862.72046
679.315	7930.635
679.512	7761.83601
679.709	7930.635
679.906	7648.5384
680.104	8167.13327
680.301	7893.59349
680.498	8033.49325
680.695	7844.19441
680.892	7992.35607
681.089	7557.85416
681.286	7969.72715
681.483	7720.64426
681.68	7883.303
681.877	7800.96041
682.075	7675.3236
682.272	7704.1652
682.469	7914.17293
682.665	7786.54703
682.862	8082.84716
683.059	7765.95472
683.256	7928.57731
683.453	7557.85416
683.65	7724.76381
683.847	7805.07833
684.044	7737.12196
684.241	7741.24118
684.438	7697.9852
684.635	7436.18967
684.831	7704.1652
685.028	7502.1865
685.225	7516.62036
685.422	7359.85316
685.619	7632.05343
685.815	7485.68937
686.012	7491.87595
686.209	7629.99271
686.405	7697.9852
686.602	7584.65153
686.799	7516.62036
686.996	7730.94298
687.192	7695.92516
687.389	7547.54651
687.586	7613.5062
687.782	7568.16126
687.979	8019.09616
688.175	7522.80597
688.372	7638.23545
688.568	7419.68701
688.765	7401.11984
688.962	7570.22262
689.158	7720.64426
689.355	7566.09989
689.551	7605.26243
689.748	7605.26243
689.944	7613.5062
690.14	7572.28396
690.337	7539.30001
690.533	7394.9304
690.73	7543.4233
690.926	7601.14042
691.123	7735.06232
691.319	7512.4965
691.515	7642.3567
691.712	7320.64173
691.908	7370.17065
692.104	7254.58352
692.301	7425.87567
692.497	7242.1951
692.693	7551.66963
692.889	7394.9304
693.086	7605.26243
693.282	7599.07939
693.478	7510.43455
693.674	7394.9304
693.87	7720.64426
694.067	7454.75352
694.263	7510.43455
694.459	7205.02506
694.655	7564.03848
694.851	7333.02514
695.047	7432.06414
695.243	7312.38569
695.439	7493.9381
695.635	7291.74404
695.831	7510.43455
696.027	7328.89743
696.224	7438.25241
696.42	7136.86134
696.615	7539.30001
696.811	7211.22057
697.007	7469.19085
697.203	7225.67597
697.399	7233.93571
697.595	7174.04455
697.791	7357.7896
697.987	7194.69878
698.183	7382.55092
698.379	7337.15277
698.575	7427.93851
698.77	7200.89462
698.966	7349.53513
699.162	7155.45385
699.358	7283.48676
699.554	6907.40468
699.749	7085.20603
699.945	7052.1393
700.141	7182.30651
700.337	7010.79781
700.532	7184.37194
700.728	7252.51884
700.924	7514.55844
701.119	7279.35799
701.315	7357.7896
701.511	7186.43735
701.706	7349.53513
701.902	7163.71661
702.097	7337.15277
702.293	7277.29357
702.489	7223.61098
702.684	6894.99371
702.88	7002.52843
703.075	6990.1237
703.271	7225.67597
703.466	7050.07244
703.662	7178.17557
703.857	6834.99582
704.053	7341.28031
704.248	7140.99317
704.443	7266.97115
704.639	7118.26704
704.834	7233.93571
705.03	7192.63346
705.225	7378.42425
705.42	6930.15602
705.616	7120.33316
705.811	6946.70072
706.006	7041.80477
706.202	7089.33897
706.397	7035.60378
706.592	6839.13422
706.787	6872.23814
706.983	6996.32617
707.178	7341.28031
707.373	6739.78746
707.568	7337.15277
707.763	7037.6708
707.959	6942.56468
708.154	6905.33625
708.349	6936.36045
708.544	6772.9089
708.739	7112.06853
708.934	6816.3719
709.129	6971.51507
709.324	6781.18834
709.519	7136.86134
709.714	6656.95821
709.909	7068.67338
710.104	6638.31656
710.299	6932.22418
710.494	6911.54149
710.689	7126.5314
710.884	6926.01962
711.079	7000.46103
711.274	6806.02448
711.469	7171.97901
711.664	6799.81575
711.859	7145.1249
712.054	6783.25815
712.249	6963.24398
712.443	6741.85773
712.638	6967.37957
712.833	6572.02001
713.028	7043.87172
713.223	6787.39768
713.417	6950.83667
713.612	6758.41899
713.807	6816.3719
714.002	6572.02001
714.196	6952.90461
714.391	6828.78806
714.586	6886.71928
714.78	6669.38494
714.975	6880.51321
715.17	6584.45241
715.364	6990.1237
715.559	6919.81484
715.754	6795.67649
715.948	6545.08028
716.143	6721.15408
716.337	6389.58224
716.532	6760.48905
716.726	6696.30669
716.921	6673.527
717.115	6820.51071
717.31	6930.15602
717.504	6636.24515
717.699	6919.81484
717.893	6785.32793
718.088	6847.41075
718.282	6729.43582
718.476	6673.527
718.671	6700.44815
718.865	6787.39768
719.059	6623.81621
719.254	6723.22455
719.448	6489.11604
719.642	6849.47982
719.837	6240.18081
720.031	6656.95821
720.225	6206.96402
720.419	6795.67649
720.614	6482.89674
720.808	6764.62909
721.002	6532.64524
721.196	6522.28207
721.39	6495.33512
721.585	6708.7308
721.779	6428.98744
721.973	6578.23632
722.167	6298.29577
722.361	6536.79035
722.555	6368.83928
722.749	6416.5446
722.943	6346.01934
723.137	6327.34637
723.331	6306.59641
723.525	6248.48407
723.719	6152.97393
723.913	6368.83928
724.107	6348.09399
724.301	6717.01308
724.495	6277.54253
724.689	6366.76486
724.883	6233.95312
725.077	6227.72522
725.271	6094.81299
725.465	6198.65889
725.659	6067.80344
725.853	6319.04666
726.046	6165.43459
726.24	6298.29577
726.434	6071.95901
726.628	6451.79714
726.822	6165.43459
727.015	6312.82164
727.209	6179.97096
727.403	6289.99475
727.596	6084.42517
727.79	6103.12283
727.984	6092.73548
728.177	6341.86995
728.371	6080.26988
728.565	6256.78696
728.758	6069.88124
728.952	6385.43384
729.146	6136.3584
729.339	6383.3596
729.533	6152.97393
729.726	6343.94465
729.92	6165.43459
730.113	6435.20855
730.307	6169.58795
730.5	6408.24891
730.694	6144.66635
730.887	6215.26878
731.081	6289.99475
731.274	6331.49608
731.468	6356.39239
731.661	6314.89667
731.854	6198.65889
732.048	6356.39239
732.241	6138.43542
732.435	6509.84551
732.628	6422.76613
732.821	6285.84411
733.014	6150.89707
733.208	6123.89576
733.401	6219.42102
733.594	6277.54253
733.788	6134.28135
733.981	6015.8508
734.174	6069.88124
734.367	6109.35496
734.56	6042.86801
734.754	6090.65794
734.947	5889.02457
735.14	6111.43228
735.333	5889.02457
735.526	6082.34754
735.719	6115.58687
735.912	5845.34277
736.105	5837.02125
736.298	6051.1802
736.491	5974.2781
736.684	6086.50279
736.877	5893.18419
737.07	6090.65794
737.263	6034.55545
737.456	6157.12758
737.649	6223.57317
737.842	6248.48407
738.035	6173.74123
738.228	6042.86801
738.421	6136.3584
738.614	6117.66413
738.807	5988.82961
739	5920.21948
739.192	6030.39902
739.385	5859.90452
739.578	5970.12031
739.771	5930.61661
739.964	5899.42346
740.156	5876.54511
740.349	5730.88874
740.542	5997.14425
740.735	5678.84057
740.927	5891.10439
741.12	5807.89294
741.313	6011.69396
741.505	5982.59339
741.698	5809.97369
741.891	5724.64374
742.083	5776.67892
742.276	5928.53723
742.468	6182.04749
742.661	5963.88345
742.854	5720.48028
743.046	5633.02599
743.239	5976.35695
743.431	5928.53723
743.624	5655.93471
743.816	5853.66391
744.009	5812.05441
744.201	5457.99264
744.393	5897.34373
744.586	5693.41555
744.778	5845.34277
744.971	5660.09963
745.163	5957.64637
745.355	5641.35677
745.548	5886.94472
745.74	5699.66161
745.932	5891.10439
746.125	5845.34277
746.317	5730.88874
746.509	5628.86046
746.702	5651.7697
746.894	5801.65056
747.086	5737.13352
747.278	5851.58366
747.471	5743.3781
747.663	5464.24669
747.855	5737.13352
748.047	5691.33348
748.239	5816.21579
748.431	5647.6046
748.623	5720.48028
748.815	5510.10327
749.008	5957.64637
749.2	5741.2966
749.392	5909.82177
749.584	5628.86046
749.776	5776.67892
749.968	5635.10872
750.16	5618.44623
750.352	5483.00758
750.544	5778.76002
750.736	5520.52363
750.928	5574.70001
751.12	5432.97432
751.311	5639.27411
751.503	5616.36331
751.695	5466.33133
751.887	5424.63412
752.079	5316.17742
752.271	5485.092
752.463	5591.36647
752.654	5518.43961
752.846	5576.7834
753.038	5332.86719
753.23	5493.42947
753.421	5558.03205
753.613	5349.55547
753.805	5432.97432
753.997	5422.54902
754.188	5320.35
754.38	5224.35689
754.572	5399.61129
754.763	5445.4839
754.955	5526.77557
755.146	5501.76656
755.338	5382.92752
755.53	5428.80427
755.721	5516.35556
755.913	5364.15648
756.104	5316.17742
756.296	5483.00758
756.487	5474.66964
756.679	5553.86483
756.87	5190.95639
757.062	5255.66443
757.253	5136.66787
757.445	5142.93273
757.636	5048.93785
757.827	5366.24224
758.019	5176.3418
758.21	5207.65739
758.401	5291.13995
758.593	5232.70608
758.784	5222.26953
758.975	5416.29355
759.167	5295.31309
759.358	5176.3418
759.549	5188.86867
759.74	5190.95639
759.932	5086.54144
760.123	5099.0743
760.314	5128.31439
760.505	5057.29485
760.696	5076.09675
760.888	4844.07615
761.079	5000.87791
761.27	5096.98555
761.461	5094.89677
761.652	5228.53153
761.843	4881.72033
762.034	5021.77503
762.225	4885.90256
762.416	4927.71982
762.607	4766.67325
762.798	5032.22273
762.989	4898.4487
763.18	4931.90104
763.371	4768.76563
763.562	4950.7154
763.753	4908.90319
763.944	4768.76563
764.135	4685.05282
764.326	4965.3475
764.517	4718.54228
764.708	4798.05656
764.899	4764.58085
765.089	4802.24061
765.28	4685.05282
765.471	5057.29485
765.662	4588.73859
765.853	4622.24456
766.043	4814.79223
766.234	4952.80577
766.425	4590.83288
766.615	4969.52789
766.806	4699.70517
766.997	4756.21101
767.187	4624.33849
767.378	4724.82091
767.569	4657.83839
767.759	4670.39936
767.95	4534.27922
768.141	4722.72805
768.331	4442.08314
768.522	4588.73859
768.712	4439.98728
768.903	4626.43241
769.093	4345.65097
769.284	4515.4244
769.474	4488.18651
769.665	4551.03755
769.855	4444.17898
770.046	4597.11562
770.236	4513.32931
770.426	4618.05663
770.617	4400.16177
770.807	4571.98346
770.998	4351.94142
771.188	4398.06547
771.378	4152.64985
771.569	4429.50765
771.759	4439.98728
771.949	4255.46642
772.139	4387.58366
772.33	4372.9082
772.52	4408.54674
772.71	4588.73859
772.9	4448.37059
773.09	4534.27922
773.281	4490.28187
773.471	4291.12553
773.661	4333.06947
773.851	4372.9082
774.041	4219.80114
774.231	4563.60536
774.421	4089.67596
774.611	4362.42509
774.802	4196.72033
774.992	4226.09546
775.182	4158.94621
775.372	4270.15033
775.562	4121.16526
775.752	4228.19352
775.942	4104.37155
776.131	4184.12971
776.321	4014.08259
776.511	4156.84744
776.701	4062.38145
776.891	4228.19352
777.081	4018.28292
777.271	4148.45218
777.461	3955.26933
777.651	3927.95775
777.84	3936.36167
778.03	3995.18007
778.22	4045.58308
778.41	4238.68353
778.599	4154.74866
778.789	3967.87351
778.979	3963.6722
779.169	4230.29157
779.358	4066.58083
779.548	4433.69956
779.738	4286.93066
779.927	4146.35331
780.117	3946.86613
780.307	3951.06777
780.496	3801.86039
780.686	3961.57151
780.875	3686.20892
781.065	3871.22282
781.254	3715.65303
781.444	3791.34905
781.633	3612.5823
781.823	3993.07969
782.012	3852.30793
782.202	3957.37007
782.391	3713.55001
782.581	3909.04773
782.77	3644.13941
782.96	3867.01965
783.149	3534.72344
783.338	3869.12125
783.528	3686.20892
783.717	3627.30948
783.906	3711.44696
784.096	3658.8646
784.285	3614.68624
784.474	3631.51707
784.663	3583.12518
784.853	3572.6039
785.042	3507.36162
785.231	3604.16635
785.42	3471.57613
785.61	3631.51707
785.799	3263.07644
785.988	3543.14183
786.177	3319.95689
786.366	3463.15525
786.555	3444.20723
786.744	3454.73409
786.933	3307.31787
787.122	3496.83702
787.312	3534.72344
787.501	3482.10181
787.69	3423.15217
787.879	3372.61279
788.068	3248.32764
788.257	3458.94471
788.445	3353.65792
788.634	3726.16787
788.823	3517.88576
789.012	3501.04691
789.201	3345.23308
789.39	3387.35449
789.579	3303.10472
789.768	3488.41701
789.957	3408.41257
790.145	3496.83702
790.334	3393.6721
790.523	3473.6813
790.712	3471.57613
790.9	3509.46648
791.089	3256.75563
791.278	3591.54188
791.467	3286.25146
791.655	3465.2605
791.844	3364.18858
792.033	3389.46038
792.221	3168.2485
792.41	3260.96952
792.599	3130.30802
792.787	3180.89415
792.976	3102.90333
793.164	3100.79516
793.353	3138.73969
793.541	3303.10472
793.73	3298.89151
793.918	3385.24859
794.107	3050.19449
794.295	2917.32572
794.484	2860.36402
794.672	3395.77794
794.861	3117.66003
795.049	3273.61079
795.238	3062.8455
795.426	3265.18335
795.614	3083.92927
795.803	3282.03797
795.991	3073.38758
796.179	3357.87024
796.368	3071.2792
796.556	3237.79228
796.744	2965.84027
796.932	3126.09209
797.121	2940.5293
797.309	2917.32572
797.497	2896.23002
797.685	3067.06238
797.874	2818.16348
798.062	3033.3256
798.25	2892.0107
798.438	3199.86153
798.626	2799.17143
798.814	2917.32572
799.002	2879.35241
799.19	3010.12927
799.378	2699.97291
799.566	2932.09184
799.755	2951.0758
799.943	3026.99951
800.131	2881.46216
800.318	2917.32572
800.506	2750.63115
800.694	2811.83292
800.882	2678.86309
801.07	2961.62193
801.258	2674.64097
801.446	2986.9311
801.634	2436.01269
801.822	2970.05856
802.01	2780.17826
802.197	3117.66003
802.385	2630.30568
802.573	2761.18399
802.761	2759.07345
802.949	2923.65415
803.136	2828.71414
803.324	2946.85725
803.512	2799.17143
803.699	2849.81441
803.887	2801.28171
804.075	2847.70445
804.262	2828.71414
804.45	3113.44391
804.638	2813.94312
804.825	3024.89079
805.013	2691.52913
805.201	2892.0107
805.388	2843.48448
805.576	3064.95395
805.763	2932.09184
805.951	3008.02042
806.138	2849.81441
806.326	2919.43521
806.513	2655.64081
806.701	2927.87302
806.888	2847.70445
807.075	2788.6198
807.263	2718.97063
807.45	2896.23002
807.638	2799.17143
807.825	2942.63863
808.012	2740.07798
808.2	3010.12927
808.387	2847.70445
808.574	2780.17826
808.761	2579.63011
808.949	2906.77805
809.136	2645.08473
809.323	2775.95741
809.51	2579.63011
809.698	2723.19221
809.885	2524.72379
810.072	2664.08545
810.259	2585.96494
810.446	2830.82423
810.633	2672.52989
810.82	3016.45573
811.008	2725.30298
811.195	2919.43521
811.382	2849.81441
811.569	3018.56452
811.756	2678.86309
811.943	2929.98244
812.13	2797.06113
812.317	2965.84027
812.504	2822.38379
812.691	3012.23811
812.878	2813.94312
813.064	2961.62193
813.251	2763.29452
813.438	2959.51273
813.625	2864.58376
813.812	2989.0401
813.999	2816.05331
814.186	2820.27364
814.372	2706.3056
814.559	2877.24265
814.746	2889.90102
814.933	2894.12037
815.12	2868.80345
815.306	3060.73704
815.493	2915.21621
815.68	2982.71306
815.866	2577.51847
816.053	2822.38379
816.24	2828.71414
816.426	2881.46216
816.613	2714.74901
816.799	2936.3106
816.986	2801.28171
817.173	2822.38379
817.359	2421.22563
817.546	2746.40992
817.732	2809.72271
817.919	2887.79133
818.105	2704.19471
818.292	2862.4739
818.478	2742.18864
818.665	2666.19658
818.851	2613.41461
819.037	2839.26445
819.224	2569.07182
819.41	2733.74591
819.597	2653.52962
819.783	2822.38379
819.969	2594.41121
820.156	2583.85334
820.342	2594.41121
820.528	2813.94312
820.714	2581.74173
820.901	2674.64097
821.087	2676.75204
821.273	2797.06113
821.459	2583.85334
821.646	2790.73016
821.832	2488.81929
822.018	2642.97347
822.204	2400.10036
822.39	2594.41121
822.576	2653.52962
822.762	2543.73072
822.948	2737.9673
823.134	2801.28171
823.32	2450.79923
823.507	2944.74795
823.693	2535.28331
823.879	2746.40992
824.065	2353.62113
824.25	2594.41121
824.436	2419.11315
824.622	2735.85661
824.808	2581.74173
824.994	2841.37447
825.18	2484.59501
825.366	2560.62498
825.552	2376.86136
825.738	2560.62498
825.923	2484.59501
826.109	2560.62498
826.295	2089.44923
826.481	2421.22563
826.667	2275.44073
826.852	2309.25008
827.038	2292.34571
827.224	2385.31205
827.409	2391.64996
827.595	2368.41051
827.781	2362.07226
827.966	2433.90029
828.152	2290.23262
828.338	2585.96494
828.523	2328.26677
828.709	2611.30317
828.894	2471.92192
829.08	2440.23747
829.266	2290.23262
829.451	2400.10036
829.637	2199.36115
829.822	2554.28972
830.008	2368.41051
830.193	2497.2677
830.378	2311.36309
830.564	2566.96013
830.749	2176.11237
830.935	2452.91155
831.12	2218.38212
831.305	2476.14633
831.491	2161.31717
831.676	2328.26677
831.861	2190.90717
832.047	2366.29777
832.232	2104.2463
832.417	2222.60891
832.602	2097.90474
832.788	2053.51199
832.973	2030.2574
833.158	2228.94902
833.343	2078.87967
833.528	2427.56301
833.714	2169.77162
833.899	2216.26871
834.084	2097.90474
834.269	2163.4308
834.454	2112.7016
834.639	2112.7016
834.824	2243.74231
835.009	2300.79797
835.194	2119.043
835.379	2243.74231
835.564	2053.51199
835.749	2163.4308
835.934	1888.59914
836.119	2226.83566
836.304	1981.63154
836.489	2015.45859
836.674	1776.52406
836.859	2173.9988
837.044	1878.02659
837.228	2150.74893
837.413	1774.40932
837.598	1992.20267
837.783	1645.40344
837.968	2057.74001
838.152	1723.65435
838.337	2011.2303
838.522	1943.57418
838.707	2061.968
838.891	1816.70339
839.076	1985.86001
839.261	1736.34329
839.445	1956.26019
839.63	1801.90066
839.815	1998.54527
839.999	1795.55657
840.184	1867.45392
840.368	1776.52406
840.553	1979.51729
840.737	1681.35705
840.922	1977.40304
841.106	1791.32715
841.291	1719.42468
841.475	1774.40932
841.66	1903.40048
841.844	1736.34329
842.029	1920.31597
842.213	1742.68771
842.397	1677.12726
842.582	1681.35705
842.766	1913.9727
842.951	1685.58684
843.135	1839.96439
843.319	1651.74825
843.504	1715.19499
843.688	1651.74825
843.872	1858.99569
844.056	1622.13896
844.241	1829.39128
844.425	1600.9892
844.609	1736.34329
844.793	1624.25392
844.977	1668.66763
845.161	1554.4591
845.346	1636.94366
845.53	1531.1938
845.714	1675.01235
845.898	1423.32638
846.082	1624.25392
846.266	1436.01668
846.45	1624.25392
846.634	1457.16721
846.818	1562.91918
847.002	1450.82205
847.186	1469.85752
847.37	1376.79543
847.554	1584.06925
847.738	1359.87518
847.922	1452.9371
848.106	1469.85752
848.29	1554.4591
848.473	1457.16721
848.657	1488.89297
848.841	1383.14053
849.025	1615.79405
849.209	1323.91994
849.392	1658.09304
849.576	1457.16721
849.76	1503.69829
849.944	1334.49497
850.127	1370.45033
850.311	1152.61308
850.495	1395.83077
850.678	1224.5173
850.862	1393.71573
851.046	1268.93059
851.229	1554.4591
851.413	1258.35589
851.596	1461.39731
851.78	1419.09628
851.964	1300.65505
852.147	1266.81564
852.331	1309.11498
852.514	1169.53134
852.698	1368.33529
852.881	1167.41654
853.065	1438.13174
853.248	1182.22019
853.431	1351.41509
853.615	1209.71316
853.798	1245.66633
853.982	1139.92456
854.165	1241.4365
854.348	1131.46563
854.532	1317.57495
854.715	1177.99056
854.898	1292.19514
855.081	989.79065
855.265	1387.37061
855.448	1156.84262
855.631	1177.99056
855.814	1006.70571
855.997	1224.5173
856.181	1165.30175
856.364	1224.5173
856.547	1110.31863
856.73	1211.82803
856.913	1123.00677
857.096	1304.88501
857.279	1186.44984
857.462	1209.71316
857.645	1032.07905
857.828	1224.5173
858.011	983.44761
858.194	1133.58036
858.377	1059.5678
858.56	1123.00677
858.743	1051.10962
858.926	1139.92456
859.109	1158.9574
859.292	1089.17209
859.475	1072.25523
859.658	1205.48343
859.841	928.47716
860.023	1017.27783
860.206	1008.82012
860.389	974.99031
860.572	1017.27783
860.755	994.01938
860.937	827.00696
861.12	1046.88057
861.303	903.10786
861.486	1074.36982
861.668	862.94213
861.851	945.39064
862.034	805.86985
862.216	1023.62118
862.399	805.86985
862.581	928.47716
862.764	816.43829
862.947	928.47716
863.129	710.76495
863.312	945.39064
863.494	841.80349
863.677	780.50655
863.859	877.73969
864.042	991.90501
864.224	871.39783
864.406	833.34828
864.589	759.37154
864.771	920.02061
864.954	723.44439
865.136	829.12073
865.318	780.50655
865.501	778.393
865.683	702.31221
865.865	850.25884
866.048	710.76495
866.23	772.05243
866.412	708.65175
866.594	903.10786
866.777	725.55767
866.959	846.03115
867.141	668.50304
867.323	683.29419
867.505	594.55612
867.687	896.76571
867.869	679.06809
868.052	793.18802
868.234	746.69103
868.416	780.50655
868.598	702.31221
868.78	913.67827
868.962	814.32458
869.144	782.6201
869.326	634.69687
869.508	746.69103
869.69	638.92247
869.872	848.14499
870.054	801.64253
870.236	780.50655
870.417	714.99138
870.599	801.64253
870.781	613.56959
870.963	788.96083
871.145	662.16415
871.327	689.63343
871.508	592.44357
871.69	683.29419
871.872	674.84204
872.054	784.73367
872.235	636.80966
872.417	761.485
872.599	687.52034
872.78	778.393
872.962	649.48669
873.144	664.2771
873.325	636.80966
873.507	634.69687
873.689	653.71246
873.87	774.16594
874.052	603.00642
874.233	687.52034
874.415	592.44357
874.596	717.10462
874.778	638.92247
874.959	592.44357
875.141	594.55612
875.322	687.52034
875.503	670.61603
875.685	704.42538
875.866	617.79494
876.048	712.87816
876.229	626.24581
876.41	647.37382
876.592	564.98169
876.773	742.46427
876.954	636.80966
877.136	814.32458
877.317	550.19546
877.498	636.80966
877.679	592.44357
877.86	664.2771
878.042	638.92247
878.223	776.27947
878.404	632.58408
878.585	704.42538
878.766	558.64466
878.947	598.78124
879.128	611.45693
879.309	548.0832
879.49	594.55612
879.672	721.33112
879.853	643.14812
880.034	590.33104
880.215	548.0832
880.396	721.33112
880.576	567.09406
880.757	666.39007
880.938	632.58408
881.119	564.98169
881.3	609.34428
881.481	651.59957
881.662	664.2771
881.843	827.00696
882.023	558.64466
882.204	750.91783
882.385	607.23165
882.566	765.71194
882.747	522.73711
882.927	630.47131
883.108	708.65175
883.289	717.10462
883.469	619.90764
883.65	704.42538
883.831	545.97095
884.011	831.2345
884.192	605.11903
884.373	750.91783
884.553	600.89382
884.734	767.82543
884.914	581.88105
885.095	700.19905
885.275	562.86933
885.456	776.27947
885.636	539.63428
885.817	725.55767
885.997	569.20645
886.178	624.13307
886.358	501.61693
886.538	571.31885
886.719	482.61001
886.899	693.85964
887.08	577.65613
887.26	763.59846
887.44	586.10602
887.621	776.27947
887.801	607.23165
887.981	664.2771
888.161	626.24581
888.342	700.19905
888.522	588.21852
888.702	628.35855
888.882	683.29419
889.062	662.16415
889.242	641.03529
889.423	744.57764
889.603	548.0832
889.783	750.91783
889.963	588.21852
890.143	685.40726
890.323	662.16415
890.503	624.13307
890.683	554.42003
890.863	685.40726
891.043	488.94552
891.223	575.54369
891.403	581.88105
891.583	687.52034
891.763	668.50304
891.943	554.42003
892.122	624.13307
892.302	592.44357
892.482	617.79494
892.662	499.50499
892.842	491.05738
893.022	704.42538
893.201	653.71246
893.381	708.65175
893.561	505.84085
893.741	626.24581
893.92	564.98169
894.1	742.46427
894.28	662.16415
894.459	600.89382
894.639	691.74653
894.819	562.86933
894.998	611.45693
895.178	611.45693
895.357	533.29774
895.537	634.69687
895.716	480.4982
895.896	611.45693
896.075	603.00642
896.255	598.78124
896.434	499.50499
896.614	607.23165
896.793	488.94552
896.973	548.0832
897.152	472.05113
897.331	607.23165
897.511	448.82293
897.69	556.53234
897.87	446.71136
898.049	472.05113
898.228	406.59467
898.407	579.76858
898.587	461.49263
898.766	592.44357
898.945	396.03861
899.124	457.26933
899.304	463.6043
899.483	472.05113
899.662	408.70593
899.841	450.9345
900.02	446.71136
900.199	645.26097
900.378	482.61001
900.557	408.70593
900.737	381.26081
900.916	499.50499
901.095	423.48521
901.274	474.16288
901.453	406.59467
901.632	482.61001
901.811	339.04311
901.989	482.61001
902.168	448.82293
902.347	429.81942
902.526	381.26081
902.705	434.04231
902.884	353.81853
903.063	444.59982
903.242	362.262
903.42	370.70575
903.599	345.37533
903.778	355.92937
903.957	296.83241
904.135	396.03861
904.314	305.27397
904.493	412.9285
904.672	404.48342
904.85	387.59405
905.029	294.72206
905.207	345.37533
905.386	279.95016
905.565	339.04311
905.743	305.27397
905.922	275.72978
906.1	298.94277
906.279	269.39935
906.457	193.44776
906.636	305.27397
906.814	277.83996
906.993	309.49486
907.171	199.77609
907.35	298.94277
907.528	185.01029
907.707	269.39935
907.885	271.50948
908.063	187.11962
908.242	277.83996
908.42	267.28925
908.598	201.88557
908.777	214.54287
908.955	218.76214
909.133	212.43327
909.311	290.50142
909.49	212.43327
909.668	212.43327
909.846	212.43327
910.024	237.74979
910.202	227.2009
910.38	206.10459
910.559	252.51905
910.737	260.95905
910.915	231.42039
911.093	267.28925
911.271	216.6525
911.449	218.76214
911.627	288.39113
911.805	218.76214
911.983	298.94277
912.161	212.43327
912.339	374.92772
912.517	227.2009
912.695	252.51905
912.872	159.69982
913.05	313.71583
913.228	269.39935
913.406	292.61173
913.584	96.437
913.762	290.50142
913.939	216.6525
914.117	220.8718
914.295	172.35468
914.473	220.8718
914.65	203.99507
914.828	237.74979
915.006	220.8718
915.184	222.98148
915.361	286.28086
915.539	193.44776
915.716	220.8718
915.894	246.18925
916.072	248.29916
916.249	282.06037
916.427	235.63997
916.604	231.42039
916.782	216.6525
916.959	237.74979
917.137	218.76214
917.314	246.18925
917.492	197.66663
917.669	193.44776
917.847	174.4639
918.024	246.18925
918.201	235.63997
918.379	163.91802
918.556	189.22898
918.733	166.02716
918.911	168.13631
919.088	147.04571
919.265	180.79167
919.442	176.57313
919.62	218.76214
919.797	222.98148
919.974	210.32369
920.151	208.21413
920.328	119.63111
920.506	119.63111
920.683	121.73979
920.86	79.57023
921.037	170.24549
921.214	185.01029
921.391	123.8485
921.568	201.88557
921.745	134.39237
921.922	218.76214
922.099	147.04571
922.276	125.95723
922.453	178.68239
922.63	144.93677
922.807	132.28355
922.984	235.63997
923.161	180.79167
923.338	168.13631
923.514	144.93677
923.691	153.37267
923.868	140.71894
924.045	155.4817
924.222	185.01029
924.399	218.76214
924.575	109.088
924.752	189.22898
924.929	109.088
925.105	168.13631
925.282	102.7624
925.459	153.37267
925.635	144.93677
925.812	140.71894
925.989	170.24549
926.165	157.59075
926.342	159.69982
926.518	189.22898
926.695	155.4817
926.871	47.94895
927.048	71.13739
927.224	111.19658
927.401	121.73979
927.577	66.92111
927.754	130.17476
927.93	140.71894
928.107	161.80891
928.283	79.57023
928.459	58.48881
928.636	54.2728
928.812	-0.52684
928.988	75.35377
929.165	79.57023
929.341	98.54544
929.517	109.088
929.693	125.95723
929.87	172.35468
930.046	66.92111
930.222	94.32857
930.398	69.02924
930.574	111.19658
930.751	71.13739
930.927	130.17476
931.103	22.65567
931.279	-59.52357
931.455	60.59685
931.631	113.30518
931.807	88.00344
931.983	71.13739
932.159	113.30518
932.335	136.50121
932.511	142.82785
932.687	151.26366
932.863	98.54544
933.039	113.30518
933.215	144.93677
933.391	52.16483
933.566	75.35377
933.742	33.19413
933.918	111.19658
934.094	64.813
934.27	102.7624
934.445	33.19413
934.621	66.92111
934.797	12.11781
934.973	109.088
935.148	20.54805
935.324	-34.24164
935.5	100.65391
935.675	71.13739
935.851	88.00344
936.027	75.35377
936.202	37.40968
936.378	92.22017
936.553	-13.17063
936.729	66.92111
936.904	130.17476
937.08	1.58054
937.255	54.2728
937.431	54.2728
937.606	75.35377
937.782	10.01031
937.957	12.11781
938.133	73.24557
938.308	3.68794
938.483	50.05688
938.659	69.02924
938.834	28.97868
939.009	45.84105
939.185	54.2728
939.36	75.35377
939.535	-23.70644
939.71	85.8951
939.886	-34.24164
940.061	37.40968
940.236	22.65567
940.411	113.30518
940.586	-17.38502
940.761	94.32857
940.937	41.62532
941.112	16.33288
941.287	-34.24164
941.462	52.16483
941.637	52.16483
941.812	-0.52684
941.987	12.11781
942.162	66.92111
942.337	33.19413
942.512	-0.52684
942.687	50.05688
942.862	35.30189
943.037	62.70491
943.212	-32.13465
943.386	24.76332
943.561	24.76332
943.736	-23.70644
943.911	31.08639
944.086	-46.88306
944.26	-4.74153
944.435	35.30189
944.61	-17.38502
944.785	-51.09666
944.959	66.92111
945.134	75.35377
945.309	3.68794
945.483	-27.92059
945.658	35.30189
945.833	-8.95613
946.007	45.84105
946.182	-67.95008
946.357	-13.17063
946.531	20.54805
946.706	28.97868
946.88	20.54805
947.055	-13.17063
947.229	16.33288
947.404	-2.6342
947.578	-25.81353
947.752	-13.17063
947.927	62.70491
948.101	-51.09666
948.276	-11.06339
948.45	92.22017
948.624	43.73317
948.799	111.19658
948.973	-6.84884
949.147	77.46199
949.321	33.19413
949.496	7.90283
949.67	88.00344
949.844	-32.13465
950.018	69.02924
950.193	28.97868
950.367	37.40968
950.541	-17.38502
950.715	50.05688
950.889	47.94895
951.063	52.16483
951.237	10.01031
951.411	5.79537
951.585	-8.95613
951.759	-51.09666
951.933	24.76332
952.107	-27.92059
952.281	24.76332
952.455	-13.17063
952.629	-23.70644
952.803	14.22533
952.977	-15.27784
953.151	-13.17063
953.325	31.08639
953.499	60.59685
953.672	18.44046
953.846	88.00344
954.02	33.19413
954.194	60.59685
954.368	94.32857
954.541	-6.84884
954.715	58.48881
954.889	-15.27784
955.062	16.33288
955.236	81.6785
955.41	-15.27784
955.583	37.40968
955.757	12.11781
955.93	88.00344
956.104	28.97868
956.278	12.11781
956.451	33.19413
956.625	-46.88306
956.798	7.90283
956.972	18.44046
957.145	33.19413
957.319	-13.17063
957.492	71.13739
957.665	60.59685
957.839	-0.52684
958.012	33.19413
958.185	10.01031
958.359	41.62532
958.532	-32.13465
958.705	31.08639
958.879	-25.81353
959.052	-2.6342
959.225	31.08639
959.398	24.76332
959.572	33.19413
959.745	16.33288
959.918	3.68794
960.091	24.76332
960.264	69.02924
960.438	-38.45555
960.611	-25.81353
960.784	3.68794
960.957	5.79537
961.13	26.87099
961.303	75.35377
961.476	-6.84884
961.649	12.11781
961.822	31.08639
961.995	-38.45555
962.168	-8.95613
962.341	102.7624
962.514	62.70491
962.686	37.40968
962.859	52.16483
963.032	-8.95613
963.205	35.30189
963.378	35.30189
963.551	28.97868
963.723	83.78679
963.896	-21.59933
964.069	-6.84884
964.242	-8.95613
964.414	79.57023
964.587	75.35377
964.76	24.76332
964.932	1.58054
965.105	41.62532
965.278	-19.49219
965.45	56.38079
965.623	24.76332
965.795	22.65567
965.968	66.92111
966.14	37.40968
966.313	-55.31017
966.485	-8.95613
966.658	7.90283
966.83	69.02924
967.003	-13.17063
967.175	20.54805
967.348	26.87099
967.52	10.01031
967.692	28.97868
967.865	12.11781
968.037	117.52244
968.209	26.87099
968.382	-21.59933
968.554	-23.70644
968.726	24.76332
968.898	47.94895
969.071	10.01031
969.243	3.68794
969.415	37.40968
969.587	88.00344
969.759	-32.13465
969.932	-8.95613
970.104	-46.88306
970.276	20.54805
970.448	18.44046
970.62	-23.70644
970.792	-21.59933
970.964	-15.27784
971.136	16.33288
971.308	20.54805
971.48	39.51749
971.652	-17.38502
971.824	33.19413
971.996	24.76332
972.168	52.16483
972.339	20.54805
972.511	-42.66935
972.683	77.46199
972.855	50.05688
973.027	-38.45555
973.199	18.44046
973.37	16.33288
973.542	12.11781
973.714	33.19413
973.886	-21.59933
974.057	3.68794
974.229	54.2728
974.401	-8.95613
974.572	41.62532
974.744	-51.09666
974.915	58.48881
975.087	10.01031
975.259	47.94895
975.43	58.48881
975.602	24.76332
975.773	7.90283
975.945	-51.09666
976.116	56.38079
976.288	-15.27784
976.459	-51.09666
976.63	39.51749
976.802	45.84105
976.973	54.2728
977.145	1.58054
977.316	12.11781
977.487	10.01031
977.659	45.84105
977.83	20.54805
978.001	66.92111
978.172	-8.95613
978.344	26.87099
978.515	41.62532
978.686	-46.88306
978.857	20.54805
979.028	-34.24164
979.2	-23.70644
979.371	-8.95613
979.542	-6.84884
979.713	20.54805
979.884	69.02924
980.055	-21.59933
980.226	41.62532
980.397	50.05688
980.568	1.58054
980.739	-8.95613
980.91	43.73317
981.081	10.01031
981.252	-4.74153
981.423	16.33288
981.594	28.97868
981.765	43.73317
981.936	24.76332
982.106	20.54805
982.277	-23.70644
982.448	-21.59933
982.619	-110.07642
982.79	22.65567
982.96	-6.84884
983.131	64.813
983.302	66.92111
983.472	18.44046
983.643	37.40968
983.814	64.813
983.984	-23.70644
984.155	33.19413
984.326	35.30189
984.496	54.2728
984.667	-53.20343
984.837	16.33288
985.008	64.813
985.178	-51.09666
985.349	7.90283
985.519	-23.70644
985.69	1.58054
985.86	-8.95613
986.031	60.59685
986.201	-8.95613
986.371	35.30189
986.542	-17.38502
986.712	1.58054
986.882	37.40968
987.053	1.58054
987.223	20.54805
987.393	-32.13465
987.563	-32.13465
987.734	54.2728
987.904	-8.95613
988.074	43.73317
988.244	-67.95008
988.414	-40.56246
988.585	50.05688
988.755	-34.24164
988.925	-15.27784
989.095	-17.38502
989.265	16.33288
989.435	28.97868
989.605	52.16483
989.775	20.54805
989.945	73.24557
990.115	69.02924
990.285	-40.56246
990.455	12.11781
990.625	-8.95613
990.795	60.59685
990.965	16.33288
991.134	-53.20343
991.304	-8.95613
991.474	39.51749
991.644	-65.84349
991.814	41.62532
991.984	41.62532
992.153	18.44046
992.323	79.57023
992.493	-2.6342
992.662	10.01031
992.832	7.90283
993.002	60.59685
993.171	-48.98987
993.341	69.02924
993.511	-25.81353
993.68	-15.27784
993.85	1.58054
994.019	-51.09666
994.189	-55.31017
994.358	-21.59933
994.528	18.44046
994.697	50.05688
994.867	43.73317
995.036	-2.6342
995.206	104.87091
995.375	16.33288
995.544	22.65567
995.714	-42.66935
995.883	-0.52684
996.052	-4.74153
996.222	71.13739
996.391	54.2728
996.56	-25.81353
996.73	1.58054
996.899	58.48881
997.068	-0.52684
997.237	-17.38502
997.406	-38.45555
997.576	60.59685
997.745	-2.6342
997.914	14.22533
998.083	-6.84884
998.252	24.76332
998.421	41.62532
998.59	35.30189
998.759	16.33288
998.928	-42.66935
999.097	47.94895
999.266	7.90283
999.435	-25.81353
999.604	58.48881
999.773	102.7624
999.942	52.16483
1000.111	58.48881
1000.28	-32.13465
1000.448	7.90283
1000.617	-32.13465
1000.786	16.33288
1000.955	26.87099
1001.124	3.68794
1001.292	-25.81353
1001.461	69.02924
1001.63	-51.09666
1001.798	-76.37618
1001.967	-17.38502
1002.136	-30.02763
1002.304	-21.59933
1002.473	1.58054
1002.642	58.48881
1002.81	-46.88306
1002.979	-4.74153
1003.147	-27.92059
1003.316	1.58054
1003.484	-13.17063
1003.653	1.58054
1003.821	10.01031
1003.99	77.46199
1004.158	-67.95008
1004.327	7.90283
1004.495	-2.6342
1004.663	-13.17063
1004.832	10.01031
1005	-34.24164
1005.168	26.87099
1005.337	-57.41689
1005.505	41.62532
1005.673	28.97868
1005.842	50.05688
1006.01	-15.27784
1006.178	-15.27784
1006.346	-13.17063
1006.514	-38.45555
1006.683	-19.49219
1006.851	106.97945
1007.019	-15.27784
1007.187	24.76332
1007.355	-4.74153
1007.523	-59.52357
1007.691	-6.84884
1007.859	41.62532
1008.027	-25.81353
1008.195	41.62532
1008.363	-25.81353
1008.531	28.97868
1008.699	-13.17063
1008.867	-32.13465
1009.035	5.79537
1009.203	-25.81353
1009.37	75.35377
1009.538	-34.24164
1009.706	-17.38502
1009.874	33.19413
1010.042	60.59685
1010.209	-0.52684
1010.377	28.97868
1010.545	-2.6342
1010.713	-8.95613
1010.88	16.33288
1011.048	92.22017
1011.216	18.44046
1011.383	20.54805
1011.551	-76.37618
1011.718	3.68794
1011.886	-6.84884
1012.054	12.11781
1012.221	-21.59933
1012.389	-34.24164
1012.556	50.05688
1012.724	-89.01455
1012.891	-42.66935
1013.058	-2.6342
1013.226	3.68794
1013.393	35.30189
1013.561	-11.06339
1013.728	60.59685
1013.895	41.62532
1014.063	-17.38502
1014.23	-38.45555
1014.397	-8.95613
1014.565	-11.06339
1014.732	-6.84884
1014.899	-0.52684
1015.066	35.30189
1015.233	-4.74153
1015.401	10.01031
1015.568	-93.22713
1015.735	26.87099
1015.902	-4.74153
1016.069	-4.74153
1016.236	-4.74153
1016.403	12.11781
1016.57	-23.70644
1016.737	24.76332
1016.904	-13.17063
1017.071	33.19413
1017.238	-23.70644
1017.405	-21.59933
1017.572	-27.92059
1017.739	16.33288
1017.906	-48.98987
1018.073	1.58054
1018.24	-27.92059
1018.407	-53.20343
1018.573	-4.74153
1018.74	58.48881
1018.907	35.30189
1019.074	-21.59933
1019.241	-0.52684
1019.407	-40.56246
1019.574	-25.81353
1019.741	50.05688
1019.907	-34.24164
1020.074	24.76332
1020.241	54.2728
1020.407	33.19413
1020.574	28.97868
1020.74	10.01031
1020.907	-34.24164
1021.073	16.33288
1021.24	28.97868
1021.406	35.30189
1021.573	-13.17063
1021.739	-6.84884
1021.906	20.54805
1022.072	16.33288
1022.239	-8.95613
1022.405	-6.84884
1022.571	12.11781
1022.738	-67.95008
1022.904	-30.02763
1023.07	66.92111
1023.237	-55.31017
1023.403	-4.74153
1023.569	3.68794
1023.735	-38.45555
1023.902	60.59685
1024.068	50.05688
1024.234	7.90283
1024.4	10.01031
1024.566	-30.02763
1024.732	-6.84884
1024.898	47.94895
1025.065	-38.45555
1025.231	10.01031
1025.397	1.58054
1025.563	83.78679
1025.729	-15.27784
1025.895	7.90283
1026.061	-46.88306
1026.227	-4.74153
1026.392	-89.01455
1026.558	43.73317
1026.724	-23.70644
1026.89	7.90283
1027.056	-19.49219
1027.222	-8.95613
1027.388	1.58054
1027.553	-40.56246
1027.719	-25.81353
1027.885	64.813
1028.051	26.87099
1028.216	28.97868
1028.382	24.76332
1028.548	-59.52357
1028.713	-89.01455
1028.879	33.19413
1029.045	-42.66935
1029.21	-34.24164
1029.376	-42.66935
1029.541	-59.52357
1029.707	-2.6342
1029.873	-23.70644
1030.038	33.19413
1030.204	-65.84349
1030.369	-32.13465
1030.534	26.87099
1030.7	7.90283
1030.865	24.76332
1031.031	12.11781
1031.196	-55.31017
1031.361	-48.98987
1031.527	66.92111
1031.692	-6.84884
1031.857	16.33288
1032.023	18.44046
1032.188	-17.38502
1032.353	16.33288
1032.518	37.40968
1032.684	-23.70644
1032.849	14.22533
1033.014	-42.66935
1033.179	-25.81353
1033.344	24.76332
1033.509	-15.27784
1033.674	26.87099
1033.839	-15.27784
1034.004	-27.92059
1034.17	-32.13465
1034.335	43.73317
1034.5	-42.66935
1034.664	64.813
1034.829	-8.95613
1034.994	-13.17063
1035.159	-46.88306
1035.324	37.40968
1035.489	-34.24164
1035.654	-63.73688
1035.819	47.94895
1035.984	-25.81353
1036.148	-25.81353
1036.313	12.11781
1036.478	35.30189
1036.643	-25.81353
1036.807	-40.56246
1036.972	-46.88306
1037.137	-13.17063
1037.301	-0.52684
1037.466	-8.95613
1037.631	104.87091
1037.795	-0.52684
1037.96	31.08639
1038.124	-25.81353
1038.289	41.62532
1038.454	18.44046
1038.618	24.76332
1038.783	-59.52357
1038.947	-32.13465
1039.111	-8.95613
1039.276	-34.24164
1039.44	5.79537
1039.605	83.78679
1039.769	-34.24164
1039.933	-0.52684
1040.098	-51.09666
1040.262	18.44046
1040.426	-61.63024
1040.591	-30.02763
1040.755	-0.52684
1040.919	-8.95613
1041.083	5.79537
1041.248	24.76332
1041.412	5.79537
1041.576	58.48881
1041.74	-38.45555
1041.904	7.90283
1042.068	-6.84884
1042.232	35.30189
1042.397	28.97868
1042.561	45.84105
1042.725	-42.66935
1042.889	-51.09666
1043.053	83.78679
1043.217	33.19413
1043.381	28.97868
1043.544	3.68794
1043.708	-78.48264
1043.872	-42.66935
1044.036	-4.74153
1044.2	-84.80186
1044.364	-61.63024
1044.528	3.68794
1044.691	-2.6342
1044.855	77.46199
1045.019	-0.52684
1045.183	-34.24164
1045.346	-38.45555
1045.51	28.97868
1045.674	-21.59933
1045.837	43.73317
1046.001	16.33288
1046.165	-42.66935
1046.328	-30.02763
1046.492	-72.16318
1046.655	-32.13465
1046.819	18.44046
1046.983	28.97868
1047.146	-25.81353
1047.31	-8.95613
1047.473	-38.45555
1047.636	-34.24164
1047.8	-36.3486
1047.963	7.90283
1048.127	-4.74153
1048.29	-118.50043
