Data from absorb_only_2.23.25_USB4F045381__36__0141.txt Node

Date: Sun Feb 23 19:18:36 EST 2025
User: ssocol
Spectrometer: USB4F04538
Trigger mode: 4
Integration Time (sec): 2.600000E-3
Scans to average: 1
Electric dark correction enabled: true
Nonlinearity correction enabled: true
Boxcar width: 0
XAxis mode: Wavelengths
Number of Pixels in Spectrum: 3648
>>>>>Begin Spectral Data<<<<<
345.52	-2.10736
345.736	-2.10736
345.952	-2.10736
346.168	-6.32202
346.384	-21.07254
346.6	37.93663
346.816	25.29023
347.032	-14.75104
347.248	10.53718
347.464	-23.17966
347.68	-16.85823
347.896	-10.53658
348.112	10.53718
348.328	-23.17966
348.544	18.96735
348.76	-10.53658
348.975	-4.2147
349.191	-6.32202
349.407	10.53718
349.623	14.75222
349.839	-63.21022
350.055	2.10739
350.27	0
350.486	14.75222
350.702	2.10739
350.918	46.36803
351.133	27.39791
351.349	56.90779
351.565	46.36803
351.781	42.15228
351.996	-40.03573
352.212	18.96735
352.428	21.07496
352.644	18.96735
352.859	94.85568
353.075	35.82884
353.291	46.36803
353.506	40.04444
353.722	56.90779
353.938	-18.9654
354.153	77.98905
354.369	37.93663
354.584	18.96735
354.8	61.12386
355.016	-21.07254
355.231	-40.03573
355.447	-37.92881
355.662	-80.06246
355.878	29.5056
356.093	2.10739
356.309	10.53718
356.524	-82.16888
356.74	27.39791
356.955	6.32224
357.171	29.5056
357.386	42.15228
357.602	40.04444
357.817	-6.32202
358.033	2.10739
358.248	4.2148
358.464	31.61332
358.679	18.96735
358.895	-65.31684
359.11	-12.64382
359.325	52.69182
359.541	27.39791
359.756	31.61332
359.972	69.55627
360.187	69.55627
360.402	61.12386
360.618	2.10739
360.833	52.69182
361.048	4.2148
361.264	67.44814
361.479	-27.39383
361.694	18.96735
361.909	33.72107
362.125	-29.50088
362.34	48.47593
362.555	-44.2495
362.77	18.96735
362.986	61.12386
363.201	-4.2147
363.416	18.96735
363.631	31.61332
363.847	14.75222
364.062	6.32224
364.277	14.75222
364.492	-18.9654
364.707	14.75222
364.922	-14.75104
365.138	-6.32202
365.353	73.77262
365.568	46.36803
365.783	50.58386
365.998	-63.21022
366.213	65.34002
366.428	-14.75104
366.643	35.82884
366.858	-8.42931
367.073	-2.10736
367.288	-90.59428
367.503	-21.07254
367.718	-12.64382
367.933	56.90779
368.148	27.39791
368.363	8.4297
368.578	-37.92881
368.793	2.10739
369.008	21.07496
369.223	141.24617
369.438	-40.03573
369.653	-6.32202
369.868	29.5056
370.083	-48.46317
370.298	82.20557
370.513	-29.50088
370.728	-14.75104
370.943	27.39791
371.157	-6.32202
371.372	-37.92881
371.587	71.66443
371.802	-2.10736
372.017	-18.9654
372.232	-14.75104
372.446	40.04444
372.661	37.93663
372.876	65.34002
373.091	37.93663
373.306	-23.17966
373.52	61.12386
373.735	40.04444
373.95	71.66443
374.165	61.12386
374.379	2.10739
374.594	33.72107
374.809	-48.46317
375.023	8.4297
375.238	21.07496
375.453	40.04444
375.667	46.36803
375.882	2.10739
376.097	40.04444
376.311	-12.64382
376.526	44.26014
376.741	40.04444
376.955	40.04444
377.17	25.29023
377.384	-54.78349
377.599	52.69182
377.813	-2.10736
378.028	84.31387
378.242	44.26014
378.457	6.32224
378.672	8.4297
378.886	73.77262
379.101	-6.32202
379.315	-29.50088
379.53	-31.6079
379.744	-56.89021
379.958	46.36803
380.173	31.61332
380.387	-12.64382
380.602	56.90779
380.816	46.36803
381.031	-2.10736
381.245	27.39791
381.459	-48.46317
381.674	-18.9654
381.888	23.18258
382.103	99.07256
382.317	54.79979
382.531	2.10739
382.746	56.90779
382.96	44.26014
383.174	59.01582
383.388	27.39791
383.603	-4.2147
383.817	52.69182
384.031	63.23193
384.246	10.53718
384.46	14.75222
384.674	71.66443
384.888	10.53718
385.103	35.82884
385.317	0
385.531	37.93663
385.745	-12.64382
385.959	-48.46317
386.174	-10.53658
386.388	31.61332
386.602	-12.64382
386.816	-18.9654
387.03	-6.32202
387.244	27.39791
387.458	-42.14263
387.672	54.79979
387.887	35.82884
388.101	-56.89021
388.315	27.39791
388.529	-40.03573
388.743	-2.10736
388.957	86.42218
389.171	86.42218
389.385	-27.39383
389.599	18.96735
389.813	61.12386
390.027	-31.6079
390.241	33.72107
390.455	-2.10736
390.669	40.04444
390.883	61.12386
391.097	-63.21022
391.311	63.23193
391.525	-29.50088
391.738	-2.10736
391.952	63.23193
392.166	61.12386
392.38	18.96735
392.594	61.12386
392.808	-56.89021
393.022	37.93663
393.236	120.15828
393.449	-18.9654
393.663	40.04444
393.877	40.04444
394.091	54.79979
394.305	-48.46317
394.518	-23.17966
394.732	56.90779
394.946	71.66443
395.16	-37.92881
395.373	18.96735
395.587	35.82884
395.801	27.39791
396.015	31.61332
396.228	124.37568
396.442	-29.50088
396.656	2.10739
396.869	33.72107
397.083	31.61332
397.297	-29.50088
397.51	27.39791
397.724	65.34002
397.938	16.85977
398.151	10.53718
398.365	8.4297
398.578	21.07496
398.792	61.12386
399.005	90.63889
399.219	54.79979
399.433	44.26014
399.646	-14.75104
399.86	46.36803
400.073	-23.17966
400.287	-4.2147
400.5	37.93663
400.714	77.98905
400.927	6.32224
401.141	21.07496
401.354	65.34002
401.567	2.10739
401.781	84.31387
401.994	31.61332
402.208	46.36803
402.421	-21.07254
402.635	-44.2495
402.848	21.07496
403.061	69.55627
403.275	-18.9654
403.488	2.10739
403.701	88.53052
403.915	54.79979
404.128	71.66443
404.341	4.2148
404.555	-2.10736
404.768	50.58386
404.981	44.26014
405.195	-31.6079
405.408	8.4297
405.621	48.47593
405.834	44.26014
406.048	18.96735
406.261	77.98905
406.474	46.36803
406.687	29.5056
406.9	2.10739
407.114	14.75222
407.327	-31.6079
407.54	18.96735
407.753	77.98905
407.966	12.64469
408.179	-27.39383
408.392	-58.9969
408.605	8.4297
408.819	2.10739
409.032	94.85568
409.245	-6.32202
409.458	84.31387
409.671	6.32224
409.884	71.66443
410.097	35.82884
410.31	35.82884
410.523	35.82884
410.736	-25.28676
410.949	14.75222
411.162	90.63889
411.375	27.39791
411.588	61.12386
411.801	35.82884
412.014	29.5056
412.227	-31.6079
412.44	56.90779
412.653	-6.32202
412.865	14.75222
413.078	52.69182
413.291	18.96735
413.504	10.53718
413.717	-63.21022
413.93	63.23193
414.143	-10.53658
414.356	61.12386
414.568	35.82884
414.781	2.10739
414.994	-14.75104
415.207	21.07496
415.42	6.32224
415.632	21.07496
415.845	31.61332
416.058	-14.75104
416.271	88.53052
416.483	105.39804
416.696	88.53052
416.909	80.0973
417.121	6.32224
417.334	18.96735
417.547	14.75222
417.759	6.32224
417.972	10.53718
418.185	56.90779
418.397	44.26014
418.61	6.32224
418.823	18.96735
419.035	21.07496
419.248	2.10739
419.46	56.90779
419.673	35.82884
419.885	63.23193
420.098	71.66443
420.311	46.36803
420.523	54.79979
420.736	10.53718
420.948	6.32224
421.161	48.47593
421.373	-12.64382
421.586	27.39791
421.798	61.12386
422.01	115.94096
422.223	37.93663
422.435	59.01582
422.648	52.69182
422.86	63.23193
423.073	50.58386
423.285	14.75222
423.497	2.10739
423.71	75.88082
423.922	92.74727
424.134	0
424.347	2.10739
424.559	31.61332
424.771	56.90779
424.984	-31.6079
425.196	99.07256
425.408	-18.9654
425.621	94.85568
425.833	4.2148
426.045	94.85568
426.257	73.77262
426.47	-6.32202
426.682	69.55627
426.894	12.64469
427.106	50.58386
427.318	86.42218
427.531	12.64469
427.743	-16.85823
427.955	-56.89021
428.167	109.61514
428.379	82.20557
428.591	61.12386
428.804	-61.10358
429.016	8.4297
429.228	44.26014
429.44	2.10739
429.652	-6.32202
429.864	-10.53658
430.076	2.10739
430.288	73.77262
430.5	44.26014
430.712	77.98905
430.924	-18.9654
431.136	37.93663
431.348	23.18258
431.56	25.29023
431.772	122.26697
431.984	-6.32202
432.196	-31.6079
432.408	103.28953
432.62	35.82884
432.832	27.39791
433.044	107.50658
433.256	77.98905
433.468	25.29023
433.679	46.36803
433.891	40.04444
434.103	44.26014
434.315	52.69182
434.527	103.28953
434.739	65.34002
434.95	18.96735
435.162	-14.75104
435.374	63.23193
435.586	94.85568
435.798	50.58386
436.009	118.04961
436.221	29.5056
436.433	56.90779
436.645	52.69182
436.856	90.63889
437.068	71.66443
437.28	63.23193
437.491	27.39791
437.703	40.04444
437.915	44.26014
438.126	2.10739
438.338	63.23193
438.55	46.36803
438.761	99.07256
438.973	35.82884
439.184	96.96411
439.396	42.15228
439.608	44.26014
439.819	90.63889
440.031	94.85568
440.242	65.34002
440.454	103.28953
440.665	63.23193
440.877	63.23193
441.088	77.98905
441.3	94.85568
441.511	82.20557
441.723	48.47593
441.934	71.66443
442.146	137.02842
442.357	10.53718
442.569	52.69182
442.78	63.23193
442.991	103.28953
443.203	25.29023
443.414	8.4297
443.626	-29.50088
443.837	27.39791
444.048	73.77262
444.26	90.63889
444.471	71.66443
444.682	46.36803
444.894	77.98905
445.105	25.29023
445.316	40.04444
445.528	56.90779
445.739	69.55627
445.95	52.69182
446.161	-18.9654
446.373	130.70195
446.584	120.15828
446.795	18.96735
447.006	147.57295
447.217	73.77262
447.429	67.44814
447.64	54.79979
447.851	92.74727
448.062	33.72107
448.273	56.90779
448.484	88.53052
448.695	61.12386
448.907	73.77262
449.118	40.04444
449.329	4.2148
449.54	-18.9654
449.751	111.72373
449.962	101.18103
450.173	31.61332
450.384	94.85568
450.595	63.23193
450.806	90.63889
451.017	103.28953
451.228	54.79979
451.439	86.42218
451.65	103.28953
451.861	48.47593
452.072	-2.10736
452.283	52.69182
452.494	103.28953
452.705	94.85568
452.915	107.50658
453.126	156.00896
453.337	183.42829
453.548	137.02842
453.759	120.15828
453.97	52.69182
454.181	120.15828
454.391	73.77262
454.602	151.79091
454.813	86.42218
455.024	111.72373
455.235	118.04961
455.445	27.39791
455.656	90.63889
455.867	122.26697
456.078	128.59318
456.288	73.77262
456.499	156.00896
456.71	128.59318
456.921	75.88082
457.131	105.39804
457.342	99.07256
457.553	118.04961
457.763	111.72373
457.974	145.464
458.184	153.89993
458.395	109.61514
458.606	170.77278
458.816	166.55444
459.027	164.4453
459.237	141.24617
459.448	132.81075
459.659	139.13728
459.869	166.55444
460.08	103.28953
460.29	170.77278
460.501	212.96067
460.711	130.70195
460.922	162.33619
461.132	162.33619
461.343	191.86571
461.553	223.5089
461.764	179.20971
461.974	170.77278
462.184	145.464
462.395	187.64696
462.605	215.07028
462.816	255.15652
463.026	246.71673
463.236	208.74152
463.447	158.11802
463.657	179.20971
463.867	141.24617
464.078	240.38709
464.288	158.11802
464.498	272.03701
464.709	149.68192
464.919	139.13728
465.129	204.52245
465.339	137.02842
465.55	196.08454
465.76	223.5089
465.97	196.08454
466.18	238.27725
466.391	341.68151
466.601	263.59661
466.811	143.35507
467.021	299.47036
467.231	250.93658
467.441	153.89993
467.651	238.27725
467.862	307.91202
468.072	293.13931
468.282	375.45547
468.492	299.47036
468.702	415.56764
468.912	402.9
469.122	377.56649
469.332	457.79724
469.542	358.56795
469.752	356.45708
469.962	386.01073
470.172	409.23374
470.382	339.57079
470.592	472.57906
470.802	396.5664
471.012	464.13222
471.222	485.24979
471.432	478.91436
471.642	417.67897
471.852	554.94811
472.062	576.0718
472.272	561.28507
472.482	605.64718
472.691	601.42197
472.901	571.84695
473.111	597.19681
473.321	664.80534
473.531	643.67633
473.741	645.78918
473.95	681.7094
474.16	711.29325
474.37	804.2846
474.58	812.73931
474.79	850.78731
474.999	909.9786
475.209	797.94367
475.419	774.69432
475.628	918.43502
475.838	855.01504
476.048	1032.60768
476.258	1024.14979
476.467	1172.17484
476.677	1077.01306
476.886	1085.4715
477.096	1189.09338
477.306	1176.40445
477.515	1260.99955
477.725	1119.30605
477.935	1165.83045
478.144	1206.01215
478.354	1189.09338
478.563	1379.43922
478.773	1322.33369
478.982	1464.04112
479.192	1519.03235
479.401	1476.73143
479.611	1567.67796
479.82	1569.79297
480.03	1574.02299
480.239	1751.67558
480.449	1618.43776
480.658	1637.4724
480.868	1796.08524
481.077	1969.47454
481.287	1933.53095
481.496	1793.97054
481.705	1878.55522
481.915	2041.35629
482.124	1920.84457
482.333	1946.21712
482.543	1946.21712
482.752	2225.25063
482.961	2275.96902
483.171	2121.68522
483.38	2166.07282
483.589	2337.2466
483.799	2432.31598
484.008	2440.76557
484.217	2457.66422
484.426	2592.82755
484.636	2354.14933
484.845	2609.71958
485.054	2542.14685
485.263	2565.37635
485.472	2556.92942
485.682	2744.82695
485.891	2749.0482
486.1	2827.13157
486.309	2863.00136
486.518	2860.89149
486.727	2844.01198
486.936	2983.24032
487.146	2955.8216
487.355	3025.41797
487.564	3021.20048
487.773	2993.7853
487.982	2892.53812
488.191	3339.44084
488.4	3213.03254
488.609	3263.60317
488.818	3238.31906
489.027	3303.63137
489.236	3299.41816
489.445	3522.62147
489.654	3385.77507
489.863	3638.35426
490.072	3543.66797
490.281	3592.06791
490.49	3516.30717
490.698	3644.66532
490.907	3663.59751
491.116	3863.34181
491.325	3766.64549
491.534	3812.89676
491.743	3650.97622
491.952	3825.50909
492.16	3911.67422
492.369	4065.00607
492.578	3953.69375
492.787	4193.04815
492.996	4190.94973
493.204	4148.97689
493.413	4006.20674
493.622	4172.063
493.831	3907.47182
494.039	4356.65914
494.248	4180.45731
494.457	4249.69746
494.665	4264.38178
494.874	4551.56122
495.083	4570.41259
495.291	4599.73336
495.5	4509.66285
495.709	4526.42326
495.917	4306.3312
496.126	4691.85583
496.335	4685.57613
496.543	4735.80802
496.752	4654.17461
496.96	4796.48751
497.169	4815.31519
497.377	4783.9347
497.586	4859.23928
497.794	4942.87631
498.003	4875.96962
498.211	5193.56602
498.42	5026.47657
498.628	5051.54945
498.837	4919.87978
499.045	5078.70797
499.254	5135.10162
499.462	5189.3906
499.671	5206.09173
499.879	5356.33465
500.087	5059.90633
500.296	5168.51209
500.504	5356.33465
500.713	5325.04405
500.921	5427.24047
501.129	5339.64699
501.338	5416.81485
501.546	5793.84729
501.754	5320.87157
501.962	5431.41056
502.171	5364.67792
502.379	5639.79477
502.587	5552.3021
502.795	5660.62023
503.004	5347.99101
503.212	5556.46936
503.42	5781.36136
503.628	5733.49076
503.837	5691.854
504.045	5852.10373
504.253	5721.00072
504.461	5972.71894
504.669	5721.00072
504.877	6151.41629
505.085	5954.00798
505.294	6101.56476
505.502	5793.84729
505.71	6253.15449
505.918	5906.18243
506.126	6126.49222
506.334	6047.54366
506.542	6093.25486
506.75	5978.9555
506.958	6321.64036
507.166	6226.16821
507.374	6209.5593
507.582	6114.02891
507.79	6578.75433
507.998	6159.72356
508.206	6464.75594
508.414	6128.56935
508.622	6234.4721
508.83	6076.63392
509.037	6653.33359
509.245	6128.56935
509.453	6688.5412
509.661	6462.6826
509.869	6452.31551
510.077	6338.23916
510.285	6533.16339
510.492	6595.33009
510.7	6597.40195
510.908	6508.29088
511.116	6640.90579
511.324	6441.94784
511.531	6756.86644
511.739	6435.72697
511.947	6649.19108
512.155	6601.54561
512.362	6849.99709
512.57	6582.89841
512.778	6835.51313
512.985	6866.54882
513.193	6872.75534
513.401	6905.85336
513.608	6872.75534
513.816	6810.68089
514.024	6715.46018
514.231	6707.17783
514.439	7261.29359
514.646	7025.78514
514.854	6816.88926
515.061	6686.47034
515.269	7093.98842
515.477	7025.78514
515.684	7360.36905
515.892	7339.73249
516.099	7248.9056
516.307	7129.11394
516.514	7500.63995
516.722	7096.0548
516.929	7345.92369
517.136	7164.23302
517.344	7418.13981
517.551	7319.09375
517.759	7409.88789
517.966	7236.51681
518.173	7129.11394
518.381	7358.30549
518.588	7467.64405
518.796	7492.39149
519.003	7562.49242
519.21	7535.69206
519.418	7653.17456
519.625	7203.47616
519.832	7955.84
520.039	7566.61523
520.247	7776.76595
520.454	7663.47674
520.661	8091.5857
520.868	7793.23909
521.076	7927.03404
521.283	7807.65199
521.49	7828.24007
521.697	7970.24147
521.904	7939.37994
522.112	7863.23505
522.319	8077.19262
522.526	8071.02385
522.733	8112.14555
522.94	7955.84
523.147	8200.53006
523.354	7859.11831
523.561	8412.09342
523.768	8305.31067
523.975	7957.89741
524.183	7980.52763
524.39	8216.96963
524.597	8159.42557
524.804	8284.76949
525.011	8194.36489
525.218	8142.98155
525.425	8444.93913
525.632	8434.67537
525.838	8373.08273
526.045	8432.62256
526.252	8225.18894
526.459	8442.88642
526.666	8342.27987
526.873	8520.87607
527.08	8424.41114
527.287	8658.31765
527.494	8453.14979
527.701	8783.37849
527.907	8580.37605
528.114	8574.22162
528.321	8816.17007
528.528	8885.83681
528.735	8928.85592
528.941	8945.24209
529.148	8475.72752
529.355	9051.72469
529.562	8670.62176
529.768	8922.71082
529.975	8916.56555
530.182	9233.86513
530.388	8881.73934
530.595	9047.63008
530.802	8930.90426
531.008	9082.43205
531.215	8947.29028
531.422	9127.46247
531.628	9227.72776
531.835	9131.55574
532.042	9053.77197
532.248	9186.80808
532.455	9166.3457
532.661	9362.71516
532.868	9368.84924
533.074	9327.95259
533.281	9252.27633
533.487	9145.88161
533.694	9354.53616
533.9	9859.112
534.107	9419.96082
534.313	9683.53748
534.52	9372.93854
534.726	9791.75358
534.933	9569.14891
535.139	9597.75064
535.345	9626.34931
535.552	9875.43887
535.758	9638.60494
535.965	9685.57969
536.171	9701.91682
536.377	9787.67073
536.584	9832.57881
536.79	9661.07215
536.996	9922.37337
537.203	10008.05993
537.409	9895.84613
537.615	9955.01889
537.821	9789.71217
538.028	10122.26939
538.234	9904.00862
538.44	9795.83638
538.646	9908.08978
538.853	10248.6645
539.059	9901.96802
539.265	10042.73536
539.471	9830.53769
539.677	10173.24154
539.883	9865.23469
540.09	10156.93139
540.296	10018.25902
540.502	10387.2315
540.708	10350.55799
540.914	10641.79365
541.12	10537.9562
541.326	10601.07694
541.532	10476.86007
541.738	10676.399
541.944	10379.0822
542.15	10576.64453
542.356	10601.07694
542.562	10723.21241
542.768	10499.26331
542.974	10694.71805
543.18	10480.9335
543.386	10749.66935
543.592	10570.53614
543.798	10711.00083
544.004	10493.15349
544.21	10869.71804
544.415	10558.31904
544.621	10997.86134
544.827	10729.31804
545.033	11069.0329
545.239	10745.59918
545.445	10995.82767
545.651	11050.73292
545.856	11296.69367
546.062	11247.92025
546.268	11056.83301
546.474	10694.71805
546.679	10753.73947
546.885	10790.3684
547.091	10853.44263
547.297	10765.94954
547.502	10908.36917
547.708	10928.71022
547.914	11062.933
548.119	11022.26454
548.325	11077.16593
548.531	11107.66328
548.736	11105.6302
548.942	10857.51155
549.147	11144.25691
549.353	11239.79077
549.559	11150.35551
549.764	11188.97777
549.97	11195.07568
550.175	10784.26384
550.381	11430.79071
550.586	11237.75838
550.792	11782.09123
550.997	11440.94782
551.203	11481.57388
551.408	11363.7476
551.614	11587.18385
551.819	11416.57033
552.025	11737.43217
552.23	11733.37205
552.435	11808.47871
552.641	11808.47871
552.846	11690.73863
553.052	11420.63335
553.257	11727.2818
553.462	11319.0462
553.668	11642.0099
553.873	11662.31417
554.078	11920.10226
554.283	12135.1623
554.489	12110.82026
554.694	12027.64332
554.899	11776.00161
555.105	11678.55693
555.31	12058.07542
555.515	11934.30709
555.72	12035.75871
555.925	11978.94827
556.131	11891.69138
556.336	11859.21983
556.541	12291.33167
556.746	12072.27646
556.951	11909.9557
557.156	11944.45316
557.361	12291.33167
557.567	12242.66013
557.772	12273.08032
557.977	12153.41811
558.182	12169.645
558.387	12234.5478
558.592	12222.37909
558.797	12100.67743
559.002	12262.94044
559.207	12335.94368
559.412	12384.6075
559.617	12100.67743
559.822	12214.26648
560.027	12321.74932
560.232	12358.24842
560.437	12303.49892
560.642	12534.63004
560.847	12400.8279
561.051	12567.06269
561.256	12325.80488
561.461	12617.73552
561.666	12445.43179
561.871	12712.99017
562.076	12388.66264
562.281	12510.30448
562.485	12439.34963
562.69	12457.59593
562.895	12315.66591
563.1	12538.68421
563.305	12544.76541
563.509	12777.83699
563.714	12631.92322
563.919	12668.40452
564.123	12408.93794
564.328	12854.83509
564.533	12500.16856
564.737	12650.16411
564.942	12465.70522
565.147	12514.35881
565.351	12615.70868
565.556	12952.08468
565.761	12761.62583
565.965	12824.44206
566.17	12897.38329
566.374	12603.54751
566.579	12652.19085
566.784	12923.72147
566.988	13106.03911
567.193	12727.17591
567.397	13268.06688
567.602	13340.97022
567.806	12976.39519
568.011	13243.76453
568.215	12952.08468
568.42	13249.84018
568.624	13460.43928
568.828	13494.86007
569.033	12777.83699
569.237	13022.9883
569.442	13087.80914
569.646	12885.2269
569.85	13132.37061
570.055	13150.59965
570.259	13211.36043
570.463	13089.83471
570.668	13183.00591
570.872	13043.24535
571.076	13363.24516
571.281	13314.64464
571.485	13397.66912
571.689	13338.9452
571.893	13699.33878
572.098	13517.13177
572.302	13164.77753
572.506	13519.15645
572.71	13219.46156
572.914	13176.92982
573.119	13255.91578
573.323	13268.06688
573.527	13217.43629
573.731	13545.47693
573.935	13798.52925
574.139	13758.04423
574.343	13519.15645
574.547	13711.48495
574.751	13626.45929
574.955	13670.99726
575.159	13389.56947
575.364	13926.04953
575.568	13658.8507
575.772	13810.67453
575.976	13656.82626
576.18	13557.62464
576.383	13642.6551
576.587	13571.79681
576.791	13810.67453
576.995	14000.93743
577.199	13656.82626
577.403	13695.29003
577.607	13733.75264
577.811	13922.00144
578.015	13942.24181
578.219	14047.48765
578.422	13954.3859
578.626	14126.41782
578.83	13776.26264
579.034	13853.18216
579.238	14077.84581
579.442	13966.52991
579.645	13932.12165
579.849	14274.15024
580.053	14035.34424
580.257	13881.51989
580.46	13990.81764
580.664	14262.00825
580.868	13774.23838
581.071	14098.0843
581.275	14243.79512
581.479	14191.17855
581.682	14183.08358
581.886	14051.53543
582.09	14304.50495
582.293	14379.37824
582.497	14529.11847
582.7	14664.68802
582.904	14531.14194
583.107	14298.43404
583.311	14409.73164
583.515	14401.63743
583.718	14209.39213
583.922	14660.64124
584.125	14575.65785
584.329	14427.94351
584.532	14027.24858
584.735	14466.39041
584.939	14225.58184
585.142	14664.68802
585.346	14468.41391
585.549	14599.93902
585.753	14660.64124
585.956	14577.68129
586.159	14506.86027
586.363	14486.62541
586.566	14741.57617
586.769	14601.96244
586.973	14589.82188
587.176	14695.03876
587.379	14739.55281
587.582	14486.62541
587.786	14632.31366
587.989	15049.11903
588.192	14812.39313
588.395	14982.35076
588.599	14862.97616
588.802	15053.16559
589.005	14765.85637
589.208	14978.30419
589.411	15020.79314
589.615	14879.16264
589.818	14905.46561
590.021	14786.0898
590.224	14741.57617
590.427	15028.88626
590.63	14587.79845
590.833	15221.09716
591.036	14862.97616
591.239	15166.46884
591.442	14672.78158
591.645	15043.0492
591.848	15030.90954
592.051	15291.91177
592.254	15010.67673
592.457	15360.70338
592.66	15215.02734
592.863	15421.4022
593.066	15291.91177
593.269	15184.67827
593.472	15245.37643
593.675	15872.61612
593.878	15391.05274
594.081	15170.51538
594.284	15184.67827
594.486	15544.82452
594.689	15421.4022
594.892	15431.5187
595.095	15342.4938
595.298	15569.10459
595.5	15591.36142
595.703	15927.25078
595.906	15518.52122
596.109	15728.95127
596.311	15447.70514
596.514	15308.098
596.717	15334.40066
596.92	15666.22598
597.122	15785.60718
597.325	15971.7686
597.528	15759.30255
597.73	15882.73358
597.933	15834.17005
598.136	16097.23157
598.338	15728.95127
598.541	15959.62731
598.743	15935.34488
598.946	15730.97468
599.148	15648.01558
599.351	15817.98235
599.554	16081.04248
599.756	16004.14561
599.959	16093.18429
600.161	15852.38129
600.363	16095.20793
600.566	15773.46656
600.768	15700.62361
600.971	16036.52298
601.173	15854.40477
601.376	15917.13318
601.578	15631.82861
601.78	15967.7215
601.983	15937.36841
602.185	16651.77739
602.388	16141.75208
602.59	16076.99522
602.792	15957.60377
602.995	16103.3025
603.197	15797.74783
603.399	16253.05684
603.601	16129.61005
603.804	16172.10742
604.006	16238.8905
604.208	16149.8468
604.41	15971.7686
604.613	16076.99522
604.815	16091.16065
605.017	15985.9335
605.219	15722.88104
605.421	15923.20374
605.623	16000.09846
605.826	16435.20367
606.028	16291.5088
606.23	16228.77173
606.432	16313.77076
606.634	16564.74011
606.836	16089.13701
607.038	16216.62926
607.24	16178.17853
607.442	16346.15219
607.644	16305.67548
607.846	16364.36696
608.048	16334.0091
608.25	16546.52353
608.452	16445.3234
608.654	16495.92281
608.856	16103.3025
609.058	16536.40328
609.26	16212.58179
609.462	16297.58022
609.664	16176.15483
609.866	16081.04248
610.067	15975.81571
610.269	15975.81571
610.471	16131.63372
610.673	16477.70687
610.875	16696.30971
611.077	16469.61095
611.278	16269.24706
611.48	16153.89417
611.682	16125.56271
611.884	16566.76419
612.085	16536.40328
612.287	16544.49947
612.489	16255.08061
612.69	16453.41922
612.892	16240.91425
613.094	16599.14971
613.295	16095.20793
613.497	16323.88991
613.699	16133.65739
613.9	16368.41471
614.102	16516.16294
614.304	16097.23157
614.505	16141.75208
614.707	16471.63493
614.908	16101.27886
615.11	16506.04285
615.311	16396.74916
615.513	16228.77173
615.714	16354.24763
615.916	16542.47542
616.117	16376.51023
616.319	16696.30971
616.52	16692.26127
616.722	16744.89172
616.923	16676.06761
617.124	16550.57164
617.326	16542.47542
617.527	16463.53904
617.729	16718.5763
617.93	16550.57164
618.131	16829.91359
618.333	16329.96142
618.534	16380.558
618.735	16684.16442
618.937	16246.98554
619.138	16584.98097
619.339	16412.94044
619.54	16536.40328
619.742	16378.53411
619.943	16331.98526
620.144	16070.92435
620.345	16447.34735
620.546	16344.12834
620.748	16755.01315
620.949	16564.74011
621.15	16552.5957
621.351	16423.06006
621.552	16329.96142
621.753	16453.41922
621.954	16805.62118
622.155	16463.53904
622.356	16787.40211
622.558	16538.42732
622.759	16888.62172
622.96	16526.28308
623.161	16475.68289
623.362	16198.41568
623.563	16714.52781
623.764	16562.71604
623.965	16631.53579
624.166	16637.60825
624.366	16732.74609
624.567	16427.10792
624.768	16752.98886
624.969	16400.79697
625.17	16682.14022
625.371	16599.14971
625.572	16649.75322
625.773	16550.57164
625.973	16730.72183
626.174	16423.06006
626.375	16769.18324
626.576	16524.25905
626.777	16534.37923
626.977	16734.77036
627.178	16993.89691
627.379	16759.06173
627.58	17024.26609
627.78	16655.82574
627.981	16637.60825
628.182	16095.20793
628.382	16457.46714
628.583	16576.8846
628.784	16578.90869
628.984	16273.29463
629.185	16649.75322
629.386	16301.62785
629.586	16625.46336
629.787	16639.6324
629.987	16680.11601
630.188	16771.20755
630.388	16850.15753
630.589	16785.37779
630.79	16623.43922
630.99	16724.64905
631.191	17091.08044
631.391	17032.36464
631.591	16959.47924
631.792	16657.84991
631.992	17117.40207
632.193	17028.31536
632.393	16706.43085
632.594	16771.20755
632.794	17095.12989
632.994	17020.21683
633.195	16842.05992
633.395	16813.71861
633.595	17010.09373
633.796	16864.32844
633.996	17044.51255
634.196	16933.16036
634.397	17068.80866
634.597	16603.19794
634.797	17251.04239
634.997	16815.74297
635.198	16955.43015
635.398	16833.96235
635.598	17180.17096
635.798	16672.01922
635.998	16817.76734
636.199	17087.031
636.399	16787.40211
636.599	16852.18194
636.799	17008.06912
636.999	16785.37779
637.199	17020.21683
637.399	17004.01991
637.599	17165.9971
637.799	16929.11134
637.999	17212.56889
638.199	16921.01333
638.399	17139.67459
638.599	16609.2703
638.799	17253.06734
638.999	17127.5259
639.199	17151.82338
639.399	16842.05992
639.599	17113.35256
639.799	16981.74941
639.999	17226.74321
640.199	16801.57248
640.399	16997.9461
640.599	16113.42076
640.799	17194.34496
640.998	16896.71956
641.198	16864.32844
641.398	16813.71861
641.598	17402.92196
641.798	17052.61121
641.997	17382.67037
642.197	17198.3947
642.397	17398.87162
642.597	17016.16759
642.796	17386.72066
642.996	16961.50379
643.196	17042.48789
643.395	16906.84192
643.595	17289.51695
643.795	17238.89275
643.994	17052.61121
644.194	17072.85805
644.394	17117.40207
644.593	16890.64618
644.793	17117.40207
644.992	17107.27831
645.192	17259.14221
645.392	17380.64522
645.591	17548.74266
645.791	17319.89236
645.99	17368.49443
646.19	16892.67064
646.389	16947.33201
646.589	16866.35287
646.788	17182.19581
646.987	16815.74297
647.187	17427.22428
647.386	16955.43015
647.586	17145.74898
647.785	17388.74581
647.984	17251.04239
648.184	17605.45516
648.383	17431.27471
648.582	17564.94597
648.782	17589.25133
648.981	17178.14612
649.18	17350.26845
649.38	17577.09859
649.579	17368.49443
649.778	17566.9714
649.977	17530.51417
650.177	17692.55436
650.376	17540.64108
650.575	17236.86782
650.774	17641.91455
650.973	17595.32774
651.173	17662.17022
651.372	17327.99259
651.571	17532.53955
651.77	17560.89512
651.969	17332.04272
652.168	17542.66647
652.367	17775.60815
652.566	17425.19907
652.765	17751.29914
652.964	17342.16809
653.163	17336.09286
653.362	17271.29202
653.561	17562.92055
653.76	17485.95674
653.959	17575.07315
654.158	17769.53085
654.357	17502.15927
654.556	17018.19221
654.755	17607.48066
654.954	17378.62008
655.153	17129.55068
655.352	17340.14301
655.551	17336.09286
655.749	17552.79347
655.948	17330.01765
656.147	17382.67037
656.346	17376.59495
656.545	17283.44195
656.743	17372.54468
656.942	17149.79858
657.141	17548.74266
657.34	17190.29524
657.538	17686.47747
657.737	17544.69186
657.936	18028.85658
658.135	17631.78684
658.333	17658.11906
658.532	17435.32515
658.731	17538.61569
658.929	17283.44195
659.128	17400.89679
659.326	17423.17386
659.525	17429.2495
659.724	17487.98205
659.922	17777.63393
660.121	17352.29355
660.319	17490.00736
660.518	17297.61699
660.716	17354.31865
660.915	17257.11725
661.113	17089.05572
661.312	17127.5259
661.51	17496.0833
661.709	17425.19907
661.907	17457.60281
662.105	17490.00736
662.304	17445.45132
662.502	17471.7797
662.701	17487.98205
662.899	17246.99249
663.097	17690.52872
663.296	17589.25133
663.494	17684.45185
663.692	17508.23527
663.891	17862.71948
664.089	17514.31129
664.287	18026.83037
664.485	17601.40419
664.684	17787.76284
664.882	17360.39397
665.08	17502.15927
665.278	17374.56981
665.476	17621.6592
665.675	17113.35256
665.873	17285.46694
666.071	17131.57545
666.269	17526.46343
666.467	17546.71726
666.665	17520.38735
666.863	17386.72066
667.061	17652.04235
667.259	17720.91356
667.457	17528.4888
667.655	17352.29355
667.853	17587.22587
668.051	17222.69339
668.249	17500.13394
668.447	17453.5523
668.645	17506.20993
668.843	17500.13394
669.041	17471.7797
669.239	17352.29355
669.437	17514.31129
669.635	17613.55716
669.833	17228.76813
670.031	17400.89679
670.229	17585.2004
670.426	17637.86345
670.624	17461.65334
670.822	17170.04676
671.02	17277.36697
671.218	17342.16809
671.415	17097.15462
671.613	17165.9971
671.811	17038.43858
672.009	16993.89691
672.206	17107.27831
672.404	17151.82338
672.602	17562.92055
672.799	17214.59378
672.997	17694.57999
673.195	17591.2768
673.392	17692.55436
673.59	17633.81237
673.788	17510.2606
673.985	17431.27471
674.183	17781.68548
674.38	17463.6786
674.578	17838.40871
674.775	17447.47656
674.973	17421.14866
675.17	17467.72915
675.368	17208.51911
675.565	17230.79304
675.763	17510.2606
675.96	17514.31129
676.158	17277.36697
676.355	16757.03744
676.553	17263.19213
676.75	16730.72183
676.947	16728.69757
677.145	16477.70687
677.342	17064.75928
677.539	17133.60023
677.737	17060.70991
677.934	17149.79858
678.131	17246.99249
678.329	16993.89691
678.526	16894.6951
678.723	16838.01113
678.92	17155.873
679.118	16669.99502
679.315	16750.96457
679.512	16631.53579
679.709	16872.42616
679.906	16951.38108
680.104	17026.29073
680.301	16935.18487
680.498	16991.87232
680.695	16688.21284
680.892	16801.57248
681.089	16619.39094
681.286	17137.6498
681.483	16356.27149
681.68	16587.00507
681.877	16510.09088
682.075	16886.59727
682.272	16495.92281
682.469	16761.08603
682.665	16856.23076
682.862	16587.00507
683.059	16518.18696
683.256	16512.11489
683.453	16558.6679
683.65	16514.13891
683.847	16872.42616
684.044	16757.03744
684.241	16518.18696
684.438	16969.60201
684.635	16445.3234
684.831	16700.35816
685.028	16419.01221
685.225	16635.58409
685.422	16210.55806
685.619	16522.23502
685.815	16085.08974
686.012	16198.41568
686.209	16085.08974
686.405	16902.79297
686.602	16358.29535
686.799	16516.16294
686.996	16647.72905
687.192	16489.85081
687.389	16384.60577
687.586	16611.29442
687.782	16362.34309
687.979	16744.89172
688.175	16394.72525
688.372	16423.06006
688.568	16376.51023
688.765	16198.41568
688.962	16386.62967
689.158	16564.74011
689.355	16641.65656
689.551	16449.3713
689.748	15935.34488
689.944	16085.08974
690.14	16214.60553
690.337	16449.3713
690.533	16390.67746
690.73	16186.27337
690.926	16495.92281
691.123	16451.39526
691.319	16342.10449
691.515	16504.01883
691.712	16190.3208
691.908	16000.09846
692.104	16097.23157
692.301	16072.94797
692.497	15522.56787
692.693	16111.3971
692.889	15957.60377
693.086	16307.69929
693.282	16068.90073
693.478	16437.22761
693.674	16166.03632
693.87	16253.05684
694.067	15886.78058
694.263	16216.62926
694.459	16060.80625
694.655	15987.95706
694.851	15785.60718
695.047	15842.26392
695.243	16153.89417
695.439	15807.86508
695.635	15648.01558
695.831	15931.29783
696.027	15975.81571
696.224	16064.85349
696.42	16166.03632
696.615	15985.9335
696.811	15722.88104
697.007	15884.75708
697.203	15550.89453
697.399	15696.57682
697.595	15382.95957
697.791	15583.26802
697.987	15500.3113
698.183	15856.42825
698.379	15482.10143
698.575	15983.90994
698.77	15498.28798
698.966	15581.24467
699.162	15820.00581
699.358	15743.11517
699.554	15300.00488
699.749	15737.04492
699.945	15437.58861
700.141	15542.80118
700.337	15439.61192
700.532	15678.36629
700.728	15571.12794
700.924	15751.20885
701.119	15476.03149
701.315	15435.56531
701.511	15700.62361
701.706	15862.49869
701.902	15425.4488
702.097	15579.22132
702.293	15453.77506
702.489	15320.23768
702.684	15336.42395
702.88	15471.98486
703.075	15567.08125
703.271	15753.23227
703.466	15463.89161
703.662	15639.92209
703.857	15393.07603
704.053	15469.96155
704.248	15283.81866
704.443	15558.98788
704.639	15356.6568
704.834	15330.35409
705.03	15423.4255
705.225	15328.33081
705.42	15336.42395
705.616	15629.80524
705.811	15241.32988
706.006	15554.9412
706.202	15229.19025
706.397	15520.54454
706.592	15439.61192
706.787	15263.5859
706.983	14901.41901
707.178	15455.79837
707.373	15103.74744
707.568	15283.81866
707.763	15340.47051
707.959	15648.01558
708.154	15235.26006
708.349	15237.28334
708.544	14911.53552
708.739	15093.63107
708.934	15069.35179
709.129	15154.32922
709.324	14741.57617
709.519	15512.45124
709.714	15223.12043
709.909	15287.86521
710.104	14941.88497
710.299	14877.13934
710.494	14974.25762
710.689	15204.91098
710.884	14937.83838
711.079	15178.60846
711.274	14848.81295
711.469	14949.97814
711.664	14885.23257
711.859	15170.51538
712.054	14826.55642
712.249	15178.60846
712.443	15077.44489
712.638	15004.60689
712.833	14589.82188
713.028	14840.71967
713.223	14796.20648
713.417	14782.04312
713.612	14862.97616
713.807	14838.69635
714.002	14895.3491
714.196	14974.25762
714.391	14620.1732
714.586	14903.44231
714.78	14883.20926
714.975	14652.54767
715.17	14462.34339
715.364	14672.78158
715.559	14316.64673
715.754	14545.30616
715.948	14454.24934
716.143	14436.03764
716.337	14278.19756
716.532	14209.39213
716.726	14547.32961
716.921	14715.27247
717.115	14452.22582
717.31	14599.93902
717.504	14462.34339
717.699	14589.82188
717.893	14434.01411
718.088	14559.47031
718.282	14243.79512
718.476	14674.80496
718.671	14375.33109
718.865	14719.31921
719.059	14353.07167
719.254	14595.89217
719.448	14476.50792
719.642	14504.83679
719.837	14061.65486
720.031	14156.77468
720.225	13751.97138
720.419	14233.67665
720.614	13812.69873
720.808	14419.84936
721.002	13984.74574
721.196	14055.58321
721.39	13950.33788
721.585	14170.94105
721.779	13788.40811
721.973	14079.86967
722.167	13952.36189
722.361	14172.96481
722.555	13903.78488
722.749	13909.85709
722.943	13974.62586
723.137	13691.24126
723.331	13711.48495
723.525	13861.27871
723.719	13899.73672
723.913	13839.01309
724.107	13545.47693
724.301	13901.7608
724.495	13780.31114
724.689	13810.67453
724.883	13608.23874
725.077	13836.98893
725.271	13784.35963
725.465	13650.75293
725.659	13673.02167
725.853	13786.38387
726.046	13843.06141
726.24	13974.62586
726.434	13685.1681
726.628	14189.15481
726.822	13891.64038
727.015	14381.40181
727.209	13887.59219
727.403	14009.03321
727.596	13713.5093
727.79	13804.6019
727.984	13666.94842
728.177	13656.82626
728.371	13515.10709
728.565	13745.89849
728.758	13762.09279
728.952	13644.67956
729.146	13419.94283
729.339	13500.93421
729.533	13403.74381
729.726	13494.86007
729.92	13636.58169
730.113	13268.06688
730.307	13587.99336
730.5	13616.33679
730.694	13612.28777
730.887	13796.50503
731.081	13713.5093
731.274	13284.26809
731.468	13148.57422
731.661	13737.80127
731.854	13713.5093
732.048	13545.47693
732.241	13434.11676
732.435	13841.03725
732.628	13922.00144
732.821	13664.92399
733.014	13543.4523
733.208	13646.70402
733.401	13806.62611
733.594	14043.43985
733.788	13648.72847
733.981	13567.74764
734.174	13496.88479
734.367	13332.87011
734.56	13223.5121
734.754	13138.447
734.947	13164.77753
735.14	13235.66362
735.333	13383.49469
735.526	13008.80807
735.719	13197.18328
735.912	13480.68693
736.105	13673.02167
736.298	13707.43624
736.491	13573.82139
736.684	13666.94842
736.877	13434.11676
737.07	13466.51362
737.263	13209.33514
737.456	13440.19125
737.649	13440.19125
737.842	13602.16516
738.035	13324.76994
738.228	13334.89515
738.421	13470.56316
738.614	13456.38971
738.807	13114.1412
739	13134.39608
739.192	12939.92914
739.385	13053.37369
739.578	13219.46156
739.771	13061.47628
739.964	13211.36043
740.156	13557.62464
740.349	13270.09204
740.542	13085.78356
740.735	13128.31966
740.927	13217.43629
741.12	13187.05661
741.313	13332.87011
741.505	12984.49853
741.698	12915.61751
741.891	13077.68121
742.083	13128.31966
742.276	13031.09118
742.468	13233.63837
742.661	13059.45064
742.854	13132.37061
743.046	12988.55017
743.239	12976.39519
743.431	12917.64351
743.624	12952.08468
743.816	12887.25298
744.009	12982.4727
744.201	12974.36934
744.393	12757.57299
744.586	13033.11689
744.778	12939.92914
744.971	12765.67866
745.163	12595.43995
745.355	12767.70506
745.548	12672.45788
745.74	12702.85732
745.932	12563.0087
746.125	12569.08968
746.317	12467.73253
746.509	12712.99017
746.702	12879.14863
746.894	12745.41431
747.086	12771.75785
747.278	13035.14259
747.471	12522.46737
747.663	12704.8839
747.855	12133.13384
748.047	12514.35881
748.239	12885.2269
748.431	12589.35921
748.623	12589.35921
748.815	12565.0357
749.008	12563.0087
749.2	12733.25543
749.392	12607.60126
749.584	12548.81952
749.776	12763.65225
749.968	12627.86962
750.16	12719.06981
750.352	12481.9235
750.544	12771.75785
750.736	12717.04327
750.928	12642.05711
751.12	12469.75983
751.311	12404.88293
751.503	12485.978
751.695	12548.81952
751.887	12226.43536
752.079	12676.51122
752.271	12504.22295
752.463	12806.20564
752.654	12869.01809
752.846	12646.11062
753.038	12348.11001
753.23	12356.22075
753.421	12246.71625
753.613	11936.33632
753.805	12435.29483
753.997	12279.16417
754.188	12299.4432
754.38	12092.56302
754.572	12291.33167
754.763	12471.78713
754.955	12305.52677
755.146	12295.38745
755.338	12216.29464
755.53	12356.22075
755.721	12297.41533
755.913	12222.37909
756.104	12033.72988
756.296	12242.66013
756.487	11857.19028
756.679	11987.06443
756.87	11991.12246
757.062	11733.37205
757.253	11719.16134
757.445	11909.9557
757.636	11995.18046
757.827	11954.59902
758.019	11824.71644
758.21	11802.38942
758.401	11668.40527
758.593	11972.86106
758.784	11909.9557
758.975	11501.88547
759.167	11461.26133
759.358	11721.19147
759.549	11570.93781
759.74	11889.66197
759.932	11792.24044
760.123	11773.97172
760.314	11885.60313
760.505	11958.65731
760.696	11713.07091
760.888	11625.76584
761.079	11583.1224
761.27	11566.87621
761.461	11648.10128
761.652	11633.88795
761.843	11767.88199
762.034	11743.52229
762.225	11682.61753
762.416	11589.21457
762.607	11225.56379
762.798	11317.0142
762.989	11477.51145
763.18	11877.48534
763.371	11552.6603
763.562	11254.01725
763.753	11010.06314
763.944	11162.55243
764.135	10995.82767
764.326	11375.93805
764.517	11103.59711
764.708	11627.79638
764.899	11477.51145
765.089	11739.46222
765.28	11329.20603
765.471	11156.45402
765.662	11329.20603
765.853	11410.47574
766.043	11134.09236
766.234	11442.97922
766.425	11132.05942
766.615	11142.22402
766.806	11040.56589
766.997	10979.55789
767.187	10800.54242
767.378	11052.7663
767.569	10759.84456
767.759	11022.26454
767.95	10686.57637
768.141	10875.82112
768.331	10883.95841
768.522	10910.40333
768.712	11010.06314
768.903	10918.53984
769.093	10539.99254
769.284	10666.22132
769.474	10647.90074
769.665	10863.61485
769.855	10590.89698
770.046	10829.02813
770.236	10623.47174
770.426	10599.04097
770.617	10505.37302
770.807	10670.29243
770.998	10509.44609
771.188	10372.97009
771.378	10307.7668
771.569	10590.89698
771.759	10370.93269
771.949	10262.93161
772.139	10303.69114
772.33	10350.55799
772.52	10611.25658
772.71	10328.14429
772.9	10370.93269
773.09	10491.11686
773.281	10330.18196
773.471	10476.86007
773.661	10434.08593
773.851	10354.63303
774.041	10336.29491
774.231	9961.13951
774.421	10173.24154
774.611	10262.93161
774.802	10273.122
774.992	10326.1066
775.182	10377.04484
775.372	10283.31205
775.562	10069.24909
775.752	10209.93613
775.942	9806.0431
776.131	9973.38035
776.321	9740.71358
776.511	10034.57681
776.701	9889.72411
776.891	10050.89369
777.081	9742.75536
777.271	10020.29879
777.461	9836.661
777.651	10065.17021
777.84	9738.67178
778.03	9779.50485
778.22	10114.11304
778.41	10034.57681
778.599	9699.87474
778.789	9724.37878
778.979	9616.13585
779.169	9830.53769
779.358	9842.78418
779.548	9877.47966
779.738	9928.49469
779.927	9646.77505
780.117	9763.17235
780.307	9912.17088
780.496	9340.22228
780.686	9769.29715
780.875	9624.30665
781.065	9526.24051
781.254	9677.41076
781.444	9317.7274
781.633	9458.79883
781.823	9505.80548
782.012	9487.41258
782.202	9469.01839
782.391	9430.18192
782.581	9348.40174
782.77	9272.73162
782.96	9395.42853
783.149	8988.2504
783.338	9301.36623
783.528	9237.95662
783.717	9395.42853
783.906	9285.004
784.096	9129.50911
784.285	9025.10849
784.474	9315.68231
784.663	9025.10849
784.853	9037.39326
785.042	8967.77122
785.231	9164.29937
785.42	8869.44651
785.61	9127.46247
785.799	8973.91516
785.988	8828.46571
786.177	8611.1457
786.366	9082.43205
786.555	8740.33247
786.744	8748.53233
786.933	8783.37849
787.122	9041.48804
787.312	9002.58477
787.501	9203.17676
787.69	9137.6955
787.879	9250.23071
788.068	8889.93421
788.257	8734.18238
788.445	8627.55445
788.634	8922.71082
788.823	8791.57682
789.012	8908.37161
789.201	8660.36838
789.39	8908.37161
789.579	8697.27837
789.768	8867.39764
789.957	8549.60218
790.145	8785.4281
790.334	8446.99182
790.523	8990.29822
790.712	8684.9757
790.9	8961.62713
791.089	8719.83153
791.278	8674.72298
791.467	8309.41867
791.655	8479.83232
791.844	8258.06301
792.033	8457.255
792.221	8397.72187
792.41	8709.58037
792.599	8192.3098
792.787	8801.82432
792.976	8410.0404
793.164	8682.9252
793.353	8598.83834
793.541	8672.67237
793.73	8424.41114
793.918	8639.86023
794.107	8110.08965
794.295	8264.22634
794.484	8085.41736
794.672	8128.59197
794.861	8040.17728
795.049	8241.62661
795.238	8093.64178
795.426	8307.36468
795.614	7978.47044
795.803	7894.108
795.991	7986.69907
796.179	8186.1444
796.368	7962.01218
796.556	8223.13414
796.744	7850.88457
796.932	8034.00741
797.121	8157.37014
797.309	7879.70121
797.497	7859.11831
797.685	8005.21231
797.874	7994.92738
798.062	8060.74216
798.25	7752.05373
798.438	8114.20142
798.626	7939.37994
798.814	8332.01129
799.002	7857.0599
799.19	8216.96963
799.378	7752.05373
799.566	8005.21231
799.755	7910.57168
799.943	7962.01218
800.131	7842.6505
800.318	7762.35085
800.506	7640.81124
800.694	7834.41609
800.882	7797.35716
801.07	8003.15537
801.258	7879.70121
801.446	7999.04142
801.634	7764.41021
801.822	7881.75938
802.01	8017.55356
802.197	8007.26924
802.385	7887.93379
802.573	7488.26713
802.761	7597.53359
802.949	7741.75608
803.136	7459.39421
803.324	7688.19983
803.512	7912.62955
803.699	7803.53412
803.887	7651.11406
804.075	7994.92738
804.262	7857.0599
804.45	8003.15537
804.638	7764.41021
804.825	8046.34695
805.013	7922.91857
805.201	7962.01218
805.388	7855.00148
805.576	7982.5848
805.763	8036.06405
805.951	8073.08012
806.138	7830.29877
806.326	7982.5848
806.513	7661.41635
806.701	7865.29339
806.888	7323.22167
807.075	7653.17456
807.263	7696.44018
807.45	7937.32234
807.638	7793.23909
807.825	7791.18002
808.012	7739.69649
808.2	8036.06405
808.387	7772.64745
808.574	7937.32234
808.761	7850.88457
808.949	7655.23504
809.136	7319.09375
809.323	7492.39149
809.51	7271.61631
809.698	7331.47726
809.885	7484.14269
810.072	7529.50684
810.259	7120.84969
810.446	7455.26916
810.633	7457.33169
810.82	7764.41021
811.008	7702.62022
811.195	7799.41617
811.382	7459.39421
811.569	8007.26924
811.756	7731.4579
811.943	7953.78256
812.13	7743.81565
812.317	8079.24883
812.504	7620.20401
812.691	8071.02385
812.878	7508.88806
813.064	7807.65199
813.251	7543.93871
813.438	7708.80007
813.625	7667.59747
813.812	7824.12262
813.999	7640.81124
814.186	7725.27875
814.372	7537.75375
814.559	7642.87185
814.746	7513.01199
814.933	7521.25959
815.12	7453.2066
815.306	7717.03958
815.493	7677.89891
815.68	7651.11406
815.866	7506.82607
816.053	7869.41001
816.24	7756.17264
816.426	7881.75938
816.613	7984.64194
816.799	7752.05373
816.986	7824.12262
817.173	7657.2955
817.359	7663.47674
817.546	7747.93473
817.732	7484.14269
817.919	7774.70671
818.105	7747.93473
818.292	7743.81565
818.478	7867.35171
818.665	8011.38303
818.851	7682.01934
819.037	7764.41021
819.224	7374.81334
819.41	7467.64405
819.597	7370.68651
819.783	7331.47726
819.969	7319.09375
820.156	7525.38326
820.342	7034.0535
820.528	7296.3886
820.714	7482.08043
820.901	7269.55181
821.087	7222.06222
821.273	7484.14269
821.459	7284.00285
821.646	7432.57983
821.832	7234.45193
822.018	7475.89354
822.204	7110.51888
822.39	7284.00285
822.576	7149.773
822.762	7432.57983
822.948	7279.87409
823.134	7465.58162
823.32	7418.13981
823.507	7451.14402
823.693	7244.77609
823.879	7137.37783
824.065	6974.09971
824.25	7100.18751
824.436	6947.21772
824.622	7294.32436
824.808	7186.9537
824.994	7158.036
825.18	6992.70808
825.366	7219.99719
825.552	6765.14659
825.738	7042.32151
825.923	6789.98485
826.109	7081.58963
826.295	6715.46018
826.481	7178.69195
826.667	6818.95867
826.852	7003.04528
827.038	6941.01364
827.224	7071.2567
827.409	6974.09971
827.595	6934.80936
827.781	6640.90579
827.966	7005.11265
828.152	6792.05456
828.338	7060.92321
828.523	6785.84537
828.709	7036.12054
828.894	6889.30508
829.08	6947.21772
829.266	6723.74216
829.451	7083.65615
829.637	6620.19094
829.822	6736.16445
830.008	6383.87816
830.193	6676.11574
830.378	6622.26253
830.564	6794.12424
830.749	6267.68393
830.935	6719.60122
831.12	6427.43214
831.305	6847.92802
831.491	6638.83441
831.676	6640.90579
831.861	6628.47716
832.047	6715.46018
832.232	6321.64036
832.417	6539.38099
832.602	6236.54802
832.788	6520.72755
832.973	6408.7674
833.158	6566.32155
833.343	6441.94784
833.528	6470.97585
833.714	6105.71957
833.899	6421.21077
834.084	6228.24422
834.269	6363.13456
834.454	6035.07499
834.639	6130.64646
834.824	6091.17732
835.009	6356.91103
835.194	6280.13682
835.379	6228.24422
835.564	6003.89961
835.749	6348.61265
835.934	6209.5593
836.119	6176.33697
836.304	6045.46561
836.489	6109.87429
836.674	5810.49387
836.859	5941.53295
837.044	5814.65528
837.228	6066.24507
837.413	5764.71213
837.598	5954.00798
837.783	5947.77057
837.968	6145.18559
838.152	6003.89961
838.337	6294.66412
838.522	5914.50081
838.707	6267.68393
838.891	5827.13895
839.076	6178.41354
839.261	5852.10373
839.445	6128.56935
839.63	5895.78391
839.815	6178.41354
839.999	5993.50664
840.184	6051.69969
840.368	5877.06511
840.553	5891.62435
840.737	5610.63517
840.922	5843.78251
841.106	5500.20338
841.291	5610.63517
841.475	5887.46468
841.66	5860.42457
841.844	5860.42457
842.029	5872.90511
842.213	5735.57235
842.397	5976.87667
842.582	5593.97046
842.766	5814.65528
842.951	5587.72081
843.135	5689.77191
843.319	5471.02168
843.504	5502.28761
843.688	5514.79251
843.872	5481.44424
844.056	5527.29655
844.241	5914.50081
844.425	5429.32553
844.609	5287.48837
844.793	5252.01215
844.977	5441.83536
845.161	5084.97477
845.346	5329.21643
845.53	5297.92126
845.714	5479.35978
845.898	5034.83457
846.082	5448.08996
846.266	5201.91659
846.45	5446.00512
846.634	4997.22067
846.818	5214.44174
847.002	5112.12847
847.186	5325.04405
847.37	5009.75947
847.554	4898.97144
847.738	4794.39543
847.922	5112.12847
848.106	5007.66973
848.29	5107.95124
848.473	5164.3361
848.657	4928.24248
848.841	4637.42507
849.025	4875.96962
849.209	4691.85583
849.392	4901.06238
849.576	4886.42533
849.76	5172.68797
849.944	5013.93888
850.127	5053.6387
850.311	4976.32084
850.495	4871.78717
850.678	4783.9347
850.862	4993.04089
851.046	4585.07352
851.229	4783.9347
851.413	4660.45532
851.596	4861.33065
851.78	4541.08746
851.964	5133.01327
852.147	4649.98736
852.331	4911.51672
852.514	4719.0655
852.698	4890.60746
852.881	4444.70293
853.065	4896.88048
853.248	4624.86197
853.431	4626.95588
853.615	4421.64756
853.798	4995.13079
853.982	4528.51821
854.165	4748.36396
854.348	4448.89453
854.532	4629.04976
854.715	4448.89453
854.898	4497.09162
855.081	4557.84521
855.265	4335.69068
855.448	4365.04592
855.631	4442.6071
855.814	4297.942
855.997	4362.94925
856.181	4157.37214
856.364	4515.94817
856.547	4260.18636
856.73	4230.81608
856.913	4188.85128
857.096	4283.26008
857.279	4390.20416
857.462	4167.86571
857.645	4373.43235
857.828	4417.45539
858.011	4201.44161
858.194	4209.83474
858.377	4207.73649
858.56	4480.32873
858.743	4392.30054
858.926	4346.17518
859.109	4358.75587
859.292	4218.22753
859.475	4134.28441
859.658	4295.84465
859.841	3873.84976
860.023	3869.64664
860.206	3844.42626
860.389	4088.10137
860.572	3777.15797
860.755	4239.20801
860.937	3995.70516
861.12	4073.40465
861.303	3829.71305
861.486	4004.10647
861.668	3726.6936
861.851	4167.86571
862.034	3667.80445
862.216	3930.58401
862.399	3817.10095
862.581	3968.39867
862.764	3583.65124
862.947	3781.36283
863.129	3764.54293
863.312	3857.03681
863.494	3417.36172
863.677	3760.33776
863.859	3571.02567
864.042	3812.89676
864.224	3436.31179
864.406	3711.97273
864.589	3398.4102
864.771	3817.10095
864.954	3558.39943
865.136	3638.35426
865.318	3465.78681
865.501	3629.93923
865.683	3453.15509
865.865	3467.89203
866.048	3434.2063
866.23	3726.6936
866.412	3385.77507
866.594	3583.65124
866.777	3191.95862
866.959	3558.39943
867.141	3248.8544
867.323	3385.77507
867.505	3373.1393
867.687	3491.04829
867.869	3154.02143
868.052	3554.19053
868.234	3364.7151
868.416	3392.09272
868.598	3204.60317
868.78	3549.98156
868.962	3141.37453
869.144	3406.83328
869.326	3383.66915
869.508	3389.98685
869.69	3210.92522
869.872	3282.56466
870.054	3137.15877
870.236	3411.04471
870.417	3126.61908
870.599	3341.54712
870.781	3164.56007
870.963	3297.31153
871.145	3206.71054
871.327	3305.73794
871.508	3048.61307
871.69	3236.21194
871.872	3061.26415
872.054	3379.45726
872.235	3092.8894
872.417	3240.42616
872.599	2953.71237
872.78	3250.96142
872.962	3105.53851
873.144	3314.16408
873.325	3113.97093
873.507	3101.3222
873.689	3147.69805
873.87	3419.46735
874.052	3183.52859
874.233	3364.7151
874.415	3194.06609
874.596	3381.56321
874.778	3229.89049
874.959	3259.38932
875.141	3111.86285
875.322	3280.45789
875.503	2947.38457
875.685	3278.35111
875.866	2957.93082
876.048	3168.77541
876.229	2867.22107
876.41	3375.2453
876.592	2981.13127
876.773	3269.92382
876.954	3120.29508
877.136	3238.31906
877.317	3126.61908
877.498	3124.5111
877.679	2822.91132
877.86	2782.81627
878.042	2854.56178
878.223	3088.67291
878.404	2757.49054
878.585	3080.23973
878.766	3092.8894
878.947	3035.96143
879.128	3149.80586
879.309	3219.35439
879.49	3145.59023
879.672	3465.78681
879.853	2995.89425
880.034	3145.59023
880.215	2968.47671
880.396	3179.31348
880.576	2928.40038
880.757	3078.13139
880.938	2987.45835
881.119	3240.42616
881.3	2926.29095
881.481	3048.61307
881.662	2867.22107
881.843	3027.52669
882.023	2715.27671
882.204	3014.87413
882.385	2911.52454
882.566	3057.04719
882.747	2919.96258
882.927	3172.99069
883.108	3012.76531
883.289	3078.13139
883.469	3054.93868
883.65	3088.67291
883.831	3065.48106
884.011	3284.67141
884.192	3052.83016
884.373	3324.69636
884.553	2962.14922
884.734	3269.92382
884.914	3097.10584
885.095	3320.4835
885.275	3071.8063
885.456	3352.07828
885.636	2915.74359
885.817	3132.94294
885.997	3082.34805
886.178	3339.44084
886.358	3183.52859
886.538	3149.80586
886.719	2886.20905
886.899	3082.34805
887.08	2938.9473
887.26	3105.53851
887.44	2782.81627
887.621	3107.64664
887.801	2972.69496
887.981	3366.82118
888.161	3052.83016
888.342	3183.52859
888.522	3080.23973
888.702	3204.60317
888.882	2951.60312
889.062	3179.31348
889.242	3042.28732
889.423	3263.60317
889.603	3088.67291
889.783	3269.92382
889.963	3035.96143
890.143	3126.61908
890.323	2957.93082
890.503	2993.7853
890.683	2848.23194
890.863	3122.4031
891.043	2947.38457
891.223	3124.5111
891.403	2953.71237
891.583	3231.99765
891.763	2854.56178
891.943	2879.87985
892.122	2894.64778
892.302	3019.09171
892.482	2696.27878
892.662	3044.39592
892.842	2656.16861
893.022	3069.6979
893.201	2833.46182
893.381	2962.14922
893.561	2936.83794
893.741	3101.3222
893.92	2850.3419
894.1	2884.09933
894.28	2694.16783
894.459	2900.97668
894.639	2848.23194
894.819	2812.36047
894.998	2774.37457
895.178	2844.01198
895.357	2727.94142
895.537	2974.80406
895.716	2778.59545
895.896	2922.07205
896.075	2689.9459
896.255	2892.53812
896.434	2675.16874
896.614	2715.27671
896.793	2387.95286
896.973	2736.38429
897.152	2523.13984
897.331	2736.38429
897.511	2601.27366
897.69	2863.00136
897.87	2590.71599
898.049	2806.0298
898.228	2554.81766
898.407	2706.83332
898.587	2453.43962
898.766	2594.93909
898.945	2432.31598
899.124	2466.11329
899.304	2172.41361
899.483	2404.85364
899.662	2428.09112
899.841	2643.50129
900.02	2373.16413
900.199	2649.83501
900.378	2305.5523
900.557	2478.78656
900.737	2377.38954
900.916	2373.16413
901.095	2153.39101
901.274	2398.51592
901.453	2301.32623
901.632	2326.68208
901.811	1975.81735
901.989	2180.86789
902.168	2054.0405
902.347	2185.09498
902.526	1922.95898
902.705	2089.9777
902.884	1992.73122
903.063	2210.4568
903.242	2022.32951
903.42	2106.88859
903.599	1977.9316
903.778	2191.43555
903.957	1798.19994
904.135	1988.50279
904.314	2015.98712
904.493	2056.15451
904.672	1906.04355
904.85	2011.75884
905.029	1760.1347
905.207	1937.7597
905.386	1827.8053
905.565	1906.04355
905.743	1686.11556
905.922	1836.26381
906.1	1728.41272
906.279	1726.29789
906.457	1624.78266
906.636	1870.0971
906.814	1491.53678
906.993	1607.86289
907.171	1506.3421
907.35	1650.16205
907.528	1381.55426
907.707	1533.83759
907.885	1305.41376
908.063	1474.61638
908.242	1396.35953
908.42	1557.10288
908.598	1375.20915
908.777	1409.0498
908.955	1447.12071
909.133	1565.56294
909.311	1335.02372
909.49	1440.77555
909.668	1309.64373
909.846	1286.37898
910.024	1320.2187
910.202	1379.43922
910.38	1406.93476
910.559	1347.71381
910.737	1252.53983
910.915	1307.52874
911.093	1227.16091
911.271	1400.58962
911.449	1186.97855
911.627	1485.19163
911.805	1360.40394
911.983	1531.72256
912.161	1299.06881
912.339	1385.78433
912.517	1417.50999
912.695	1480.96153
912.872	1464.04112
913.05	1563.44793
913.228	1294.83886
913.406	1362.51897
913.584	1358.28891
913.762	1605.74791
913.939	1434.43039
914.117	1557.10288
914.295	1248.30998
914.473	1349.82882
914.65	1288.49394
914.828	1413.2799
915.006	1239.85032
915.184	1347.71381
915.361	1119.30605
915.539	1244.08014
915.716	1208.12701
915.894	1313.87371
916.072	1203.89729
916.249	1438.6605
916.427	1370.97908
916.604	1531.72256
916.782	1337.13873
916.959	1508.45714
917.137	1197.55274
917.314	1392.12945
917.492	1229.27581
917.669	1246.19506
917.847	1091.81538
918.024	1201.78244
918.201	1074.89846
918.379	1184.86372
918.556	1206.01215
918.733	1307.52874
918.911	1199.66758
919.088	1381.55426
919.265	1125.65016
919.442	1252.53983
919.62	1070.66929
919.797	1246.19506
919.974	1087.58612
920.151	1028.37872
920.328	1074.89846
920.506	1180.63408
920.683	1146.79749
920.86	1074.89846
921.037	941.69077
921.214	1085.4715
921.391	1013.57757
921.568	1172.17484
921.745	1017.80644
921.922	1142.56799
922.099	1017.80644
922.276	1161.60087
922.453	992.4336
922.63	1138.33851
922.807	888.83812
922.984	893.06615
923.161	827.5354
923.338	863.47061
923.514	850.78731
923.691	874.04026
923.868	884.61012
924.045	926.89155
924.222	825.42165
924.399	848.67345
924.575	865.58452
924.752	774.69432
924.929	789.48922
925.105	855.01504
925.282	745.10599
925.459	762.01336
925.635	660.57945
925.812	723.97271
925.989	711.29325
926.165	899.40826
926.342	635.22506
926.518	738.76589
926.695	679.59635
926.871	732.42589
927.048	626.77399
927.224	745.10599
927.401	601.42197
927.577	738.76589
927.754	603.53457
927.93	677.48332
928.107	580.2967
928.283	709.18005
928.459	603.53457
928.636	762.01336
928.812	656.3536
928.988	707.06685
929.165	654.24069
929.341	669.03129
929.517	645.78918
929.693	675.37029
929.87	500.03297
930.046	643.67633
930.222	533.82578
930.398	592.97171
930.574	500.03297
930.751	635.22506
930.927	506.36885
931.103	662.69239
931.279	531.71362
931.455	576.0718
931.631	459.90888
931.807	411.34503
931.983	434.57018
932.159	495.80913
932.335	497.92105
932.511	614.09776
932.687	417.67897
932.863	493.69724
933.039	443.01617
933.215	453.574
933.391	411.34503
933.566	428.23586
933.742	394.45523
933.918	512.70485
934.094	364.90064
934.27	352.2354
934.445	396.5664
934.621	470.46733
934.797	390.23295
934.973	295.24965
935.148	373.34447
935.324	350.12459
935.5	291.029
935.675	267.81677
935.851	238.27725
936.027	339.57079
936.202	240.38709
936.378	369.12252
936.553	246.71673
936.729	229.83807
936.904	153.89993
937.08	272.03701
937.255	183.42829
937.431	276.25732
937.606	189.75633
937.782	147.57295
937.957	189.75633
938.133	156.00896
938.308	143.35507
938.483	202.41294
938.659	170.77278
938.834	65.34002
939.009	156.00896
939.185	141.24617
939.36	115.94096
939.535	120.15828
939.71	115.94096
939.886	111.72373
940.061	56.90779
940.236	143.35507
940.411	86.42218
940.586	82.20557
940.761	67.44814
940.937	48.47593
941.112	54.79979
941.287	166.55444
941.462	44.26014
941.637	137.02842
941.812	94.85568
941.987	37.93663
942.162	128.59318
942.337	153.89993
942.512	35.82884
942.687	44.26014
942.862	75.88082
943.037	25.29023
943.212	107.50658
943.386	73.77262
943.561	122.26697
943.736	139.13728
943.911	103.28953
944.086	44.26014
944.26	96.96411
944.435	145.464
944.61	44.26014
944.785	99.07256
944.959	77.98905
945.134	120.15828
945.309	61.12386
945.483	6.32224
945.658	63.23193
945.833	56.90779
946.007	69.55627
946.182	111.72373
946.357	145.464
946.531	115.94096
946.706	111.72373
946.88	118.04961
947.055	67.44814
947.229	103.28953
947.404	181.31899
947.578	71.66443
947.752	63.23193
947.927	16.85977
948.101	40.04444
948.276	115.94096
948.45	153.89993
948.624	134.91958
948.799	128.59318
948.973	67.44814
949.147	88.53052
949.321	128.59318
949.496	75.88082
949.67	84.31387
949.844	27.39791
950.018	35.82884
950.193	77.98905
950.367	65.34002
950.541	132.81075
950.715	99.07256
950.889	160.22709
951.063	130.70195
951.237	10.53718
951.411	52.69182
951.585	35.82884
951.759	48.47593
951.933	130.70195
952.107	29.5056
952.281	59.01582
952.455	103.28953
952.629	179.20971
952.803	128.59318
952.977	48.47593
953.151	35.82884
953.325	56.90779
953.499	128.59318
953.672	137.02842
953.846	141.24617
954.02	80.0973
954.194	147.57295
954.368	84.31387
954.541	61.12386
954.715	48.47593
954.889	67.44814
955.062	158.11802
955.236	122.26697
955.41	103.28953
955.583	99.07256
955.757	99.07256
955.93	122.26697
956.104	124.37568
956.278	67.44814
956.451	115.94096
956.625	73.77262
956.798	65.34002
956.972	105.39804
957.145	109.61514
957.319	-6.32202
957.492	141.24617
957.665	67.44814
957.839	137.02842
958.012	80.0973
958.185	65.34002
958.359	111.72373
958.532	27.39791
958.705	151.79091
958.879	61.12386
959.052	52.69182
959.225	71.66443
959.398	94.85568
959.572	153.89993
959.745	141.24617
959.918	71.66443
960.091	101.18103
960.264	103.28953
960.438	107.50658
960.611	56.90779
960.784	164.4453
960.957	96.96411
961.13	77.98905
961.303	18.96735
961.476	132.81075
961.649	63.23193
961.822	124.37568
961.995	145.464
962.168	115.94096
962.341	69.55627
962.514	96.96411
962.686	164.4453
962.859	77.98905
963.032	65.34002
963.205	139.13728
963.378	25.29023
963.551	69.55627
963.723	103.28953
963.896	120.15828
964.069	111.72373
964.242	33.72107
964.414	90.63889
964.587	73.77262
964.76	164.4453
964.932	25.29023
965.105	23.18258
965.278	134.91958
965.45	63.23193
965.623	44.26014
965.795	137.02842
965.968	69.55627
966.14	94.85568
966.313	16.85977
966.485	56.90779
966.658	122.26697
966.83	96.96411
967.003	111.72373
967.175	103.28953
967.348	73.77262
967.52	61.12386
967.692	122.26697
967.865	52.69182
968.037	103.28953
968.209	96.96411
968.382	90.63889
968.554	96.96411
968.726	27.39791
968.898	71.66443
969.071	96.96411
969.243	54.79979
969.415	122.26697
969.587	12.64469
969.759	12.64469
969.932	61.12386
970.104	48.47593
970.276	52.69182
970.448	52.69182
970.62	181.31899
970.792	101.18103
970.964	113.83233
971.136	101.18103
971.308	120.15828
971.48	103.28953
971.652	-12.64382
971.824	27.39791
971.996	82.20557
972.168	-12.64382
972.339	73.77262
972.511	107.50658
972.683	48.47593
972.855	69.55627
973.027	94.85568
973.199	71.66443
973.37	35.82884
973.542	40.04444
973.714	65.34002
973.886	82.20557
974.057	111.72373
974.229	120.15828
974.401	75.88082
974.572	82.20557
974.744	29.5056
974.915	-6.32202
975.087	69.55627
975.259	107.50658
975.43	54.79979
975.602	96.96411
975.773	128.59318
975.945	48.47593
976.116	21.07496
976.288	2.10739
976.459	137.02842
976.63	59.01582
976.802	35.82884
976.973	122.26697
977.145	82.20557
977.316	27.39791
977.487	40.04444
977.659	86.42218
977.83	-35.82187
978.001	54.79979
978.172	94.85568
978.344	-4.2147
978.515	80.0973
978.686	80.0973
978.857	105.39804
979.028	67.44814
979.2	48.47593
979.371	44.26014
979.542	82.20557
979.713	29.5056
979.884	21.07496
980.055	124.37568
980.226	65.34002
980.397	86.42218
980.568	2.10739
980.739	10.53718
980.91	69.55627
981.081	29.5056
981.252	71.66443
981.423	23.18258
981.594	31.61332
981.765	-14.75104
981.936	46.36803
982.106	92.74727
982.277	111.72373
982.448	54.79979
982.619	-12.64382
982.79	88.53052
982.96	73.77262
983.131	16.85977
983.302	86.42218
983.472	-6.32202
983.643	96.96411
983.814	27.39791
983.984	52.69182
984.155	23.18258
984.326	37.93663
984.496	46.36803
984.667	42.15228
984.837	23.18258
985.008	69.55627
985.178	54.79979
985.349	84.31387
985.519	-6.32202
985.69	137.02842
985.86	-12.64382
986.031	88.53052
986.201	2.10739
986.371	115.94096
986.542	56.90779
986.712	84.31387
986.882	59.01582
987.053	52.69182
987.223	139.13728
987.393	44.26014
987.563	-6.32202
987.734	48.47593
987.904	69.55627
988.074	27.39791
988.244	52.69182
988.414	2.10739
988.585	80.0973
988.755	40.04444
988.925	-65.31684
989.095	35.82884
989.265	94.85568
989.435	18.96735
989.605	0
989.775	44.26014
989.945	96.96411
990.115	71.66443
990.285	61.12386
990.455	44.26014
990.625	73.77262
990.795	111.72373
990.965	18.96735
991.134	54.79979
991.304	42.15228
991.474	61.12386
991.644	-6.32202
991.814	-14.75104
991.984	40.04444
992.153	59.01582
992.323	44.26014
992.493	12.64469
992.662	65.34002
992.832	27.39791
993.002	14.75222
993.171	61.12386
993.341	14.75222
993.511	8.4297
993.68	6.32224
993.85	111.72373
994.019	69.55627
994.189	56.90779
994.358	46.36803
994.528	8.4297
994.697	16.85977
994.867	27.39791
995.036	48.47593
995.206	12.64469
995.375	2.10739
995.544	52.69182
995.714	35.82884
995.883	40.04444
996.052	69.55627
996.222	2.10739
996.391	-12.64382
996.56	80.0973
996.73	33.72107
996.899	65.34002
997.068	71.66443
997.237	-12.64382
997.406	73.77262
997.576	52.69182
997.745	18.96735
997.914	12.64469
998.083	-6.32202
998.252	25.29023
998.421	2.10739
998.59	77.98905
998.759	10.53718
998.928	56.90779
999.097	12.64469
999.266	42.15228
999.435	52.69182
999.604	27.39791
999.773	82.20557
999.942	-6.32202
1000.111	2.10739
1000.28	35.82884
1000.448	80.0973
1000.617	69.55627
1000.786	40.04444
1000.955	56.90779
1001.124	54.79979
1001.292	44.26014
1001.461	44.26014
1001.63	27.39791
1001.798	71.66443
1001.967	77.98905
1002.136	16.85977
1002.304	6.32224
1002.473	-35.82187
1002.642	52.69182
1002.81	61.12386
1002.979	69.55627
1003.147	42.15228
1003.316	63.23193
1003.484	73.77262
1003.653	16.85977
1003.821	56.90779
1003.99	4.2148
1004.158	67.44814
1004.327	6.32224
1004.495	48.47593
1004.663	31.61332
1004.832	35.82884
1005	99.07256
1005.168	-21.07254
1005.337	18.96735
1005.505	107.50658
1005.673	-4.2147
1005.842	-14.75104
1006.01	18.96735
1006.178	29.5056
1006.346	-31.6079
1006.514	-35.82187
1006.683	-31.6079
1006.851	6.32224
1007.019	16.85977
1007.187	44.26014
1007.355	86.42218
1007.523	0
1007.691	-37.92881
1007.859	14.75222
1008.027	46.36803
1008.195	25.29023
1008.363	86.42218
1008.531	69.55627
1008.699	-21.07254
1008.867	-23.17966
1009.035	59.01582
1009.203	35.82884
1009.37	4.2148
1009.538	35.82884
1009.706	8.4297
1009.874	35.82884
1010.042	10.53718
1010.209	-63.21022
1010.377	27.39791
1010.545	-14.75104
1010.713	-2.10736
1010.88	18.96735
1011.048	139.13728
1011.216	46.36803
1011.383	14.75222
1011.551	-37.92881
1011.718	-2.10736
1011.886	31.61332
1012.054	71.66443
1012.221	33.72107
1012.389	59.01582
1012.556	61.12386
1012.724	40.04444
1012.891	101.18103
1013.058	10.53718
1013.226	33.72107
1013.393	82.20557
1013.561	-21.07254
1013.728	-12.64382
1013.895	61.12386
1014.063	18.96735
1014.23	-6.32202
1014.397	-14.75104
1014.565	-10.53658
1014.732	27.39791
1014.899	77.98905
1015.066	-4.2147
1015.233	37.93663
1015.401	6.32224
1015.568	29.5056
1015.735	-18.9654
1015.902	35.82884
1016.069	44.26014
1016.236	44.26014
1016.403	44.26014
1016.57	67.44814
1016.737	40.04444
1016.904	6.32224
1017.071	10.53718
1017.238	-29.50088
1017.405	67.44814
1017.572	46.36803
1017.739	6.32224
1017.906	-33.71489
1018.073	14.75222
1018.24	27.39791
1018.407	35.82884
1018.573	46.36803
1018.74	52.69182
1018.907	77.98905
1019.074	18.96735
1019.241	-4.2147
1019.407	-21.07254
1019.574	8.4297
1019.741	73.77262
1019.907	-31.6079
1020.074	-10.53658
1020.241	44.26014
1020.407	12.64469
1020.574	-40.03573
1020.74	29.5056
1020.907	-44.2495
1021.073	46.36803
1021.24	52.69182
1021.406	73.77262
1021.573	40.04444
1021.739	6.32224
1021.906	18.96735
1022.072	-6.32202
1022.239	-6.32202
1022.405	27.39791
1022.571	-4.2147
1022.738	21.07496
1022.904	10.53718
1023.07	82.20557
1023.237	35.82884
1023.403	27.39791
1023.569	86.42218
1023.735	-23.17966
1023.902	63.23193
1024.068	71.66443
1024.234	120.15828
1024.4	-2.10736
1024.566	-23.17966
1024.732	54.79979
1024.898	-21.07254
1025.065	0
1025.231	-40.03573
1025.397	48.47593
1025.563	109.61514
1025.729	35.82884
1025.895	23.18258
1026.061	56.90779
1026.227	134.91958
1026.392	29.5056
1026.558	4.2148
1026.724	-21.07254
1026.89	18.96735
1027.056	8.4297
1027.222	21.07496
1027.388	-31.6079
1027.553	27.39791
1027.719	63.23193
1027.885	23.18258
1028.051	25.29023
1028.216	48.47593
1028.382	-6.32202
1028.548	-40.03573
1028.713	23.18258
1028.879	103.28953
1029.045	21.07496
1029.21	23.18258
1029.376	18.96735
1029.541	86.42218
1029.707	14.75222
1029.873	27.39791
1030.038	46.36803
1030.204	2.10739
1030.369	18.96735
1030.534	82.20557
1030.7	59.01582
1030.865	2.10739
1031.031	-48.46317
1031.196	14.75222
1031.361	-14.75104
1031.527	23.18258
1031.692	-4.2147
1031.857	44.26014
1032.023	103.28953
1032.188	-48.46317
1032.353	124.37568
1032.518	18.96735
1032.684	35.82884
1032.849	-4.2147
1033.014	37.93663
1033.179	6.32224
1033.344	-40.03573
1033.509	-18.9654
1033.674	4.2148
1033.839	52.69182
1034.004	27.39791
1034.17	23.18258
1034.335	46.36803
1034.5	-40.03573
1034.664	31.61332
1034.829	27.39791
1034.994	6.32224
1035.159	80.0973
1035.324	48.47593
1035.489	88.53052
1035.654	-35.82187
1035.819	35.82884
1035.984	0
1036.148	6.32224
1036.313	63.23193
1036.478	35.82884
1036.643	-25.28676
1036.807	-4.2147
1036.972	-27.39383
1037.137	69.55627
1037.301	37.93663
1037.466	10.53718
1037.631	-29.50088
1037.795	14.75222
1037.96	-31.6079
1038.124	27.39791
1038.289	-6.32202
1038.454	27.39791
1038.618	2.10739
1038.783	21.07496
1038.947	35.82884
1039.111	29.5056
1039.276	-31.6079
1039.44	14.75222
1039.605	44.26014
1039.769	-25.28676
1039.933	65.34002
1040.098	27.39791
1040.262	-10.53658
1040.426	2.10739
1040.591	67.44814
1040.755	6.32224
1040.919	25.29023
1041.083	69.55627
1041.248	65.34002
1041.412	18.96735
1041.576	82.20557
1041.74	21.07496
1041.904	8.4297
1042.068	-6.32202
1042.232	48.47593
1042.397	-23.17966
1042.561	23.18258
1042.725	46.36803
1042.889	0
1043.053	6.32224
1043.217	59.01582
1043.381	65.34002
1043.544	27.39791
1043.708	21.07496
1043.872	23.18258
1044.036	37.93663
1044.2	44.26014
1044.364	29.5056
1044.528	2.10739
1044.691	94.85568
1044.855	31.61332
1045.019	31.61332
1045.183	12.64469
1045.346	23.18258
1045.51	67.44814
1045.674	12.64469
1045.837	44.26014
1046.001	65.34002
1046.165	71.66443
1046.328	52.69182
1046.492	27.39791
1046.655	6.32224
1046.819	-23.17966
1046.983	86.42218
1047.146	10.53718
1047.31	25.29023
1047.473	12.64469
1047.636	25.29023
1047.8	54.79979
1047.963	52.69182
1048.127	-77.95602
1048.29	-14.75104
