Data from absorb_only_2.23.25_USB4F045381__5__0110.txt Node

Date: Sun Feb 23 19:12:16 EST 2025
User: ssocol
Spectrometer: USB4F04538
Trigger mode: 4
Integration Time (sec): 2.600000E-3
Scans to average: 1
Electric dark correction enabled: true
Nonlinearity correction enabled: true
Boxcar width: 0
XAxis mode: Wavelengths
Number of Pixels in Spectrum: 3648
>>>>>Begin Spectral Data<<<<<
345.52	-12.29261
345.736	-12.29261
345.952	-12.29261
346.168	-60.75247
346.384	21.42623
346.6	-71.28546
346.816	19.31862
347.032	46.71934
347.248	-35.47071
347.464	84.66525
347.68	-16.50703
347.896	-1.75614
348.112	-10.18537
348.328	69.90763
348.544	-62.85911
348.76	23.53386
348.975	-46.00521
349.191	88.88192
349.407	-35.47071
349.623	25.64151
349.839	63.58328
350.055	-27.04265
350.27	8.78094
350.486	93.09867
350.702	-86.03057
350.918	-16.50703
351.133	78.34042
351.349	34.07236
351.565	-64.96574
351.781	65.69137
351.996	10.88843
352.212	-27.04265
352.428	-18.61421
352.644	38.28793
352.859	-14.39983
353.075	-35.47071
353.291	2.45862
353.506	21.42623
353.722	-41.79148
353.938	12.99594
354.153	38.28793
354.369	-33.36373
354.584	84.66525
354.8	-48.11204
355.016	40.39575
355.231	21.42623
355.447	-12.29261
355.662	12.99594
355.878	50.93519
356.093	-5.9708
356.309	76.23219
356.524	6.67348
356.74	42.50359
356.955	21.42623
357.171	17.21104
357.386	55.15113
357.602	42.50359
357.817	31.96461
358.033	-75.49848
358.248	72.0158
358.464	-60.75247
358.679	-27.04265
358.895	-60.75247
359.11	38.28793
359.325	-10.18537
359.541	4.56604
359.756	-58.64579
359.972	12.99594
360.187	72.0158
360.402	38.28793
360.618	-22.82848
360.833	-8.0781
361.048	-16.50703
361.264	-20.72135
361.479	-27.04265
361.694	-56.53909
361.909	-10.18537
362.125	46.71934
362.34	50.93519
362.555	-3.86348
362.77	-8.0781
362.986	48.82725
363.201	6.67348
363.416	-1.75614
363.631	93.09867
363.847	27.74919
364.062	-3.86348
364.277	55.15113
364.492	38.28793
364.707	97.31551
364.922	38.28793
365.138	34.07236
365.353	69.90763
365.568	0.35123
365.783	21.42623
365.998	-12.29261
366.213	-16.50703
366.428	21.42623
366.643	67.79949
366.858	12.99594
367.073	57.25913
367.288	4.56604
367.503	12.99594
367.718	105.74946
367.933	80.44868
368.148	12.99594
368.363	50.93519
368.578	34.07236
368.793	8.78094
369.008	34.07236
369.223	25.64151
369.438	-20.72135
369.653	55.15113
369.868	65.69137
370.083	38.28793
370.298	88.88192
370.513	31.96461
370.728	-3.86348
370.943	-37.57766
371.157	4.56604
371.372	72.0158
371.587	17.21104
371.802	63.58328
372.017	15.10348
372.232	-3.86348
372.446	42.50359
372.661	29.85689
372.876	82.55695
373.091	55.15113
373.306	61.47521
373.52	44.61145
373.735	-43.89836
373.95	36.18013
374.165	80.44868
374.379	2.45862
374.594	42.50359
374.809	59.36716
375.023	-35.47071
375.238	88.88192
375.453	-1.75614
375.667	72.0158
375.882	65.69137
376.097	88.88192
376.311	46.71934
376.526	21.42623
376.741	-20.72135
376.955	88.88192
377.17	17.21104
377.384	72.0158
377.599	46.71934
377.813	34.07236
378.028	12.99594
378.242	-16.50703
378.457	25.64151
378.672	27.74919
378.886	29.85689
379.101	-1.75614
379.315	42.50359
379.53	90.99028
379.744	44.61145
379.958	21.42623
380.173	34.07236
380.387	-37.57766
380.602	50.93519
380.816	4.56604
381.031	-37.57766
381.245	6.67348
381.459	-37.57766
381.674	-3.86348
381.888	2.45862
382.103	55.15113
382.317	12.99594
382.531	-33.36373
382.746	-31.25673
382.96	12.99594
383.174	42.50359
383.388	-8.0781
383.603	46.71934
383.817	46.71934
384.031	12.99594
384.246	61.47521
384.46	-35.47071
384.674	17.21104
384.888	-12.29261
385.103	72.0158
385.317	-8.0781
385.531	-14.39983
385.745	95.20708
385.959	38.28793
386.174	61.47521
386.388	-22.82848
386.602	10.88843
386.816	38.28793
387.03	88.88192
387.244	29.85689
387.458	55.15113
387.672	72.0158
387.887	-1.75614
388.101	74.12398
388.315	80.44868
388.529	10.88843
388.743	21.42623
388.957	34.07236
389.171	34.07236
389.385	99.42397
389.599	25.64151
389.813	34.07236
390.027	-24.93558
390.241	69.90763
390.455	23.53386
390.669	42.50359
390.883	-16.50703
391.097	67.79949
391.311	46.71934
391.525	63.58328
391.738	21.42623
391.952	-16.50703
392.166	12.99594
392.38	-35.47071
392.594	-10.18537
392.808	-1.75614
393.022	17.21104
393.236	50.93519
393.449	-3.86348
393.663	55.15113
393.877	23.53386
394.091	55.15113
394.305	44.61145
394.518	72.0158
394.732	4.56604
394.946	12.99594
395.16	88.88192
395.373	63.58328
395.587	21.42623
395.801	44.61145
396.015	-33.36373
396.228	0.35123
396.442	55.15113
396.656	21.42623
396.869	55.15113
397.083	8.78094
397.297	55.15113
397.51	34.07236
397.724	19.31862
397.938	21.42623
398.151	-10.18537
398.365	84.66525
398.578	10.88843
398.792	38.28793
399.005	-5.9708
399.219	-46.00521
399.433	88.88192
399.646	-10.18537
399.86	107.85801
400.073	84.66525
400.287	25.64151
400.5	44.61145
400.714	-8.0781
400.927	99.42397
401.141	-8.0781
401.354	12.99594
401.567	42.50359
401.781	23.53386
401.994	107.85801
402.208	15.10348
402.421	4.56604
402.635	57.25913
402.848	40.39575
403.061	84.66525
403.275	-18.61421
403.488	63.58328
403.701	-3.86348
403.915	76.23219
404.128	21.42623
404.341	88.88192
404.555	55.15113
404.768	-12.29261
404.981	29.85689
405.195	55.15113
405.408	29.85689
405.621	88.88192
405.834	74.12398
406.048	34.07236
406.261	-58.64579
406.474	76.23219
406.687	25.64151
406.9	-37.57766
407.114	40.39575
407.327	63.58328
407.54	101.53244
407.753	63.58328
407.966	42.50359
408.179	38.28793
408.392	15.10348
408.605	4.56604
408.819	40.39575
409.032	46.71934
409.245	29.85689
409.458	50.93519
409.671	72.0158
409.884	29.85689
410.097	76.23219
410.31	46.71934
410.523	67.79949
410.736	4.56604
410.949	25.64151
411.162	55.15113
411.375	63.58328
411.588	84.66525
411.801	12.99594
412.014	0.35123
412.227	97.31551
412.44	4.56604
412.653	23.53386
412.865	67.79949
413.078	10.88843
413.291	116.2924
413.504	103.64094
413.717	46.71934
413.93	57.25913
414.143	74.12398
414.356	42.50359
414.568	29.85689
414.781	-8.0781
414.994	46.71934
415.207	36.18013
415.42	72.0158
415.632	78.34042
415.845	65.69137
416.058	65.69137
416.271	8.78094
416.483	93.09867
416.696	63.58328
416.909	55.15113
417.121	38.28793
417.334	8.78094
417.547	65.69137
417.759	57.25913
417.972	59.36716
418.185	57.25913
418.397	65.69137
418.61	-18.61421
418.823	34.07236
419.035	23.53386
419.248	25.64151
419.46	-10.18537
419.673	122.61842
419.885	55.15113
420.098	-14.39983
420.311	8.78094
420.523	63.58328
420.736	59.36716
420.948	114.18377
421.161	57.25913
421.373	36.18013
421.586	17.21104
421.798	80.44868
422.01	61.47521
422.223	25.64151
422.435	105.74946
422.648	57.25913
422.86	12.99594
423.073	141.59765
423.285	63.58328
423.497	118.40105
423.71	139.48876
423.922	76.23219
424.134	59.36716
424.347	42.50359
424.559	15.10348
424.771	44.61145
424.984	42.50359
425.196	63.58328
425.408	101.53244
425.621	93.09867
425.833	21.42623
426.045	74.12398
426.257	112.07516
426.47	21.42623
426.682	139.48876
426.894	90.99028
427.106	72.0158
427.318	122.61842
427.531	74.12398
427.743	55.15113
427.955	97.31551
428.167	53.04315
428.379	57.25913
428.591	90.99028
428.804	90.99028
429.016	126.83588
429.228	88.88192
429.44	181.67054
429.652	6.67348
429.864	59.36716
430.076	97.31551
430.288	128.94464
430.5	72.0158
430.712	55.15113
430.924	63.58328
431.136	126.83588
431.348	93.09867
431.56	34.07236
431.772	65.69137
431.984	131.05342
432.196	126.83588
432.408	46.71934
432.62	147.92445
432.832	118.40105
433.044	76.23219
433.256	97.31551
433.468	80.44868
433.679	139.48876
433.891	118.40105
434.103	126.83588
434.315	67.79949
434.527	143.70656
434.739	72.0158
434.95	97.31551
435.162	158.46953
435.374	152.14241
435.586	177.45199
435.798	126.83588
436.009	141.59765
436.221	126.83588
436.433	126.83588
436.645	141.59765
436.856	105.74946
437.068	78.34042
437.28	72.0158
437.491	74.12398
437.703	166.90597
437.915	97.31551
438.126	131.05342
438.338	156.36047
438.55	152.14241
438.761	99.42397
438.973	137.37989
439.184	177.45199
439.396	90.99028
439.608	171.12431
439.819	143.70656
440.031	53.04315
440.242	164.79683
440.454	131.05342
440.665	173.23352
440.877	135.27105
441.088	147.92445
441.3	141.59765
441.511	139.48876
441.723	147.92445
441.934	135.27105
442.146	175.34274
442.357	114.18377
442.569	206.98356
442.78	156.36047
442.991	211.20268
443.203	185.88917
443.414	198.54556
443.626	198.54556
443.837	185.88917
444.048	141.59765
444.26	154.25143
444.471	215.42188
444.682	217.53151
444.894	164.79683
445.105	173.23352
445.316	143.70656
445.528	183.77985
445.739	242.84859
445.95	242.84859
446.161	131.05342
446.373	116.2924
446.584	173.23352
446.795	297.71172
447.006	219.64116
447.217	190.10789
447.429	173.23352
447.64	225.97022
447.851	164.79683
448.062	198.54556
448.273	249.1783
448.484	263.94829
448.695	240.73873
448.907	143.70656
449.118	192.21728
449.329	232.29947
449.54	240.73873
449.751	190.10789
449.962	240.73873
450.173	293.49103
450.384	257.61818
450.595	175.34274
450.806	274.49885
451.017	223.86052
451.228	196.43612
451.439	282.93964
451.65	285.04988
451.861	190.10789
452.072	316.70572
452.283	327.25857
452.494	327.25857
452.705	337.81186
452.915	354.69804
453.126	342.0333
453.337	244.95848
453.548	350.47639
453.759	333.59049
453.97	215.42188
454.181	358.91976
454.391	350.47639
454.602	369.47435
454.813	354.69804
455.024	344.14405
455.235	443.36809
455.445	388.47368
455.656	422.25357
455.867	377.91833
456.078	434.92209
456.288	278.71921
456.499	320.92681
456.71	407.47436
456.921	430.69919
457.131	540.51437
457.342	449.70275
457.553	451.81433
457.763	375.80731
457.974	426.47635
458.184	441.25656
458.395	555.30016
458.606	504.60887
458.816	561.63713
459.027	563.74948
459.237	597.54891
459.448	663.04455
459.659	519.39299
459.869	548.96331
460.08	599.66148
460.29	654.59284
460.501	675.72246
460.711	701.07953
460.922	570.08662
461.132	686.28771
461.343	637.69
461.553	650.36706
461.764	696.85324
461.974	629.23887
462.184	734.89144
462.395	741.23147
462.605	838.45662
462.816	648.25418
463.026	836.34282
463.236	779.27365
463.447	840.57043
463.657	730.6648
463.867	963.18551
464.078	800.40958
464.288	887.07645
464.498	1068.90714
464.709	1007.58672
464.919	891.30447
465.129	1111.19974
465.339	1140.8057
465.55	1051.99068
465.76	973.75696
465.97	1121.7732
466.18	1030.84561
466.391	1212.70922
466.601	994.90036
466.811	1240.2028
467.021	1200.02006
467.231	1352.29635
467.441	1271.92676
467.651	1413.63241
467.862	1354.41137
468.072	1559.5704
468.282	1441.12806
468.492	1430.5528
468.702	1462.27858
468.912	1694.92757
469.122	1517.26981
469.332	1737.22446
469.542	1680.12336
469.752	1711.84648
469.962	1730.88001
470.172	1927.54019
470.382	1758.37239
470.592	2109.35472
470.802	1838.73087
471.012	2077.64654
471.222	2206.58216
471.432	2227.71623
471.642	2136.83376
471.852	2291.11307
472.062	2172.76588
472.272	2314.35649
472.482	2348.16302
472.691	2485.47507
472.901	2371.40354
473.111	2458.01627
473.321	2586.84477
473.531	2694.51966
473.741	2702.96336
473.95	2922.42363
474.16	2738.84675
474.37	2852.8035
474.58	2945.62682
474.79	3251.31258
474.999	2937.1895
475.209	2996.24574
475.419	3086.91602
475.628	3384.02014
475.838	3249.20557
476.048	3409.28995
476.258	3451.40063
476.467	3592.4186
476.677	3630.28987
476.886	3727.04409
477.096	3937.23706
477.306	3809.04285
477.515	3764.89336
477.725	3922.53004
477.935	3825.85943
478.144	3987.65361
478.354	3790.1227
478.563	4306.68074
478.773	4191.29946
478.982	4271.02434
479.192	4342.33092
479.401	4466.00932
479.611	4260.53599
479.82	4296.19421
480.03	4633.58643
480.239	4738.24952
480.449	4803.11228
480.658	5031.00386
480.868	5041.45105
481.077	5083.23401
481.287	4991.29929
481.496	5170.94803
481.705	5281.57613
481.915	5435.92804
482.124	5158.41997
482.333	5442.18284
482.543	5254.44701
482.752	5287.83614
482.961	5554.73301
483.171	5713.02053
483.38	5719.26593
483.589	5690.11893
483.799	5898.21029
484.008	6006.32456
484.217	6012.55997
484.426	6128.91554
484.636	6122.68407
484.845	6324.06111
485.054	6218.20996
485.263	6537.6539
485.472	6342.73441
485.682	6622.60779
485.891	6595.6754
486.1	6560.45022
486.309	6709.59355
486.518	6848.27287
486.727	6717.8758
486.936	7059.2009
487.146	6877.23771
487.355	6887.58121
487.564	7032.33095
487.773	7092.26641
487.982	7007.52456
488.191	7515.41758
488.4	7284.34691
488.609	7304.98935
488.818	7274.02487
489.027	7684.42289
489.236	7651.45748
489.445	7754.45644
489.654	7680.30251
489.863	7873.86959
490.072	7945.89554
490.281	7904.74094
490.49	7892.39296
490.698	8219.36696
490.907	8075.47909
491.116	8588.9236
491.325	8147.43526
491.534	8359.05086
491.743	8266.62314
491.952	8363.15784
492.16	8307.70701
492.369	8683.26695
492.578	8818.56094
492.787	8670.96353
492.996	8886.17827
493.204	8802.1659
493.413	9158.50133
493.622	9129.85022
493.831	8820.61024
494.039	9226.02291
494.248	9125.75693
494.457	9281.25417
494.665	9140.08314
494.874	9393.72481
495.083	9281.25417
495.291	9544.97123
495.5	9600.13398
495.709	9518.40727
495.917	9403.94695
496.126	9734.92845
496.335	9761.47099
496.543	9973.72037
496.752	9798.21798
496.96	9834.9601
497.169	9569.48943
497.377	9728.80288
497.586	9769.63741
497.794	10175.62002
498.003	9906.38931
498.211	10365.15999
498.42	10232.69813
498.628	10228.62148
498.837	10322.3708
499.045	10112.41377
499.254	10122.60923
499.462	10442.57331
499.671	10365.15999
499.879	10475.16279
500.087	10456.83161
500.296	10739.83303
500.504	10678.77375
500.713	10890.4003
500.921	10963.62638
501.129	10737.79789
501.338	10745.93836
501.546	11032.77098
501.754	10967.69406
501.962	10908.7082
502.171	11124.26638
502.379	11018.53637
502.587	10963.62638
502.795	11181.18587
503.004	11250.29132
503.212	11362.05445
503.42	11225.90253
503.628	11412.84587
503.837	11307.19274
504.045	11542.84429
504.253	11727.62015
504.461	11636.25687
504.669	11658.59179
504.877	11818.96564
505.085	11973.19924
505.294	12129.41497
505.502	11530.6586
505.71	11894.05902
505.918	11682.95591
506.126	11898.11779
506.334	11798.66815
506.542	11912.32325
506.75	11890.00021
506.958	12155.78456
507.166	11934.6453
507.374	12159.84131
507.582	12027.98146
507.79	12411.30335
507.998	12050.29849
508.206	12435.63273
508.414	12255.1664
508.622	12532.94079
508.83	12184.18117
509.037	12524.83235
509.245	12307.89259
509.453	12358.58637
509.661	12719.40756
509.869	12630.23422
510.077	12307.89259
510.285	12749.80497
510.492	12843.01572
510.7	12960.52591
510.908	12648.47516
511.116	12958.50002
511.324	12804.51706
511.531	12697.1153
511.739	12585.64317
511.947	13029.40309
512.155	13005.09416
512.362	13045.60864
512.57	13045.60864
512.778	12952.42233
512.985	13104.35117
513.193	13238.02639
513.401	13138.78458
513.608	13557.96208
513.816	13434.45424
514.024	13314.98215
514.231	13400.0315
514.439	13481.02439
514.646	13331.18258
514.854	13408.13107
515.061	13187.39417
515.269	13596.42898
515.477	13391.93187
515.684	13689.55428
515.892	13679.4323
516.099	13748.26017
516.307	13691.57866
516.514	14183.42087
516.722	13732.06571
516.929	14023.53806
517.136	13995.20289
517.344	13889.95364
517.551	13887.92954
517.759	14270.4402
517.966	14155.0882
518.173	14108.54077
518.381	14169.25459
518.588	14120.68369
518.796	14080.20698
519.003	14274.48752
519.21	14155.0882
519.418	14397.92758
519.625	14294.72404
519.832	14717.63307
520.039	14408.04535
520.247	14960.43181
520.454	14616.46361
520.661	14919.96593
520.868	14768.21694
521.076	15023.15363
521.283	14707.51623
521.49	14913.89603
521.697	14743.93675
521.904	14932.10571
522.112	14889.6164
522.319	14905.80283
522.526	14919.96593
522.733	15383.29678
522.94	15221.43437
523.147	15263.92311
523.354	15108.13119
523.561	15276.06276
523.768	15091.94501
523.975	15731.31192
524.183	14978.64141
524.39	15243.69037
524.597	15350.92416
524.804	15626.09574
525.011	15512.78846
525.218	15480.41534
525.425	15448.04236
525.632	15662.51645
525.838	15524.92842
526.045	15727.26509
526.252	15674.65675
526.459	15775.82723
526.666	15707.03104
526.873	15690.84386
527.08	15848.67159
527.287	16057.0963
527.494	15961.98811
527.701	16427.44524
527.907	16077.33249
528.114	16241.25155
528.321	16338.3941
528.528	16376.84754
528.735	16496.26014
528.941	16413.27776
529.148	16269.58436
529.355	16273.63193
529.562	16259.46546
529.768	16484.11616
529.975	16202.80042
530.182	16492.21214
530.388	16289.8223
530.595	16678.42918
530.802	16334.34641
531.008	16812.03164
531.215	16814.056
531.422	16858.59258
531.628	16720.93792
531.835	16759.39912
532.042	16607.58353
532.248	16767.49632
532.455	16644.01808
532.661	17216.95616
532.868	16949.69396
533.074	17352.63106
533.281	16899.08144
533.487	17243.2801
533.694	16994.23435
533.9	17583.51252
534.107	17302.00454
534.313	17350.60597
534.52	17299.97952
534.726	17607.81824
534.933	17267.57957
535.139	17385.03304
535.345	17261.50466
535.552	17119.76429
535.758	17812.41023
535.965	17779.99733
536.171	17729.35392
536.377	18142.66754
536.584	17727.32823
536.79	17741.50815
536.996	17893.44632
537.203	18183.19647
537.409	17994.74926
537.615	18051.48278
537.821	18008.93238
538.028	18448.69764
538.234	18448.69764
538.44	18426.40116
538.646	18128.48276
538.853	18183.19647
539.059	17976.51408
539.265	18333.16632
539.471	18558.15979
539.677	18497.3461
539.883	18337.21985
540.09	18325.05932
540.296	18444.6437
540.502	18906.8929
540.708	18657.49632
540.914	18898.7815
541.12	18600.73145
541.326	19158.37851
541.532	18712.23679
541.738	19036.68414
541.944	18693.98965
542.15	19125.92524
542.356	19006.26284
542.562	19170.54875
542.768	18868.3643
542.974	19091.44479
543.18	19144.18007
543.386	19312.54584
543.592	19353.12015
543.798	19359.20644
544.004	19316.6032
544.21	19683.86266
544.415	19470.795
544.621	19663.56851
544.827	19647.3335
545.033	19639.2161
545.239	19620.95218
545.445	20246.17729
545.651	19629.06943
545.856	20018.77657
546.062	19639.2161
546.268	19825.93338
546.474	19409.92695
546.679	19334.86151
546.885	19079.2755
547.091	19456.59212
547.297	19328.77537
547.502	19541.81244
547.708	19625.0108
547.914	19752.86587
548.119	19781.28037
548.325	19732.57031
548.531	19562.10407
548.736	20156.835
548.942	19876.67791
549.147	20037.04789
549.353	20112.16691
549.559	20229.93263
549.764	20225.87151
549.97	20455.35126
550.175	20175.1089
550.381	20315.22008
550.586	20256.33033
550.792	20449.25819
550.997	20286.79011
551.203	20384.26773
551.408	20558.9393
551.614	20605.65903
551.819	21117.68844
552.025	21201.01948
552.23	20888.05554
552.435	20790.52826
552.641	21083.13856
552.846	21016.07451
553.052	20896.18324
553.257	21239.63861
553.462	21251.83443
553.668	20827.09988
553.873	21131.91521
554.078	21697.08038
554.283	21335.17642
554.489	21625.9096
554.694	21164.43428
554.899	21369.73483
555.105	21168.49924
555.31	21534.41138
555.515	21367.70195
555.72	21465.28471
555.925	21607.60932
556.131	21597.44263
556.336	21383.96511
556.541	21715.38221
556.746	21703.18095
556.951	21648.27704
557.156	21111.59132
557.361	21709.28157
557.567	21806.8961
557.772	22173.02924
557.977	21609.64267
558.182	21656.41077
558.387	21762.15499
558.592	21987.91322
558.797	21780.45795
559.002	21969.60674
559.207	21878.07898
559.412	21611.67602
559.617	21593.37598
559.822	22329.68998
560.027	22339.86351
560.232	22606.4422
560.437	22030.62953
560.642	22394.80215
560.847	22189.30466
561.051	22166.92602
561.256	21778.42427
561.461	22291.0314
561.666	22144.54783
561.871	22457.8831
562.076	22331.72468
562.281	22364.28036
562.485	22012.32234
562.69	22429.3945
562.895	22333.75938
563.1	22752.98469
563.305	22356.14135
563.509	22439.56892
563.714	22486.37241
563.919	22331.72468
564.123	22600.33666
564.328	22797.76516
564.533	22834.40497
564.737	22044.86867
564.942	22510.79238
565.147	22913.79502
565.351	22655.28768
565.556	22773.33924
565.761	22317.48187
565.965	22897.50946
566.17	22828.29825
566.374	23007.44118
566.579	22913.79502
566.784	22856.79651
566.988	22779.44567
567.193	22968.76038
567.397	23145.88757
567.602	23540.94901
567.806	22917.86644
568.011	23158.10416
568.215	23349.51259
568.42	23288.42171
568.624	23390.24143
568.828	23367.84041
569.033	23302.67599
569.237	23671.30426
569.442	23408.56982
569.646	22903.61652
569.85	23451.33704
570.055	23618.34595
570.259	23595.94112
570.463	23300.63966
570.668	23113.31058
570.872	23149.95975
571.076	23412.64283
571.281	23231.40615
571.485	23500.21556
571.689	23748.70853
571.893	24027.80628
572.098	23822.04282
572.302	23591.86755
572.506	23758.89362
572.71	23952.42421
572.914	23811.85728
573.119	23820.00571
573.323	23618.34595
573.527	23962.61075
573.731	24361.97775
573.935	24235.63607
574.139	23875.00883
574.343	23538.91231
574.547	23714.07977
574.751	23650.93544
574.955	24152.09321
575.159	24174.5067
575.364	24013.54451
575.568	24280.46582
575.772	23932.05134
575.976	23960.57343
576.18	24182.65714
576.383	24235.63607
576.587	24027.80628
576.791	23978.90936
576.995	24311.0323
577.199	24518.9
577.403	24351.78853
577.607	24559.66151
577.811	24639.14935
578.015	24131.7176
578.219	24834.82765
578.422	24543.35679
578.626	24547.43295
578.83	24486.29152
579.034	24749.21565
579.238	24529.09029
579.442	24639.14935
579.645	24594.30959
579.849	24610.61482
580.053	24969.36923
580.257	24761.44568
580.46	24726.79416
580.664	25128.38581
580.868	24755.33065
581.071	24930.63652
581.275	24826.67395
581.479	24928.59798
581.682	25024.41187
581.886	25095.76591
582.09	25534.14199
582.293	25532.1028
582.497	25424.02907
582.7	25468.88917
582.904	25330.23394
583.107	25352.6628
583.311	25324.11702
583.515	25713.59777
583.718	24985.67798
583.922	25448.49809
584.125	25509.67194
584.329	24959.17633
584.532	25173.23911
584.735	25150.81232
584.939	25183.43318
585.142	25556.57312
585.346	25513.75026
585.549	25799.25242
585.753	25546.37712
585.956	25683.00764
586.159	25950.17581
586.363	26250.01224
586.566	25774.77932
586.769	25942.01753
586.973	25831.88364
587.176	25715.63712
587.379	25807.41018
587.582	25903.26611
587.786	25754.38528
587.989	26101.10915
588.192	26090.91065
588.395	26315.28767
588.599	26145.98309
588.802	26276.53018
589.005	26003.20533
589.208	26090.91065
589.411	25870.63384
589.615	25856.35737
589.818	25858.39686
590.021	25968.53205
590.224	26274.49033
590.427	26266.33094
590.63	26268.37078
590.833	26788.58356
591.036	26241.85293
591.239	26625.36866
591.442	26247.97241
591.645	26333.64669
591.848	26819.18741
592.051	26672.29195
592.254	26176.57944
592.457	26762.06049
592.66	26553.96519
592.863	26872.23486
593.066	26911.00092
593.269	26992.61536
593.472	26658.01087
593.675	27263.9992
593.878	26762.06049
594.081	26523.36429
594.284	26653.93057
594.486	27096.67701
594.689	27257.8775
594.892	26690.65346
595.095	26762.06049
595.298	26815.10688
595.5	27168.09392
595.703	27582.34353
595.906	27504.7953
596.109	27117.08167
596.311	26933.44467
596.514	27147.68892
596.717	27029.34259
596.92	27468.06255
597.122	27555.81368
597.325	27874.18538
597.528	27237.47191
597.73	27533.3655
597.933	27539.48771
598.136	27459.89977
598.338	27174.21544
598.541	27059.94896
598.743	27851.73515
598.946	27402.76089
599.148	27796.63064
599.351	27731.3227
599.554	28170.13308
599.756	27872.14444
599.959	27578.262
600.161	27643.56707
600.363	27404.80155
600.566	27884.39008
600.768	27612.95517
600.971	28059.91531
601.173	27312.97323
601.376	28147.68105
601.578	27974.19263
601.78	27951.74179
601.983	28210.9553
602.185	28023.17678
602.388	28229.32544
602.59	27680.30172
602.792	27737.44527
602.995	27792.54886
603.197	27647.64868
603.399	28017.05372
603.601	27968.06966
603.804	27737.44527
604.006	27629.28148
604.208	27521.1211
604.41	28104.81846
604.613	28272.18944
604.815	28131.35239
605.017	28268.10713
605.219	28237.48997
605.421	28153.80432
605.623	28415.07291
605.826	28410.99045
606.028	28557.96162
606.23	28313.01275
606.432	28343.63051
606.634	28821.29862
606.836	28378.33094
607.038	28315.05393
607.24	28323.21864
607.442	28523.2596
607.644	28319.13628
607.846	28651.86274
608.048	28737.60048
608.25	28455.89772
608.452	28353.83649
608.654	28384.45458
608.856	27974.19263
609.058	28351.79529
609.26	28094.61315
609.462	28535.50733
609.664	28417.11414
609.866	28333.42456
610.067	28319.13628
610.269	28378.33094
610.471	28217.07867
610.673	28223.20205
610.875	28351.79529
611.077	28698.81413
611.278	28319.13628
611.48	28515.09446
611.682	28631.44926
611.884	28937.66236
612.085	28676.35905
612.287	29127.52623
612.489	28792.71857
612.69	28698.81413
612.892	28980.53407
613.094	29054.02948
613.295	28541.63122
613.497	28909.08148
613.699	28527.34217
613.9	28982.57559
614.102	28200.7497
614.304	28290.55988
614.505	27888.47196
614.707	28141.55779
614.908	27963.98769
615.11	28276.27175
615.311	28404.86677
615.513	28494.68169
615.714	28615.11856
615.916	28874.3764
616.117	28853.96179
616.319	28890.70817
616.52	28847.83743
616.722	29225.524
616.923	28639.61464
617.124	29290.85718
617.326	28164.00979
617.527	28468.14525
617.729	28449.77397
617.93	28635.53195
618.131	28566.12684
618.333	28653.90409
618.534	28674.31768
618.735	28704.93826
618.937	28284.43639
619.138	28533.46604
619.339	28617.15989
619.54	28741.68327
619.742	28553.87901
619.943	28325.25983
620.144	28359.96009
620.345	28539.58992
620.546	28864.16908
620.748	29237.77389
620.949	28917.24743
621.15	29284.73215
621.351	29074.44511
621.552	28931.53787
621.753	28933.57937
621.954	29258.19046
622.155	28709.02103
622.356	28721.26934
622.558	28698.81413
622.759	28915.20594
622.96	28827.42295
623.161	29039.7386
623.362	28686.56589
623.563	29119.35986
623.764	29156.10867
623.965	29082.61139
624.166	29250.02382
624.366	28690.64863
624.567	28651.86274
624.768	29025.44777
624.969	28817.21575
625.17	28576.3334
625.371	28498.76423
625.572	28837.63017
625.773	28798.84285
625.973	29070.36197
626.174	28655.94544
626.375	28847.83743
626.576	28825.3815
626.777	28766.18014
626.977	28678.40041
627.178	29523.61535
627.379	29556.28427
627.58	29695.13021
627.78	29503.19742
627.981	29264.31545
628.182	28941.74536
628.382	29092.81926
628.583	28966.24345
628.784	29064.23728
628.984	28758.0145
629.185	29437.86075
629.386	29162.2335
629.586	29484.82137
629.787	28880.50081
629.987	28747.80748
630.188	29250.02382
630.388	29007.07392
630.589	28813.13287
630.79	29378.65032
630.99	28837.63017
631.191	28937.66236
631.391	29370.48344
631.591	29043.8217
631.792	29450.11129
631.992	29407.23456
632.193	29290.85718
632.393	29154.06706
632.594	29237.77389
632.794	29029.53086
632.994	29333.73266
633.195	29129.56783
633.395	28902.95704
633.595	29317.39909
633.796	29223.48235
633.996	29754.34544
634.196	30072.89852
634.397	30221.97455
634.597	29627.74847
634.797	29450.11129
634.997	29217.35743
635.198	29258.19046
635.398	29154.06706
635.598	29637.95775
635.798	29611.41368
635.998	29541.99159
636.199	29372.52516
636.399	29827.85528
636.599	29433.77724
636.799	29525.65715
636.999	29497.07206
637.199	29721.67486
637.399	29423.5685
637.599	29399.06761
637.799	28984.61711
637.999	29774.7647
638.199	29454.19482
638.399	29725.75867
638.599	29497.07206
638.799	29750.2616
638.999	29541.99159
639.199	29537.90797
639.399	29639.99961
639.599	29339.85776
639.799	29282.69047
639.999	29282.69047
640.199	29207.14924
640.399	29711.46536
640.599	28582.45735
640.799	30085.15111
640.998	29180.60806
641.198	29637.95775
641.398	29388.85895
641.598	29731.88439
641.798	30117.82489
641.997	30207.67932
642.197	29707.38156
642.397	30136.20402
642.597	29934.0387
642.796	30199.51064
642.996	29501.15563
643.196	29407.23456
643.395	29750.2616
643.595	29648.16706
643.795	29490.94671
643.994	30013.67825
644.194	29570.577
644.394	29860.52678
644.593	29815.60355
644.793	30156.62539
644.992	29929.95466
645.192	30262.81839
645.392	30277.11385
645.591	29989.17359
645.791	29876.86264
645.99	30072.89852
646.19	29966.71113
646.389	30034.09892
646.589	29842.14903
646.788	29878.90463
646.987	29625.70662
647.187	29807.43574
647.386	29966.71113
647.586	30025.93064
647.785	30291.40936
647.984	30152.5411
648.184	30520.14575
648.383	30254.64958
648.582	30217.89019
648.782	30238.31203
648.981	29927.91265
649.18	30211.76366
649.38	30344.50751
649.579	30479.29883
649.778	30303.66271
649.977	30060.64597
650.177	30076.98271
650.376	30085.15111
650.575	29882.9886
650.774	29870.73669
650.973	30324.08505
651.173	30021.8465
651.372	30499.72223
651.571	30532.39993
651.77	29991.21564
651.969	30101.48796
652.168	30177.04687
652.367	30413.94479
652.566	30440.49471
652.765	30630.435
652.964	31045.07577
653.163	30601.84113
653.362	30773.40821
653.561	30185.2155
653.76	29956.50096
653.959	29784.97437
654.158	30189.29982
654.357	30011.63619
654.556	29548.11701
654.755	30663.11402
654.954	29899.32456
655.153	29872.77867
655.352	29899.32456
655.551	29784.97437
655.749	29862.56876
655.948	30038.18307
656.147	30175.00472
656.346	30411.9025
656.545	30358.8033
656.743	30810.17381
656.942	30346.54976
657.141	30616.13803
657.34	30857.15272
657.538	30507.89162
657.737	30242.39641
657.936	30675.36874
658.135	30401.69105
658.333	30548.7389
658.532	30140.28828
658.731	30289.36714
658.929	29848.27494
659.128	30175.00472
659.326	29860.52678
659.525	30185.2155
659.724	30501.76458
659.922	30195.4263
660.121	30156.62539
660.319	29729.84248
660.518	29901.36656
660.716	30140.28828
660.915	30614.09561
661.113	30575.28991
661.312	29978.96336
661.51	30250.56519
661.709	30869.4082
661.907	30654.94423
662.105	30683.53858
662.304	30891.87673
662.502	30757.06808
662.701	30665.15647
662.899	30428.24088
663.097	30546.69653
663.296	30258.73398
663.494	30150.49896
663.692	30136.20402
663.891	30565.07796
664.089	30426.19857
664.287	30426.19857
664.485	30428.24088
664.684	30585.50189
664.882	30268.94501
665.08	30589.58669
665.278	30716.21814
665.476	30258.73398
665.675	29856.44283
665.873	30597.75631
666.071	30275.07163
666.269	29981.0054
666.467	29789.05825
666.665	29836.02313
666.863	28890.70817
667.061	29940.16476
667.259	29940.16476
667.457	30317.95833
667.655	30366.97236
667.853	30632.47743
668.051	30360.84556
668.249	30291.40936
668.447	30552.82366
668.645	30524.23047
668.843	30642.68959
669.041	30752.98306
669.239	30244.4386
669.437	30087.19321
669.635	30285.2827
669.833	30434.36779
670.031	30571.20512
670.229	30565.07796
670.426	30456.83323
670.624	30072.89852
670.822	29699.21399
671.02	30095.36163
671.218	30193.38414
671.415	30467.04485
671.613	30217.89019
671.811	29997.34179
672.009	29819.68745
672.206	29854.40086
672.404	29909.53457
672.602	29784.97437
672.799	29607.32999
672.997	30326.12729
673.195	30032.05685
673.392	30322.04281
673.59	29760.47121
673.788	29495.03028
673.985	29460.32011
674.183	29848.27494
674.38	29993.25769
674.578	30230.14328
674.775	30154.58324
674.973	29848.27494
675.17	29678.79514
675.368	30011.63619
675.565	30211.76366
675.763	30411.9025
675.96	30168.87826
676.158	30219.93237
676.355	29372.52516
676.553	29946.29082
676.75	29158.15028
676.947	29366.4
677.145	29209.19087
677.342	29962.62706
677.539	29486.86315
677.737	29915.66058
677.934	29815.60355
678.131	29735.9682
678.329	29882.9886
678.526	29552.20064
678.723	29507.281
678.92	29850.31691
679.118	29207.14924
679.315	29413.35978
679.512	29280.6488
679.709	29084.65296
679.906	29764.55506
680.104	29695.13021
680.301	29231.64894
680.498	29107.11033
680.695	29637.95775
680.892	29762.51313
681.089	29429.69374
681.286	29590.99529
681.483	28804.96714
681.68	29211.23251
681.877	29237.77389
682.075	29352.108
682.272	29074.44511
682.469	29580.78613
682.665	29254.10713
682.862	29550.15883
683.059	29243.89885
683.256	29668.58575
683.453	29443.98602
683.65	29286.77382
683.847	29121.40145
684.044	29335.77436
684.241	29488.90493
684.438	29429.69374
684.635	28751.89028
684.831	28956.03589
685.028	28780.47004
685.225	29039.7386
685.422	28956.03589
685.619	29331.69096
685.815	28884.58375
686.012	29205.1076
686.209	28778.42862
686.405	29209.19087
686.602	28484.47534
686.799	28668.19359
686.996	28909.08148
687.192	28978.49255
687.389	29027.48931
687.586	29235.73224
687.782	29274.52378
687.979	28880.50081
688.175	28402.82555
688.372	28396.70188
688.568	28600.82924
688.765	28927.45488
688.962	28870.29347
689.158	28268.10713
689.355	28347.7129
689.551	28290.55988
689.748	27784.38531
689.944	28310.97157
690.14	28776.38721
690.337	28413.03168
690.533	28194.62636
690.73	27788.46708
690.926	28270.14829
691.123	27998.68462
691.319	27761.93565
691.515	28053.7922
691.712	28023.17678
691.908	27545.60994
692.104	27500.71386
692.301	28078.28471
692.497	27643.56707
692.693	27880.30819
692.889	28123.18808
693.086	28380.37215
693.282	28027.25882
693.478	28678.40041
693.674	28819.25718
693.87	28541.63122
694.067	28161.96869
694.263	27927.25011
694.459	27904.79955
694.655	27423.16752
694.851	27496.63243
695.047	28135.43454
695.243	27925.20915
695.439	28043.58703
695.635	28017.05372
695.831	28088.48998
696.027	28051.75116
696.224	27798.67153
696.42	27386.43568
696.615	27706.83254
696.811	27470.10325
697.007	27496.63243
697.203	27619.07753
697.399	27472.14395
697.595	27245.63413
697.791	26943.64643
697.987	26717.17586
698.183	27135.44598
698.379	27027.30218
698.575	27600.71048
698.77	26833.46932
698.966	27300.72965
699.162	27541.52845
699.358	26847.7513
699.554	26692.69364
699.749	27225.22863
699.945	27147.68892
700.141	27192.58009
700.337	27398.67958
700.532	27490.51029
700.728	27631.32228
700.924	27180.33698
701.119	28076.24366
701.315	27166.05341
701.511	26945.68678
701.706	27596.62893
701.902	27178.29647
702.097	26796.74455
702.293	27127.28405
702.489	27037.50426
702.684	27129.32453
702.88	27096.67701
703.075	26886.51703
703.271	26945.68678
703.466	26719.21605
703.662	26796.74455
703.857	26843.67073
704.053	27123.20309
704.248	27049.7468
704.443	27447.65564
704.639	27239.51247
704.834	27315.01383
705.03	27147.68892
705.225	27192.58009
705.42	26709.01509
705.616	26917.12193
705.811	26513.16407
706.006	26462.16355
706.202	26258.17157
706.397	26413.20399
706.592	26764.10071
706.787	26762.06049
706.983	26596.80704
707.178	27035.46384
707.373	26637.60944
707.568	27133.4055
707.763	26325.48711
707.959	26804.90557
708.154	26631.48904
708.349	26039.91879
708.544	26709.01509
708.739	26486.64368
708.934	25829.84418
709.129	26235.73347
709.324	26003.20533
709.519	26635.5693
709.714	26068.47409
709.909	26551.92512
710.104	26241.85293
710.299	25972.61123
710.494	25791.09469
710.689	26088.87095
710.884	25972.61123
711.079	26617.20817
711.274	26182.69875
711.469	26547.84498
711.664	26031.76019
711.859	26237.77329
712.054	26378.52486
712.249	26241.85293
712.443	26052.15673
712.638	26362.20544
712.833	26158.22158
713.028	26111.3077
713.223	25487.24131
713.417	26027.68091
713.612	25744.18833
713.807	25650.37865
714.002	25195.66615
714.196	25632.02507
714.391	24889.86615
714.586	25774.77932
714.78	25540.25954
714.975	25719.71584
715.17	25654.45725
715.364	26223.49458
715.559	25752.34588
715.754	25852.2784
715.948	25364.89684
716.143	25519.86775
716.337	25144.69598
716.532	25678.92899
716.726	25426.06815
716.921	25373.05291
717.115	25517.82859
717.31	25791.09469
717.504	25525.98527
717.699	25846.15995
717.893	25336.35087
718.088	25183.43318
718.282	25613.67164
718.476	25387.3261
718.671	25281.29911
718.865	25656.49655
719.059	25048.8758
719.254	25397.5213
719.448	25479.08478
719.642	25591.23989
719.837	25183.43318
720.031	25057.03051
720.225	24590.23331
720.419	24441.45594
720.614	24918.40531
720.808	25036.64379
721.002	24427.19033
721.196	24624.88203
721.39	24539.28063
721.585	24237.67376
721.779	24276.39033
721.973	24671.76084
722.167	24361.97775
722.361	24812.40505
722.555	24798.13628
722.749	24714.56438
722.943	24633.03477
723.137	24433.30415
723.331	24559.66151
723.525	24779.79088
723.719	24620.80567
723.913	24630.99658
724.107	24260.0885
724.301	24484.25352
724.495	24107.26723
724.689	24211.18403
724.883	23785.3752
725.077	24058.36768
725.271	24315.10787
725.465	24355.86421
725.659	24184.69476
725.853	24596.34774
726.046	24380.31852
726.24	24594.30959
726.434	23907.60427
726.628	24871.5198
726.822	24052.25535
727.015	24488.32954
727.209	24225.44767
727.403	24294.7301
727.596	24329.37247
727.79	24304.91895
727.984	24580.04265
728.177	24486.29152
728.371	24557.62341
728.565	24527.05222
728.758	24366.05346
728.952	24433.30415
729.146	24417.00069
729.339	24663.60791
729.533	24129.68005
729.726	24211.18403
729.92	24331.41028
730.113	24396.6216
730.307	24288.61682
730.5	24706.41124
730.694	24251.93764
730.887	23848.52558
731.081	23997.24551
731.274	23976.87202
731.468	23991.13344
731.661	24011.50713
731.854	24066.5175
732.048	24019.65668
732.241	24005.39499
732.435	23919.82775
732.628	23805.74598
732.821	23817.96859
733.014	24064.48004
733.208	23465.59309
733.401	23520.58213
733.594	23455.41018
733.788	23483.92252
733.981	23661.11981
734.174	23479.84929
734.367	23571.49991
734.56	23453.37361
734.754	23659.08293
734.947	24005.39499
735.14	23769.07878
735.333	23883.15762
735.526	24066.5175
735.719	23805.74598
735.912	24335.48591
736.105	24368.09132
736.298	24417.00069
736.491	24042.06819
736.684	23997.24551
736.877	24372.16704
737.07	24007.43237
737.263	24376.24278
737.456	23500.21556
737.649	23897.41812
737.842	23846.48843
738.035	23801.6718
738.228	23807.78308
738.421	23976.87202
738.614	23822.04282
738.807	23646.86171
739	23341.36697
739.192	23593.90433
739.385	23483.92252
739.578	23593.90433
739.771	23371.91329
739.964	23457.44676
740.156	23866.86009
740.349	23744.63451
740.542	23685.56262
740.735	23467.62968
740.927	23787.41226
741.12	23879.08322
741.313	23881.12042
741.505	23223.26128
741.698	23200.86314
741.891	23294.53067
742.083	23215.11646
742.276	23545.02242
742.468	23636.67744
742.661	22991.15438
742.854	23025.76409
743.046	22704.13518
743.239	22661.3935
743.431	23170.32086
743.624	23092.95038
743.816	23202.89932
744.009	22930.08079
744.201	22720.41812
744.393	22665.46407
744.586	22974.8678
744.778	23141.8154
744.971	23097.02239
745.163	23084.8064
745.355	22529.10769
745.548	22559.63386
745.74	23003.36946
745.932	23487.99576
746.125	23494.10564
746.317	23347.47618
746.509	23314.89407
746.702	23347.47618
746.894	22928.04506
747.086	23029.83588
747.278	22913.79502
747.471	23029.83588
747.663	23233.44238
747.855	22742.80754
748.047	22950.43832
748.239	23204.9355
748.431	22677.67586
748.623	22447.70852
748.815	22537.24792
749.008	22659.35822
749.2	22716.34737
749.392	22191.3391
749.584	21619.80947
749.776	22492.47735
749.968	22158.78844
750.16	22132.34173
750.352	21686.91283
750.544	22317.48187
750.736	22577.94994
750.928	22132.34173
751.12	21774.35693
751.311	22398.87178
751.503	22527.07264
751.695	22053.00541
751.887	21857.74054
752.079	22360.21084
752.271	21790.62639
752.463	22329.68998
752.654	21996.04953
752.846	22392.76734
753.038	22195.408
753.23	22453.81326
753.421	22152.6853
753.613	21825.19982
753.805	22494.51234
753.997	22337.8288
754.188	22372.41942
754.38	22142.51347
754.572	22350.03713
754.763	22325.6206
754.955	21823.16606
755.146	21554.74363
755.338	21528.31179
755.53	21477.4832
755.721	21562.87664
755.913	21294.52094
756.104	21644.2102
756.296	21845.53765
756.487	21489.68184
756.679	21615.74274
756.87	21715.38221
757.062	21467.31778
757.253	21530.34498
757.445	21217.27999
757.636	21424.62411
757.827	21426.6571
758.019	21001.84937
758.21	20906.34296
758.401	21241.67124
758.593	21241.67124
758.784	21135.98004
758.975	21014.04233
759.167	20914.47081
759.358	20955.11106
759.549	20790.52826
759.74	20670.66407
759.932	20623.94127
760.123	20715.3575
760.314	21032.33205
760.505	20981.5281
760.696	20733.64176
760.888	20975.4318
761.079	20942.91881
761.27	21176.6292
761.461	20910.40688
761.652	20479.72394
761.843	20660.50675
762.034	20625.97265
762.225	20193.38313
762.416	20345.68168
762.607	19996.44542
762.798	20207.59666
762.989	20823.0363
763.18	20603.62769
763.371	20296.94358
763.562	20199.47462
763.753	20276.63675
763.944	20221.8104
764.135	20583.31454
764.326	20676.75851
764.517	20522.37757
764.708	20372.0825
764.899	20171.048
765.089	20171.048
765.28	20181.20027
765.471	20045.16859
765.662	19661.53912
765.853	19911.18569
766.043	19497.17231
766.234	19702.12774
766.425	19393.69611
766.615	19355.14891
766.806	19647.3335
766.997	19811.72539
767.187	19848.26065
767.378	19945.69469
767.569	19953.81463
767.759	19748.80673
767.95	19834.05233
768.141	19840.14159
768.331	19491.08517
768.522	19389.63844
768.712	19541.81244
768.903	19290.23068
769.093	18801.44963
769.284	19099.55773
769.474	19401.8115
769.665	19523.55032
769.855	19612.83499
770.046	19637.18676
770.236	19377.46552
770.426	19436.30265
770.617	19523.55032
770.807	19006.26284
770.998	18919.06013
771.188	18925.1438
771.378	19040.74039
771.569	19180.69073
771.759	19334.86151
771.949	18882.55888
772.139	19146.20841
772.33	18598.70419
772.52	19194.88968
772.71	18951.50678
772.9	18550.0511
773.09	18738.59433
773.281	18641.27748
773.471	18511.53565
773.661	18333.16632
773.851	18594.64968
774.041	18343.30016
774.231	18300.73868
774.421	18027.16807
774.611	18201.43496
774.802	18122.40363
774.992	18019.06328
775.182	18152.79964
775.372	18092.00844
775.562	18333.16632
775.752	18083.90319
775.942	17528.82636
776.131	17455.9151
776.321	17617.94576
776.511	17861.03122
776.701	18043.37782
776.891	17820.51359
777.081	17611.86924
777.271	17777.97156
777.461	17735.43102
777.651	17488.3196
777.84	17948.14882
778.03	18000.82772
778.22	18104.16642
778.41	18039.32536
778.599	17974.48797
778.789	18235.88626
778.979	18217.64721
779.169	18128.48276
779.358	17887.36842
779.548	18029.19428
779.738	18162.93182
779.927	17869.13491
780.117	17472.11725
780.307	17528.82636
780.496	17227.0807
780.686	17123.81382
780.875	16840.37293
781.065	17405.28467
781.254	17310.10466
781.444	17042.82533
781.633	17528.82636
781.823	17577.43617
782.012	17261.50466
782.202	17085.34374
782.391	17014.4804
782.581	17050.92398
782.77	16923.37525
782.96	17135.96248
783.149	16816.08037
783.338	16609.60765
783.528	16984.11142
783.717	17279.72946
783.906	16886.93467
784.096	16814.056
784.285	16431.49311
784.474	16607.58353
784.663	16722.96217
784.853	16666.28401
785.042	16830.25098
785.231	16858.59258
785.42	16720.93792
785.61	16963.86577
785.799	16478.0442
785.988	16785.71517
786.177	16395.06257
786.366	16370.7759
786.555	16403.15819
786.744	16492.21214
786.933	16445.66072
787.122	16540.78871
787.312	16727.01068
787.501	16490.18814
787.69	16433.51705
787.879	16629.849
788.068	16170.421
788.257	16093.52156
788.445	15949.84687
788.634	15895.21183
788.823	16000.43573
789.012	16081.37975
789.201	16216.96655
789.39	16103.63978
789.579	15953.89394
789.768	16133.99466
789.957	16095.5452
790.145	16046.97825
790.334	15543.13841
790.523	15545.16174
790.712	16194.70553
790.9	16123.87633
791.089	15707.03104
791.278	15622.04901
791.467	15288.20242
791.655	15512.78846
791.844	15769.75693
792.033	15611.9322
792.221	15672.63336
792.41	15698.93744
792.599	15189.06203
792.787	15308.43521
792.976	15401.50643
793.164	15810.22577
793.353	15585.62859
793.541	15933.65861
793.73	15622.04901
793.918	15613.95556
794.107	15233.574
794.295	15118.24755
794.484	15520.88176
794.672	15535.04507
794.861	15328.66803
795.049	15484.46197
795.238	15375.20362
795.426	15551.23175
795.614	14737.86668
795.803	14804.63703
795.991	14849.15017
796.179	14928.05912
796.368	14954.36194
796.556	15035.29331
796.744	14800.59037
796.932	15144.55007
797.121	14428.28077
797.309	14681.21234
797.497	14968.52497
797.685	14881.52317
797.874	15172.87586
798.062	15191.0853
798.25	14454.58659
798.438	15095.99156
798.626	15013.03723
798.814	14507.19752
799.002	14278.53484
799.19	14416.13953
799.378	14772.26363
799.566	14907.82613
799.755	14648.8381
799.943	14881.52317
800.131	14693.35262
800.318	14727.74989
800.506	14687.28248
800.694	14794.52037
800.882	14911.87273
801.07	14752.03016
801.258	14808.68369
801.446	14921.98923
801.634	14327.10209
801.822	14660.97847
802.01	14325.07848
802.197	14919.96593
802.385	14513.26795
802.573	14493.03313
802.761	14325.07848
802.949	14675.14219
803.136	14762.14691
803.324	14962.4551
803.512	14650.8615
803.699	14869.38331
803.887	14604.3231
804.075	14634.67429
804.262	14636.6977
804.45	14549.69031
804.638	14442.44547
804.825	14628.60408
805.013	14642.76791
805.201	15011.01395
805.388	14578.01853
805.576	14859.26675
805.763	15075.75883
805.951	14895.68631
806.138	14687.28248
806.326	14992.8044
806.513	14642.76791
806.701	14571.94821
806.888	14191.51584
807.075	14509.221
807.263	14244.1324
807.45	14499.10359
807.638	14480.89217
807.825	14897.70962
808.012	14031.63373
808.2	14571.94821
808.387	14733.81997
808.574	14713.58634
808.761	14511.24448
808.949	14711.56297
809.136	14501.12707
809.323	14573.97165
809.51	14246.15609
809.698	14497.0801
809.885	14442.44547
810.072	14705.49286
810.259	14604.3231
810.446	14693.35262
810.633	14776.31032
810.82	15027.20019
811.008	14930.08242
811.195	14913.89603
811.382	14832.96361
811.569	14772.26363
811.756	14539.57303
811.943	14491.00964
812.13	14509.221
812.317	14563.85445
812.504	14211.75314
812.691	14361.50329
812.878	14201.63452
813.064	14367.57404
813.251	14306.86586
813.438	14335.19654
813.625	14434.35136
813.812	14604.3231
813.999	14663.00186
814.186	14179.37337
814.372	14270.4402
814.559	14551.71376
814.746	14752.03016
814.933	14555.76066
815.12	14624.55726
815.306	14385.78621
815.493	14436.37489
815.68	14464.70415
815.866	14246.15609
816.053	14242.10871
816.24	13934.48303
816.426	14624.55726
816.613	14509.221
816.799	14575.99509
816.986	14778.33366
817.173	14816.77701
817.359	14644.79131
817.546	14383.76264
817.732	14021.51413
817.919	14480.89217
818.105	14345.31455
818.292	14195.56332
818.478	14608.36994
818.665	14770.24029
818.851	14606.34652
819.037	14527.43225
819.224	14406.0218
819.41	14173.30211
819.597	13734.09002
819.783	13976.98717
819.969	13632.87016
820.156	13740.16296
820.342	13932.45899
820.528	14005.32265
820.714	13758.38161
820.901	14039.72937
821.087	13881.85724
821.273	14025.56198
821.459	13914.24256
821.646	14074.1354
821.832	13804.93927
822.018	13964.84325
822.204	13636.91911
822.39	13766.47871
822.576	13582.25711
822.762	13845.42293
822.948	13782.67276
823.134	13879.83314
823.32	13748.26017
823.507	13853.51952
823.693	13845.42293
823.879	13705.74927
824.065	13468.87585
824.25	13412.18083
824.436	13319.03228
824.622	13584.28167
824.808	13398.0066
824.994	13669.31024
825.18	13509.37047
825.366	13806.96348
825.552	13562.01128
825.738	13519.49389
825.923	13165.1151
826.109	13278.53019
826.295	12780.20108
826.481	13126.63176
826.667	13258.27851
826.852	13053.7113
827.038	12958.50002
827.224	13110.42775
827.409	13021.30019
827.595	13138.78458
827.781	12753.85786
827.966	13088.14674
828.152	12928.11108
828.338	13017.24871
828.523	12816.67475
828.709	13165.1151
828.894	13092.19787
829.08	13122.58079
829.266	12861.25124
829.451	13393.95679
829.637	12834.91091
829.822	12834.91091
830.008	12395.08323
830.193	12853.14662
830.378	12486.31588
830.564	12887.59066
830.749	12611.99279
830.935	12697.1153
831.12	12368.7246
831.305	12654.55537
831.491	12208.51997
831.676	12577.53539
831.861	12508.61517
832.047	12500.50643
832.232	12628.20742
832.417	12626.18061
832.602	12275.44627
832.788	12569.42751
832.973	12532.94079
833.158	12620.10015
833.343	12265.30643
833.528	12555.23847
833.714	11932.61606
833.899	12401.16582
834.084	12056.38479
834.269	12638.34137
834.454	12159.84131
834.639	12419.41325
834.824	12198.37893
835.009	12119.27248
835.194	12273.41832
835.379	12378.86267
835.564	12013.77922
835.749	12265.30643
835.934	11977.25739
836.119	11991.46063
836.304	11725.59005
836.489	11851.43986
836.674	11642.34832
836.859	11965.08287
837.044	12109.1298
837.228	11952.90806
837.413	11971.17016
837.598	11908.26459
837.783	11713.40927
837.968	11987.4026
838.152	11628.1348
838.337	11721.52982
838.522	11615.95144
838.707	11552.99878
838.891	11288.90387
839.076	11729.65024
839.261	11902.17654
839.445	11946.82054
839.63	11650.47012
839.815	11656.56138
839.999	11339.70427
840.184	11766.19038
840.368	11469.72501
840.553	11530.6586
840.737	11441.28639
840.922	11751.98066
841.106	11707.31876
841.291	11859.55808
841.475	11680.92562
841.66	11575.33784
841.844	11357.99087
842.029	11360.02267
842.213	11309.22479
842.397	11345.79989
842.582	11152.72716
842.766	11431.12928
842.951	11049.03844
843.135	11234.03229
843.319	11227.93499
843.504	11563.15304
843.688	11573.30706
843.872	11528.62762
844.056	11357.99087
844.241	11339.70427
844.425	11331.57663
844.609	11079.53804
844.793	11067.33849
844.977	11089.70403
845.161	10713.37534
845.346	10802.91632
845.53	10927.01518
845.714	10845.64374
845.898	10507.74899
846.082	10764.25372
846.266	10397.75737
846.45	10674.70274
846.634	10509.78551
846.818	10462.94212
847.002	10403.86901
847.186	10536.25924
847.37	10271.42362
847.554	10324.40851
847.738	10126.68732
847.922	10279.57573
848.106	10464.97893
848.29	10758.14871
848.473	10666.56058
848.657	10823.26335
848.841	10532.18649
849.025	10497.56615
849.209	10391.64562
849.392	10566.80319
849.576	10534.22287
849.76	10407.94337
849.944	10110.37464
850.127	10163.3876
850.311	9922.71345
850.495	9953.31869
850.678	9861.49306
850.862	10230.65982
851.046	10163.3876
851.229	10314.21981
851.413	10069.589
851.596	10420.16613
851.78	10216.3912
851.964	10440.53636
852.147	10034.91675
852.331	10028.7977
852.514	9563.36009
852.698	10032.87708
852.881	9659.37015
853.065	9714.50936
853.248	9544.97123
853.431	9834.9601
853.615	9424.39001
853.798	9563.36009
853.982	9589.91952
854.165	9614.43357
854.348	9403.94695
854.532	9657.32774
854.715	9223.97707
854.898	9271.02708
855.081	9252.61726
855.265	9125.75693
855.448	9002.92606
855.631	9277.16338
855.814	9244.43469
855.997	9465.27126
856.181	9221.93122
856.364	9133.94344
856.547	9029.54473
856.73	8900.51882
856.913	8765.27281
857.096	8916.90696
857.279	9213.74763
857.462	9174.8719
857.645	9033.63964
857.828	9088.91422
858.011	9271.02708
858.194	9156.45494
858.377	8816.51162
858.56	9148.26918
858.743	8972.20853
858.926	9007.02143
859.109	9031.59219
859.292	8851.34754
859.475	8724.27356
859.658	8785.7697
859.841	8810.36356
860.023	8629.94729
860.206	8408.32953
860.389	8880.03204
860.572	8744.7741
860.755	8740.67414
860.937	8761.17322
861.12	8968.11256
861.303	8773.47179
861.486	8613.53871
861.668	8623.79422
861.851	8387.79811
862.034	8369.31817
862.216	8597.12894
862.399	8299.49087
862.581	8430.91187
862.764	8050.80272
862.947	8420.64746
863.129	8163.87895
863.312	8083.7039
863.494	8211.14743
863.677	8239.91441
863.859	8219.36696
864.042	8486.33142
864.224	8326.1922
864.406	8465.80729
864.589	8204.98257
864.771	8009.66896
864.954	7822.40699
865.136	8038.46344
865.318	8034.35019
865.501	8024.0667
865.683	7793.58226
865.865	7956.1829
866.048	7412.29473
866.23	7882.10241
866.412	7632.91205
866.594	7851.22765
866.777	7680.30251
866.959	7927.37699
867.141	7503.04569
867.323	7791.5232
867.505	7729.74149
867.687	7968.52706
867.869	7723.56228
868.052	8001.44123
868.234	7700.90356
868.416	7993.21318
868.598	7513.35565
868.78	7645.27586
868.962	7601.99918
869.144	7746.21846
869.326	7575.20415
869.508	7604.06019
869.69	7597.8771
869.872	7972.64162
870.054	7970.58435
870.236	8052.85919
870.417	7702.96355
870.599	7840.93502
870.781	7612.304
870.963	7840.93502
871.145	7781.22755
871.327	7661.75975
871.508	7240.99063
871.69	7428.79803
871.872	7191.42867
872.054	7515.41758
872.235	7385.47392
872.417	7525.72689
872.599	7286.41125
872.78	7379.28398
872.962	6922.7449
873.144	7143.91982
873.325	6990.98516
873.507	7183.16711
873.689	7024.06252
873.87	7218.27631
874.052	7162.51164
874.233	7335.94889
874.415	7210.0159
874.596	7445.29993
874.778	6926.88137
874.959	7418.48363
875.141	7294.6684
875.322	7424.67233
875.503	7090.19998
875.685	7383.41063
875.866	7106.73077
876.048	7546.34392
876.229	7086.06706
876.41	7162.51164
876.592	7216.21124
876.773	7269.8959
876.954	7100.53189
877.136	7300.86103
877.317	6995.12015
877.498	7193.49401
877.679	6893.78705
877.86	7183.16711
878.042	7077.80096
878.223	7404.04257
878.404	7315.30974
878.585	7240.99063
878.766	7048.86676
878.947	7203.82036
879.128	7189.36332
879.309	7224.47139
879.49	6980.64731
879.672	7197.62462
879.853	7168.70852
880.034	6931.01776
880.215	6982.71492
880.396	6990.98516
880.576	7046.79986
880.757	7379.28398
880.938	6955.83416
881.119	7375.15724
881.3	7251.31443
881.481	7536.03567
881.662	7150.1173
881.843	7302.9252
882.023	7340.07645
882.204	7558.7131
882.385	7197.62462
882.566	7459.73796
882.747	7451.48778
882.927	7441.17458
883.108	7263.70227
883.289	7472.11256
883.469	7220.34136
883.65	7106.73077
883.831	7437.04915
884.011	7527.78869
884.192	7214.14615
884.373	7612.304
884.553	7176.9707
884.734	7420.54655
884.914	7309.11757
885.095	7505.10772
885.275	6966.17336
885.456	6980.64731
885.636	7050.93363
885.817	7274.02487
885.997	7247.18498
886.178	7399.91635
886.358	7284.34691
886.538	7445.29993
886.719	6966.17336
886.899	7364.84002
887.08	7236.86095
887.26	7181.10166
887.44	7276.08932
887.621	7426.73519
887.801	7212.08104
887.981	7383.41063
888.161	7110.86324
888.342	7148.05149
888.522	7110.86324
888.702	7389.60044
888.882	7168.70852
889.062	7368.96697
889.242	7323.56566
889.423	7509.23173
889.603	7298.79685
889.783	7552.52861
889.963	6990.98516
890.143	7525.72689
890.323	7216.21124
890.503	7614.3649
890.683	7296.73264
890.863	7439.11188
891.043	7430.86084
891.223	7595.81603
891.403	7325.62959
891.583	7653.51798
891.763	7117.06179
891.943	7232.73119
892.122	7036.46504
892.302	7154.24883
892.482	6976.51201
892.662	7034.39801
892.842	6811.02581
893.022	7021.99535
893.201	6993.05267
893.381	7222.40639
893.561	7104.6645
893.741	7203.82036
893.92	7152.18308
894.1	7503.04569
894.28	7077.80096
894.459	7127.39225
894.639	6995.12015
894.819	7461.80044
894.998	7304.98935
895.178	7240.99063
895.357	6742.72033
895.537	7015.79372
895.716	6796.53884
895.896	6999.25504
896.075	6906.1981
896.255	7123.26013
896.434	6949.63036
896.614	6833.78877
896.793	6597.74726
896.973	6777.91111
897.152	6537.6539
897.331	7125.3262
897.511	6773.77136
897.69	7044.73294
897.87	6599.8191
898.049	6871.03133
898.228	6842.06553
898.407	6891.71846
898.587	6808.95631
898.766	6953.76625
898.945	6583.24375
899.124	6487.90675
899.304	6618.4646
899.483	6655.75001
899.662	6465.1015
899.841	6868.96249
900.02	6473.39464
900.199	6589.45968
900.378	6494.12587
900.557	6641.25102
900.737	6543.87136
900.916	6746.86076
901.095	6417.40872
901.274	6581.17172
901.453	6369.70362
901.632	6558.37795
901.811	6371.77801
901.989	6485.83366
902.168	6241.04575
902.347	6705.45229
902.526	6409.11306
902.705	6440.21984
902.884	6247.2732
903.063	6510.70918
903.242	6523.14569
903.42	6351.03305
903.599	6122.68407
903.778	6176.68307
903.957	6164.22317
904.135	6436.07258
904.314	6307.46103
904.493	6465.1015
904.672	6191.21855
904.85	6076.98021
905.029	6074.90249
905.207	6184.9892
905.386	5898.21029
905.565	6122.68407
905.743	5767.14024
905.922	5948.1171
906.1	5740.08238
906.279	6062.43568
906.457	5943.95872
906.636	6228.59022
906.814	5925.24483
906.993	5804.59838
907.171	5604.73326
907.35	5710.93868
907.528	5604.73326
907.707	5721.34768
907.885	5592.23447
908.063	5742.16389
908.242	5525.55993
908.42	5779.62714
908.598	5600.56709
908.777	5779.62714
908.955	5550.56571
909.133	5896.13054
909.311	5504.71919
909.49	5771.30263
909.668	5473.45366
909.846	5573.48469
910.024	5145.89107
910.202	5621.39699
910.38	5208.52719
910.559	5379.62534
910.737	5122.91924
910.915	5162.59608
911.093	4928.59091
911.271	5283.66283
911.449	5079.05613
911.627	5225.22661
911.805	5049.80838
911.983	5358.76814
912.161	4888.86492
912.339	5196.00164
912.517	4888.86492
912.695	5108.29934
912.872	4828.21458
913.05	5020.5561
913.228	4711.04253
913.406	4847.03915
913.584	4782.19119
913.762	4738.24952
913.939	4681.73844
914.117	4920.22823
914.295	4805.20426
914.473	4913.95598
914.65	4782.19119
914.828	4752.89785
915.006	4377.97485
915.184	4547.72091
915.361	4315.06958
915.539	4706.85651
915.716	4486.96421
915.894	4863.77056
916.072	4514.20227
916.249	4648.24265
916.427	4419.90084
916.604	4503.72654
916.782	4520.48745
916.959	4436.66879
917.137	4170.31414
917.314	4354.91185
917.492	4065.35602
917.669	4319.26387
917.847	4134.63425
918.024	4233.26376
918.201	4042.25825
918.379	4187.10257
918.556	4090.55073
918.733	4359.10532
918.911	3949.8423
919.088	4155.62315
919.265	3821.6554
919.442	3949.8423
919.62	3760.68819
919.797	4203.88964
919.974	3989.75404
920.151	4059.05687
920.328	3794.32731
920.506	3981.35218
920.683	3937.23706
920.86	3922.53004
921.037	3848.98015
921.214	4101.04764
921.391	3756.48295
921.568	3930.93418
921.745	3731.24987
921.922	3863.69209
922.099	3480.87384
922.276	3781.71323
922.453	3558.75016
922.63	3579.79349
922.807	3118.53839
922.984	3192.30987
923.161	3160.69595
923.338	3362.96002
923.514	2962.50075
923.691	3333.47294
923.868	3207.06176
924.045	3242.88442
924.222	3032.09554
924.399	3409.28995
924.575	3249.20557
924.752	3318.72812
924.929	3173.34196
925.105	3207.06176
925.282	2937.1895
925.459	3099.56539
925.635	2937.1895
925.812	3006.79026
925.989	2958.28236
926.165	2869.68254
926.342	2806.38151
926.518	3173.34196
926.695	2930.86136
926.871	2903.43788
927.048	2527.71569
927.224	2753.62116
927.401	2561.50486
927.577	2787.38876
927.754	2472.80201
927.93	2842.25364
928.107	2696.6306
928.283	2994.13679
928.459	2793.7198
928.636	2850.69356
928.812	2481.25076
928.988	2635.40804
929.165	2555.16962
929.341	2367.17808
929.517	2422.10583
929.693	2629.07407
929.87	2398.86802
930.046	2631.18541
930.222	2491.81145
930.398	2768.39491
930.574	2318.58244
930.751	2474.91422
930.927	2215.03589
931.103	2327.03423
931.279	2227.71623
931.455	2356.61426
931.631	2153.74328
931.807	2455.90398
931.983	2009.99704
932.159	2274.20805
932.335	2092.4439
932.511	2297.4523
932.687	2126.26506
932.863	2166.42508
933.039	1838.73087
933.215	2020.56774
933.391	1821.81381
933.566	1940.22645
933.742	1768.94621
933.918	1910.62485
934.094	1618.79026
934.27	1895.82363
934.445	1409.40231
934.621	1923.31138
934.797	1462.27858
934.973	1491.88929
935.148	1333.26121
935.324	1656.85933
935.5	1428.43775
935.675	1439.01301
935.851	1238.08789
936.027	1316.3412
936.202	1102.74106
936.378	1246.54755
936.553	1075.2509
936.729	1026.61666
936.904	927.24391
937.08	980.09991
937.255	764.47908
937.431	806.75054
937.606	667.27047
937.782	842.68425
937.957	646.14132
938.133	775.04658
938.308	595.43635
938.483	608.11191
938.659	584.87373
938.834	692.62699
939.009	468.70756
939.185	529.9535
939.36	453.92593
939.535	519.39299
939.71	472.93102
939.886	508.83283
940.061	468.70756
940.236	485.60176
940.411	344.14405
940.586	426.47635
940.761	363.14154
940.937	460.26082
941.112	377.91833
941.287	342.0333
941.462	282.93964
941.637	344.14405
941.812	301.93248
941.987	363.14154
942.162	401.14065
942.337	388.47368
942.512	329.36919
942.687	386.36258
942.862	308.26376
943.037	335.70117
943.212	390.5848
943.386	420.14221
943.561	257.61818
943.736	365.25246
943.911	266.05836
944.086	295.60137
944.26	225.97022
944.435	318.81625
944.61	274.49885
944.785	299.82209
944.959	310.37423
945.134	308.26376
945.309	318.81625
945.483	342.0333
945.658	339.92257
945.833	306.15332
946.007	259.7282
946.182	350.47639
946.357	200.65503
946.531	308.26376
946.706	213.31227
946.88	268.16846
947.055	181.67054
947.229	257.61818
947.404	147.92445
947.578	308.26376
947.752	217.53151
947.927	190.10789
948.101	247.06838
948.276	285.04988
948.45	274.49885
948.624	293.49103
948.799	316.70572
948.973	409.58562
949.147	234.40925
949.321	358.91976
949.496	287.16014
949.67	308.26376
949.844	337.81186
950.018	247.06838
950.193	242.84859
950.367	323.03738
950.541	291.38072
950.715	280.82941
950.889	257.61818
951.063	329.36919
951.237	270.27857
951.411	270.27857
951.585	181.67054
951.759	230.1897
951.933	361.03064
952.107	367.3634
952.281	318.81625
952.455	312.48471
952.629	251.28824
952.803	312.48471
952.977	266.05836
953.151	405.3631
953.325	257.61818
953.499	346.25481
953.672	274.49885
953.846	299.82209
954.02	217.53151
954.194	299.82209
954.368	346.25481
954.541	342.0333
954.715	363.14154
954.889	346.25481
955.062	304.04289
955.236	344.14405
955.41	270.27857
955.583	316.70572
955.757	299.82209
955.93	320.92681
956.104	344.14405
956.278	346.25481
956.451	352.58721
956.625	325.14796
956.798	299.82209
956.972	276.60902
957.145	211.20268
957.319	316.70572
957.492	375.80731
957.665	287.16014
957.839	325.14796
958.012	371.58532
958.185	333.59049
958.359	266.05836
958.532	240.73873
958.705	392.69594
958.879	204.87403
959.052	344.14405
959.225	344.14405
959.398	350.47639
959.572	259.7282
959.745	310.37423
959.918	325.14796
960.091	335.70117
960.264	261.83823
960.438	299.82209
960.611	299.82209
960.784	396.91826
960.957	289.27042
961.13	242.84859
961.303	282.93964
961.476	276.60902
961.649	293.49103
961.822	380.02937
961.995	331.47983
962.168	346.25481
962.341	236.51906
962.514	257.61818
962.686	342.0333
962.859	312.48471
963.032	249.1783
963.205	272.3887
963.378	291.38072
963.551	244.95848
963.723	194.32669
963.896	253.3982
964.069	223.86052
964.242	285.04988
964.414	234.40925
964.587	268.16846
964.76	244.95848
964.932	198.54556
965.105	228.07995
965.278	308.26376
965.45	242.84859
965.623	234.40925
965.795	268.16846
965.968	285.04988
966.14	278.71921
966.313	295.60137
966.485	261.83823
966.658	266.05836
966.83	234.40925
967.003	306.15332
967.175	278.71921
967.348	295.60137
967.52	249.1783
967.692	295.60137
967.865	187.99852
968.037	244.95848
968.209	253.3982
968.382	274.49885
968.554	285.04988
968.726	282.93964
968.898	183.77985
969.071	308.26376
969.243	175.34274
969.415	251.28824
969.587	221.75083
969.759	312.48471
969.932	202.76452
970.104	232.29947
970.276	249.1783
970.448	202.76452
970.62	122.61842
970.792	244.95848
970.964	242.84859
971.136	206.98356
971.308	221.75083
971.48	147.92445
971.652	122.61842
971.824	192.21728
971.996	215.42188
972.168	181.67054
972.339	209.09311
972.511	295.60137
972.683	173.23352
972.855	206.98356
973.027	122.61842
973.199	206.98356
973.37	122.61842
973.542	202.76452
973.714	147.92445
973.886	209.09311
974.057	171.12431
974.229	206.98356
974.401	211.20268
974.572	192.21728
974.744	169.01513
974.915	228.07995
975.087	173.23352
975.259	173.23352
975.43	116.2924
975.602	169.01513
975.773	209.09311
975.945	139.48876
976.116	217.53151
976.288	217.53151
976.459	177.45199
976.63	139.48876
976.802	122.61842
976.973	179.56125
977.145	143.70656
977.316	200.65503
977.487	164.79683
977.659	173.23352
977.83	105.74946
978.001	194.32669
978.172	206.98356
978.344	219.64116
978.515	82.55695
978.686	122.61842
978.857	137.37989
979.028	150.03342
979.2	118.40105
979.371	190.10789
979.542	156.36047
979.713	97.31551
979.884	120.50972
980.055	143.70656
980.226	139.48876
980.397	160.57861
980.568	109.96657
980.739	192.21728
980.91	126.83588
981.081	114.18377
981.252	65.69137
981.423	131.05342
981.594	133.16222
981.765	122.61842
981.936	131.05342
982.106	211.20268
982.277	164.79683
982.448	147.92445
982.619	95.20708
982.79	131.05342
982.96	183.77985
983.131	150.03342
983.302	139.48876
983.472	116.2924
983.643	152.14241
983.814	80.44868
983.984	76.23219
984.155	150.03342
984.326	67.79949
984.496	105.74946
984.667	40.39575
984.837	46.71934
985.008	217.53151
985.178	147.92445
985.349	65.69137
985.519	93.09867
985.69	105.74946
985.86	158.46953
986.031	40.39575
986.201	88.88192
986.371	109.96657
986.542	80.44868
986.712	107.85801
986.882	61.47521
987.053	141.59765
987.223	105.74946
987.393	88.88192
987.563	76.23219
987.734	143.70656
987.904	80.44868
988.074	120.50972
988.244	116.2924
988.414	131.05342
988.585	133.16222
988.755	143.70656
988.925	74.12398
989.095	59.36716
989.265	74.12398
989.435	84.66525
989.605	29.85689
989.775	109.96657
989.945	122.61842
990.115	84.66525
990.285	147.92445
990.455	90.99028
990.625	67.79949
990.795	42.50359
990.965	80.44868
991.134	34.07236
991.304	69.90763
991.474	107.85801
991.644	74.12398
991.814	65.69137
991.984	23.53386
992.153	82.55695
992.323	61.47521
992.493	147.92445
992.662	65.69137
992.832	63.58328
993.002	50.93519
993.171	97.31551
993.341	76.23219
993.511	-20.72135
993.68	40.39575
993.85	63.58328
994.019	50.93519
994.189	-20.72135
994.358	65.69137
994.528	46.71934
994.697	59.36716
994.867	93.09867
995.036	164.79683
995.206	34.07236
995.375	116.2924
995.544	124.72714
995.714	72.0158
995.883	63.58328
996.052	27.74919
996.222	114.18377
996.391	-18.61421
996.56	109.96657
996.73	-22.82848
996.899	90.99028
997.068	42.50359
997.237	99.42397
997.406	80.44868
997.576	55.15113
997.745	90.99028
997.914	95.20708
998.083	139.48876
998.252	139.48876
998.421	21.42623
998.59	38.28793
998.759	80.44868
998.928	21.42623
999.097	150.03342
999.266	107.85801
999.435	101.53244
999.604	36.18013
999.773	65.69137
999.942	50.93519
1000.111	57.25913
1000.28	118.40105
1000.448	93.09867
1000.617	97.31551
1000.786	67.79949
1000.955	25.64151
1001.124	55.15113
1001.292	4.56604
1001.461	84.66525
1001.63	8.78094
1001.798	36.18013
1001.967	15.10348
1002.136	12.99594
1002.304	72.0158
1002.473	59.36716
1002.642	59.36716
1002.81	53.04315
1002.979	84.66525
1003.147	59.36716
1003.316	109.96657
1003.484	82.55695
1003.653	59.36716
1003.821	6.67348
1003.99	122.61842
1004.158	72.0158
1004.327	131.05342
1004.495	82.55695
1004.663	29.85689
1004.832	-3.86348
1005	112.07516
1005.168	25.64151
1005.337	118.40105
1005.505	34.07236
1005.673	74.12398
1005.842	93.09867
1006.01	-18.61421
1006.178	126.83588
1006.346	82.55695
1006.514	29.85689
1006.683	69.90763
1006.851	46.71934
1007.019	59.36716
1007.187	55.15113
1007.355	55.15113
1007.523	-29.1497
1007.691	38.28793
1007.859	105.74946
1008.027	55.15113
1008.195	53.04315
1008.363	72.0158
1008.531	40.39575
1008.699	53.04315
1008.867	42.50359
1009.035	53.04315
1009.203	0.35123
1009.37	34.07236
1009.538	10.88843
1009.706	12.99594
1009.874	74.12398
1010.042	72.0158
1010.209	38.28793
1010.377	57.25913
1010.545	53.04315
1010.713	65.69137
1010.88	-56.53909
1011.048	46.71934
1011.216	8.78094
1011.383	86.77357
1011.551	57.25913
1011.718	50.93519
1011.886	46.71934
1012.054	21.42623
1012.221	82.55695
1012.389	17.21104
1012.556	50.93519
1012.724	12.99594
1012.891	25.64151
1013.058	-31.25673
1013.226	78.34042
1013.393	55.15113
1013.561	23.53386
1013.728	23.53386
1013.895	40.39575
1014.063	46.71934
1014.23	23.53386
1014.397	103.64094
1014.565	48.82725
1014.732	34.07236
1014.899	19.31862
1015.066	74.12398
1015.233	12.99594
1015.401	21.42623
1015.568	15.10348
1015.735	34.07236
1015.902	55.15113
1016.069	99.42397
1016.236	55.15113
1016.403	80.44868
1016.57	46.71934
1016.737	-1.75614
1016.904	90.99028
1017.071	25.64151
1017.238	63.58328
1017.405	86.77357
1017.572	17.21104
1017.739	-5.9708
1017.906	34.07236
1018.073	53.04315
1018.24	38.28793
1018.407	82.55695
1018.573	21.42623
1018.74	-27.04265
1018.907	21.42623
1019.074	109.96657
1019.241	-50.21884
1019.407	29.85689
1019.574	-27.04265
1019.741	80.44868
1019.907	84.66525
1020.074	17.21104
1020.241	40.39575
1020.407	-29.1497
1020.574	55.15113
1020.74	114.18377
1020.907	38.28793
1021.073	25.64151
1021.24	8.78094
1021.406	12.99594
1021.573	46.71934
1021.739	-18.61421
1021.906	97.31551
1022.072	-12.29261
1022.239	-12.29261
1022.405	48.82725
1022.571	50.93519
1022.738	6.67348
1022.904	-8.0781
1023.07	34.07236
1023.237	42.50359
1023.403	31.96461
1023.569	50.93519
1023.735	69.90763
1023.902	-18.61421
1024.068	-20.72135
1024.234	65.69137
1024.4	59.36716
1024.566	-16.50703
1024.732	15.10348
1024.898	17.21104
1025.065	8.78094
1025.231	48.82725
1025.397	65.69137
1025.563	12.99594
1025.729	72.0158
1025.895	8.78094
1026.061	76.23219
1026.227	29.85689
1026.392	8.78094
1026.558	82.55695
1026.724	42.50359
1026.89	-71.28546
1027.056	72.0158
1027.222	19.31862
1027.388	114.18377
1027.553	38.28793
1027.719	72.0158
1027.885	80.44868
1028.051	29.85689
1028.216	55.15113
1028.382	40.39575
1028.548	84.66525
1028.713	19.31862
1028.879	21.42623
1029.045	-46.00521
1029.21	31.96461
1029.376	72.0158
1029.541	4.56604
1029.707	34.07236
1029.873	31.96461
1030.038	40.39575
1030.204	6.67348
1030.369	55.15113
1030.534	-1.75614
1030.7	-8.0781
1030.865	-46.00521
1031.031	-27.04265
1031.196	42.50359
1031.361	-24.93558
1031.527	23.53386
1031.692	25.64151
1031.857	29.85689
1032.023	19.31862
1032.188	29.85689
1032.353	46.71934
1032.518	42.50359
1032.684	46.71934
1032.849	63.58328
1033.014	57.25913
1033.179	21.42623
1033.344	23.53386
1033.509	-12.29261
1033.674	40.39575
1033.839	-22.82848
1034.004	61.47521
1034.17	4.56604
1034.335	12.99594
1034.5	19.31862
1034.664	4.56604
1034.829	-16.50703
1034.994	67.79949
1035.159	67.79949
1035.324	21.42623
1035.489	4.56604
1035.654	72.0158
1035.819	-10.18537
1035.984	-86.03057
1036.148	4.56604
1036.313	-8.0781
1036.478	76.23219
1036.643	48.82725
1036.807	-43.89836
1036.972	61.47521
1037.137	-20.72135
1037.301	55.15113
1037.466	-41.79148
1037.631	17.21104
1037.795	21.42623
1037.96	59.36716
1038.124	-88.13691
1038.289	4.56604
1038.454	-12.29261
1038.618	6.67348
1038.783	34.07236
1038.947	6.67348
1039.111	97.31551
1039.276	-12.29261
1039.44	-12.29261
1039.605	107.85801
1039.769	25.64151
1039.933	88.88192
1040.098	-33.36373
1040.262	97.31551
1040.426	46.71934
1040.591	12.99594
1040.755	34.07236
1040.919	-10.18537
1041.083	59.36716
1041.248	-33.36373
1041.412	0.35123
1041.576	131.05342
1041.74	8.78094
1041.904	40.39575
1042.068	42.50359
1042.232	84.66525
1042.397	-35.47071
1042.561	-12.29261
1042.725	99.42397
1042.889	8.78094
1043.053	74.12398
1043.217	65.69137
1043.381	31.96461
1043.544	36.18013
1043.708	-22.82848
1043.872	46.71934
1044.036	38.28793
1044.2	4.56604
1044.364	84.66525
1044.528	-20.72135
1044.691	55.15113
1044.855	57.25913
1045.019	15.10348
1045.183	29.85689
1045.346	-3.86348
1045.51	23.53386
1045.674	-29.1497
1045.837	-5.9708
1046.001	0.35123
1046.165	42.50359
1046.328	69.90763
1046.492	48.82725
1046.655	-12.29261
1046.819	40.39575
1046.983	-8.0781
1047.146	4.56604
1047.31	12.99594
1047.473	23.53386
1047.636	63.58328
1047.8	74.12398
1047.963	25.64151
1048.127	112.07516
1048.29	55.15113
