Data from absorb_only_2.23.25_USB4F045381__25__0130.txt Node

Date: Sun Feb 23 19:16:32 EST 2025
User: ssocol
Spectrometer: USB4F04538
Trigger mode: 4
Integration Time (sec): 2.600000E-3
Scans to average: 1
Electric dark correction enabled: true
Nonlinearity correction enabled: true
Boxcar width: 0
XAxis mode: Wavelengths
Number of Pixels in Spectrum: 3648
>>>>>Begin Spectral Data<<<<<
345.52	1.93177
345.736	1.93177
345.952	1.93177
346.168	46.19237
346.384	-46.53192
346.6	-59.17246
346.816	52.51615
347.032	-6.49763
347.248	-50.74553
347.464	10.36155
347.68	18.79172
347.896	4.03918
348.112	-6.49763
348.328	8.25407
348.544	18.79172
348.76	1.93177
348.975	8.25407
349.191	60.94819
349.407	86.24649
349.623	16.68414
349.839	-54.95905
350.055	63.05626
350.27	20.89932
350.486	-17.03383
350.702	16.68414
350.918	-46.53192
351.133	10.36155
351.349	65.16435
351.565	60.94819
351.781	-38.10439
351.996	6.14661
352.212	6.14661
352.428	-4.39031
352.644	-0.17561
352.859	29.32996
353.075	10.36155
353.291	-8.60492
353.506	44.08449
353.722	-46.53192
353.938	-42.31821
354.153	29.32996
354.369	-10.71218
354.584	18.79172
354.8	-14.92664
355.016	-88.66349
355.231	-42.31821
355.447	-99.19478
355.662	-48.63874
355.878	-6.49763
356.093	14.57659
356.309	-31.78348
356.524	41.97663
356.74	-4.39031
356.955	-23.35526
357.171	-73.91861
357.386	39.86879
357.602	18.79172
357.817	12.46906
358.033	-2.28298
358.248	16.68414
358.464	6.14661
358.679	-44.42508
358.895	27.22227
359.11	-57.06577
359.325	65.16435
359.541	-73.91861
359.756	10.36155
359.972	4.03918
360.187	-44.42508
360.402	-63.38577
360.618	18.79172
360.833	-23.35526
361.048	10.36155
361.264	-10.71218
361.479	-48.63874
361.694	-23.35526
361.909	-12.81942
362.125	58.84015
362.34	-40.21131
362.555	10.36155
362.77	29.32996
362.986	-4.39031
363.201	-46.53192
363.416	-8.60492
363.631	-40.21131
363.847	39.86879
364.062	10.36155
364.277	-2.28298
364.492	-40.21131
364.707	12.46906
364.922	-78.13156
365.138	10.36155
365.353	46.19237
365.568	-38.10439
365.783	16.68414
365.998	18.79172
366.213	25.11459
366.428	1.93177
366.643	29.32996
366.858	-6.49763
367.073	-19.141
367.288	-38.10439
367.503	27.22227
367.718	14.57659
367.933	39.86879
368.148	27.22227
368.363	4.03918
368.578	31.43768
368.793	20.89932
369.008	10.36155
369.223	4.03918
369.438	12.46906
369.653	12.46906
369.868	-14.92664
370.083	-19.141
370.298	12.46906
370.513	56.73213
370.728	-71.81209
370.943	-48.63874
371.157	-12.81942
371.372	-12.81942
371.587	44.08449
371.802	-50.74553
372.017	6.14661
372.232	-61.27913
372.446	16.68414
372.661	77.81336
372.876	-8.60492
373.091	1.93177
373.306	18.79172
373.52	1.93177
373.735	-21.24814
373.95	25.11459
374.165	10.36155
374.379	1.93177
374.594	-0.17561
374.809	4.03918
375.023	-50.74553
375.238	-14.92664
375.453	-31.78348
375.667	-65.49239
375.882	-2.28298
376.097	46.19237
376.311	33.54542
376.526	67.27246
376.741	-4.39031
376.955	-4.39031
377.17	33.54542
377.384	-31.78348
377.599	41.97663
377.813	18.79172
378.028	27.22227
378.242	6.14661
378.457	1.93177
378.672	48.30027
378.886	41.97663
379.101	54.62413
379.315	86.24649
379.53	-67.59898
379.744	-27.56942
379.958	-25.46235
380.173	-44.42508
380.387	63.05626
380.602	-23.35526
380.816	14.57659
381.031	-23.35526
381.245	-29.67646
381.459	27.22227
381.674	10.36155
381.888	44.08449
382.103	-21.24814
382.317	-57.06577
382.531	12.46906
382.746	-17.03383
382.96	18.79172
383.174	-46.53192
383.388	10.36155
383.603	60.94819
383.817	27.22227
384.031	4.03918
384.246	63.05626
384.46	-29.67646
384.674	29.32996
384.888	-6.49763
385.103	18.79172
385.317	-8.60492
385.531	52.51615
385.745	18.79172
385.959	44.08449
386.174	35.65319
386.388	-23.35526
386.602	-0.17561
386.816	27.22227
387.03	-17.03383
387.244	27.22227
387.458	-6.49763
387.672	37.76098
387.887	-82.34441
388.101	35.65319
388.315	44.08449
388.529	88.35483
388.743	-48.63874
388.957	46.19237
389.171	-57.06577
389.385	-4.39031
389.599	-31.78348
389.813	18.79172
390.027	-27.56942
390.241	-14.92664
390.455	-10.71218
390.669	-0.17561
390.883	-52.8523
391.097	-88.66349
391.311	-33.89048
391.525	-14.92664
391.738	46.19237
391.952	33.54542
392.166	18.79172
392.38	-10.71218
392.594	39.86879
392.808	46.19237
393.022	52.51615
393.236	8.25407
393.449	-73.91861
393.663	35.65319
393.877	-6.49763
394.091	-19.141
394.305	-25.46235
394.518	-4.39031
394.732	-27.56942
394.946	10.36155
395.16	56.73213
395.373	-23.35526
395.587	37.76098
395.801	12.46906
396.015	-33.89048
396.228	56.73213
396.442	44.08449
396.656	-0.17561
396.869	-27.56942
397.083	-10.71218
397.297	-35.99745
397.51	10.36155
397.724	18.79172
397.938	-107.61934
398.151	-23.35526
398.365	-21.24814
398.578	44.08449
398.792	-4.39031
399.005	12.46906
399.219	-17.03383
399.433	1.93177
399.646	-0.17561
399.86	-23.35526
400.073	4.03918
400.287	-2.28298
400.5	-61.27913
400.714	1.93177
400.927	96.7884
401.141	54.62413
401.354	-27.56942
401.567	-57.06577
401.781	-52.8523
401.994	-14.92664
402.208	18.79172
402.421	31.43768
402.635	-48.63874
402.848	39.86879
403.061	-10.71218
403.275	77.81336
403.488	69.38059
403.701	-19.141
403.915	14.57659
404.128	39.86879
404.341	20.89932
404.555	16.68414
404.768	-6.49763
404.981	27.22227
405.195	-19.141
405.408	6.14661
405.621	54.62413
405.834	-6.49763
406.048	-6.49763
406.261	39.86879
406.474	10.36155
406.687	44.08449
406.9	39.86879
407.114	44.08449
407.327	18.79172
407.54	65.16435
407.753	14.57659
407.966	-147.63017
408.179	44.08449
408.392	27.22227
408.605	29.32996
408.819	18.79172
409.032	10.36155
409.245	82.02988
409.458	-31.78348
409.671	103.11382
409.884	6.14661
410.097	-27.56942
410.31	12.46906
410.523	46.19237
410.736	44.08449
410.949	20.89932
411.162	18.79172
411.375	86.24649
411.588	46.19237
411.801	-23.35526
412.014	37.76098
412.227	31.43768
412.44	54.62413
412.653	-31.78348
412.865	88.35483
413.078	-61.27913
413.291	-2.28298
413.504	105.22233
413.717	-19.141
413.93	39.86879
414.143	12.46906
414.356	52.51615
414.568	-6.49763
414.781	75.70514
414.994	54.62413
415.207	1.93177
415.42	-46.53192
415.632	31.43768
415.845	48.30027
416.058	-14.92664
416.271	8.25407
416.483	1.93177
416.696	-6.49763
416.909	12.46906
417.121	79.92161
417.334	63.05626
417.547	46.19237
417.759	-40.21131
417.972	35.65319
418.185	-40.21131
418.397	31.43768
418.61	69.38059
418.823	31.43768
419.035	92.57157
419.248	60.94819
419.46	-17.03383
419.673	94.67998
419.885	33.54542
420.098	69.38059
420.311	6.14661
420.523	44.08449
420.736	12.46906
420.948	10.36155
421.161	-10.71218
421.373	27.22227
421.586	10.36155
421.798	29.32996
422.01	-14.92664
422.223	-4.39031
422.435	14.57659
422.648	58.84015
422.86	73.59693
423.073	-14.92664
423.285	35.65319
423.497	-2.28298
423.71	82.02988
423.922	1.93177
424.134	16.68414
424.347	-14.92664
424.559	-12.81942
424.771	111.54801
424.984	31.43768
425.196	75.70514
425.408	52.51615
425.621	14.57659
425.833	-6.49763
426.045	109.43943
426.257	39.86879
426.47	77.81336
426.682	60.94819
426.894	23.00695
427.106	73.59693
427.318	14.57659
427.531	115.76524
427.743	48.30027
427.955	52.51615
428.167	-0.17561
428.379	54.62413
428.591	145.28826
428.804	63.05626
429.016	39.86879
429.228	63.05626
429.44	79.92161
429.652	-27.56942
429.864	109.43943
430.076	82.02988
430.288	20.89932
430.5	18.79172
430.712	29.32996
430.924	37.76098
431.136	90.46319
431.348	-31.78348
431.56	82.02988
431.772	20.89932
431.984	113.65661
432.196	29.32996
432.408	113.65661
432.62	27.22227
432.832	73.59693
433.044	52.51615
433.256	-8.60492
433.468	113.65661
433.679	128.41744
433.891	122.09124
434.103	4.03918
434.315	96.7884
434.527	153.72418
434.739	33.54542
434.95	39.86879
435.162	113.65661
435.374	73.59693
435.586	88.35483
435.798	58.84015
436.009	44.08449
436.221	111.54801
436.433	107.33087
436.645	128.41744
436.856	105.22233
437.068	39.86879
437.28	147.39721
437.491	128.41744
437.703	111.54801
437.915	46.19237
438.126	128.41744
438.338	77.81336
438.55	56.73213
438.761	54.62413
438.973	103.11382
439.184	134.74384
439.396	162.16043
439.608	105.22233
439.819	69.38059
440.031	138.96154
440.242	39.86879
440.454	79.92161
440.665	96.7884
440.877	117.87389
441.088	164.26954
441.3	130.52622
441.511	54.62413
441.723	90.46319
441.934	103.11382
442.146	145.28826
442.357	103.11382
442.569	119.98255
442.78	103.11382
442.991	126.30869
443.203	141.07043
443.414	52.51615
443.626	212.78487
443.837	128.41744
444.048	195.90876
444.26	202.23715
444.471	149.50617
444.682	183.25252
444.894	138.96154
445.105	138.96154
445.316	119.98255
445.528	195.90876
445.739	134.74384
445.95	132.63502
446.161	157.94226
446.373	155.83321
446.584	170.59702
446.795	242.32113
447.006	206.45618
447.217	153.72418
447.429	162.16043
447.64	198.0182
447.851	124.19996
448.062	149.50617
448.273	147.39721
448.484	122.09124
448.695	212.78487
448.907	189.58055
449.118	162.16043
449.329	145.28826
449.54	261.31072
449.751	164.26954
449.962	202.23715
450.173	244.431
450.384	200.12766
450.595	162.16043
450.806	295.07378
451.017	240.21127
451.228	174.81543
451.439	221.22341
451.65	257.09068
451.861	221.22341
452.072	223.33309
452.283	246.5409
452.494	282.41208
452.705	316.17809
452.915	250.76076
453.126	225.4428
453.337	187.47118
453.548	179.03394
453.759	305.62571
453.97	305.62571
454.181	244.431
454.391	271.86117
454.602	265.53084
454.813	265.53084
455.024	330.95217
455.235	295.07378
455.445	282.41208
455.656	333.06283
455.867	267.64093
456.078	368.94661
456.288	314.06758
456.499	392.16815
456.71	360.50292
456.921	425.9485
457.131	425.9485
457.342	271.86117
457.553	360.50292
457.763	400.61285
457.974	474.51483
458.184	392.16815
458.395	493.52124
458.606	364.72473
458.816	554.77208
459.027	552.65979
459.237	413.28038
459.448	504.08088
459.659	440.72869
459.869	499.85698
460.08	480.85017
460.29	618.14706
460.501	622.37247
460.711	601.24592
460.922	628.71068
461.132	654.06461
461.343	609.69639
461.553	611.80904
461.764	675.19421
461.974	592.79566
462.184	654.06461
462.395	637.1618
462.605	664.62926
462.816	677.30723
463.026	611.80904
463.236	696.32496
463.447	681.53331
463.657	715.34359
463.867	812.56317
464.078	827.35926
464.288	795.65391
464.498	947.85722
464.709	884.43395
464.919	793.54029
465.129	880.20598
465.339	949.97145
465.55	1047.23299
465.76	850.61115
465.97	935.17202
466.18	930.94368
466.391	1108.5564
466.601	935.17202
466.811	1201.6062
467.021	947.85722
467.231	1203.72105
467.441	1053.57658
467.651	1432.13909
467.862	1165.65421
468.072	1400.41337
468.282	1334.84747
468.492	1237.55917
468.702	1345.42254
468.912	1675.36484
469.122	1389.83816
469.332	1542.12146
469.542	1474.44013
469.752	1726.12166
469.962	1753.61414
470.172	1601.3417
470.382	1717.66231
470.592	1749.38456
470.802	1776.87652
471.012	1836.08759
471.222	2009.4685
471.432	2013.69681
471.642	1975.64116
471.852	2195.48643
472.062	2055.97834
472.272	2218.73435
472.482	2292.69789
472.691	2332.84475
472.901	2309.60225
473.111	2497.61971
473.321	2478.61055
473.531	2550.41812
473.741	2520.8519
473.95	2677.10388
474.16	2607.43216
474.37	2841.72614
474.58	2706.65741
474.79	2888.14295
474.999	2778.41958
475.209	2917.6773
475.419	3010.48075
475.628	3153.84578
475.838	3071.6306
476.048	3250.78583
476.258	3027.35097
476.467	3335.05269
476.677	3332.94635
476.886	3596.10079
477.096	3680.24954
477.306	3661.31871
477.515	3583.47588
477.725	3907.29672
477.935	3591.89257
478.144	3770.67533
478.354	3888.38493
478.563	4205.46336
478.773	3909.39793
478.982	4266.30465
479.192	4129.91145
479.401	4148.80199
479.611	4276.79271
479.82	4205.46336
480.03	4341.8067
480.239	4645.62555
480.449	4390.02946
480.658	4683.30841
480.868	4919.70555
481.077	4951.06379
481.287	4591.18192
481.496	4907.16081
481.705	4930.15888
481.915	5122.39712
482.124	4959.42512
482.333	5218.44265
482.543	5214.26779
482.752	5210.09283
482.961	5316.52514
483.171	5535.45846
483.38	5489.60818
483.589	5493.77686
483.799	5718.74548
484.008	5697.92661
484.217	5887.29136
484.426	6020.35395
484.636	5928.88379
484.845	5916.40705
485.054	6043.21436
485.263	6113.85581
485.472	6142.93556
485.682	6381.63105
485.891	6468.7298
486.1	6593.08554
486.309	6582.72574
486.518	6667.65905
486.727	6663.51686
486.936	6789.81237
487.146	6516.40935
487.355	6657.30341
487.564	6791.88208
487.773	6843.61739
487.982	6918.09126
488.191	7089.68337
488.4	7186.78159
488.609	7145.46921
488.818	6926.36432
489.027	7413.84198
489.236	7308.60155
489.445	7582.93386
489.654	7508.71623
489.863	7659.18423
490.072	7593.23966
490.281	7642.70013
490.49	7558.19773
490.698	7609.72785
490.907	7706.56848
491.116	7856.88837
491.325	7797.18558
491.534	7933.03561
491.743	8171.58648
491.952	7906.28439
492.16	8128.42066
492.369	8307.19351
492.578	8329.78636
492.787	8214.74351
492.996	8467.34666
493.204	8656.096
493.413	8608.92358
493.622	8711.45978
493.831	8647.89281
494.039	8811.90059
494.248	8623.28145
494.457	8940.97497
494.665	8828.29494
494.874	8955.3122
495.083	9131.38518
495.291	9131.38518
495.5	9014.70006
495.709	9117.05846
495.917	9016.74766
496.126	9344.14164
496.335	9391.16922
496.543	9456.58454
496.752	9342.09676
496.96	9352.32097
497.169	9468.84806
497.377	9585.32289
497.586	9503.59159
497.794	9669.07138
498.003	9842.61409
498.211	10368.72549
498.42	9775.25168
498.628	9950.76838
498.837	9928.32465
499.045	9997.69049
499.254	9838.53199
499.462	9963.00967
499.671	10232.18856
499.879	10193.45809
500.087	10087.43341
500.296	10270.91411
500.504	10158.80031
500.713	10401.32251
500.921	10495.02039
501.129	10378.91242
501.338	10270.91411
501.546	10743.39449
501.754	10517.42238
501.962	10631.44529
502.171	10574.43873
502.379	10674.19386
502.587	10694.54844
502.795	10879.72026
503.004	10417.61976
503.212	10948.88064
503.42	10893.96024
503.628	11068.86346
503.837	10826.82396
504.045	11223.36195
504.253	10938.71082
504.461	11247.75089
504.669	11174.57957
504.877	11511.87165
505.085	11416.40104
505.294	11471.24845
505.502	11383.89552
505.71	11339.19629
505.918	11068.86346
506.126	11576.86092
506.334	11135.95588
506.542	11613.4132
506.75	11355.45112
506.958	11580.92243
507.166	11550.46018
507.374	11773.80256
507.582	11680.41804
507.79	11698.6904
507.998	11889.49285
508.206	12059.9351
508.414	11812.36905
508.622	11905.72791
508.83	11733.20288
509.037	12082.25078
509.245	11753.50315
509.453	12141.0786
509.661	11905.72791
509.869	12205.98473
510.077	12090.36535
510.285	12232.35069
510.492	12039.6473
510.7	12368.2177
510.908	12281.02311
511.116	12633.78111
511.324	12248.57529
511.531	12506.0812
511.739	12297.24634
511.947	12609.45922
512.155	12410.79648
512.362	12473.64547
512.57	12832.37813
512.778	12493.918
512.985	12467.56359
513.193	12639.86145
513.401	12759.43054
513.608	13026.87094
513.816	13002.56194
514.024	12878.97979
514.231	13024.84522
514.439	12824.2732
514.646	12911.39666
514.854	12945.8381
515.061	12895.1884
515.269	13004.58771
515.477	13030.92237
515.684	13375.22618
515.892	12980.27805
516.099	13057.25619
516.307	13490.64189
516.514	13770.02118
516.722	13334.72639
516.929	13523.03707
517.136	13452.17138
517.344	13518.98772
517.551	13387.3758
517.759	13693.09695
517.966	13642.48639
518.173	13739.65689
518.381	13790.26366
518.588	13693.09695
518.796	13844.91689
519.003	13751.80268
519.21	13705.24318
519.418	13834.79608
519.625	13731.55962
519.832	14093.86797
520.039	14093.86797
520.247	14037.19949
520.454	14134.34438
520.661	14454.08071
520.868	13936.00105
521.076	14407.53946
521.283	14207.19977
521.49	14385.28032
521.697	14207.19977
521.904	14158.62981
522.112	14468.24529
522.319	14555.2548
522.526	14118.15392
522.733	14830.43446
522.94	14678.68311
523.147	14777.82782
523.354	14822.34116
523.561	14684.75326
523.768	14609.8875
523.975	14990.2753
524.183	14852.69097
524.39	14984.20544
524.597	14840.55106
524.804	14850.66766
525.011	15022.64781
525.218	14885.06396
525.425	14915.41351
525.632	14943.73966
525.838	14881.01734
526.045	15233.06818
526.252	14897.20379
526.459	15330.18549
526.666	15229.02164
526.873	15485.97946
527.08	15409.09379
527.287	15307.92939
527.494	15372.6745
527.701	15728.78265
527.907	15243.18455
528.114	15757.1105
528.321	15562.86595
528.528	15898.75296
528.735	15846.14225
528.941	15562.86595
529.148	15662.01061
529.355	15965.52932
529.562	15797.57921
529.768	15923.03511
529.975	15734.85289
530.182	16236.69809
530.388	15755.08708
530.595	16190.15216
530.802	15755.08708
531.008	16244.79313
531.215	16107.18116
531.422	16200.27076
531.628	16530.16248
531.835	16374.31769
532.042	16331.8166
532.248	16675.89893
532.455	16505.87418
532.661	16275.14977
532.868	16410.74786
533.074	16548.37891
533.281	16619.22226
533.487	16795.33076
533.694	16781.16044
533.9	16943.11424
534.107	16333.84044
534.313	16582.7882
534.52	16817.59864
534.726	17236.69907
534.933	16799.37944
535.139	17186.07678
535.345	17216.44994
535.552	16841.89122
535.758	17194.17623
535.965	17182.02707
536.171	17080.78814
536.377	17331.87396
536.584	17141.53065
536.79	17159.7539
536.996	17301.49828
537.203	17404.77837
537.409	17423.0051
537.615	17743.02743
537.821	17680.23181
538.028	17643.77131
538.234	17461.48456
538.44	17526.29465
538.646	17335.9241
538.853	17943.59018
539.059	17429.08073
539.265	17706.56507
539.471	17627.56698
539.677	17629.59251
539.883	17730.87319
540.09	17686.30867
540.296	18091.50186
540.502	18182.68985
540.708	18044.89749
540.914	18251.59236
541.12	18010.45201
541.326	18478.59591
541.532	18105.68617
541.738	18409.67911
541.944	18253.61897
542.15	18946.94391
542.356	18346.84702
542.562	18671.18117
542.768	18377.24919
542.974	18555.62582
543.18	18462.3798
543.386	19030.09278
543.592	18823.24711
543.798	18673.20857
544.004	18695.51023
544.21	18809.05335
544.415	18871.91293
544.621	18991.55953
544.827	18916.52528
545.033	19117.30502
545.239	18843.52426
545.445	19105.13542
545.651	19103.10717
545.856	19263.35171
546.062	19310.01
546.268	19192.35414
546.474	19070.65568
546.679	18963.16755
546.885	18900.30238
547.091	19141.64466
547.297	18807.02568
547.502	19009.81194
547.708	19255.23745
547.914	19092.96596
548.119	19401.30428
548.325	19500.72315
548.531	19097.02243
548.736	19636.67942
548.942	19182.21204
549.147	19360.72801
549.353	19224.80955
549.559	19474.34575
549.764	19168.01327
549.97	19431.73757
550.175	19314.06735
550.381	19715.82678
550.586	19799.03985
550.792	20008.11846
550.997	19947.21717
551.203	20272.06777
551.408	20284.25176
551.614	20211.15008
551.819	20231.45555
552.025	20454.8435
552.23	20316.74314
552.435	20452.81248
552.641	20515.7763
552.846	20257.8533
553.052	20249.73084
553.257	19906.61842
553.462	20351.26641
553.668	19957.36712
553.873	20400.00722
554.078	20475.15402
554.283	20495.46495
554.489	20686.40811
554.694	20676.25063
554.899	20330.95846
555.105	20519.83862
555.31	20950.53895
555.515	20702.6603
555.72	20749.3868
555.925	20812.36948
556.131	21281.81644
556.336	21218.80442
556.541	21381.42397
556.746	21135.47193
556.951	20747.35517
557.156	20820.49657
557.361	21058.24305
557.567	20911.93085
557.772	20826.59193
557.977	20893.64333
558.182	21039.95286
558.387	21178.15358
558.592	21509.50492
558.797	21277.75103
559.002	20883.48374
559.207	20747.35517
559.412	21344.83233
559.617	21176.12108
559.822	21474.94184
560.027	21603.0343
560.232	21651.83554
560.437	21456.6442
560.642	21470.87567
560.847	21605.06764
561.051	21718.94094
561.256	21470.87567
561.461	21676.23701
561.666	21777.91585
561.871	21739.27675
562.076	21200.51134
562.281	21609.13433
562.485	21505.43862
562.69	21584.73441
562.895	21389.55563
563.1	21779.94953
563.305	21592.86765
563.509	21914.18067
563.714	21889.77377
563.919	21769.78119
564.123	21757.57931
564.328	21666.06966
564.533	21653.86898
564.737	21598.96763
564.942	21960.96212
565.147	21981.30251
565.351	22217.27859
565.556	22117.59288
565.761	21869.4351
565.965	22123.69583
566.17	22268.14208
566.374	22225.4166
566.579	22382.08463
566.784	22247.79641
566.988	22447.19979
567.193	22333.25071
567.397	22150.14233
567.602	22498.07358
567.806	22044.36013
568.011	22390.22383
568.215	22489.93362
568.42	22605.9334
568.624	22557.08998
568.828	22481.79372
569.033	22593.72235
569.237	22707.69705
569.442	22689.37895
569.646	22349.52845
569.85	22603.89822
570.055	22927.53613
570.259	22538.77422
570.463	22528.59893
570.668	22624.25021
570.872	22691.41428
571.076	22740.26327
571.281	22848.14518
571.485	22780.97229
571.689	22947.89361
571.893	23065.97363
572.098	22888.85784
572.302	22994.7171
572.506	22705.66169
572.71	23000.82464
572.914	23226.82465
573.119	22791.14976
573.323	22559.12508
573.527	22803.36283
573.731	23241.07826
573.935	23471.19372
574.139	23151.48682
574.343	23114.8376
574.547	23184.0648
574.751	23377.51353
574.955	23463.04736
575.159	23609.68949
575.364	23363.25843
575.568	23279.7674
575.772	23562.84375
575.976	23585.24803
576.18	23499.7064
576.383	23546.54996
576.587	23858.2021
576.791	23471.19372
576.995	23646.3525
577.199	23511.9263
577.403	23281.8037
577.607	23304.20324
577.811	23452.86447
578.015	23324.5668
578.219	23746.16227
578.422	23656.53684
578.626	24102.68283
578.83	23530.25636
579.034	23607.65269
579.238	23778.75476
579.442	23919.31844
579.645	24047.67112
579.849	24031.37175
580.053	24277.91864
580.257	23835.79342
580.46	23939.69113
580.664	24076.19546
580.868	23570.99072
581.071	23976.36269
581.275	24196.41111
581.479	24508.20027
581.682	24233.08896
581.886	24121.02051
582.09	24290.14514
582.293	24434.83261
582.497	24483.74401
582.7	24498.01012
582.904	24746.66774
583.107	24648.83082
583.311	24345.16557
583.515	24593.80006
583.718	24381.84693
583.922	24697.74858
584.125	24506.16224
584.329	24683.48075
584.532	24771.12784
584.735	25103.41115
584.939	24924.01127
585.142	25040.21145
585.346	24966.821
585.549	24840.43335
585.753	24750.7444
585.956	25003.51585
586.159	24809.85705
586.363	25184.9623
586.566	25046.32746
586.769	25115.64359
586.973	24850.62556
587.176	25089.14006
587.379	24966.821
587.582	25085.06263
587.786	25162.53538
587.989	25380.69925
588.192	25521.39713
588.395	25378.66022
588.599	25058.55953
588.802	25293.02297
589.005	24832.27961
589.208	25105.44988
589.411	25523.4363
589.615	25174.76821
589.818	25466.34027
590.021	25454.10562
590.224	25706.96987
590.427	25823.21593
590.63	25919.07253
590.833	25978.22012
591.036	25543.82813
591.239	25772.23005
591.442	25796.70313
591.645	25929.27028
591.848	26147.5129
592.051	25882.36101
592.254	25788.5454
592.457	25923.15163
592.66	25755.91482
592.863	25759.99362
593.066	25772.23005
593.269	26410.65404
593.472	26004.73505
593.675	26616.69814
593.878	25941.50764
594.081	26222.98463
594.284	25988.41813
594.486	26241.34297
594.689	26363.73538
594.892	26125.07581
595.095	26300.49856
595.298	26214.82541
595.5	26384.13469
595.703	26626.89875
595.906	26547.33497
596.109	26200.54685
596.311	26206.66622
596.514	26378.01488
596.717	26667.7016
596.92	26690.14342
597.122	26910.49084
597.325	26718.706
597.528	26922.73286
597.73	27304.30069
597.933	26824.79815
598.136	27194.11048
598.338	26751.34932
598.541	27096.16689
598.743	26981.90334
598.946	26808.47602
599.148	27047.19627
599.351	27012.50922
599.554	26934.97493
599.756	26710.54524
599.959	27124.73345
600.161	27043.11542
600.363	27034.95373
600.566	26802.35525
600.768	27328.78792
600.971	27251.24567
601.173	26690.14342
601.376	26871.72479
601.578	26561.61547
601.78	26959.45922
601.983	26737.06782
602.185	26871.72479
602.388	27347.15347
602.59	27312.46308
602.792	27116.57155
602.995	27036.99415
603.197	27210.43472
603.399	27483.87799
603.601	26975.7822
603.804	27057.39841
604.006	27241.04288
604.208	27075.76237
604.41	26908.45051
604.613	27102.28827
604.815	27414.49469
605.017	27592.03719
605.219	27032.91332
605.421	27490.00012
605.623	27581.83334
605.826	27771.6298
606.028	27524.69237
606.23	27714.48569
606.432	27589.99642
606.634	28045.1178
606.836	27532.85531
607.038	27571.62953
607.24	27649.17928
607.442	27781.83421
607.644	27628.77128
607.846	28192.07497
608.048	27616.52654
608.25	27508.36656
608.452	27724.68993
608.654	27732.85334
608.856	27514.48873
609.058	27347.15347
609.26	27357.35659
609.462	27579.79258
609.664	27624.6897
609.866	27494.08154
610.067	27694.07731
610.269	27675.70987
610.471	27877.75702
610.673	28155.33514
610.875	27390.00681
611.077	28004.29739
611.278	27532.85531
611.48	27322.6661
611.682	27353.27534
611.884	28098.185
612.085	27912.45314
612.287	28434.97495
612.489	27506.32584
612.69	27338.99099
612.892	27804.284
613.094	28149.21187
613.295	27692.03648
613.497	27608.3634
613.699	27430.82004
613.9	27885.92078
614.102	27565.50725
614.304	27457.34891
614.505	27743.05763
614.707	28175.74611
614.908	27430.82004
615.11	27826.73393
615.311	27400.21007
615.513	28194.11608
615.714	27879.79796
615.916	27943.06763
616.117	27659.38333
616.319	27671.62822
616.52	27855.30677
616.722	28247.18538
616.923	28245.14424
617.124	27955.3135
617.326	27585.91488
617.527	27432.86071
617.729	27606.32262
617.93	27843.06124
618.131	27847.14308
618.333	28000.21538
618.534	28239.02082
618.735	27881.8389
618.937	27685.91399
619.138	27955.3135
619.339	28012.46144
619.54	28122.67781
619.742	28024.70754
619.943	27724.68993
620.144	27826.73393
620.345	28139.00644
620.546	27826.73393
620.748	28365.57339
620.949	28112.47245
621.15	28518.6667
621.351	28081.85655
621.552	28285.96726
621.753	27981.84636
621.954	28532.95572
622.155	27904.28931
622.356	28569.69914
622.558	28087.97971
622.759	28279.84378
622.96	27412.45402
623.161	28077.77445
623.362	27632.85287
623.563	27845.10216
623.764	27369.60039
623.965	27894.08456
624.166	27722.64908
624.366	28122.67781
624.567	28510.50158
624.768	28469.67619
624.969	27796.12042
625.17	27934.90374
625.371	28145.12969
625.572	28061.44609
625.773	28214.52726
625.973	28669.72461
626.174	28312.50245
626.375	28322.70835
626.576	28210.44502
626.777	28373.73822
626.977	28167.58171
627.178	28486.00629
627.379	27757.34369
627.58	27738.97591
627.78	28420.68629
627.981	27965.51843
628.182	28232.89742
628.382	28506.41902
628.583	27798.16131
628.784	28330.87308
628.984	27861.42955
629.185	28114.51352
629.386	27841.02032
629.586	28055.32297
629.787	28220.65064
629.987	28151.25296
630.188	28239.02082
630.388	28271.67915
630.589	27912.45314
630.79	28169.62281
630.99	28332.91427
631.191	28175.74611
631.391	28165.54061
631.591	28016.54347
631.792	28049.19987
631.992	28157.37623
632.193	28377.82064
632.393	27763.4663
632.594	27920.61698
632.794	28165.54061
632.994	28243.1031
633.195	28481.92376
633.395	28192.07497
633.595	28224.73289
633.796	28688.09691
633.996	28737.09013
634.196	28375.77943
634.397	28655.43511
634.597	28588.07097
634.797	28647.2697
634.997	28612.56689
635.198	28310.46128
635.398	28457.42866
635.598	28643.187
635.798	28004.29739
635.998	28526.83185
636.199	28353.32619
636.399	28635.02161
636.599	28753.42134
636.799	28106.34925
636.999	28394.15036
637.199	28379.86185
637.399	28514.58414
637.599	28126.75996
637.799	27814.48849
637.999	28414.5626
638.199	28230.85629
638.399	28224.73289
638.599	28171.66391
638.799	28692.17966
638.999	28230.85629
639.199	27890.00267
639.399	28059.40505
639.599	28879.99044
639.799	28277.80262
639.999	28751.37993
640.199	28718.7176
640.399	28865.70018
640.599	27890.00267
640.799	29555.77381
640.998	28722.80038
641.198	29269.93003
641.398	29190.30578
641.598	29216.84702
641.798	29764.04458
641.997	29625.19616
642.197	29055.56065
642.397	29492.47805
642.597	29218.88866
642.796	28963.69156
642.996	29029.02047
643.196	29243.38843
643.395	28751.37993
643.595	29080.05942
643.795	29241.34678
643.994	29041.26976
644.194	28890.1978
644.394	29543.52294
644.593	28873.86604
644.793	29173.97279
644.992	28994.31435
645.192	29122.93265
645.392	29353.63929
645.591	29084.14257
645.791	29114.76628
645.99	28879.99044
646.19	28735.04873
646.389	28561.5339
646.589	28892.23927
646.788	29067.81002
646.987	28843.24416
647.187	29065.76845
647.386	28955.52552
647.586	29271.9717
647.785	29249.5134
647.984	29563.94108
648.184	29839.59657
648.383	29686.45219
648.582	29333.22223
648.782	29723.20629
648.981	29737.49964
649.18	29506.77055
649.38	29684.41031
649.579	29894.73006
649.778	29617.02876
649.977	30217.37964
650.177	29478.1856
650.376	29294.43012
650.575	28763.62837
650.774	29808.9672
650.973	29316.88866
651.173	29075.97628
651.372	29300.55516
651.571	29496.56162
651.77	29480.22737
651.969	29606.81953
652.168	29451.64261
652.367	29937.61223
652.566	29490.43627
652.765	29617.02876
652.964	29655.82405
653.163	29986.62103
653.362	29676.24279
653.561	29437.35031
653.76	29531.27211
653.959	29794.67358
654.158	29755.87688
654.357	29406.72412
654.556	29018.81276
654.755	29835.51264
654.954	29335.26393
655.153	28965.73307
655.352	29369.97301
655.551	29449.60085
655.749	29176.01441
655.948	29127.01583
656.147	29088.22572
656.346	29186.22252
656.545	29112.72469
656.743	29329.13883
656.942	29421.01631
657.141	29800.79941
657.34	29864.10025
657.538	29731.37391
657.737	30160.19914
657.936	30166.32558
658.135	29543.52294
658.333	29710.95488
658.532	29325.05544
658.731	29472.06028
658.929	29357.72271
659.128	29325.05544
659.326	29486.35271
659.525	29762.00265
659.724	29674.20091
659.922	29378.13989
660.121	29498.6034
660.319	29715.03868
660.518	29392.43198
660.716	29265.84669
660.915	29461.85143
661.113	29388.34852
661.312	29192.3474
661.51	29510.85413
661.709	30064.21963
661.907	29584.35933
662.105	29396.51544
662.304	29996.83128
662.502	29649.69846
662.701	30139.77775
662.899	29937.61223
663.097	29649.69846
663.296	29512.89593
663.494	29700.74541
663.692	28843.24416
663.891	29280.13838
664.089	29318.93036
664.287	29866.14223
664.485	29537.39752
664.684	29621.11245
664.882	29447.55909
665.08	29776.29615
665.278	29502.68697
665.476	29437.35031
665.675	29384.26507
665.873	29682.36843
666.071	29249.5134
666.269	29582.31751
666.467	29639.48914
666.665	30166.32558
666.863	29649.69846
667.061	29892.68807
667.259	29890.64607
667.457	29935.57021
667.655	29639.48914
667.853	29898.81406
668.051	29510.85413
668.249	29604.77769
668.447	29300.55516
668.645	29498.6034
668.843	29870.22619
669.041	29555.77381
669.239	29180.09765
669.437	29416.93282
669.635	29408.76586
669.833	29225.01359
670.031	29210.7221
670.229	29392.43198
670.426	29431.22505
670.624	29849.80642
670.822	29449.60085
671.02	29949.86437
671.218	29612.94506
671.415	28871.82457
671.613	28639.1043
671.811	28955.52552
672.009	28779.95969
672.206	29247.47175
672.404	29557.81563
672.602	29263.80503
672.799	29437.35031
672.997	29719.12248
673.195	28955.52552
673.392	29306.68022
673.59	29080.05942
673.788	28971.85761
673.985	28988.18978
674.183	29480.22737
674.38	28757.50415
674.578	29210.7221
674.775	29214.80538
674.973	29239.30513
675.17	29243.38843
675.368	29151.51505
675.565	29408.76586
675.763	29414.89108
675.96	28994.31435
676.158	29271.9717
676.355	28982.06521
676.553	29359.76442
676.75	28498.25392
676.947	29016.77122
677.145	28735.04873
677.342	29035.14511
677.539	28918.77855
677.737	29394.47371
677.934	29008.60507
678.131	28867.74164
678.329	28933.06899
678.526	28467.63493
678.723	29002.48047
678.92	28788.12537
679.118	28461.51117
679.315	28675.8487
679.512	28304.33776
679.709	28475.79997
679.906	28790.16679
680.104	28853.45143
680.301	28516.62542
680.498	28159.41732
680.695	28022.66652
680.892	28353.32619
681.089	28459.46991
681.286	28598.27759
681.483	28157.37623
681.68	28469.67619
681.877	28635.02161
682.075	28447.22241
682.272	28404.35646
682.469	28579.9057
682.665	28353.32619
682.862	28667.68325
683.059	28336.99664
683.256	28355.36739
683.453	28420.68629
683.65	28361.49099
683.847	28494.17137
684.044	28130.84212
684.241	27636.93447
684.438	28234.93855
684.635	27757.34369
684.831	28083.8976
685.028	28094.10288
685.225	28649.31105
685.422	28567.65783
685.619	28192.07497
685.815	28494.17137
686.012	27973.68239
686.209	27604.28184
686.405	28547.24478
686.602	27853.26584
686.799	28016.54347
686.996	27941.02666
687.192	28018.58449
687.389	27894.08456
687.586	27832.85666
687.782	27457.34891
687.979	27728.77163
688.175	27736.93506
688.372	28108.39032
688.568	27736.93506
688.765	27624.6897
688.962	27765.50718
689.158	27687.95482
689.355	27712.44485
689.551	27426.73869
689.748	27020.67084
689.944	27361.43785
690.14	27475.71517
690.337	27398.16941
690.533	27318.58489
690.73	27332.86915
690.926	27665.50577
691.123	27434.90139
691.319	27532.85531
691.515	27332.86915
691.712	27171.6648
691.908	27110.45014
692.104	27075.76237
692.301	27232.88068
692.497	27243.08344
692.693	27614.48576
692.889	26977.82258
693.086	27434.90139
693.282	27300.21951
693.478	27461.43029
693.674	27612.44497
693.87	27602.24106
694.067	27810.40669
694.263	27496.12225
694.459	27051.27712
694.655	27430.82004
694.851	27290.01656
695.047	27165.54328
695.243	27069.64104
695.439	26739.10803
695.635	26561.61547
695.831	27334.90976
696.027	26910.49084
696.224	27306.34129
696.42	27083.92416
696.615	27257.36736
696.811	26939.05563
697.007	26716.66581
697.203	26522.85428
697.399	26800.31499
697.595	26502.45388
697.791	26573.85597
697.987	26196.46727
698.183	26898.24887
698.379	26412.694
698.575	26765.63088
698.77	26414.73396
698.966	26641.17968
699.162	26021.05208
699.358	25947.62635
699.554	25908.87483
699.749	26361.69546
699.945	26347.41605
700.141	26243.3828
700.337	26559.5754
700.532	26278.06007
700.728	26457.57355
700.924	26755.42976
701.119	26557.53532
701.315	26214.82541
701.511	26143.43341
701.706	26667.7016
701.902	26577.93614
702.097	26161.79116
702.293	26263.78113
702.489	26388.21457
702.684	26102.63893
702.88	26278.06007
703.075	26186.26836
703.271	26047.5675
703.466	26139.35393
703.662	26178.10927
703.857	25910.91436
704.053	26023.09172
704.248	25988.41813
704.443	25894.59812
704.639	25884.40052
704.834	26235.22351
705.03	26300.49856
705.225	26153.63214
705.42	25935.38895
705.616	26341.29633
705.811	25825.25539
706.006	26002.69543
706.202	25912.9539
706.397	25906.83529
706.592	25729.40284
706.787	25923.15163
706.983	25278.75046
707.178	26218.90502
707.373	25496.92723
707.568	26029.21064
707.763	25611.12257
707.959	25847.68956
708.154	25445.94922
708.349	25647.82953
708.544	25441.87104
708.739	25662.10464
708.934	25286.90617
709.129	25615.20109
709.324	25213.50604
709.519	25399.05059
709.714	25588.69085
709.909	25611.12257
710.104	25205.35064
710.299	25558.10252
710.494	25700.85183
710.689	25704.93052
710.884	25364.38709
711.079	26080.20227
711.274	25525.47548
711.469	26265.82097
711.664	25778.3483
711.859	25739.59972
712.054	25641.71166
712.249	25233.89468
712.443	24826.16434
712.638	25388.85538
712.833	25213.50604
713.028	25378.66022
713.223	25272.6337
713.417	25131.95365
713.612	25083.02391
713.807	25176.80703
714.002	25123.7986
714.196	25013.709
714.391	24548.96152
714.586	25101.37241
714.78	24924.01127
714.975	25386.81634
715.17	25189.03995
715.364	25127.87612
715.559	25113.60485
715.754	24815.97226
715.948	24642.71621
716.143	24756.8594
716.337	24616.21978
716.532	24887.31804
716.726	24760.93609
716.921	24995.36138
717.115	24993.32276
717.31	24848.58712
717.504	24540.80919
717.699	24652.90725
717.893	24267.72996
718.088	24428.71878
718.282	24316.63621
718.476	24316.63621
718.671	24383.88481
718.865	24742.59109
719.059	24618.25795
719.254	24846.54867
719.448	24553.0377
719.642	24522.46659
719.837	24190.29822
720.031	24381.84693
720.225	24418.52913
720.419	24722.20798
720.614	24418.52913
720.808	24086.38285
721.002	24041.55883
721.196	24114.90793
721.39	24135.28331
721.585	24206.59931
721.779	24171.95969
721.973	24055.82088
722.167	23499.7064
722.361	24076.19546
722.555	24163.80931
722.749	24267.72996
722.943	24123.05805
723.137	23524.14631
723.331	23823.57066
723.525	23784.86593
723.719	23548.58667
723.913	23546.54996
724.107	23086.33339
724.301	23721.7184
724.495	23375.47708
724.689	23740.05126
724.883	23589.32158
725.077	23870.42516
725.271	24098.60782
725.465	23827.6449
725.659	23654.49996
725.853	23735.97727
726.046	23905.05773
726.24	23654.49996
726.434	23047.65014
726.628	23513.96296
726.822	23359.18557
727.015	23621.91038
727.209	23346.96708
727.403	23450.8279
727.596	23226.82465
727.79	23279.7674
727.984	23424.3528
728.177	23754.31032
728.371	23670.79504
728.565	23137.23422
728.758	23662.64748
728.952	23340.85787
729.146	23051.722
729.339	23790.97713
729.533	23709.49662
729.726	23754.31032
729.92	23672.83194
730.113	23911.16945
730.307	23658.57371
730.5	23342.89427
730.694	23809.3109
730.887	23458.97419
731.081	23839.8677
731.274	23813.3851
731.468	23357.14915
731.661	23420.27975
731.854	23397.87823
732.048	23312.34863
732.241	23177.95637
732.435	23766.53248
732.628	23870.42516
732.821	23601.54229
733.014	23257.36828
733.208	23167.77571
733.401	23338.82148
733.594	23139.2703
733.788	23485.44998
733.981	23489.52323
734.174	23461.01077
734.367	23440.64511
734.56	23281.8037
734.754	23179.99251
734.947	22966.21564
735.14	23116.87364
735.333	23076.15347
735.526	23587.2848
735.719	22783.00777
735.912	23039.50645
736.105	23222.75223
736.298	23161.66735
736.491	23208.49883
736.684	22878.67955
736.877	22966.21564
737.07	23055.79388
737.263	23080.22543
737.456	23316.42134
737.649	23283.84001
737.842	23210.53502
738.035	23538.40313
738.228	23151.48682
738.421	23137.23422
738.614	23458.97419
738.807	23399.91471
739	22652.74359
739.192	22373.9455
739.385	22500.10858
739.578	22282.38427
739.771	22504.17859
739.964	22548.94961
740.156	22870.53697
740.349	22489.93362
740.542	22884.78651
740.735	22978.43047
740.927	23011.00395
741.12	22540.80929
741.313	22532.66904
741.505	22723.98005
741.698	22585.58173
741.891	22500.10858
742.083	22188.79605
742.276	22042.32596
742.468	22414.64175
742.661	21969.09823
742.854	22461.44423
743.046	22170.48623
743.239	22184.72717
743.431	22455.33945
743.624	21912.14674
743.816	21849.09681
744.009	22253.90007
744.201	21503.40547
744.393	21999.60919
744.586	22080.9759
744.778	22306.79987
744.971	22146.0736
745.163	22262.03834
745.355	22135.90183
745.548	21832.82646
745.74	22123.69583
745.932	22215.2441
746.125	21706.73964
746.317	21434.28086
746.509	21094.82442
746.702	21777.91585
746.894	21765.71388
747.086	21643.70184
747.278	21914.18067
747.471	21922.31643
747.663	22111.48997
747.855	22001.64328
748.047	22180.65831
748.239	22215.2441
748.431	21812.48887
748.623	22091.14716
748.815	21470.87567
749.008	21840.96161
749.2	21877.57052
749.392	22131.83315
749.584	21753.51204
749.776	22115.55857
749.968	21971.13227
750.16	21806.38767
750.352	21458.67726
750.544	21804.35394
750.736	22017.91617
750.928	22302.73057
751.12	21706.73964
751.311	21322.47141
751.503	21962.99614
751.695	22009.77969
751.887	21576.60123
752.079	21745.37756
752.271	21241.16308
752.463	21816.55636
752.654	21670.13659
752.846	21682.33747
753.038	21251.32627
753.23	21239.13046
753.421	21556.26856
753.613	21544.06915
753.805	21611.16768
753.997	21121.24512
754.188	21596.9343
754.38	21487.14044
754.572	21430.21485
754.763	21576.60123
754.955	21594.90098
755.146	21357.0294
755.338	21440.3799
755.53	21365.16086
755.721	21031.824
755.913	21436.31387
756.104	21033.85621
756.296	20976.95587
756.487	21202.54389
756.679	21450.54506
756.87	20922.09074
757.062	20727.03907
757.253	21033.85621
757.445	21100.92144
757.636	21068.40441
757.827	20816.43302
758.019	20844.87823
758.21	20861.133
758.401	20568.58776
758.593	20588.90061
758.784	20330.95846
758.975	20755.48173
759.167	20501.55831
759.358	20651.87311
759.549	20387.82179
759.74	20393.91448
759.932	20649.84168
760.123	20525.93213
760.314	20875.35614
760.505	20207.08903
760.696	19939.09729
760.888	20629.52757
761.079	20158.35781
761.27	20680.31361
761.461	20192.87551
761.652	20196.9365
761.843	19782.8026
762.034	19788.89154
762.225	19918.79787
762.416	20276.12908
762.607	19953.30713
762.798	19967.51718
762.989	19841.66391
763.18	20174.60128
763.371	19809.18827
763.562	19567.68435
763.753	19602.18128
763.944	19813.24766
764.135	19531.1595
764.326	20091.35633
764.517	19981.72743
764.708	20109.62901
764.899	19693.50252
765.089	19776.7137
765.28	19868.05116
765.471	19521.01395
765.662	19492.60695
765.853	19338.41177
766.043	19275.52323
766.234	19277.55183
766.425	18906.38594
766.615	19212.63865
766.806	19226.83805
766.997	19654.94363
767.187	19389.13123
767.378	19590.00575
767.569	19541.30515
767.759	19498.6941
767.95	19364.78557
768.141	19279.58044
768.331	18981.41945
768.522	18884.07974
768.712	18863.8018
768.903	18758.36292
769.093	18758.36292
769.284	18318.47243
769.474	18738.08745
769.665	18736.05992
769.855	18736.05992
770.046	18782.69402
770.236	18419.81366
770.426	18515.08307
770.617	18596.17012
770.807	18592.11562
770.998	18298.20531
771.188	18513.05597
771.378	18221.19367
771.569	18746.19759
771.759	18628.60667
771.949	18152.29303
772.139	18393.46403
772.33	17951.69444
772.52	17901.04373
772.71	18225.24678
772.9	18519.13728
773.09	18330.63288
773.281	18401.57154
773.471	17980.05979
773.661	17994.24273
773.851	18277.93857
774.041	18249.56576
774.231	17854.44701
774.421	17558.70092
774.611	17350.09969
774.802	17672.12939
774.992	17633.64358
775.182	17925.3558
775.372	17901.04373
775.562	17856.47292
775.752	18012.47819
775.942	17848.36931
776.131	18048.94997
776.321	17564.77719
776.511	17431.10594
776.701	17617.43938
776.891	17388.57705
777.081	17066.61524
777.271	17009.92502
777.461	17149.62984
777.651	17105.08484
777.84	17173.9277
778.03	17242.77387
778.22	17180.00223
778.41	17329.84889
778.599	16811.52555
778.789	16886.42856
778.979	17319.72361
779.169	17615.41387
779.358	17423.0051
779.548	17532.37076
779.738	17034.22057
779.927	17362.25032
780.117	17370.3508
780.307	17386.5519
780.496	17242.77387
780.686	17141.53065
780.875	17175.95254
781.065	17287.32319
781.254	17001.82659
781.444	17305.54833
781.633	17173.9277
781.823	17001.82659
782.012	17175.95254
782.202	17281.2482
782.391	16955.26144
782.581	16408.72395
782.77	15937.19978
782.96	16208.36568
783.149	16040.40155
783.338	16248.84066
783.528	16416.81962
783.717	16594.93281
783.906	16449.20264
784.096	16149.67816
784.285	16333.84044
784.474	16364.1983
784.663	16212.41315
784.853	16273.12599
785.042	16273.12599
785.231	16141.58344
785.42	15742.94655
785.61	16173.96248
785.799	15744.96997
785.988	15955.4116
786.177	15666.05737
786.366	15706.52519
786.555	15829.9545
786.744	15765.20421
786.933	16052.54317
787.122	15906.84699
787.312	15765.20421
787.501	15682.24445
787.69	15467.76963
787.879	15943.27038
788.068	15554.77259
788.257	15366.60464
788.445	15222.95182
788.634	15686.29123
788.823	15789.48544
789.012	16129.44141
789.201	15858.28311
789.39	16044.44875
789.579	15740.92313
789.768	15720.68902
789.957	15702.47839
790.145	15765.20421
790.334	15447.53653
790.523	15251.27764
790.712	15194.62602
790.9	15467.76963
791.089	15380.76767
791.278	15639.75347
791.467	15401.00061
791.655	15032.76421
791.844	15210.81219
792.033	15457.65307
792.221	15069.18318
792.41	15526.44592
792.599	15437.42001
792.787	15520.37593
792.976	15534.53924
793.164	15218.90528
793.353	15024.67109
793.541	15356.48819
793.73	15083.3461
793.918	15659.98723
794.107	15139.99772
794.295	15271.51039
794.484	15291.74316
794.672	14965.99586
794.861	14862.80755
795.049	14965.99586
795.238	14838.52774
795.426	14848.64434
795.614	14628.09822
795.803	14713.08049
795.991	14419.68073
796.179	14391.35101
796.368	14328.6198
796.556	14510.73861
796.744	14219.34207
796.932	14310.40721
797.121	14152.55848
797.309	14419.68073
797.497	14462.17476
797.685	14413.6101
797.874	14579.5361
798.062	14978.13558
798.25	14292.19448
798.438	14464.19827
798.626	14225.4132
798.814	14237.55541
799.002	14221.36579
799.19	14429.79842
799.378	14314.45447
799.566	14401.4688
799.755	13940.04911
799.943	14132.32058
800.131	14193.03365
800.318	14233.50801
800.506	14012.91243
800.694	14249.69754
800.882	14178.86743
801.07	14237.55541
801.258	14201.12858
801.446	14352.90304
801.634	13931.95298
801.822	13992.67294
802.01	14012.91243
802.197	14367.06815
802.385	13668.80414
802.573	14063.51008
802.761	14051.36678
802.949	14344.80865
803.136	14053.39067
803.324	13940.04911
803.512	13595.92284
803.699	14010.88849
803.887	14130.29678
804.075	14253.7449
804.262	14276.00527
804.45	13992.67294
804.638	13636.41299
804.825	14065.53395
805.013	14089.82028
805.201	14294.21813
805.388	14164.70112
805.576	14419.68073
805.763	14342.78505
805.951	14271.95794
806.138	14067.55783
806.326	13917.78466
806.513	14324.57257
806.701	14108.03481
806.888	14103.98716
807.075	13861.11003
807.263	13925.88086
807.45	14037.19949
807.638	13707.26754
807.825	13938.02508
808.012	14012.91243
808.2	13996.72086
808.387	13933.97702
808.574	14039.22339
808.761	14314.45447
808.949	14789.96786
809.136	14296.24177
809.323	14401.4688
809.51	14358.97381
809.698	14126.24917
809.885	14108.03481
810.072	14288.14719
810.259	14302.31268
810.446	14142.43955
810.633	14061.4862
810.82	14539.06716
811.008	14302.31268
811.195	14326.59619
811.382	14063.51008
811.569	14425.75135
811.756	13810.50584
811.943	14164.70112
812.13	13883.37532
812.317	14049.34289
812.504	13923.85681
812.691	13850.98934
812.878	13830.74773
813.064	14047.31899
813.251	14191.00991
813.438	14411.58656
813.625	13824.6752
813.812	13842.89273
813.999	14025.056
814.186	14304.33632
814.372	13948.1452
814.559	14496.57423
814.746	14154.58226
814.933	14417.65719
815.12	14417.65719
815.306	14055.41455
815.493	13838.84441
815.68	13972.43321
815.866	13747.7541
816.053	13927.9049
816.24	13650.58422
816.426	13936.00105
816.613	13818.60263
816.799	13927.9049
816.986	13988.62502
817.173	13964.33725
817.359	13743.7055
817.546	14077.67716
817.732	13755.85126
817.919	13952.19323
818.105	13850.98934
818.292	14037.19949
818.478	13982.55311
818.665	14207.19977
818.851	13755.85126
819.037	13820.62682
819.224	13689.04818
819.41	13911.71248
819.597	13488.61716
819.783	13389.40072
819.969	13312.45081
820.156	13381.30101
820.342	13267.89811
820.528	13391.42564
820.714	13190.93851
820.901	13523.03707
821.087	13599.97192
821.273	13776.09395
821.459	13612.11906
821.646	13697.14571
821.832	13652.60867
822.018	13697.14571
822.204	13140.30367
822.39	13535.18502
822.576	13227.39385
822.762	13425.84866
822.948	13458.24576
823.134	13115.99791
823.32	13186.88783
823.507	13099.7937
823.693	13237.52008
823.879	12955.96765
824.065	13008.63926
824.25	13032.94808
824.436	12929.63055
824.622	13259.7974
824.808	13275.99876
824.994	13257.77221
825.18	13138.27821
825.366	13476.4687
825.552	13067.38436
825.738	13280.04905
825.923	13004.58771
826.109	12874.92759
826.295	12696.60865
826.481	12718.90093
826.667	12692.55543
826.852	13188.91317
827.038	12635.80789
827.224	12793.87892
827.409	12556.75874
827.595	12682.42229
827.781	12599.32484
827.966	12767.53619
828.152	12418.90638
828.338	12925.57861
828.523	12514.18988
828.709	12595.27104
828.894	12530.40692
829.08	12810.08936
829.266	12252.63137
829.451	12420.93384
829.637	12376.32817
829.822	12605.40548
830.008	12236.40688
830.193	12605.40548
830.378	12465.53628
830.564	12716.87439
830.749	12550.67765
830.935	12572.97472
831.12	12384.43854
831.305	12506.0812
831.491	12248.57529
831.676	12639.86145
831.861	12299.27421
832.047	12262.77144
832.232	12076.16478
832.417	12112.67976
832.602	11808.30957
832.788	12137.02172
832.973	12254.6594
833.158	12558.78576
833.343	12236.40688
833.528	12149.19228
833.714	11960.51735
833.899	12191.78716
834.084	11641.8407
834.269	12112.67976
834.454	11804.25005
834.639	11887.46344
834.824	11753.50315
835.009	12076.16478
835.194	11895.58106
835.379	12463.50897
835.564	11735.23295
835.749	12070.07871
835.934	11796.13091
836.119	11700.72061
836.304	11233.52419
836.489	11274.17057
836.674	11475.31095
836.859	11434.6843
837.044	11641.8407
837.228	11365.61005
837.413	11424.52703
837.598	11511.87165
837.783	11251.81557
837.968	11597.16811
838.152	11355.45112
838.337	11718.99216
838.522	11777.86234
838.707	11804.25005
838.891	11300.58852
839.076	11721.02229
839.261	11257.91251
839.445	11631.68822
839.63	11406.24334
839.815	11361.54651
839.999	11479.3734
840.184	11680.41804
840.368	11548.42929
840.553	11481.40461
840.737	11306.68473
840.922	11548.42929
841.106	11079.02973
841.291	11284.33152
841.475	11249.78324
841.66	11564.67616
841.844	11129.85705
842.029	11066.83017
842.213	11129.85705
842.397	11170.5141
842.582	10773.91977
842.766	11280.26717
842.951	10775.95469
843.135	11129.85705
843.319	10759.67497
843.504	10712.86652
843.688	10714.9018
843.872	10716.93707
844.056	10741.35937
844.241	10702.68993
844.425	10653.83807
844.609	10564.25797
844.793	10256.64737
844.977	10372.8003
845.161	10067.03971
845.346	10224.03518
845.53	10140.45045
845.714	10252.57104
845.898	10427.80512
846.082	10132.2946
846.266	10270.91411
846.45	10197.53521
846.634	10124.13852
846.818	10444.10102
847.002	10166.95544
847.186	10397.24806
847.37	9975.25044
847.554	10022.16857
847.738	9769.12702
847.922	10034.40684
848.106	9912.00083
848.29	9912.00083
848.473	10034.40684
848.657	9769.12702
848.841	10168.99419
849.025	10160.83911
849.209	9952.80863
849.392	9852.8191
849.576	9805.87299
849.76	9720.12476
849.944	9771.16859
850.127	9765.04383
850.311	9609.83736
850.495	9944.64754
850.678	9609.83736
850.862	9603.70895
851.046	9497.46071
851.229	9536.28715
851.413	9413.65761
851.596	9834.44982
851.78	9415.70191
851.964	9834.44982
852.147	9626.17908
852.331	9464.76029
852.514	9315.51189
852.698	9618.00835
852.881	9378.90199
853.065	9587.36585
853.248	9654.77471
853.431	9423.87895
853.615	9340.05187
853.798	9368.67885
853.982	9074.07321
854.165	9366.63417
854.348	8963.50451
854.532	9288.92421
854.715	9149.80403
854.898	9166.17517
855.081	8766.81014
855.265	9180.49903
855.448	8801.65354
855.631	8826.24571
855.814	8883.61736
855.997	9022.89034
856.181	8725.81116
856.364	9031.08033
856.547	8963.50451
856.73	8809.85122
856.913	8426.29295
857.096	8850.83529
857.279	8760.66076
857.462	8697.1075
857.645	8775.00906
857.828	8731.96148
858.011	8803.70298
858.194	8824.19647
858.377	8645.84197
858.56	8934.83018
858.743	8705.30892
858.926	8760.66076
859.109	8520.70507
859.292	8586.35937
859.475	8362.64447
859.658	8686.85532
859.841	8247.61919
860.023	8553.53464
860.206	8243.51001
860.389	8565.84448
860.572	8413.97534
860.755	8452.97874
860.937	8247.61919
861.12	8288.7067
861.303	8136.6434
861.486	8173.64178
861.668	8216.79839
861.851	8298.97735
862.034	8025.60925
862.216	8340.05505
862.399	7998.87
862.581	7854.82994
862.764	7776.59434
862.947	8017.38216
863.129	7593.23966
863.312	7628.27543
863.494	7646.82128
863.677	7830.12721
863.859	7850.71303
864.042	7939.20847
864.224	7840.42038
864.406	7867.18019
864.589	7457.15981
864.771	7626.21467
864.954	7566.44345
865.136	7642.70013
865.318	7331.30527
865.501	7420.03082
865.683	7533.45853
865.865	7805.42149
866.048	7304.47331
866.23	7673.60671
866.412	7576.75011
866.594	7568.50483
866.777	7463.3473
866.959	7364.32414
867.141	7320.98573
867.323	7582.93386
867.505	7277.63764
867.687	7467.47218
867.869	7351.94272
868.052	7370.51456
868.234	7304.47331
868.416	7362.26063
868.598	7213.62988
868.78	7492.21964
868.962	7294.15234
869.144	7634.45757
869.326	7281.76645
869.508	7316.85775
869.69	7294.15234
869.872	7327.17752
870.054	7145.46921
870.236	7159.92955
870.417	7186.78159
870.599	7064.88444
870.781	6814.64737
870.963	7261.12154
871.145	7071.08448
871.327	7097.94897
871.508	7056.61742
871.69	7170.2577
871.872	7029.74711
872.054	7312.72969
872.235	6876.72052
872.417	7112.4129
872.599	7029.74711
872.78	7329.24141
872.962	7120.67751
873.144	7182.65075
873.325	7153.7324
873.507	7271.44427
873.689	7095.8826
873.87	7182.65075
874.052	7017.34414
874.233	7215.69497
874.415	7029.74711
874.596	7589.1174
874.778	6969.79195
874.959	7281.76645
875.141	7097.94897
875.322	7354.00635
875.503	6965.65642
875.685	7149.60085
875.866	6773.25388
876.048	7046.28313
876.229	6907.74942
876.41	7040.08229
876.592	6959.45294
876.773	7188.84697
876.954	6818.78622
877.136	7004.94037
877.317	6930.50071
877.498	6994.60328
877.679	7050.41691
877.86	7124.80968
878.042	6793.95177
878.223	6932.56888
878.404	6992.53579
878.585	6858.10072
878.766	6578.58166
878.947	7141.33748
879.128	6704.93463
879.309	6862.23861
879.49	6878.78927
879.672	6843.61739
879.853	6796.02143
880.034	6930.50071
880.215	6688.36863
880.396	6762.90408
880.576	6591.01363
880.757	6913.95459
880.938	6634.51896
881.119	6841.54825
881.3	6959.45294
881.481	7015.27691
881.662	6980.1304
881.843	6922.22783
882.023	6727.71048
882.204	6924.29609
882.385	6731.85125
882.566	6930.50071
882.747	6673.87217
882.927	6847.7556
883.108	6860.16968
883.289	7145.46921
883.469	7157.86386
883.65	7226.02013
883.831	7031.81419
884.011	7135.13972
884.192	7002.873
884.373	7234.27986
884.553	6996.67074
884.734	7128.94177
884.914	6860.16968
885.095	6975.99509
885.275	6731.85125
885.456	6982.19802
885.636	6715.28763
885.817	7029.74711
885.997	6907.74942
886.178	7128.94177
886.358	7011.14236
886.538	7145.46921
886.719	6835.34069
886.899	7164.06088
887.08	7246.66879
887.26	7481.90858
887.44	7013.20964
887.621	7453.03472
887.801	7135.13972
887.981	7252.86296
888.161	7164.06088
888.342	7221.89013
888.522	7004.94037
888.702	6959.45294
888.882	6715.28763
889.062	7075.21772
889.242	6882.92671
889.423	6920.15956
889.603	6775.32377
889.783	6913.95459
889.963	6866.37641
890.143	7046.28313
890.323	6649.01847
890.503	6940.8413
890.683	6822.92497
890.863	6740.13251
891.043	6545.42569
891.223	6897.40702
891.403	6824.99432
891.583	6775.32377
891.763	6483.24226
891.943	6690.43946
892.122	6636.59039
892.302	6947.04539
892.482	6870.51412
892.662	6955.31718
892.842	6932.56888
893.022	6769.11403
893.201	6767.04407
893.381	6837.4099
893.561	6756.69393
893.741	6806.3694
893.92	6321.46745
894.1	6551.64289
894.28	6350.5144
894.459	6727.71048
894.639	6551.64289
894.819	6704.93463
894.998	6418.96411
895.178	6655.23221
895.357	6410.66853
895.537	6744.273
895.716	6483.24226
895.896	6572.36537
896.075	6255.05722
896.255	6651.08974
896.434	6271.66202
896.614	6557.85987
896.793	6259.20856
896.973	6309.01736
897.152	6072.30531
897.331	6319.39249
897.511	5939.28043
897.69	6128.39626
897.87	5901.84978
898.049	5920.56606
898.228	5845.68949
898.407	5953.83472
898.587	5878.97174
898.766	6053.60451
898.945	5937.20115
899.124	5978.78226
899.304	5654.1993
899.483	6103.46906
899.662	5793.67388
899.841	5968.38787
900.02	5824.88502
900.199	6074.38305
900.378	5754.13215
900.557	5878.97174
900.737	5854.01062
900.916	5870.65174
901.095	5562.54644
901.274	5685.43416
901.453	5587.5472
901.632	5864.4115
901.811	5693.76256
901.989	5631.29037
902.168	5427.06672
902.347	5710.41822
902.526	5337.38708
902.705	5543.79364
902.884	5452.08584
903.063	5531.29072
903.242	5289.40111
903.42	5522.95496
903.599	5139.10423
903.778	5159.98602
903.957	5001.22621
904.135	5347.81718
904.314	5256.01226
904.493	5518.78695
904.672	5099.42242
904.85	5122.39712
905.029	4735.63363
905.207	5111.95442
905.386	4754.46725
905.565	4911.34249
905.743	4773.29904
905.922	4769.11436
906.1	4599.55885
906.279	4683.30841
906.457	4320.83671
906.636	4758.65225
906.814	4383.74019
906.993	4444.52828
907.171	4406.7999
907.35	4406.7999
907.528	4251.62046
907.707	4366.96784
907.885	4190.77486
908.063	4304.05916
908.242	3863.16668
908.42	4161.39474
908.598	3978.72653
908.777	3980.82705
908.955	3892.58769
909.133	4041.73327
909.311	3802.21076
909.49	4163.49345
909.668	3802.21076
909.846	4048.03292
910.024	4001.83114
910.202	4176.08531
910.38	3781.18763
910.559	4048.03292
910.737	4024.93328
910.915	4398.41486
911.093	4167.69082
911.271	4155.09846
911.449	4134.1095
911.627	4155.09846
911.805	3951.4179
911.983	4142.50533
912.161	4077.42886
912.339	4341.8067
912.517	3970.32424
912.695	4465.48542
912.872	4297.76723
913.05	4356.48441
913.228	4180.28243
913.406	4104.72143
913.584	4085.82695
913.762	4270.49994
913.939	4197.07006
914.117	4377.45072
914.295	4260.01155
914.473	4161.39474
914.65	3970.32424
914.828	4220.15083
915.006	4058.53194
915.184	4390.02946
915.361	4087.92642
915.539	4316.64245
915.716	3961.92163
915.894	4188.67641
916.072	4052.23259
916.249	4228.5432
916.427	3764.36772
916.604	3919.90368
916.782	3810.61946
916.959	3900.99297
917.137	3699.17882
917.314	4159.296
917.492	3688.66274
917.669	3919.90368
917.847	3665.5257
918.024	3663.42221
918.201	3583.47588
918.379	3991.32935
918.556	3570.85031
918.733	3798.00629
918.911	3684.45618
919.088	3863.16668
919.265	3661.31871
919.442	3730.72415
919.62	3398.23472
919.797	3812.72158
919.974	3459.29559
920.151	3394.02308
920.328	3240.25057
920.506	3524.55081
920.683	3387.70548
920.86	3526.65553
921.037	3337.15901
921.214	3423.5031
921.391	3263.42759
921.568	3461.40087
921.745	3425.60869
921.922	3541.38803
922.099	3440.34727
922.276	3678.14619
922.453	3463.50613
922.63	3440.34727
922.807	3282.3891
922.984	3242.35766
923.161	3069.5222
923.338	3450.87429
923.514	3063.19691
923.691	3221.28604
923.868	3105.36283
924.045	2972.5192
924.222	2932.44341
924.399	2888.14295
924.575	2723.544
924.752	3014.69839
924.929	2723.544
925.105	2947.2088
925.282	2833.28599
925.459	2706.65741
925.635	2788.97153
925.812	2761.53575
925.989	2748.87231
926.165	2755.20409
926.342	2645.4366
926.518	2820.62534
926.695	2503.9559
926.871	2613.76651
927.048	2546.19451
927.224	2778.41958
927.401	2653.88149
927.577	2723.544
927.754	2406.79014
927.93	2372.98808
928.107	2216.62095
928.283	2444.81427
928.459	2343.40913
928.636	2632.7689
928.812	2360.31162
928.988	2385.66416
929.165	2125.73662
929.341	2389.88944
929.517	2193.37293
929.693	2430.02752
929.87	2174.35106
930.046	2231.4146
930.222	2195.48643
930.398	2199.7134
930.574	1998.89763
930.751	2203.94034
930.927	2140.53276
931.103	2351.86046
931.279	2072.89017
931.455	2347.63481
931.631	1979.86966
931.807	2301.15014
931.983	2077.11806
932.159	2153.21487
932.335	1888.95155
932.511	2055.97834
932.687	1836.08759
932.863	1954.49825
933.039	1762.07324
933.215	1814.94117
933.391	1694.39885
933.566	1869.92089
933.742	1647.87087
933.918	1747.26977
934.094	1622.49145
934.27	1753.61414
934.445	1476.55518
934.621	1609.80162
934.797	1408.87355
934.973	1658.44552
935.148	1252.36358
935.324	1364.45774
935.5	1188.91714
935.675	1408.87355
935.851	1222.75489
936.027	1279.85784
936.202	1078.95145
936.378	1148.73602
936.553	895.00401
936.729	861.18054
936.904	812.56317
937.08	884.43395
937.255	776.63172
937.431	844.26962
937.606	654.06461
937.782	747.04326
937.957	544.21075
938.133	668.85521
938.308	463.95624
938.483	552.65979
938.659	510.41683
938.834	626.59793
939.009	453.39803
939.185	516.75291
939.36	444.95174
939.535	520.97704
939.71	506.19285
939.886	453.39803
940.061	461.84457
940.236	548.43524
940.411	278.19166
940.586	392.16815
940.761	349.94869
940.937	447.06329
941.112	335.1735
941.287	316.17809
941.462	267.64093
941.637	377.39057
941.812	244.431
941.987	242.32113
942.162	276.08147
942.337	246.5409
942.512	214.89448
942.687	183.25252
942.862	267.64093
943.037	299.2945
943.212	263.42077
943.386	297.18413
943.561	259.20069
943.736	409.05781
943.911	183.25252
944.086	223.33309
944.26	250.76076
944.435	263.42077
944.61	160.05133
944.785	212.78487
944.959	170.59702
945.134	271.86117
945.309	200.12766
945.483	191.68993
945.658	179.03394
945.833	271.86117
946.007	195.90876
946.182	307.73615
946.357	240.21127
946.531	212.78487
946.706	174.81543
946.88	265.53084
947.055	229.66226
947.229	221.22341
947.404	195.90876
947.578	223.33309
947.752	238.10143
947.927	187.47118
948.101	204.34665
948.276	166.37868
948.45	206.45618
948.624	225.4428
948.799	217.0041
948.973	282.41208
949.147	227.55252
949.321	284.52232
949.496	136.85268
949.67	309.84661
949.844	330.95217
950.018	271.86117
950.193	250.76076
950.367	202.23715
950.541	212.78487
950.715	271.86117
950.889	248.65082
951.063	263.42077
951.237	282.41208
951.411	263.42077
951.585	250.76076
951.759	282.41208
951.933	263.42077
952.107	233.8818
952.281	181.14322
952.455	288.74285
952.629	265.53084
952.803	311.95708
952.977	204.34665
953.151	282.41208
953.325	314.06758
953.499	316.17809
953.672	248.65082
953.846	233.8818
954.02	238.10143
954.194	314.06758
954.368	250.76076
954.541	288.74285
954.715	229.66226
954.889	339.39489
955.062	210.67529
955.236	273.97131
955.41	229.66226
955.583	288.74285
955.757	223.33309
955.93	267.64093
956.104	284.52232
956.278	305.62571
956.451	339.39489
956.625	166.37868
956.798	242.32113
956.972	181.14322
957.145	263.42077
957.319	267.64093
957.492	292.96345
957.665	273.97131
957.839	263.42077
958.012	278.19166
958.185	276.08147
958.359	217.0041
958.532	206.45618
958.705	223.33309
958.879	301.40489
959.052	240.21127
959.225	233.8818
959.398	240.21127
959.572	288.74285
959.745	314.06758
959.918	292.96345
960.091	299.2945
960.264	267.64093
960.438	248.65082
960.611	193.79933
960.784	303.51529
960.957	208.56572
961.13	202.23715
961.303	238.10143
961.476	309.84661
961.649	288.74285
961.822	238.10143
961.995	316.17809
962.168	202.23715
962.341	288.74285
962.514	303.51529
962.686	288.74285
962.859	233.8818
963.032	214.89448
963.205	240.21127
963.378	292.96345
963.551	183.25252
963.723	282.41208
963.896	210.67529
964.069	119.98255
964.242	179.03394
964.414	252.87071
964.587	261.31072
964.76	189.58055
964.932	198.0182
965.105	233.8818
965.278	183.25252
965.45	208.56572
965.623	172.70621
965.795	170.59702
965.968	235.99161
966.14	212.78487
966.313	265.53084
966.485	267.64093
966.658	263.42077
966.83	214.89448
967.003	250.76076
967.175	153.72418
967.348	257.09068
967.52	280.30186
967.692	145.28826
967.865	155.83321
968.037	225.4428
968.209	155.83321
968.382	219.11374
968.554	231.77202
968.726	210.67529
968.898	187.47118
969.071	242.32113
969.243	195.90876
969.415	162.16043
969.587	206.45618
969.759	198.0182
969.932	179.03394
970.104	214.89448
970.276	119.98255
970.448	136.85268
970.62	105.22233
970.792	174.81543
970.964	103.11382
971.136	181.14322
971.308	107.33087
971.48	280.30186
971.652	179.03394
971.824	153.72418
971.996	147.39721
972.168	206.45618
972.339	138.96154
972.511	149.50617
972.683	111.54801
972.855	176.92467
973.027	174.81543
973.199	130.52622
973.37	204.34665
973.542	162.16043
973.714	195.90876
973.886	193.79933
974.057	111.54801
974.229	141.07043
974.401	141.07043
974.572	157.94226
974.744	94.67998
974.915	198.0182
975.087	111.54801
975.259	153.72418
975.43	128.41744
975.602	157.94226
975.773	94.67998
975.945	138.96154
976.116	128.41744
976.288	73.59693
976.459	130.52622
976.63	149.50617
976.802	170.59702
976.973	179.03394
977.145	103.11382
977.316	111.54801
977.487	151.61516
977.659	145.28826
977.83	101.00532
978.001	101.00532
978.172	44.08449
978.344	52.51615
978.515	136.85268
978.686	46.19237
978.857	183.25252
979.028	128.41744
979.2	119.98255
979.371	128.41744
979.542	86.24649
979.713	179.03394
979.884	147.39721
980.055	103.11382
980.226	54.62413
980.397	122.09124
980.568	105.22233
980.739	79.92161
980.91	117.87389
981.081	164.26954
981.252	94.67998
981.423	77.81336
981.594	48.30027
981.765	92.57157
981.936	82.02988
982.106	155.83321
982.277	128.41744
982.448	103.11382
982.619	56.73213
982.79	109.43943
982.96	130.52622
983.131	75.70514
983.302	88.35483
983.472	107.33087
983.643	124.19996
983.814	88.35483
983.984	60.94819
984.155	12.46906
984.326	77.81336
984.496	12.46906
984.667	115.76524
984.837	115.76524
985.008	71.48875
985.178	77.81336
985.349	77.81336
985.519	69.38059
985.69	54.62413
985.86	115.76524
986.031	113.65661
986.201	92.57157
986.371	162.16043
986.542	90.46319
986.712	60.94819
986.882	-2.28298
987.053	63.05626
987.223	77.81336
987.393	56.73213
987.563	60.94819
987.734	86.24649
987.904	41.97663
988.074	56.73213
988.244	35.65319
988.414	77.81336
988.585	69.38059
988.755	141.07043
988.925	86.24649
989.095	60.94819
989.265	-14.92664
989.435	6.14661
989.605	103.11382
989.775	94.67998
989.945	-14.92664
990.115	105.22233
990.285	39.86879
990.455	39.86879
990.625	10.36155
990.795	56.73213
990.965	54.62413
991.134	52.51615
991.304	-4.39031
991.474	25.11459
991.644	73.59693
991.814	77.81336
991.984	25.11459
992.153	98.89685
992.323	63.05626
992.493	14.57659
992.662	25.11459
992.832	69.38059
993.002	115.76524
993.171	10.36155
993.341	-10.71218
993.511	27.22227
993.68	77.81336
993.85	86.24649
994.019	92.57157
994.189	44.08449
994.358	6.14661
994.528	1.93177
994.697	-6.49763
994.867	54.62413
995.036	54.62413
995.206	63.05626
995.375	46.19237
995.544	-27.56942
995.714	29.32996
995.883	18.79172
996.052	58.84015
996.222	52.51615
996.391	60.94819
996.56	4.03918
996.73	69.38059
996.899	48.30027
997.068	-17.03383
997.237	27.22227
997.406	4.03918
997.576	79.92161
997.745	10.36155
997.914	52.51615
998.083	101.00532
998.252	84.13817
998.421	94.67998
998.59	1.93177
998.759	56.73213
998.928	-6.49763
999.097	98.89685
999.266	39.86879
999.435	23.00695
999.604	79.92161
999.773	18.79172
999.942	52.51615
1000.111	-12.81942
1000.28	94.67998
1000.448	44.08449
1000.617	29.32996
1000.786	27.22227
1000.955	41.97663
1001.124	1.93177
1001.292	1.93177
1001.461	90.46319
1001.63	37.76098
1001.798	52.51615
1001.967	31.43768
1002.136	-4.39031
1002.304	1.93177
1002.473	73.59693
1002.642	65.16435
1002.81	35.65319
1002.979	84.13817
1003.147	-8.60492
1003.316	77.81336
1003.484	-23.35526
1003.653	88.35483
1003.821	18.79172
1003.99	18.79172
1004.158	35.65319
1004.327	94.67998
1004.495	39.86879
1004.663	44.08449
1004.832	65.16435
1005	10.36155
1005.168	41.97663
1005.337	29.32996
1005.505	27.22227
1005.673	12.46906
1005.842	29.32996
1006.01	35.65319
1006.178	-21.24814
1006.346	10.36155
1006.514	16.68414
1006.683	23.00695
1006.851	27.22227
1007.019	79.92161
1007.187	-21.24814
1007.355	29.32996
1007.523	20.89932
1007.691	27.22227
1007.859	18.79172
1008.027	111.54801
1008.195	6.14661
1008.363	-33.89048
1008.531	20.89932
1008.699	44.08449
1008.867	-31.78348
1009.035	1.93177
1009.203	-54.95905
1009.37	8.25407
1009.538	18.79172
1009.706	-52.8523
1009.874	-4.39031
1010.042	60.94819
1010.209	-31.78348
1010.377	1.93177
1010.545	25.11459
1010.713	88.35483
1010.88	-4.39031
1011.048	1.93177
1011.216	27.22227
1011.383	-4.39031
1011.551	-48.63874
1011.718	6.14661
1011.886	29.32996
1012.054	54.62413
1012.221	48.30027
1012.389	4.03918
1012.556	-8.60492
1012.724	-17.03383
1012.891	44.08449
1013.058	-4.39031
1013.226	71.48875
1013.393	27.22227
1013.561	35.65319
1013.728	10.36155
1013.895	10.36155
1014.063	1.93177
1014.23	86.24649
1014.397	35.65319
1014.565	-42.31821
1014.732	41.97663
1014.899	-25.46235
1015.066	-6.49763
1015.233	-23.35526
1015.401	1.93177
1015.568	65.16435
1015.735	29.32996
1015.902	71.48875
1016.069	27.22227
1016.236	4.03918
1016.403	-2.28298
1016.57	-4.39031
1016.737	-23.35526
1016.904	-29.67646
1017.071	1.93177
1017.238	-33.89048
1017.405	-31.78348
1017.572	6.14661
1017.739	-10.71218
1017.906	69.38059
1018.073	60.94819
1018.24	-14.92664
1018.407	10.36155
1018.573	58.84015
1018.74	48.30027
1018.907	-31.78348
1019.074	54.62413
1019.241	20.89932
1019.407	16.68414
1019.574	-2.28298
1019.741	-90.7698
1019.907	27.22227
1020.074	29.32996
1020.241	-4.39031
1020.407	88.35483
1020.574	-42.31821
1020.74	50.4082
1020.907	-27.56942
1021.073	-23.35526
1021.24	18.79172
1021.406	-23.35526
1021.573	27.22227
1021.739	52.51615
1021.906	98.89685
1022.072	4.03918
1022.239	20.89932
1022.405	35.65319
1022.571	-8.60492
1022.738	-0.17561
1022.904	-10.71218
1023.07	29.32996
1023.237	44.08449
1023.403	-14.92664
1023.569	1.93177
1023.735	-0.17561
1023.902	1.93177
1024.068	-4.39031
1024.234	-35.99745
1024.4	44.08449
1024.566	46.19237
1024.732	10.36155
1024.898	39.86879
1025.065	69.38059
1025.231	69.38059
1025.397	71.48875
1025.563	1.93177
1025.729	52.51615
1025.895	60.94819
1026.061	84.13817
1026.227	-6.49763
1026.392	52.51615
1026.558	12.46906
1026.724	12.46906
1026.89	-25.46235
1027.056	-27.56942
1027.222	-25.46235
1027.388	69.38059
1027.553	1.93177
1027.719	20.89932
1027.885	-23.35526
1028.051	-31.78348
1028.216	35.65319
1028.382	33.54542
1028.548	10.36155
1028.713	46.19237
1028.879	-73.91861
1029.045	37.76098
1029.21	35.65319
1029.376	94.67998
1029.541	18.79172
1029.707	-4.39031
1029.873	12.46906
1030.038	-38.10439
1030.204	-31.78348
1030.369	-6.49763
1030.534	-31.78348
1030.7	111.54801
1030.865	54.62413
1031.031	58.84015
1031.196	-6.49763
1031.361	54.62413
1031.527	52.51615
1031.692	-14.92664
1031.857	77.81336
1032.023	-2.28298
1032.188	33.54542
1032.353	18.79172
1032.518	-29.67646
1032.684	-31.78348
1032.849	67.27246
1033.014	23.00695
1033.179	-65.49239
1033.344	39.86879
1033.509	-6.49763
1033.674	27.22227
1033.839	71.48875
1034.004	35.65319
1034.17	86.24649
1034.335	79.92161
1034.5	-25.46235
1034.664	10.36155
1034.829	-6.49763
1034.994	35.65319
1035.159	63.05626
1035.324	52.51615
1035.489	-29.67646
1035.654	39.86879
1035.819	27.22227
1035.984	31.43768
1036.148	94.67998
1036.313	-6.49763
1036.478	35.65319
1036.643	4.03918
1036.807	37.76098
1036.972	1.93177
1037.137	63.05626
1037.301	-69.70555
1037.466	60.94819
1037.631	44.08449
1037.795	-10.71218
1037.96	20.89932
1038.124	141.07043
1038.289	52.51615
1038.454	-44.42508
1038.618	-23.35526
1038.783	-54.95905
1038.947	33.54542
1039.111	-8.60492
1039.276	-25.46235
1039.44	-50.74553
1039.605	27.22227
1039.769	6.14661
1039.933	65.16435
1040.098	-38.10439
1040.262	8.25407
1040.426	-4.39031
1040.591	16.68414
1040.755	56.73213
1040.919	-19.141
1041.083	23.00695
1041.248	69.38059
1041.412	-10.71218
1041.576	60.94819
1041.74	67.27246
1041.904	-4.39031
1042.068	-0.17561
1042.232	1.93177
1042.397	-82.34441
1042.561	-6.49763
1042.725	-17.03383
1042.889	-31.78348
1043.053	18.79172
1043.217	25.11459
1043.381	-14.92664
1043.544	-2.28298
1043.708	31.43768
1043.872	65.16435
1044.036	12.46906
1044.2	-14.92664
1044.364	33.54542
1044.528	-10.71218
1044.691	23.00695
1044.855	-21.24814
1045.019	29.32996
1045.183	41.97663
1045.346	6.14661
1045.51	-14.92664
1045.674	73.59693
1045.837	-35.99745
1046.001	79.92161
1046.165	41.97663
1046.328	52.51615
1046.492	-29.67646
1046.655	10.36155
1046.819	12.46906
1046.983	18.79172
1047.146	-57.06577
1047.31	6.14661
1047.473	41.97663
1047.636	88.35483
1047.8	12.46906
1047.963	44.08449
1048.127	44.08449
1048.29	-10.71218
