Data from absorb_only_2.23.25_USB4F045381__17__0122.txt Node

Date: Sun Feb 23 19:14:41 EST 2025
User: ssocol
Spectrometer: USB4F04538
Trigger mode: 4
Integration Time (sec): 2.600000E-3
Scans to average: 1
Electric dark correction enabled: true
Nonlinearity correction enabled: true
Boxcar width: 0
XAxis mode: Wavelengths
Number of Pixels in Spectrum: 3648
>>>>>Begin Spectral Data<<<<<
345.52	73.9483
345.736	73.9483
345.952	73.9483
346.168	-41.96706
346.384	-31.43231
346.6	-10.36097
346.816	2.283
347.032	42.32793
347.248	-23.00407
347.464	-1.93175
347.68	6.49786
347.896	19.14299
348.112	-14.57544
348.328	23.35822
348.544	-10.36097
348.76	10.7128
348.975	-44.07393
349.191	4.39042
349.407	-44.07393
349.623	23.35822
349.839	-23.00407
350.055	10.7128
350.27	25.46587
350.486	-73.56752
350.702	27.57355
350.918	17.0354
351.133	38.11228
351.349	31.78897
351.565	33.89672
351.781	-79.88693
351.996	57.08346
352.212	17.0354
352.428	14.92785
352.644	-8.2537
352.859	73.9483
353.075	17.0354
353.291	-50.3944
353.506	-48.28761
353.722	8.60532
353.938	-31.43231
354.153	14.92785
354.369	-25.11117
354.584	6.49786
354.8	54.97546
355.016	52.86748
355.231	71.84011
355.447	57.08346
355.662	36.00449
355.878	52.86748
356.093	-1.93175
356.309	27.57355
356.524	-27.21824
356.74	6.49786
356.955	-41.96706
357.171	54.97546
357.386	42.32793
357.602	126.66015
357.817	-1.93175
358.033	31.78897
358.248	48.65159
358.464	-27.21824
358.679	-29.32529
358.895	8.60532
359.11	-8.2537
359.325	23.35822
359.541	-1.93175
359.756	-16.68263
359.972	19.14299
360.187	48.65159
360.402	-52.50118
360.618	25.46587
360.833	-8.2537
361.048	-67.24789
361.264	2.283
361.479	40.22009
361.694	0.17561
361.909	48.65159
362.125	23.35822
362.34	27.57355
362.555	31.78897
362.77	8.60532
362.986	-8.2537
363.201	59.19149
363.416	40.22009
363.631	21.25059
363.847	33.89672
364.062	17.0354
364.277	73.9483
364.492	31.78897
364.707	65.5157
364.922	-23.00407
365.138	-35.64629
365.353	-33.53931
365.568	57.08346
365.783	0.17561
365.998	42.32793
366.213	82.38126
366.428	25.46587
366.643	4.39042
366.858	-48.28761
367.073	63.4076
367.288	27.57355
367.503	-25.11117
367.718	19.14299
367.933	33.89672
368.148	40.22009
368.363	38.11228
368.578	6.49786
368.793	6.49786
369.008	80.27299
369.223	-16.68263
369.438	8.60532
369.653	40.22009
369.868	10.7128
370.083	-10.36097
370.298	33.89672
370.513	59.19149
370.728	-6.14641
370.943	78.16474
371.157	-52.50118
371.372	95.03138
371.587	23.35822
371.802	78.16474
372.017	57.08346
372.232	40.22009
372.446	17.0354
372.661	54.97546
372.876	4.39042
373.091	92.92297
373.306	-63.03467
373.52	52.86748
373.735	65.5157
373.95	17.0354
374.165	14.92785
374.379	-41.96706
374.594	31.78897
374.809	-1.93175
375.023	10.7128
375.238	2.283
375.453	29.68125
375.667	-65.14129
375.882	-27.21824
376.097	40.22009
376.311	-81.99334
376.526	10.7128
376.741	31.78897
376.955	36.00449
377.17	14.92785
377.384	-48.28761
377.599	2.283
377.813	23.35822
378.028	99.24826
378.242	27.57355
378.457	-6.14641
378.672	69.73195
378.886	27.57355
379.101	-35.64629
379.315	2.283
379.53	14.92785
379.744	-1.93175
379.958	-39.86016
380.173	99.24826
380.387	2.283
380.602	25.46587
380.816	42.32793
381.031	-8.2537
381.245	-33.53931
381.459	19.14299
381.674	57.08346
381.888	27.57355
382.103	40.22009
382.317	33.89672
382.531	29.68125
382.746	27.57355
382.96	2.283
383.174	52.86748
383.388	2.283
383.603	0.17561
383.817	8.60532
384.031	57.08346
384.246	-98.84375
384.46	44.4358
384.674	10.7128
384.888	-6.14641
385.103	14.92785
385.317	101.35674
385.531	42.32793
385.745	19.14299
385.959	-44.07393
386.174	36.00449
386.388	-33.53931
386.602	-23.00407
386.816	2.283
387.03	6.49786
387.244	44.4358
387.458	6.49786
387.672	-25.11117
387.887	65.5157
388.101	10.7128
388.315	-27.21824
388.529	-14.57544
388.743	25.46587
388.957	33.89672
389.171	67.62381
389.385	33.89672
389.599	31.78897
389.813	29.68125
390.027	14.92785
390.241	27.57355
390.455	31.78897
390.669	31.78897
390.883	42.32793
391.097	-23.00407
391.311	59.19149
391.525	48.65159
391.738	17.0354
391.952	-18.7898
392.166	65.5157
392.38	105.57375
392.594	-1.93175
392.808	-27.21824
393.022	48.65159
393.236	-6.14641
393.449	25.46587
393.663	0.17561
393.877	-25.11117
394.091	71.84011
394.305	10.7128
394.518	2.283
394.732	8.60532
394.946	31.78897
395.16	52.86748
395.373	-23.00407
395.587	0.17561
395.801	65.5157
396.015	-29.32529
396.228	63.4076
396.442	-10.36097
396.656	44.4358
396.869	76.05651
397.083	116.11668
397.297	23.35822
397.51	50.75953
397.724	-16.68263
397.938	61.29953
398.151	-10.36097
398.365	-18.7898
398.578	33.89672
398.792	10.7128
399.005	80.27299
399.219	40.22009
399.433	40.22009
399.646	40.22009
399.86	86.59788
400.073	23.35822
400.287	14.92785
400.5	-18.7898
400.714	42.32793
400.927	65.5157
401.141	-6.14641
401.354	65.5157
401.567	0.17561
401.781	59.19149
401.994	-16.68263
402.208	21.25059
402.421	40.22009
402.635	-14.57544
402.848	19.14299
403.061	0.17561
403.275	124.55141
403.488	-48.28761
403.701	-94.6313
403.915	38.11228
404.128	42.32793
404.341	33.89672
404.555	14.92785
404.768	57.08346
404.981	50.75953
405.195	52.86748
405.408	10.7128
405.621	10.7128
405.834	6.49786
406.048	25.46587
406.261	48.65159
406.474	4.39042
406.687	65.5157
406.9	-10.36097
407.114	95.03138
407.327	25.46587
407.54	-35.64629
407.753	61.29953
407.966	48.65159
408.179	67.62381
408.392	14.92785
408.605	10.7128
408.819	-6.14641
409.032	48.65159
409.245	25.46587
409.458	-25.11117
409.671	8.60532
409.884	65.5157
410.097	17.0354
410.31	82.38126
410.523	82.38126
410.736	-1.93175
410.949	6.49786
411.162	44.4358
411.375	67.62381
411.588	50.75953
411.801	40.22009
412.014	-1.93175
412.227	67.62381
412.44	-18.7898
412.653	29.68125
412.865	50.75953
413.078	-1.93175
413.291	107.68229
413.504	17.0354
413.717	107.68229
413.93	31.78897
414.143	42.32793
414.356	42.32793
414.568	50.75953
414.781	14.92785
414.994	-31.43231
415.207	19.14299
415.42	69.73195
415.632	67.62381
415.845	33.89672
416.058	0.17561
416.271	42.32793
416.483	76.05651
416.696	82.38126
416.909	6.49786
417.121	50.75953
417.334	6.49786
417.547	23.35822
417.759	40.22009
417.972	6.49786
418.185	99.24826
418.397	63.4076
418.61	2.283
418.823	50.75953
419.035	8.60532
419.248	67.62381
419.46	-10.36097
419.673	84.48956
419.885	21.25059
420.098	69.73195
420.311	40.22009
420.523	92.92297
420.736	143.53082
420.948	84.48956
421.161	27.57355
421.373	59.19149
421.586	2.283
421.798	78.16474
422.01	105.57375
422.223	109.79086
422.435	86.59788
422.648	82.38126
422.86	31.78897
423.073	59.19149
423.285	76.05651
423.497	78.16474
423.71	80.27299
423.922	99.24826
424.134	99.24826
424.347	2.283
424.559	14.92785
424.771	124.55141
424.984	71.84011
425.196	48.65159
425.408	69.73195
425.621	48.65159
425.833	61.29953
426.045	61.29953
426.257	33.89672
426.47	111.89944
426.682	25.46587
426.894	-10.36097
427.106	25.46587
427.318	46.54368
427.531	132.98649
427.743	103.46523
427.955	57.08346
428.167	82.38126
428.379	128.76891
428.591	73.9483
428.804	63.4076
429.016	46.54368
429.228	128.76891
429.44	67.62381
429.652	78.16474
429.864	59.19149
430.076	116.11668
430.288	187.82274
430.5	48.65159
430.712	76.05651
430.924	76.05651
431.136	42.32793
431.348	61.29953
431.56	143.53082
431.772	137.20416
431.984	65.5157
432.196	90.81458
432.408	61.29953
432.62	90.81458
432.832	126.66015
433.044	67.62381
433.256	2.283
433.468	95.03138
433.679	103.46523
433.891	21.25059
434.103	177.27622
434.315	111.89944
434.527	65.5157
434.739	116.11668
434.95	105.57375
435.162	92.92297
435.374	101.35674
435.586	141.42191
435.798	151.96666
436.009	166.73021
436.221	162.51195
436.433	137.20416
436.645	126.66015
436.856	149.85767
437.068	114.00805
437.28	109.79086
437.491	59.19149
437.703	126.66015
437.915	173.05775
438.126	154.07568
438.338	76.05651
438.55	137.20416
438.761	192.04149
438.973	145.63975
439.184	145.63975
439.396	139.31302
439.608	223.68471
439.819	141.42191
440.031	166.73021
440.242	141.42191
440.454	196.26033
440.665	166.73021
440.877	158.29377
441.088	132.98649
441.3	234.23344
441.511	211.02688
441.723	192.04149
441.934	198.36978
442.146	160.40285
442.357	160.40285
442.569	158.29377
442.78	158.29377
442.991	198.36978
443.203	208.91732
443.414	173.05775
443.626	145.63975
443.837	99.24826
444.048	200.47924
444.26	194.1509
444.471	234.23344
444.682	181.49477
444.894	192.04149
445.105	244.78265
445.316	242.67277
445.528	217.35571
445.739	204.69824
445.95	206.80777
446.161	149.85767
446.373	183.60407
446.584	230.01389
446.795	242.67277
447.006	297.53586
447.217	177.27622
447.429	213.13647
447.64	284.87402
447.851	238.45306
448.062	232.12365
448.273	286.98428
448.484	303.86702
448.695	314.41933
448.907	183.60407
449.118	270.10273
449.329	225.79441
449.54	310.19835
449.751	215.24608
449.962	225.79441
450.173	280.65356
450.384	295.42551
450.595	329.19331
450.806	301.75662
451.017	303.86702
451.228	265.88252
451.439	314.41933
451.65	373.52039
451.861	230.01389
452.072	337.63597
452.283	320.75093
452.494	282.76378
452.705	284.87402
452.915	386.18665
453.126	335.52528
453.337	392.52001
453.548	354.52214
453.759	356.63299
453.97	362.96564
454.181	371.40941
454.391	259.55236
454.602	403.07593
454.813	455.86158
455.024	441.0806
455.235	428.41181
455.445	360.85473
455.656	343.96815
455.867	398.85351
456.078	407.29842
456.288	500.20897
456.499	510.76883
456.71	411.52097
456.921	424.189
457.131	504.43287
457.342	500.20897
457.553	495.98513
457.763	428.41181
457.974	574.1354
458.184	377.74241
458.395	548.78728
458.606	546.67503
458.816	650.19098
459.027	664.98142
459.237	586.81018
459.448	631.17557
459.659	724.14881
459.869	664.98142
460.08	660.75553
460.29	683.99855
460.501	743.16873
460.711	732.602
460.922	677.6594
461.132	694.56402
461.343	741.05536
461.553	766.41643
461.764	893.24232
461.974	724.14881
462.184	681.88549
462.395	817.14286
462.605	781.21107
462.816	774.87045
463.026	827.71155
463.236	965.1236
463.447	842.5081
463.657	912.26887
463.867	1062.38721
464.078	1079.30388
464.288	979.92372
464.498	1041.24186
464.709	1134.28527
464.919	1034.89837
465.129	1123.71168
465.339	1311.93497
465.55	1201.95867
465.76	1096.22088
465.97	1214.64785
466.18	1166.00668
466.391	1343.66002
466.601	1172.35107
466.811	1377.50044
467.021	1366.92527
467.231	1495.94313
467.441	1345.77504
467.651	1519.2086
467.862	1443.06686
468.072	1648.22336
468.282	1639.76359
468.492	1711.67025
468.702	1753.9666
468.912	1804.72024
469.122	1764.54046
469.332	1747.62224
469.542	1910.44864
469.752	1908.3342
469.962	1891.41846
470.172	2077.47038
470.382	2056.33067
470.592	2035.19026
470.802	2090.15386
471.012	2157.79445
471.222	2432.49201
471.432	2375.4529
471.642	2318.40636
471.852	2485.29906
472.062	2407.14224
472.272	2683.78883
472.482	2487.4112
472.691	2778.77132
472.901	2519.09193
473.111	2761.8875
473.321	2871.61654
473.531	2955.99737
473.741	2812.53633
473.95	2820.97703
474.16	2761.8875
474.37	3124.68676
474.58	3198.45659
474.79	3390.16234
474.999	3219.53
475.209	3297.48709
475.419	3322.76548
475.628	3743.69153
475.838	3297.48709
476.048	3554.3659
476.258	3762.61557
476.467	3895.03926
476.677	3871.92334
476.886	4155.44826
477.096	3989.57901
477.306	4060.98163
477.515	4205.81308
477.725	4050.48274
477.935	4264.55659
478.144	4283.43487
478.354	4210.00959
478.563	4576.87052
478.773	4507.7423
478.982	4549.64107
479.192	4712.9611
479.401	4694.12345
479.611	4794.56977
479.82	4765.27832
480.03	5110.21392
480.239	5110.21392
480.449	4817.58137
480.658	5343.99288
480.868	5387.79377
481.077	5431.58431
481.287	5475.36449
481.496	5835.63429
481.705	5562.8937
481.915	5696.1916
482.124	5548.30838
482.333	5852.27708
482.543	5696.1916
482.752	5893.87746
482.961	5977.0499
483.171	6188.96909
483.38	5950.023
483.589	6124.58816
483.799	6319.73832
484.008	6527.11829
484.217	6330.11285
484.426	6481.51465
484.636	6622.43516
484.845	6593.43086
485.054	6715.63272
485.263	6790.15733
485.472	6529.19092
485.682	7048.69452
485.891	6848.10044
486.1	7034.22575
486.309	7133.41809
486.518	6972.20431
486.727	7129.2861
486.936	7253.20707
487.146	7494.62548
487.355	7500.81179
487.564	7294.49638
487.773	7560.60277
487.982	7653.34627
488.191	7795.46972
488.4	7628.61888
488.609	7781.05596
488.818	7760.46308
489.027	8159.59686
489.236	7999.21283
489.445	8239.74319
489.654	8079.42018
489.863	8422.52931
490.072	8056.80072
490.281	8541.56608
490.49	8215.08599
490.698	8441.00475
490.907	8683.09607
491.116	8642.08204
491.325	8545.66966
491.534	8888.05625
491.743	8752.80298
491.952	8931.07495
492.16	8935.17156
492.369	9221.76073
492.578	9168.56254
492.787	9033.46902
492.996	9178.79385
493.204	9356.75133
493.413	9618.3488
493.622	9346.5273
493.831	9305.62705
494.039	9510.06291
494.248	9528.45421
494.457	9626.51953
494.665	9708.21316
494.874	9789.88228
495.083	9706.17112
495.291	9604.04942
495.5	9793.9651
495.709	10153.02362
495.917	9787.84085
496.126	10008.22992
496.335	10220.29815
496.543	10521.83472
496.752	10291.63367
496.96	10395.55036
497.169	10201.95204
497.377	10307.93662
497.586	10566.63351
497.794	10621.60556
498.003	10521.83472
498.211	10656.21298
498.42	10995.99714
498.628	10641.9633
498.837	10589.03062
499.045	10924.81161
499.254	10802.74676
499.462	10798.67721
499.671	11040.73534
499.879	11380.17077
500.087	10998.03081
500.296	11022.434
500.504	11081.40182
500.713	11268.41258
500.921	11154.59059
501.129	11237.92775
501.338	11065.13575
501.546	11254.18661
501.754	11524.39637
501.962	11634.05715
502.171	11514.24122
502.379	11782.26039
502.587	11577.19938
502.795	11597.50655
503.004	11248.08962
503.212	11684.81701
503.42	11806.61811
503.628	11717.30038
503.837	11678.72612
504.045	11828.94493
504.253	12198.20992
504.461	12123.16046
504.669	12023.75464
504.877	12240.80106
505.085	12031.8701
505.294	12267.16541
505.502	12181.98387
505.71	12295.55644
505.918	11881.71337
506.126	12548.98844
506.334	12315.8349
506.542	12711.13249
506.75	12429.38152
506.958	12551.01549
507.166	12717.21214
507.374	12765.84752
507.582	12670.6001
507.79	12267.16541
507.998	12850.9516
508.206	12800.2956
508.414	12885.39574
508.622	12968.46059
508.83	12814.47963
509.037	13296.58758
509.245	12857.03009
509.453	13243.9333
509.661	13063.67071
509.869	13272.28597
510.077	13077.85001
510.285	13199.37738
510.492	12915.78634
510.7	13515.27581
510.908	13363.41391
511.116	13231.7819
511.324	13108.23343
511.531	13389.73821
511.739	13207.47862
511.947	13412.01209
512.155	13582.08839
512.362	13614.481
512.57	13215.57978
512.778	13484.90515
512.985	13604.3584
513.193	13537.54711
513.401	13592.21118
513.608	13559.81797
513.816	13701.53184
514.024	13742.01858
514.231	13656.99496
514.439	13796.67371
514.646	14045.63241
514.854	13877.64036
515.061	13608.40745
515.269	13988.96234
515.477	13964.67458
515.684	14021.34547
515.892	14100.27679
516.099	14199.44214
516.307	14341.09872
516.514	14359.31107
516.722	14458.46499
516.929	14092.18144
517.136	14296.57904
517.344	14422.04153
517.551	14513.09933
517.759	14523.21669
517.966	14719.48782
518.173	14521.19322
518.381	14685.09049
518.588	14895.51771
518.796	14608.20132
519.003	14689.13725
519.21	14887.42448
519.418	14855.05151
519.625	15014.8919
519.832	15081.66004
520.039	15213.17268
520.247	15045.24109
520.454	15138.31166
520.661	15368.96514
520.868	15253.63813
521.076	15397.29123
521.283	15091.77641
521.49	15350.75555
521.697	15196.98651
521.904	15217.21922
522.112	15370.98843
522.319	15544.99313
522.526	15360.87198
522.733	15613.78695
522.94	15526.78314
523.147	15534.87646
523.354	15474.17678
523.561	15931.46645
523.768	15939.56057
523.975	15814.10406
524.183	15793.86956
524.39	16026.57365
524.597	16109.54209
524.804	15905.16073
525.011	15961.81949
525.218	15957.7724
525.425	16247.15419
525.632	16109.54209
525.838	16340.24929
526.045	16042.76241
526.252	16188.46573
526.459	16591.22195
526.666	16141.92072
526.873	16453.58788
527.08	16162.15757
527.287	16647.89773
527.494	16494.06747
527.701	16753.15755
527.907	16494.06747
528.114	16975.84441
528.321	16690.40574
528.528	17060.87863
528.735	16747.08469
528.941	16876.64374
529.148	16941.42714
529.355	17028.48408
529.562	16722.79349
529.768	17149.96731
529.975	16607.41485
530.182	17052.77993
530.388	16939.40262
530.595	17255.26104
530.802	17012.28707
531.008	17577.26738
531.215	17459.79684
531.422	17575.24193
531.628	17668.41579
531.835	17249.18618
532.042	17506.37871
532.248	17804.13811
532.455	17210.71274
532.661	17557.01307
532.868	17463.84738
533.074	17708.92834
533.281	17692.72316
533.487	17800.08647
533.694	17607.64945
533.9	17704.87702
534.107	17935.82365
534.313	18069.55029
534.52	18087.78695
534.726	18221.53143
534.933	17911.51137
535.139	18018.89444
535.345	18073.60285
535.552	18397.85559
535.758	18685.71096
535.965	18722.20527
536.171	18466.77164
536.377	18935.11433
536.584	18478.93375
536.79	18442.44782
536.996	18760.72842
537.203	18385.69439
537.409	18521.50224
537.615	18748.56306
537.821	18543.80069
538.028	19026.3746
538.234	18426.23225
538.44	18722.20527
538.646	18523.52935
538.853	18856.02869
539.059	18787.08719
539.265	18906.72391
539.471	18910.77964
539.677	18835.7513
539.883	18839.80675
540.09	18959.44961
540.296	18995.9536
540.502	19316.43414
540.708	19079.10649
540.914	19598.46097
541.12	19578.16858
541.326	19215.0052
541.532	19586.28549
541.738	19789.22981
541.944	19543.67249
542.15	19868.38946
542.356	19969.88554
542.562	19904.92684
542.768	19561.93498
542.974	19708.04706
543.18	19588.31472
543.386	19748.6376
543.592	20122.14937
543.798	20168.84836
544.004	20101.84616
544.21	20183.06153
544.415	20237.88571
544.621	20239.91629
544.827	20223.67174
545.033	20473.46146
545.239	20126.21007
545.445	20731.44086
545.651	20300.83577
545.856	20331.29692
546.062	20711.12508
546.268	20337.38927
546.474	20475.49253
546.679	19975.97564
546.885	19984.09583
547.091	20363.78986
547.297	20016.57727
547.502	20440.9649
547.708	20380.03673
547.914	20471.43039
548.119	20725.34608
548.325	20587.20786
548.531	20315.05085
548.736	20788.32724
548.942	20369.88241
549.147	20116.05836
549.353	20662.36891
549.559	20786.29552
549.764	20918.36543
549.97	20682.68369
550.175	20772.07365
550.381	21115.4867
550.586	20778.16872
550.792	20969.16619
550.997	20865.53538
551.203	21377.69699
551.408	21292.31882
551.614	21335.00702
551.819	21452.91694
552.025	21398.02616
552.23	21810.79409
552.435	21436.65271
552.641	21603.37319
552.846	21422.42171
553.052	21666.40857
553.257	21564.74046
553.462	21591.17322
553.668	21715.21275
553.873	21812.82783
554.078	21999.9482
554.283	21951.13107
554.489	21859.60488
554.694	22006.0505
554.899	21690.81038
555.105	22272.55036
555.31	22211.51421
555.515	22073.17799
555.72	22343.76339
555.925	22146.41266
556.131	22325.45104
556.336	22030.46002
556.541	22437.36445
556.746	22341.72867
556.951	22598.13188
557.156	22394.63258
557.361	22471.95809
557.567	22353.93704
557.772	22349.86757
557.977	22282.72337
558.182	22608.30779
558.387	22541.14847
558.592	22547.2537
558.797	22488.23781
559.002	22437.36445
559.207	22638.83602
559.412	22492.30777
559.617	22563.53448
559.822	22919.73251
560.027	22970.62653
560.232	23133.50143
560.437	22830.16419
560.642	22986.91306
560.847	23192.54878
561.051	23351.3793
561.256	22740.6025
561.461	23347.30648
561.666	23054.09726
561.871	23107.03281
562.076	22695.82417
562.281	23072.42085
562.485	23056.1332
562.69	23284.17939
562.895	22905.48257
563.1	22881.05447
563.305	23029.66622
563.509	23078.52878
563.714	23198.65729
563.919	23453.2039
564.123	23245.49012
564.328	23434.87489
564.533	23054.09726
564.737	23039.84577
564.942	23349.34289
565.147	23538.74258
565.351	23817.79883
565.556	23449.13076
565.761	23426.72875
565.965	23711.87307
566.17	23587.62427
566.374	23681.31905
566.579	23803.53913
566.784	23557.07301
566.988	23827.98442
567.193	23689.46672
567.397	23520.41241
567.602	23848.35582
567.806	23524.48576
568.011	23665.02384
568.215	24125.43517
568.42	24050.04813
568.624	23862.61597
568.828	23577.44044
569.033	23770.94607
569.237	24274.18278
569.442	23844.28152
569.646	23803.53913
569.85	24219.16486
570.055	24441.28611
570.259	24172.29929
570.463	23960.40366
570.668	24145.8107
570.872	23787.24251
571.076	23866.69032
571.281	24455.55184
571.485	24357.73224
571.689	24573.75844
571.893	24388.30022
572.098	24598.21604
572.302	24361.80793
572.506	23990.96366
572.71	24168.2241
572.914	24728.66261
573.119	24742.93081
573.323	24461.66576
573.527	24579.87281
573.731	24585.98719
573.935	24891.73478
574.139	24555.41548
574.343	24429.05844
574.547	24594.13975
574.751	24608.40681
574.955	24594.13975
575.159	24920.27396
575.364	24461.66576
575.568	24999.77838
575.772	25270.9346
575.976	25005.89425
576.18	24655.28517
576.383	24971.23793
576.587	25012.01014
576.791	24753.12245
576.995	24901.92729
577.199	24771.46757
577.403	24950.85217
577.607	25048.70591
577.811	25250.54557
578.015	25093.55729
578.219	24987.5467
578.422	25152.68121
578.626	25434.05454
578.83	25111.90589
579.034	25623.69803
579.238	25370.84397
579.442	25631.85513
579.645	25328.02505
579.849	25232.19562
580.053	25564.56002
580.257	25656.32661
580.46	25601.26617
580.664	25937.76844
580.868	25658.36591
581.071	25576.79533
581.275	25829.67422
581.479	25841.91104
581.682	25754.21533
581.886	25684.87702
582.09	25752.17593
582.293	26353.87577
582.497	26196.80723
582.7	26270.24064
582.904	26313.0778
583.107	26253.92192
583.311	26311.03792
583.515	25950.00585
583.718	25782.76704
583.922	26443.63361
584.125	26237.6033
584.329	25792.96417
584.532	26058.10576
584.735	26357.9556
584.939	25962.24332
585.142	26427.31377
585.346	26292.67906
585.549	26733.32744
585.753	26404.87416
585.956	26586.43653
586.159	26500.75385
586.363	26580.31625
586.566	26592.55683
586.769	26825.1382
586.973	26559.91541
587.176	26506.87395
587.379	26512.99407
587.582	26382.43474
587.786	26300.83853
587.989	26508.91399
588.192	26449.75357
588.395	27100.58789
588.599	26982.2434
588.802	27210.77481
589.005	26788.41354
589.208	27563.80662
589.411	27098.54743
589.615	26651.72041
589.818	27155.68086
590.021	27072.02155
590.224	27520.95104
590.427	27408.71281
590.63	27418.91613
590.833	27284.23491
591.036	27312.80318
591.239	27525.0325
591.442	27510.7474
591.645	27755.64297
591.848	27590.33654
592.051	27863.81064
592.254	27188.32901
592.457	27653.60103
592.66	27072.02155
592.863	27820.95135
593.066	27194.45057
593.269	27449.52627
593.472	28033.2118
593.675	28506.75923
593.878	28074.03253
594.081	28059.74522
594.284	27588.29577
594.486	27922.9981
594.689	28406.73789
594.892	27547.48062
595.095	27704.62163
595.298	27633.19301
595.5	27712.78499
595.703	28408.77912
595.906	28047.49901
596.109	28004.63756
596.311	28065.86835
596.514	28545.5437
596.717	28084.23778
596.92	28482.26397
597.122	28055.66315
597.325	28531.25464
597.528	28167.92189
597.73	28661.8994
597.933	28153.63423
598.136	28506.75923
598.338	28218.9497
598.541	28300.59561
598.743	28837.46005
598.946	28565.95674
599.148	28421.0265
599.351	28627.19647
599.554	28847.6673
599.756	28778.25851
599.959	28984.44698
600.161	28588.41119
600.363	28400.61422
600.566	28349.584
600.768	28486.34651
600.971	28866.04042
601.173	28627.19647
601.376	28494.51158
601.578	28700.68539
601.78	28686.39577
601.983	29102.85703
602.185	29125.3145
602.388	28570.03935
602.59	28892.57952
602.792	29078.35811
602.995	28796.63131
603.197	28425.10897
603.399	28670.06484
603.601	29027.31918
603.804	28235.27874
604.006	28337.33684
604.208	28982.40546
604.41	28790.50703
604.613	28733.34757
604.815	28933.40924
605.017	29282.52033
605.219	28141.3877
605.421	28657.81669
605.623	28382.24326
605.826	28688.43714
606.028	28651.69262
606.23	29045.69312
606.432	29245.77037
606.634	29315.18725
606.836	28751.72017
607.038	29584.69964
607.24	29447.89939
607.442	29013.0284
607.644	29280.47866
607.846	29539.77963
608.048	29380.5219
608.25	29437.6906
608.452	29251.89534
608.654	28964.03181
608.856	28857.87458
609.058	29288.64536
609.26	29343.77103
609.462	29235.5621
609.664	29468.31703
609.866	29482.60945
610.067	29184.52117
610.269	29262.10364
610.471	29035.48537
610.673	29349.89615
610.875	29145.7305
611.077	29525.487
611.278	29080.39969
611.48	29247.81202
611.682	29239.6454
611.884	29978.79319
612.085	29327.43742
612.287	29995.12957
612.489	29423.39835
612.69	29237.60375
612.892	29625.53646
613.094	29776.63647
613.295	29284.56201
613.497	29529.57061
613.699	29566.32321
613.9	29435.64885
614.102	29466.27526
614.304	29251.89534
614.505	29245.77037
614.707	29952.24673
614.908	28859.91604
615.11	29164.10498
615.311	29133.48089
615.513	29086.5244
615.714	29462.19173
615.916	29376.43846
616.117	28882.37215
616.319	29482.60945
616.52	29500.98549
616.722	29658.20623
616.923	29617.36907
617.124	29617.36907
617.326	28949.74125
617.527	29668.41559
617.729	29509.15264
617.93	29456.06643
618.131	29519.36161
618.333	29464.23349
618.534	29445.85763
618.735	29705.16951
618.937	29603.07616
619.138	29697.00194
619.339	29349.89615
619.54	29503.02727
619.742	29343.77103
619.943	29337.64592
620.144	29237.60375
620.345	29701.08573
620.546	29419.31486
620.748	29699.04383
620.949	29562.23957
621.15	29686.79251
621.351	29488.73478
621.552	29721.5047
621.753	29746.00761
621.954	29944.07863
622.155	29619.41091
622.356	29682.70874
622.558	29605.118
622.759	29711.2952
622.96	29400.9392
623.161	29574.4905
623.362	29564.28139
623.563	29886.90242
623.764	29362.14642
623.965	29464.23349
624.166	29654.1225
624.366	29827.68512
624.567	29823.6012
624.768	30005.33984
624.969	29135.52249
625.17	29460.14996
625.371	29329.47912
625.572	29525.487
625.773	29292.72872
625.973	29619.41091
626.174	29756.2172
626.375	30031.88668
626.576	29707.21141
626.777	30229.9731
626.977	29848.10477
627.178	30187.08748
627.379	29831.76904
627.58	29100.81545
627.78	29029.36073
627.981	29498.9437
628.182	29813.39143
628.382	30005.33984
628.583	30189.12964
628.784	29721.5047
628.984	29950.20471
629.185	30076.81254
629.386	29253.937
629.586	29692.91817
629.787	29078.35811
629.987	29768.46875
630.188	29764.3849
630.388	29854.23069
630.589	29425.4401
630.79	30131.94958
630.99	30428.07068
631.191	30436.2399
631.391	30356.59086
631.591	30115.61259
631.792	29790.93002
631.992	30470.95931
632.193	30618.01025
632.393	29786.84615
632.594	30264.69041
632.794	30346.37957
632.994	30493.425
633.195	30209.55131
633.395	30078.85463
633.595	29978.79319
633.796	30084.98093
633.996	30368.84443
634.196	29817.47534
634.397	30709.92049
634.597	30221.80437
634.797	30362.71764
634.997	29737.83996
635.198	30138.07597
635.398	29952.24673
635.598	30848.8122
635.798	29993.08751
635.998	30205.46696
636.199	30119.69683
636.399	30652.73159
636.599	30160.53949
636.799	30264.69041
636.999	29960.41485
637.199	30581.24689
637.399	30005.33984
637.599	30148.28665
637.799	29856.27267
637.999	30797.74835
638.199	30066.60207
638.399	30250.395
638.599	29984.91932
638.799	30348.42183
638.999	30493.425
639.199	30325.9571
639.399	30599.62852
639.599	30495.46734
639.799	29737.83996
639.999	30640.47695
640.199	30669.07117
640.399	30215.67783
640.599	29674.54122
640.799	30940.72933
640.998	30307.57698
641.198	30131.94958
641.398	30264.69041
641.598	30595.54371
641.798	30466.87466
641.997	30409.69001
642.197	30407.64772
642.397	31075.54632
642.597	30595.54371
642.796	30924.3883
642.996	30534.2721
643.196	31020.39315
643.395	30242.22623
643.595	30291.23918
643.795	30327.99934
643.994	30626.17994
644.194	30432.15529
644.394	30669.07117
644.593	30952.98516
644.793	31206.28405
644.992	30844.72706
645.192	30444.40914
645.392	30452.5784
645.591	30963.19839
645.791	30477.0863
645.99	30703.79306
646.19	30236.09966
646.389	30313.70368
646.589	30787.53568
646.788	30370.8867
646.987	30579.2045
647.187	30754.85536
647.386	30489.34032
647.586	30822.25889
647.785	30899.87693
647.984	31032.64932
648.184	30542.44158
648.383	30650.68914
648.582	30577.1621
648.782	31198.11277
648.981	30936.64406
649.18	30848.8122
649.38	31044.90554
649.579	31371.758
649.778	30950.94252
649.977	31518.85478
650.177	31549.50102
650.376	31318.64179
650.575	31038.77742
650.774	31363.58621
650.973	31412.61737
651.173	30854.93993
651.372	30983.62496
651.571	31400.35949
651.77	31140.91442
651.969	31167.47065
652.168	30987.7103
652.367	31445.30533
652.566	31048.99096
652.765	30993.8383
652.964	30952.98516
653.163	30714.00545
653.362	31087.80272
653.561	31149.08554
653.76	31661.87386
653.959	31134.7861
654.158	31390.14464
654.357	30899.87693
654.556	30293.2814
654.755	30887.62131
654.954	30854.93993
655.153	30656.81647
655.352	31155.2139
655.551	31676.17624
655.749	31328.85636
655.948	31398.31652
656.147	30895.79172
656.346	30752.81285
656.545	31104.14468
656.743	30861.06766
656.942	31255.31231
657.141	31230.79807
657.34	30938.6867
657.538	30818.17379
657.737	30999.96632
657.936	31649.61475
658.135	30660.90137
658.333	30797.74835
658.532	30965.24104
658.731	31210.36971
658.929	31093.93094
659.128	31087.80272
659.326	31245.09801
659.525	31480.03674
659.724	31598.5358
659.922	31447.34834
660.121	31008.13704
660.319	31527.02707
660.518	30971.36901
660.716	31142.9572
660.915	30846.76963
661.113	31061.24725
661.312	31024.47854
661.51	30758.94038
661.709	31104.14468
661.907	31238.96946
662.105	31065.33269
662.304	31243.05516
662.502	31541.32865
662.701	31668.00344
662.899	31475.95067
663.097	31668.00344
663.296	31306.38435
663.494	31465.73551
663.692	31312.51306
663.891	31412.61737
664.089	30932.5588
664.287	31081.67451
664.485	31386.05871
664.684	31757.90576
664.882	30991.79563
665.08	30773.238
665.278	31028.56393
665.476	30924.3883
665.675	30873.32316
665.873	31134.7861
666.071	31326.81344
666.269	31359.50032
666.467	31298.21276
666.665	31257.35517
666.863	30922.34568
667.061	31500.46721
667.259	31596.49267
667.457	31923.41698
667.655	31273.69813
667.853	30967.2837
668.051	31345.19976
668.249	31055.1191
668.447	31308.42725
668.645	31273.69813
668.843	31363.58621
669.041	30914.1752
669.239	30885.57872
669.437	31046.94825
669.635	31296.16986
669.833	31314.55597
670.031	30691.53823
670.229	31102.10193
670.426	30871.28057
670.624	31285.95541
670.822	30519.97556
671.02	31032.64932
671.218	31020.39315
671.415	30795.70581
671.613	30370.8867
671.811	30325.9571
672.009	30268.77482
672.206	30628.22237
672.404	30560.82299
672.602	30597.58611
672.799	30950.94252
672.997	30771.19548
673.195	30736.47284
673.392	30936.64406
673.59	30924.3883
673.788	30679.28345
673.985	30464.83233
674.183	30593.5013
674.38	30801.83342
674.578	30671.11362
674.775	31230.79807
674.973	31100.05918
675.17	31061.24725
675.368	31006.09436
675.565	30705.83554
675.763	30446.45146
675.96	30362.71764
676.158	30164.62379
676.355	29609.20168
676.553	30091.10725
676.75	29650.03877
676.947	30501.59438
677.145	30129.90745
677.342	30460.74768
677.539	30133.99171
677.737	30836.5568
677.934	30468.91698
678.131	30752.81285
678.329	30495.46734
678.526	30368.84443
678.723	30544.48395
678.92	30579.2045
679.118	30054.34954
679.315	30107.44412
679.512	30522.01792
679.709	30017.5922
679.906	30064.55997
680.104	30332.08383
680.301	30197.29829
680.498	30101.31779
680.695	30062.51788
680.892	30336.16832
681.089	29609.20168
681.286	30082.93883
681.483	29731.71423
681.68	29901.19639
681.877	29868.52454
682.075	30127.86533
682.272	29686.79251
682.469	30446.45146
682.665	30221.80437
682.862	30327.99934
683.059	29997.17162
683.256	30350.46408
683.453	29852.18872
683.65	29801.13974
683.847	29809.30753
684.044	30031.88668
684.241	29729.67232
684.438	30342.29507
684.635	29633.70388
684.831	30254.4794
685.028	30360.67538
685.225	29825.64316
685.422	29609.20168
685.619	29586.74147
685.815	29666.37372
686.012	29221.27057
686.209	28943.61674
686.405	29539.77963
686.602	29484.65122
686.799	29441.77411
686.996	29795.01391
687.192	29623.49461
687.389	29717.4209
687.586	29276.39531
687.782	29617.36907
687.979	29727.63041
688.175	29370.31329
688.372	29394.814
688.568	29162.06337
688.765	29133.48089
688.962	29464.23349
689.158	29862.3986
689.355	29274.35364
689.551	29351.93786
689.748	28949.74125
689.944	29055.90091
690.14	28737.43036
690.337	29262.10364
690.533	29394.814
690.73	28700.68539
690.926	29472.40057
691.123	29027.31918
691.319	29313.14556
691.515	29390.73054
691.712	29010.98686
691.908	28423.06773
692.104	28670.06484
692.301	29137.56409
692.497	28184.25071
692.693	28631.27915
692.889	28606.78312
693.086	28796.63131
693.282	28931.36775
693.478	28798.67273
693.674	28835.41861
693.87	28261.81359
694.067	28565.95674
694.263	28441.43888
694.459	28098.52518
694.655	28572.08067
694.851	28643.52722
695.047	28521.0482
695.243	28472.05766
695.439	28296.51328
695.635	28210.7852
695.831	28670.06484
696.027	28780.29992
696.224	28486.34651
696.42	28474.09892
696.615	28353.66639
696.811	28416.94403
697.007	27859.72878
697.203	27580.1327
697.399	28220.99083
697.595	28008.71958
697.791	28014.84262
697.987	27853.606
698.183	28349.584
698.379	27653.60103
698.575	28194.45626
698.77	28357.74879
698.966	28727.22339
699.162	28302.63678
699.358	28341.41922
699.554	28123.01799
699.749	27849.52415
699.945	27755.64297
700.141	27827.07408
700.337	27857.68785
700.532	28278.14281
700.728	28049.54004
700.924	28090.36094
701.119	28208.74408
701.315	27490.34024
701.511	27357.6967
701.706	27963.8176
701.902	27769.92907
702.097	27710.74415
702.293	27863.81064
702.489	27347.49357
702.684	27508.70668
702.88	27204.65321
703.075	27549.52137
703.271	27743.39778
703.466	27606.66275
703.662	27553.60286
703.857	27400.55018
704.053	27347.49357
704.248	27371.98113
704.443	27518.91031
704.639	27600.54042
704.834	27416.87546
705.03	27392.38757
705.225	27094.46651
705.42	27078.14289
705.616	27300.5596
705.811	26821.05766
706.006	26837.37985
706.202	26967.96076
706.397	26935.31499
706.592	27110.79022
706.787	27545.43988
706.983	26974.08189
707.178	26947.55711
707.373	27088.34514
707.568	27371.98113
707.763	27341.37171
707.959	27153.64036
708.154	27269.95087
708.349	27123.03305
708.544	26939.39569
708.739	26939.39569
708.934	26843.5007
709.129	27149.55937
709.324	26898.58893
709.519	26690.48345
709.714	26549.71505
709.909	26986.32417
710.104	26878.18576
710.299	26621.1184
710.494	26396.71435
710.689	27008.76849
710.884	26725.16663
711.079	27108.74975
711.274	26825.1382
711.469	27522.99177
711.664	27257.70745
711.859	27398.50952
712.054	27490.34024
712.249	27706.66247
712.443	26925.11326
712.638	26963.88002
712.833	26694.5638
713.028	26929.19395
713.223	26539.51472
713.417	26333.4767
713.612	26439.55364
713.807	26596.63704
714.002	26763.93069
714.196	26884.30669
714.391	26476.27359
714.586	27072.02155
714.78	27021.01091
714.975	26935.31499
715.17	26357.9556
715.364	26641.5197
715.559	26749.64913
715.754	26372.23507
715.948	26186.60832
716.143	26231.48385
716.337	25839.87157
716.532	26207.00619
716.726	26088.70098
716.921	26202.9266
717.115	26049.9471
717.31	26427.31377
717.504	26351.83586
717.699	26790.45378
717.893	26466.07356
718.088	26007.11461
718.282	25952.04542
718.476	25658.36591
718.671	25423.85915
718.865	25896.97756
719.059	25752.17593
719.254	26013.23349
719.448	25301.51856
719.642	25874.54289
719.837	25240.35113
720.031	25656.32661
720.225	25605.34468
720.419	25813.35857
720.614	25750.13654
720.808	25686.91635
721.002	25589.03072
721.196	25986.71846
721.39	25517.65866
721.585	25941.84757
721.779	25517.65866
721.973	25848.02948
722.167	25093.55729
722.361	25688.95569
722.555	25576.79533
722.749	25470.75836
722.943	25699.15237
723.137	24969.19934
723.331	24999.77838
723.525	25283.16813
723.719	25197.53508
723.913	25385.11715
724.107	25032.39659
724.301	25442.21089
724.495	25105.78967
724.689	24828.5425
724.883	24573.75844
725.077	24522.80627
725.271	24683.82046
725.465	24630.82673
725.659	24594.13975
725.853	25152.68121
726.046	24901.92729
726.24	25287.24599
726.434	24826.50408
726.628	25022.20334
726.822	24418.86879
727.015	24981.4309
727.209	24537.07272
727.403	24730.70091
727.596	24502.42585
727.79	24867.27298
727.984	24526.88239
728.177	24728.66261
728.371	24959.00645
728.565	24427.0205
728.758	24734.77753
728.952	24681.78221
729.146	24696.05002
729.339	24810.19678
729.533	24211.01422
729.726	24416.83086
729.92	24412.75503
730.113	24612.48314
730.307	25058.89931
730.5	24971.23793
730.694	25028.31928
730.887	24626.75036
731.081	24818.35041
731.274	24571.72032
731.468	24638.9795
731.661	24461.66576
731.854	24206.93892
732.048	24502.42585
732.241	24484.08368
732.435	24614.52131
732.628	24624.71218
732.821	24687.89697
733.014	24349.58087
733.208	24392.37599
733.401	24467.77971
733.594	24477.96967
733.788	24791.85126
733.981	25032.39659
734.174	25020.16469
734.367	24785.73612
734.56	24781.65938
734.754	24973.27652
734.947	24583.94906
735.14	24168.2241
735.333	24310.86248
735.526	24274.18278
735.719	23952.25443
735.912	24508.53995
736.105	24215.08954
736.298	24482.04568
736.491	24749.04579
736.684	24630.82673
736.877	24714.39452
737.07	24482.04568
737.263	24178.41211
737.456	24237.50395
737.649	24486.12169
737.842	24535.03465
738.035	24473.89368
738.228	24190.63782
738.421	24380.1487
738.614	24449.43794
738.807	24667.51452
739	24502.42585
739.192	24035.78614
739.385	24206.93892
739.578	24115.24751
739.771	24290.48476
739.964	23813.72462
740.156	23775.02016
740.349	23463.38679
740.542	24219.16486
740.735	23834.09581
740.927	23738.35376
741.12	23699.65138
741.313	23701.68832
741.505	23565.21994
741.698	23616.13939
741.891	23123.32113
742.083	23312.68802
742.276	23098.88874
742.468	23074.45683
742.661	23153.86227
742.854	23351.3793
743.046	23430.80181
743.239	23469.49656
743.431	23705.76221
743.624	23115.17694
743.816	23131.46536
744.009	23231.23647
744.201	23159.97059
744.393	23518.37574
744.586	22933.98263
744.778	23056.1332
744.971	23377.85294
745.163	23043.91761
745.355	23542.81599
745.548	23322.86983
745.74	23080.56476
745.932	23194.58495
746.125	23041.88168
746.317	22893.26846
746.509	23216.98297
746.702	23481.71619
746.894	23251.59887
747.086	22807.77314
747.278	22834.23533
747.471	22337.65924
747.663	22614.41337
747.855	22746.70877
748.047	22634.76554
748.239	23086.67272
748.431	22836.27091
748.623	23483.7528
748.815	22585.92092
749.008	22976.73396
749.2	23164.04282
749.392	23400.25413
749.584	22797.59553
749.776	23632.43402
749.968	23351.3793
750.16	23278.07048
750.352	22887.16145
750.544	22754.85051
750.736	23172.18732
750.928	23605.95535
751.12	22881.05447
751.311	22494.34276
751.503	23100.92475
751.695	22706.00092
751.887	22437.36445
752.079	22765.02775
752.271	22362.07604
752.463	22457.71352
752.654	22604.23741
752.846	22807.77314
753.038	22777.24057
753.23	22699.89486
753.421	22486.20283
753.613	23086.67272
753.805	23385.99878
753.997	22938.05412
754.188	22842.37766
754.38	22956.376
754.572	23155.89838
754.763	22708.03628
754.955	22484.16786
755.146	22653.0828
755.338	22315.27764
755.53	22636.80078
755.721	22504.51775
755.913	22498.41275
756.104	22083.34918
756.296	22067.07532
756.487	22211.51421
756.679	22006.0505
756.87	22038.59665
757.062	21686.74337
757.253	22191.16957
757.445	21733.51489
757.636	21898.24832
757.827	22128.10354
758.019	21847.40197
758.21	21540.34158
758.401	21294.35155
758.593	21465.11529
758.784	21617.60665
758.975	21583.04
759.167	21318.74464
759.358	21676.57592
759.549	21249.6324
759.74	21426.48769
759.932	21296.38428
760.123	21377.69699
760.314	21322.81021
760.505	21304.51527
760.696	20808.64459
760.888	20963.06997
761.079	21044.35603
761.27	21330.9414
761.461	21556.60744
761.652	21351.26965
761.843	21375.66409
762.034	21564.74046
762.225	21007.77649
762.416	20954.94172
762.607	20765.97863
762.798	20843.18504
762.989	21119.55146
763.18	21808.76035
763.371	21454.94999
763.562	21005.74433
763.753	21024.0339
763.944	21034.19491
764.135	20605.48975
764.326	20920.39741
764.517	20709.09353
764.708	20794.4224
764.899	20128.24042
765.089	20341.45085
765.28	20404.40755
765.471	20000.33641
765.662	19911.01653
765.853	20132.30114
766.043	20170.8788
766.234	20449.08894
766.425	19969.88554
766.615	20187.12248
766.806	20323.17385
766.997	20337.38927
767.187	19990.18602
767.378	20345.51245
767.569	20203.36642
767.759	20298.80506
767.95	20215.54956
768.141	20241.94688
768.331	20166.81792
768.522	19576.13937
768.712	19844.03197
768.903	19553.81827
769.093	19850.12128
769.284	19476.71292
769.474	19334.69245
769.665	19553.81827
769.855	19844.03197
770.046	19876.50876
770.236	19557.87662
770.426	19775.02234
770.617	19444.24931
770.807	19247.46134
770.998	19391.4982
771.188	19365.1237
771.378	19290.06163
771.569	19148.06772
771.759	19308.31945
771.949	19484.82899
772.139	19545.70164
772.33	19395.55588
772.52	19450.33615
772.71	19661.37001
772.9	19279.91854
773.09	18989.86951
773.281	19365.1237
773.471	18807.36363
773.661	19225.14763
773.851	19070.99371
774.041	19210.94826
774.231	18770.86633
774.421	18693.82069
774.611	18468.79865
774.802	18450.5557
774.992	18440.42086
775.182	18697.87559
775.372	18860.08422
775.562	18598.53525
775.752	18606.64431
775.942	18328.94392
776.131	18620.83533
776.321	18219.50488
776.511	18539.74639
776.701	18258.00997
776.891	18878.33428
777.081	18545.82785
777.271	18738.42537
777.461	18270.16975
777.651	18150.60434
777.84	18677.60128
778.03	18286.383
778.22	18428.25919
778.41	18594.48074
778.599	18114.1293
778.789	18276.24969
778.979	18122.23476
779.169	17737.28792
779.358	17889.22555
779.548	18251.93013
779.738	18304.62319
779.927	18452.58268
780.117	18253.95674
780.307	17881.12172
780.496	17945.95391
780.686	18201.26609
780.875	18091.83958
781.065	17828.44819
781.254	17866.94016
781.444	17800.08647
781.633	17542.83525
781.823	17990.52813
782.012	17812.24141
782.202	17850.73286
782.391	17642.08335
782.581	17548.91144
782.77	17354.48741
782.96	17208.68785
783.149	16797.69249
783.338	17510.42938
783.528	17303.86081
783.717	17071.00208
783.906	17079.10088
784.096	17062.90332
784.285	17239.06149
784.474	17230.96179
784.663	17364.61295
784.853	17378.78885
785.042	17490.17613
785.231	17162.11619
785.42	17261.33592
785.61	16996.09022
785.799	16838.17983
785.988	17247.16124
786.177	16761.25472
786.366	16811.86295
786.555	17010.26245
786.744	16591.22195
786.933	16364.53562
787.122	16332.15391
787.312	16295.72506
787.501	16473.82757
787.69	16635.75277
787.879	16666.11533
788.068	16562.88471
788.257	16603.36661
788.445	16522.40368
788.634	16781.49783
788.823	16686.35732
789.012	16534.5479
789.201	16332.15391
789.39	16402.98953
789.579	16235.01163
789.768	16759.23043
789.957	16311.91559
790.145	16546.6922
790.334	16214.77417
790.523	15998.24352
790.712	16212.75043
790.9	16206.67924
791.089	16079.18749
791.278	16131.80235
791.467	16228.94037
791.655	16392.87001
791.844	16245.13042
792.033	16071.09298
792.221	15854.5734
792.41	16135.8497
792.599	15712.93263
792.787	15951.70178
792.976	15801.96335
793.164	15907.18424
793.353	15808.0337
793.541	15858.62035
793.73	15939.56057
793.918	15876.83173
794.107	15658.30108
794.295	15672.46475
794.484	15451.92037
794.672	15862.66732
794.861	15613.78695
795.049	16093.35292
795.238	15929.44293
795.426	15836.36214
795.614	15364.91856
795.803	15882.90221
795.991	15524.75981
796.179	15648.18419
796.368	15350.75555
796.556	15391.22135
796.744	15103.91604
796.932	15652.23094
797.121	15360.87198
797.309	15320.40629
797.497	15136.28839
797.685	15279.94071
797.874	15385.15147
798.062	15771.61174
798.25	14840.88828
798.438	15247.56831
798.626	15109.98586
798.814	15182.82361
799.002	14672.95019
799.19	15203.05632
799.378	15004.7755
799.566	15156.52109
799.755	14988.58923
799.943	14925.86722
800.131	14798.39842
800.318	15132.24184
800.506	15142.3582
800.694	14929.91381
800.882	15053.33419
801.07	14950.14675
801.258	15160.56763
801.446	15399.31453
801.634	14915.75072
801.822	14911.70412
802.01	14820.65505
802.197	15140.33493
802.385	14608.20132
802.573	14883.37787
802.761	14958.23991
802.949	14990.61251
803.136	14502.98193
803.324	14434.18274
803.512	14314.79174
803.699	14468.58254
803.887	14333.00429
804.075	14964.30978
804.262	14227.77419
804.45	14824.70171
804.638	14770.07168
804.825	15364.91856
805.013	14759.95495
805.201	15085.70659
805.388	15020.96175
805.576	15178.77707
805.763	14784.23507
805.951	14806.49175
806.138	14818.63173
806.326	14883.37787
806.513	14919.79732
806.701	14879.33125
806.888	14733.65135
807.075	14642.59929
807.263	14385.61758
807.45	14919.79732
807.638	14895.51771
807.825	15101.89277
808.012	14739.72142
808.2	14913.72742
808.387	14883.37787
808.574	14889.44779
808.761	15099.8695
808.949	14757.9316
809.136	14838.86496
809.323	14984.54266
809.51	14861.12145
809.698	14715.44109
809.885	14549.52168
810.072	14405.85317
810.259	14768.04833
810.446	14539.4044
810.633	14551.54514
810.82	14885.40118
811.008	14877.30794
811.195	14600.10764
811.382	14375.49972
811.569	14749.8382
811.756	14816.6084
811.943	14875.28463
812.13	14853.02819
812.317	15150.45128
812.504	15107.96259
812.691	15241.49849
812.878	14826.72503
813.064	14933.9604
813.251	14737.69807
813.438	14768.04833
813.625	14274.31888
813.812	14496.91148
813.999	14770.07168
814.186	15105.93932
814.372	15083.68332
814.559	15207.10286
814.746	14761.97829
814.933	14972.40294
815.12	14842.9116
815.306	14723.53455
815.493	14478.70005
815.68	14672.95019
815.866	14533.33402
816.053	15144.38147
816.24	14711.39435
816.426	14737.69807
816.613	14498.93497
816.799	14733.65135
816.986	14488.81752
817.173	14788.28174
817.359	14818.63173
817.546	14867.19139
817.732	14796.37509
817.919	14606.1779
818.105	14448.34741
818.292	14587.96707
818.478	14488.81752
818.665	14507.0289
818.851	14415.9709
819.037	14525.24016
819.224	14549.52168
819.41	14664.85664
819.597	14440.25332
819.783	14648.66949
819.969	14262.17688
820.156	14335.0279
820.342	14420.01799
820.528	14146.82443
820.714	13918.122
820.901	14114.44359
821.087	13853.35084
821.273	14494.88799
821.459	14324.90984
821.646	14507.0289
821.832	14175.15722
822.018	14061.82351
822.204	13786.55256
822.39	14041.58461
822.576	14205.51333
822.762	13897.88131
822.948	14124.56266
823.134	14090.15759
823.32	14112.41977
823.507	14215.63193
823.693	13843.23009
823.879	13908.00169
824.065	14302.64996
824.25	14359.31107
824.436	13810.84321
824.622	14189.32346
824.808	14071.94288
824.994	14094.20528
825.18	13928.24225
825.366	14156.94333
825.552	13470.73189
825.738	13837.15761
825.923	13646.87272
826.109	13636.7504
826.295	13331.01383
826.481	13612.45648
826.667	13744.04288
826.852	13986.93838
827.038	13908.00169
827.224	13859.42326
827.409	13452.50885
827.595	13778.45558
827.781	13292.53736
827.966	13529.4485
828.152	13280.38658
828.338	13490.97935
828.523	13055.56815
828.709	13223.68088
828.894	13243.9333
829.08	13215.57978
829.266	13031.25999
829.451	13377.58862
829.637	13209.50391
829.822	13278.36143
830.008	13513.25113
830.193	13486.92989
830.378	13110.25896
830.564	13219.63034
830.749	12729.3713
830.935	12836.76827
831.12	12354.36205
831.305	12546.96139
831.491	12607.77016
831.676	12709.10592
831.861	12749.6361
832.047	12850.9516
832.232	12660.46663
832.417	12741.53025
832.602	12664.52003
832.788	12396.9418
832.973	12153.58715
833.158	12538.85313
833.343	12153.58715
833.528	12605.74329
833.714	12311.77926
833.899	12666.54673
834.084	12520.60917
834.269	12938.07203
834.454	12559.1236
834.639	12731.39781
834.824	12715.1856
835.009	12790.16398
835.194	12540.88021
835.379	12822.58466
835.564	12609.79703
835.749	13069.74758
835.934	12814.47963
836.119	12822.58466
836.304	12506.41907
836.489	12546.96139
836.674	11999.40751
836.859	12218.49181
837.044	12121.13195
837.228	12200.23814
837.413	12226.60437
837.598	12344.22357
837.783	11983.17545
837.968	12220.51996
838.152	12133.30288
838.337	12157.64391
838.522	11973.03015
838.707	12206.32276
838.891	11843.15238
839.076	11853.3003
839.261	11806.61811
839.445	12115.04639
839.63	11871.56603
839.815	11676.69581
839.999	11694.96831
840.184	11703.08919
840.368	11690.90782
840.553	11772.11098
840.737	11735.57129
840.922	11861.41849
841.106	11485.80554
841.291	11617.81281
841.475	11441.11711
841.66	11776.17077
841.844	11489.86789
842.029	11632.02664
842.213	11656.39218
842.397	11798.499
842.582	11430.95999
842.766	11548.76777
842.951	11341.56683
843.135	11520.33434
843.319	11337.50305
843.504	11406.58193
843.688	11280.60587
843.872	11384.23413
844.056	11717.30038
844.241	11536.58224
844.425	11449.24262
844.609	11337.50305
844.793	10780.36365
844.977	11284.67022
845.161	10910.57284
845.346	11117.99795
845.53	10880.05932
845.714	10967.52458
845.898	10823.0938
846.082	10812.92042
846.266	10857.68109
846.45	10875.99065
846.634	10902.43615
846.818	10709.13513
847.002	10589.03062
847.186	10525.90759
847.37	10527.944
847.554	10485.1766
847.738	10448.51435
847.922	10709.13513
848.106	10690.81685
848.29	10609.39033
848.473	10648.07037
848.657	10428.14462
848.841	10395.55036
849.025	10411.84791
849.209	10509.6158
849.392	10495.35983
849.576	10381.28932
849.76	10564.59733
849.944	10593.10267
850.127	10633.82035
850.311	10491.28658
850.495	10851.57769
850.678	10564.59733
850.862	10259.0252
851.046	10242.71967
851.229	10424.07052
851.413	10087.77329
851.596	10377.21462
851.78	10181.56616
851.964	10358.87781
852.147	9985.79068
852.331	10189.72068
852.514	9891.93485
852.698	10179.5275
852.881	9832.7489
853.065	10069.41904
853.248	9714.33919
853.431	9932.74553
853.615	9653.07267
853.798	9934.78591
853.982	10132.63443
854.165	10051.06365
854.348	9781.71646
854.532	9932.74553
854.715	9671.45409
854.898	9789.88228
855.081	9783.75794
855.265	9740.88373
855.448	9373.10893
855.631	9597.92088
855.814	9364.93026
855.997	9360.84083
856.181	9146.05215
856.364	9577.4914
856.547	9379.24275
856.73	9444.66111
856.913	9244.26421
857.096	9281.08372
857.279	8922.88152
857.462	9166.51623
857.645	9084.64965
857.828	9197.20914
858.011	9060.08431
858.194	9223.80658
858.377	9070.32017
858.56	9622.43419
858.743	9274.94751
858.926	9534.58436
859.109	9045.75336
859.292	9012.99372
859.475	9111.2593
859.658	8965.89388
859.841	8830.68569
860.023	8881.91007
860.206	9012.99372
860.389	9107.1657
860.572	8902.39669
860.755	8992.51667
860.937	8883.95881
861.12	8836.83321
861.303	8742.5533
861.486	8656.43779
861.668	8426.63509
861.851	8658.48854
862.034	8607.21425
862.216	8619.52115
862.399	8328.07486
862.581	8644.13292
862.764	8225.36017
862.947	8449.21555
863.129	8346.55831
863.312	8500.52616
863.494	8151.37501
863.677	8200.70131
863.859	8122.59603
864.042	8254.12524
864.224	8108.20507
864.406	8465.63625
864.589	8289.04906
864.771	8235.63385
864.954	8071.1952
865.136	8019.78176
865.318	7762.52247
865.501	7988.92761
865.683	7877.81453
865.865	8161.65227
866.048	7564.72562
866.23	7993.04176
866.412	7828.41163
866.594	7846.93912
866.777	7945.72408
866.959	7914.85888
867.141	7640.98296
867.323	7886.04718
867.505	7951.89656
867.687	8352.71911
867.869	7842.82204
868.052	8188.37081
868.234	8112.31687
868.416	8124.6518
868.598	7976.58466
868.78	8225.36017
868.962	8034.1788
869.144	7822.23543
869.326	7888.10529
869.508	8005.38373
869.69	7463.69104
869.872	7616.25405
870.054	7546.17212
870.236	7636.86169
870.417	7636.86169
870.599	7715.15139
870.781	7434.8145
870.963	7643.04356
871.145	7517.30766
871.327	7438.93998
871.508	7220.16928
871.69	7416.24877
871.872	7366.73155
872.054	7768.70048
872.235	7486.37677
872.417	7645.10415
872.599	7329.58539
872.78	7752.22535
872.962	7290.36785
873.144	7381.17537
873.325	7379.11203
873.507	7535.86386
873.689	7422.43755
873.87	7430.68894
874.052	7346.09567
874.233	7539.98723
874.415	7269.72385
874.596	7657.4672
874.778	7069.36227
874.959	7368.79502
875.141	7228.42926
875.322	7362.60455
875.503	7127.22008
875.685	7302.75319
875.866	7061.09544
876.048	7205.71346
876.229	7046.62762
876.41	7430.68894
876.592	7191.25656
876.773	7372.92189
876.954	6978.40737
877.136	7290.36785
877.317	7377.04867
877.498	7760.46308
877.679	7156.14242
877.86	7315.13774
878.042	7257.3364
878.223	7438.93998
878.404	7410.05981
878.585	7331.64925
878.766	7170.60196
878.947	7156.14242
879.128	7213.97406
879.309	7249.07766
879.49	7112.75727
879.672	7397.68128
879.853	7306.88146
880.034	7354.35028
880.215	7168.53638
880.396	7350.22302
880.576	7207.77864
880.757	7504.93589
880.938	7085.89486
881.119	7752.22535
881.3	7360.54101
881.481	7671.8898
881.662	7366.73155
881.843	7438.93998
882.023	6997.01532
882.204	7282.11051
882.385	7085.89486
882.566	7474.00306
882.747	6883.27149
882.927	7389.4285
883.108	7195.38722
883.289	7277.98171
883.469	7222.2343
883.65	7465.75349
883.831	7595.64428
884.011	7546.17212
884.192	7290.36785
884.373	7628.61888
884.553	7238.75373
884.734	7572.97107
884.914	7075.56216
885.095	7244.94815
885.275	7096.227
885.456	7273.85283
885.636	7032.1587
885.817	7478.12772
885.997	7341.96823
886.178	7366.73155
886.358	7247.01292
886.538	7523.49325
886.719	7259.40103
886.899	7445.12804
887.08	7203.64826
887.26	7300.68902
887.44	7356.41388
887.621	7476.0654
887.801	7393.55494
887.981	7649.22525
888.161	7311.00964
888.342	7354.35028
888.522	7509.0599
888.702	7529.67866
888.882	7391.49173
889.062	7315.13774
889.242	7063.16218
889.423	7428.62612
889.603	7290.36785
889.783	7364.66806
889.963	7226.36429
890.143	7453.37848
890.323	7209.84381
890.503	7282.11051
890.683	7052.82825
890.863	7381.17537
891.043	7083.82836
891.223	7634.80102
891.403	7587.39977
891.583	7568.84839
891.763	7521.43141
891.943	7348.15935
892.122	7135.48405
892.302	7218.10423
892.482	7166.47078
892.662	7228.42926
892.842	7011.48691
893.022	7265.59479
893.201	7044.5607
893.381	7249.07766
893.561	7207.77864
893.741	7282.11051
893.92	6835.68556
894.1	7009.41961
894.28	7154.07669
894.459	7116.88961
894.639	6959.79759
894.819	7182.99499
894.998	6994.94786
895.178	7329.58539
895.357	6831.54709
895.537	7052.82825
895.716	7182.99499
895.896	7199.51778
896.075	6963.93325
896.255	6984.61022
896.434	6775.66875
896.614	6868.79009
896.793	6597.5746
896.973	6783.94807
897.152	6313.51332
897.331	6699.06767
897.511	6636.93562
897.69	6620.36358
897.87	6522.97297
898.049	6467.00204
898.228	6413.08811
898.407	6249.17599
898.587	6263.70574
898.766	6413.08811
898.945	6151.58936
899.124	6340.4868
899.304	6379.90249
899.483	6572.71072
899.662	6016.5436
899.841	6157.81984
900.02	6280.30977
900.199	6491.8801
900.378	6369.53075
900.557	6251.25174
900.737	6064.34039
900.916	6315.58834
901.095	6053.95084
901.274	6008.22984
901.453	6016.5436
901.632	6180.66314
901.811	6166.12682
901.989	6330.11285
902.168	5914.67411
902.347	6213.88468
902.526	5683.69903
902.705	5873.07845
902.884	5573.31108
903.063	5667.04094
903.242	5710.7652
903.42	5918.83315
903.599	5439.92419
903.778	5487.8712
903.957	5358.59432
904.135	5773.21036
904.314	5369.02323
904.493	5821.07061
904.672	5479.53348
904.85	5569.1442
905.029	5245.92487
905.207	5314.78654
905.386	5020.38196
905.565	4924.2354
905.743	4790.38555
905.922	4961.86377
906.1	4955.59289
906.279	4930.50731
906.457	4727.61135
906.636	4968.13444
906.814	4936.77902
906.993	4972.31477
907.171	4805.02993
907.35	4859.41356
907.528	4486.7896
907.707	4721.33281
907.885	4453.26069
908.063	4486.7896
908.242	4174.33649
908.42	4620.84859
908.598	4302.31142
908.777	4384.0896
908.955	4287.62981
909.133	4461.64344
909.311	4230.99091
909.49	4346.34992
909.668	4193.22301
909.846	4530.78772
910.024	4589.43669
910.202	4478.4079
910.38	4365.22064
910.559	4415.53395
910.737	4419.72616
910.915	4704.58904
911.093	4258.26344
911.271	4499.36148
911.449	4411.34166
911.627	4541.26203
911.805	4323.28332
911.983	4478.4079
912.161	4235.18692
912.339	4407.14927
912.517	4285.53235
912.695	4436.49413
912.872	4379.89665
913.05	4712.9611
913.228	4394.5716
913.406	4656.44267
913.584	4493.07564
913.762	4637.59955
913.939	4539.16721
914.117	4675.28397
914.295	4184.82921
914.473	4304.40871
914.65	4394.5716
914.828	4537.07237
915.006	4289.72725
915.184	4457.45211
915.361	4321.18623
915.539	4356.83387
915.716	4172.23788
915.894	4310.70044
916.072	4344.25306
916.249	4285.53235
916.427	4075.67921
916.604	4377.80014
916.782	4346.34992
916.959	4516.12276
917.137	4176.43508
917.314	4480.50335
917.492	3989.57901
917.669	4224.69674
917.847	3945.46556
918.024	4350.54356
918.201	4197.41978
918.379	4201.61647
918.556	4067.28072
918.733	4310.70044
918.911	4052.58256
919.088	4254.0679
919.265	3842.49958
919.442	3907.64693
919.62	3480.69842
919.797	3886.63375
919.974	3617.49146
920.151	3960.17104
920.328	3621.69923
920.506	3907.64693
920.683	3661.6693
920.86	4134.45933
921.037	3934.96104
921.214	3991.67942
921.391	3545.9479
921.568	3735.28034
921.745	3815.17404
921.922	3689.01329
922.099	3625.90693
922.276	3874.02489
922.453	3537.5296
922.63	3604.86769
922.807	3282.74022
922.984	3179.48911
923.161	3310.12659
923.338	3489.11869
923.514	3270.09939
923.691	3398.58569
923.868	3202.6714
924.045	3162.62802
924.222	3086.74033
924.399	3331.19106
924.575	3230.06608
924.752	3455.43586
924.929	3270.09939
925.105	3352.2538
925.282	3221.63725
925.459	3223.74448
925.635	2955.99737
925.812	3086.74033
925.989	2702.78745
926.165	2839.96779
926.342	2787.2129
926.518	2926.46674
926.695	2869.50672
926.871	2924.3573
927.048	2880.05567
927.224	3086.74033
927.401	2877.94591
927.577	3143.65804
927.754	2861.06731
927.93	2937.01372
928.107	2584.55721
928.283	2820.97703
928.459	2666.90029
928.636	2707.00922
928.812	2677.45572
928.988	2846.2978
929.165	2432.49201
929.341	2660.56688
929.517	2588.78038
929.693	2603.56111
929.87	2278.25827
930.046	2669.0114
930.222	2331.08399
930.398	2489.52333
930.574	2282.48454
930.751	2593.00351
930.927	2434.60442
931.103	2576.11071
931.279	2369.11475
931.455	2516.97996
931.631	2299.38927
931.807	2280.37141
931.983	1950.62199
932.159	2432.49201
932.335	2104.95091
932.511	2104.95091
932.687	1827.98152
932.863	2178.93046
933.039	1992.9074
933.215	2166.24895
933.391	1933.70715
933.566	1986.56475
933.742	1933.70715
933.918	2026.7339
934.094	1789.91734
934.27	1836.44003
934.445	1656.68309
934.621	1868.15877
934.797	1504.40331
934.973	1553.04909
935.148	1476.90769
935.324	1544.58899
935.5	1307.70499
935.675	1502.28826
935.851	1366.92527
936.027	1472.67759
936.202	1240.02656
936.378	1333.08496
936.553	1091.9916
936.729	1269.63557
936.904	916.49708
937.08	1022.21154
937.255	889.01429
937.431	899.58443
937.606	834.05287
937.782	855.19119
937.957	637.51393
938.133	686.11162
938.308	498.09704
938.483	633.28834
938.659	538.22615
938.834	561.4611
939.009	460.08485
939.185	569.91058
939.36	493.87323
939.535	538.22615
939.71	348.18969
939.886	538.22615
940.061	445.30366
940.236	432.63468
940.411	354.52214
940.586	381.9645
940.761	343.96815
940.937	443.19213
941.112	251.11241
941.287	386.18665
941.462	354.52214
941.637	388.29776
941.812	339.74668
941.987	310.19835
942.162	295.42551
942.337	343.96815
942.512	215.24608
942.687	318.64038
942.862	320.75093
943.037	259.55236
943.212	286.98428
943.386	310.19835
943.561	267.99262
943.736	291.20486
943.911	211.02688
944.086	257.44235
944.26	293.31517
944.435	331.30395
944.61	208.91732
944.785	295.42551
944.959	179.38548
945.134	284.87402
945.309	379.85345
945.483	295.42551
945.658	265.88252
945.833	272.21286
946.007	274.323
946.182	208.91732
946.357	217.35571
946.531	272.21286
946.706	295.42551
946.88	255.33235
947.055	192.04149
947.229	272.21286
947.404	343.96815
947.578	293.31517
947.752	242.67277
947.927	322.8615
948.101	352.41131
948.276	246.89255
948.45	280.65356
948.624	301.75662
948.799	242.67277
948.973	293.31517
949.147	192.04149
949.321	327.08269
949.496	327.08269
949.67	343.96815
949.844	211.02688
950.018	289.09456
950.193	335.52528
950.367	305.97745
950.541	179.38548
950.715	312.30883
950.889	175.16697
951.063	265.88252
951.237	253.22237
951.411	312.30883
951.585	276.43317
951.759	343.96815
951.933	255.33235
952.107	295.42551
952.281	259.55236
952.455	267.99262
952.629	251.11241
952.803	354.52214
952.977	293.31517
953.151	312.30883
953.325	297.53586
953.499	356.63299
953.672	373.52039
953.846	441.0806
954.02	343.96815
954.194	278.54336
954.368	267.99262
954.541	274.323
954.715	267.99262
954.889	339.74668
955.062	310.19835
955.236	384.07557
955.41	337.63597
955.583	341.85741
955.757	280.65356
955.93	316.52984
956.104	253.22237
956.278	265.88252
956.451	276.43317
956.625	301.75662
956.798	259.55236
956.972	270.10273
957.145	286.98428
957.319	394.63116
957.492	267.99262
957.665	394.63116
957.839	301.75662
958.012	320.75093
958.185	320.75093
958.359	356.63299
958.532	297.53586
958.705	371.40941
958.879	377.74241
959.052	371.40941
959.225	369.29844
959.398	348.18969
959.572	308.08789
959.745	365.07655
959.918	430.52323
960.091	255.33235
960.264	293.31517
960.438	369.29844
960.611	305.97745
960.784	337.63597
960.957	322.8615
961.13	242.67277
961.303	335.52528
961.476	362.96564
961.649	316.52984
961.822	352.41131
961.995	276.43317
962.168	367.18749
962.341	331.30395
962.514	346.07892
962.686	270.10273
962.859	335.52528
963.032	263.77245
963.205	242.67277
963.378	230.01389
963.551	253.22237
963.723	211.02688
963.896	194.1509
964.069	206.80777
964.242	286.98428
964.414	322.8615
964.587	242.67277
964.76	297.53586
964.932	341.85741
965.105	293.31517
965.278	257.44235
965.45	284.87402
965.623	341.85741
965.795	225.79441
965.968	331.30395
966.14	329.19331
966.313	217.35571
966.485	322.8615
966.658	356.63299
966.83	202.58873
967.003	208.91732
967.175	276.43317
967.348	286.98428
967.52	160.40285
967.692	240.56291
967.865	215.24608
968.037	263.77245
968.209	187.82274
968.382	295.42551
968.554	166.73021
968.726	192.04149
968.898	251.11241
969.071	318.64038
969.243	187.82274
969.415	183.60407
969.587	170.94855
969.759	225.79441
969.932	177.27622
970.104	259.55236
970.276	158.29377
970.448	343.96815
970.62	242.67277
970.792	215.24608
970.964	168.83937
971.136	234.23344
971.308	230.01389
971.48	270.10273
971.652	187.82274
971.824	244.78265
971.996	208.91732
972.168	227.90414
972.339	175.16697
972.511	225.79441
972.683	154.07568
972.855	175.16697
973.027	200.47924
973.199	132.98649
973.37	166.73021
973.542	208.91732
973.714	156.18471
973.886	154.07568
974.057	73.9483
974.229	128.76891
974.401	149.85767
974.572	246.89255
974.744	168.83937
974.915	204.69824
975.087	175.16697
975.259	166.73021
975.43	185.7134
975.602	124.55141
975.773	149.85767
975.945	99.24826
976.116	189.93211
976.288	227.90414
976.459	202.58873
976.63	86.59788
976.802	208.91732
976.973	86.59788
977.145	181.49477
977.316	126.66015
977.487	149.85767
977.659	107.68229
977.83	116.11668
978.001	126.66015
978.172	118.22533
978.344	141.42191
978.515	99.24826
978.686	92.92297
978.857	132.98649
979.028	61.29953
979.2	103.46523
979.371	107.68229
979.542	147.7487
979.713	116.11668
979.884	132.98649
980.055	126.66015
980.226	202.58873
980.397	149.85767
980.568	95.03138
980.739	124.55141
980.91	107.68229
981.081	65.5157
981.252	82.38126
981.423	149.85767
981.594	151.96666
981.765	69.73195
981.936	71.84011
982.106	120.334
982.277	46.54368
982.448	124.55141
982.619	162.51195
982.79	175.16697
982.96	103.46523
983.131	116.11668
983.302	145.63975
983.472	107.68229
983.643	107.68229
983.814	158.29377
983.984	71.84011
984.155	95.03138
984.326	92.92297
984.496	25.46587
984.667	114.00805
984.837	69.73195
985.008	107.68229
985.178	154.07568
985.349	31.78897
985.519	86.59788
985.69	73.9483
985.86	61.29953
986.031	103.46523
986.201	90.81458
986.371	99.24826
986.542	82.38126
986.712	107.68229
986.882	82.38126
987.053	21.25059
987.223	90.81458
987.393	95.03138
987.563	111.89944
987.734	101.35674
987.904	111.89944
988.074	65.5157
988.244	52.86748
988.414	23.35822
988.585	80.27299
988.755	59.19149
988.925	33.89672
989.095	42.32793
989.265	95.03138
989.435	44.4358
989.605	86.59788
989.775	132.98649
989.945	95.03138
990.115	63.4076
990.285	33.89672
990.455	69.73195
990.625	92.92297
990.795	69.73195
990.965	61.29953
991.134	99.24826
991.304	95.03138
991.474	76.05651
991.644	65.5157
991.814	61.29953
991.984	126.66015
992.153	48.65159
992.323	38.11228
992.493	14.92785
992.662	38.11228
992.832	40.22009
993.002	33.89672
993.171	97.13981
993.341	33.89672
993.511	48.65159
993.68	141.42191
993.85	59.19149
994.019	57.08346
994.189	116.11668
994.358	73.9483
994.528	36.00449
994.697	73.9483
994.867	82.38126
995.036	128.76891
995.206	57.08346
995.375	38.11228
995.544	-10.36097
995.714	40.22009
995.883	33.89672
996.052	36.00449
996.222	82.38126
996.391	59.19149
996.56	52.86748
996.73	57.08346
996.899	99.24826
997.068	-8.2537
997.237	73.9483
997.406	63.4076
997.576	50.75953
997.745	109.79086
997.914	14.92785
998.083	21.25059
998.252	25.46587
998.421	8.60532
998.59	78.16474
998.759	73.9483
998.928	33.89672
999.097	17.0354
999.266	80.27299
999.435	69.73195
999.604	23.35822
999.773	19.14299
999.942	-18.7898
1000.111	23.35822
1000.28	92.92297
1000.448	84.48956
1000.617	-8.2537
1000.786	73.9483
1000.955	23.35822
1001.124	48.65159
1001.292	61.29953
1001.461	57.08346
1001.63	10.7128
1001.798	38.11228
1001.967	90.81458
1002.136	61.29953
1002.304	80.27299
1002.473	36.00449
1002.642	73.9483
1002.81	21.25059
1002.979	38.11228
1003.147	54.97546
1003.316	88.70622
1003.484	109.79086
1003.653	-37.75323
1003.821	73.9483
1003.99	50.75953
1004.158	21.25059
1004.327	-4.03909
1004.495	-12.46822
1004.663	88.70622
1004.832	57.08346
1005	103.46523
1005.168	31.78897
1005.337	-29.32529
1005.505	137.20416
1005.673	54.97546
1005.842	-10.36097
1006.01	73.9483
1006.178	-1.93175
1006.346	27.57355
1006.514	27.57355
1006.683	65.5157
1006.851	-1.93175
1007.019	14.92785
1007.187	27.57355
1007.355	-8.2537
1007.523	44.4358
1007.691	38.11228
1007.859	10.7128
1008.027	-1.93175
1008.195	4.39042
1008.363	19.14299
1008.531	14.92785
1008.699	50.75953
1008.867	120.334
1009.035	14.92785
1009.203	12.82031
1009.37	46.54368
1009.538	65.5157
1009.706	23.35822
1009.874	57.08346
1010.042	23.35822
1010.209	-25.11117
1010.377	-33.53931
1010.545	59.19149
1010.713	84.48956
1010.88	-14.57544
1011.048	52.86748
1011.216	65.5157
1011.383	36.00449
1011.551	31.78897
1011.718	42.32793
1011.886	-6.14641
1012.054	23.35822
1012.221	-35.64629
1012.389	73.9483
1012.556	12.82031
1012.724	42.32793
1012.891	31.78897
1013.058	61.29953
1013.226	124.55141
1013.393	21.25059
1013.561	61.29953
1013.728	46.54368
1013.895	40.22009
1014.063	17.0354
1014.23	69.73195
1014.397	12.82031
1014.565	-14.57544
1014.732	33.89672
1014.899	52.86748
1015.066	14.92785
1015.233	-14.57544
1015.401	6.49786
1015.568	103.46523
1015.735	42.32793
1015.902	-39.86016
1016.069	57.08346
1016.236	-10.36097
1016.403	-10.36097
1016.57	63.4076
1016.737	33.89672
1016.904	36.00449
1017.071	14.92785
1017.238	36.00449
1017.405	57.08346
1017.572	8.60532
1017.739	65.5157
1017.906	61.29953
1018.073	-33.53931
1018.24	48.65159
1018.407	78.16474
1018.573	40.22009
1018.74	78.16474
1018.907	10.7128
1019.074	-52.50118
1019.241	-67.24789
1019.407	31.78897
1019.574	14.92785
1019.741	92.92297
1019.907	14.92785
1020.074	76.05651
1020.241	25.46587
1020.407	-10.36097
1020.574	40.22009
1020.74	23.35822
1020.907	31.78897
1021.073	44.4358
1021.24	17.0354
1021.406	-8.2537
1021.573	44.4358
1021.739	57.08346
1021.906	12.82031
1022.072	-6.14641
1022.239	44.4358
1022.405	17.0354
1022.571	-29.32529
1022.738	-20.89695
1022.904	-52.50118
1023.07	82.38126
1023.237	6.49786
1023.403	59.19149
1023.569	10.7128
1023.735	36.00449
1023.902	-16.68263
1024.068	25.46587
1024.234	52.86748
1024.4	23.35822
1024.566	14.92785
1024.732	17.0354
1024.898	-25.11117
1025.065	42.32793
1025.231	-31.43231
1025.397	82.38126
1025.563	-10.36097
1025.729	10.7128
1025.895	21.25059
1026.061	65.5157
1026.227	6.49786
1026.392	25.46587
1026.558	-8.2537
1026.724	8.60532
1026.89	-4.03909
1027.056	52.86748
1027.222	-18.7898
1027.388	-6.14641
1027.553	107.68229
1027.719	10.7128
1027.885	19.14299
1028.051	-18.7898
1028.216	27.57355
1028.382	-8.2537
1028.548	-1.93175
1028.713	19.14299
1028.879	73.9483
1029.045	25.46587
1029.21	44.4358
1029.376	124.55141
1029.541	25.46587
1029.707	48.65159
1029.873	52.86748
1030.038	-65.14129
1030.204	14.92785
1030.369	76.05651
1030.534	57.08346
1030.7	-27.21824
1030.865	-14.57544
1031.031	-33.53931
1031.196	50.75953
1031.361	-33.53931
1031.527	48.65159
1031.692	107.68229
1031.857	12.82031
1032.023	29.68125
1032.188	63.4076
1032.353	33.89672
1032.518	59.19149
1032.684	25.46587
1032.849	48.65159
1033.014	65.5157
1033.179	-25.11117
1033.344	-44.07393
1033.509	2.283
1033.674	-18.7898
1033.839	6.49786
1034.004	44.4358
1034.17	2.283
1034.335	10.7128
1034.5	44.4358
1034.664	-10.36097
1034.829	36.00449
1034.994	19.14299
1035.159	19.14299
1035.324	-6.14641
1035.489	10.7128
1035.654	-18.7898
1035.819	19.14299
1035.984	-29.32529
1036.148	65.5157
1036.313	-23.00407
1036.478	52.86748
1036.643	-46.18078
1036.807	29.68125
1036.972	25.46587
1037.137	78.16474
1037.301	48.65159
1037.466	-10.36097
1037.631	-73.56752
1037.795	4.39042
1037.96	14.92785
1038.124	8.60532
1038.289	19.14299
1038.454	36.00449
1038.618	40.22009
1038.783	-52.50118
1038.947	69.73195
1039.111	2.283
1039.276	42.32793
1039.44	-8.2537
1039.605	23.35822
1039.769	40.22009
1039.933	6.49786
1040.098	-8.2537
1040.262	-33.53931
1040.426	-4.03909
1040.591	31.78897
1040.755	-37.75323
1040.919	27.57355
1041.083	-1.93175
1041.248	8.60532
1041.412	67.62381
1041.576	-16.68263
1041.74	-27.21824
1041.904	-16.68263
1042.068	-18.7898
1042.232	31.78897
1042.397	-14.57544
1042.561	-23.00407
1042.725	27.57355
1042.889	12.82031
1043.053	50.75953
1043.217	-16.68263
1043.381	19.14299
1043.544	-75.67402
1043.708	61.29953
1043.872	-14.57544
1044.036	57.08346
1044.2	19.14299
1044.364	101.35674
1044.528	-16.68263
1044.691	48.65159
1044.855	8.60532
1045.019	-33.53931
1045.183	31.78897
1045.346	42.32793
1045.51	33.89672
1045.674	40.22009
1045.837	52.86748
1046.001	17.0354
1046.165	-35.64629
1046.328	14.92785
1046.492	-48.28761
1046.655	14.92785
1046.819	71.84011
1046.983	90.81458
1047.146	23.35822
1047.31	57.08346
1047.473	31.78897
1047.636	-10.36097
1047.8	17.0354
1047.963	78.16474
1048.127	-18.7898
1048.29	40.22009
