Data from absorb_only_2.23.25_USB4F045381__72__0177.txt Node

Date: Sun Feb 23 19:27:07 EST 2025
User: ssocol
Spectrometer: USB4F04538
Trigger mode: 4
Integration Time (sec): 2.600000E-3
Scans to average: 1
Electric dark correction enabled: true
Nonlinearity correction enabled: true
Boxcar width: 0
XAxis mode: Wavelengths
Number of Pixels in Spectrum: 3648
>>>>>Begin Spectral Data<<<<<
345.52	-69.17891
345.736	-69.17891
345.952	-69.17891
346.168	-43.89836
346.384	8.78094
346.6	12.99594
346.816	-52.32561
347.032	57.25913
347.248	6.67348
347.464	2.45862
347.68	-16.50703
347.896	2.45862
348.112	12.99594
348.328	27.74919
348.544	17.21104
348.76	-39.68458
348.975	-31.25673
349.191	23.53386
349.407	6.67348
349.623	-48.11204
349.839	-60.75247
350.055	6.67348
350.27	-14.39983
350.486	-14.39983
350.702	23.53386
350.918	-31.25673
351.133	0.35123
351.349	12.99594
351.565	23.53386
351.781	53.04315
351.996	-22.82848
352.212	-69.17891
352.428	-20.72135
352.644	-10.18537
352.859	57.25913
353.075	50.93519
353.291	-67.07234
353.506	-5.9708
353.722	42.50359
353.938	-1.75614
354.153	-10.18537
354.369	29.85689
354.584	19.31862
354.8	-39.68458
355.016	31.96461
355.231	-46.00521
355.447	-14.39983
355.662	-31.25673
355.878	-86.03057
356.093	36.18013
356.309	55.15113
356.524	-50.21884
356.74	23.53386
356.955	-1.75614
357.171	12.99594
357.386	23.53386
357.602	40.39575
357.817	-16.50703
358.033	17.21104
358.248	6.67348
358.464	-18.61421
358.679	48.82725
358.895	-20.72135
359.11	36.18013
359.325	48.82725
359.541	0.35123
359.756	-81.81781
359.972	8.78094
360.187	-35.47071
360.402	-18.61421
360.618	15.10348
360.833	6.67348
361.048	-41.79148
361.264	-5.9708
361.479	42.50359
361.694	-35.47071
361.909	-10.18537
362.125	-56.53909
362.34	19.31862
362.555	-27.04265
362.77	-14.39983
362.986	17.21104
363.201	-18.61421
363.416	-153.42041
363.631	4.56604
363.847	44.61145
364.062	107.85801
364.277	-54.43236
364.492	-16.50703
364.707	31.96461
364.922	-14.39983
365.138	21.42623
365.353	-69.17891
365.568	53.04315
365.783	34.07236
365.998	93.09867
366.213	31.96461
366.428	34.07236
366.643	78.34042
366.858	-10.18537
367.073	-5.9708
367.288	-27.04265
367.503	23.53386
367.718	-24.93558
367.933	53.04315
368.148	-18.61421
368.363	-50.21884
368.578	-1.75614
368.793	29.85689
369.008	-48.11204
369.223	48.82725
369.438	-54.43236
369.653	59.36716
369.868	31.96461
370.083	57.25913
370.298	-50.21884
370.513	-77.60495
370.728	-79.71139
370.943	44.61145
371.157	-14.39983
371.372	-14.39983
371.587	-67.07234
371.802	53.04315
372.017	2.45862
372.232	2.45862
372.446	23.53386
372.661	-86.03057
372.876	-27.04265
373.091	-5.9708
373.306	-18.61421
373.52	-22.82848
373.735	53.04315
373.95	34.07236
374.165	-31.25673
374.379	40.39575
374.594	-16.50703
374.809	23.53386
375.023	6.67348
375.238	48.82725
375.453	78.34042
375.667	23.53386
375.882	65.69137
376.097	-33.36373
376.311	-1.75614
376.526	23.53386
376.741	-41.79148
376.955	44.61145
377.17	2.45862
377.384	74.12398
377.599	23.53386
377.813	31.96461
378.028	-5.9708
378.242	50.93519
378.457	-43.89836
378.672	-14.39983
378.886	23.53386
379.101	6.67348
379.315	-24.93558
379.53	-39.68458
379.744	-48.11204
379.958	-8.0781
380.173	-22.82848
380.387	36.18013
380.602	2.45862
380.816	-39.68458
381.031	6.67348
381.245	6.67348
381.459	40.39575
381.674	-1.75614
381.888	-1.75614
382.103	31.96461
382.317	-16.50703
382.531	65.69137
382.746	-43.89836
382.96	-35.47071
383.174	12.99594
383.388	-22.82848
383.603	53.04315
383.817	15.10348
384.031	-43.89836
384.246	-22.82848
384.46	-12.29261
384.674	-14.39983
384.888	-43.89836
385.103	61.47521
385.317	12.99594
385.531	-27.04265
385.745	-24.93558
385.959	6.67348
386.174	-52.32561
386.388	74.12398
386.602	27.74919
386.816	-60.75247
387.03	15.10348
387.244	-1.75614
387.458	4.56604
387.672	12.99594
387.887	2.45862
388.101	2.45862
388.315	-18.61421
388.529	19.31862
388.743	15.10348
388.957	-52.32561
389.171	-16.50703
389.385	-37.57766
389.599	15.10348
389.813	42.50359
390.027	40.39575
390.241	-1.75614
390.455	2.45862
390.669	-22.82848
390.883	10.88843
391.097	-67.07234
391.311	-27.04265
391.525	-35.47071
391.738	-10.18537
391.952	2.45862
392.166	27.74919
392.38	15.10348
392.594	69.90763
392.808	6.67348
393.022	59.36716
393.236	2.45862
393.449	15.10348
393.663	-48.11204
393.877	21.42623
394.091	46.71934
394.305	17.21104
394.518	-43.89836
394.732	-24.93558
394.946	-90.24323
395.16	69.90763
395.373	2.45862
395.587	-35.47071
395.801	-43.89836
396.015	-14.39983
396.228	-54.43236
396.442	-22.82848
396.656	-8.0781
396.869	15.10348
397.083	-43.89836
397.297	-52.32561
397.51	-86.03057
397.724	-14.39983
397.938	25.64151
398.151	6.67348
398.365	29.85689
398.578	-14.39983
398.792	40.39575
399.005	-43.89836
399.219	23.53386
399.433	-20.72135
399.646	69.90763
399.86	-18.61421
400.073	-8.0781
400.287	-31.25673
400.5	-73.39198
400.714	-16.50703
400.927	6.67348
401.141	-24.93558
401.354	53.04315
401.567	-8.0781
401.781	-3.86348
401.994	4.56604
402.208	0.35123
402.421	-18.61421
402.635	-10.18537
402.848	0.35123
403.061	-20.72135
403.275	-50.21884
403.488	44.61145
403.701	6.67348
403.915	4.56604
404.128	-12.29261
404.341	-3.86348
404.555	6.67348
404.768	36.18013
404.981	57.25913
405.195	2.45862
405.408	36.18013
405.621	-46.00521
405.834	19.31862
406.048	-69.17891
406.261	-24.93558
406.474	-52.32561
406.687	-14.39983
406.9	57.25913
407.114	42.50359
407.327	-69.17891
407.54	6.67348
407.753	-41.79148
407.966	-22.82848
408.179	10.88843
408.392	-94.45578
408.605	-20.72135
408.819	-5.9708
409.032	10.88843
409.245	19.31862
409.458	-41.79148
409.671	-10.18537
409.884	48.82725
410.097	-10.18537
410.31	-18.61421
410.523	17.21104
410.736	31.96461
410.949	-3.86348
411.162	31.96461
411.375	25.64151
411.588	-10.18537
411.801	2.45862
412.014	-31.25673
412.227	2.45862
412.44	15.10348
412.653	-50.21884
412.865	-22.82848
413.078	-46.00521
413.291	19.31862
413.504	-35.47071
413.717	21.42623
413.93	48.82725
414.143	15.10348
414.356	42.50359
414.568	57.25913
414.781	-22.82848
414.994	95.20708
415.207	-14.39983
415.42	36.18013
415.632	-58.64579
415.845	-50.21884
416.058	-8.0781
416.271	-10.18537
416.483	29.85689
416.696	40.39575
416.909	19.31862
417.121	-20.72135
417.334	93.09867
417.547	46.71934
417.759	31.96461
417.972	59.36716
418.185	27.74919
418.397	99.42397
418.61	-1.75614
418.823	48.82725
419.035	-29.1497
419.248	72.0158
419.46	44.61145
419.673	31.96461
419.885	-33.36373
420.098	44.61145
420.311	-100.77442
420.523	34.07236
420.736	59.36716
420.948	-31.25673
421.161	-10.18537
421.373	-31.25673
421.586	-27.04265
421.798	-1.75614
422.01	-14.39983
422.223	23.53386
422.435	23.53386
422.648	10.88843
422.86	-10.18537
423.073	65.69137
423.285	42.50359
423.497	34.07236
423.71	6.67348
423.922	8.78094
424.134	-20.72135
424.347	-5.9708
424.559	15.10348
424.771	-14.39983
424.984	-54.43236
425.196	-35.47071
425.408	-60.75247
425.621	34.07236
425.833	19.31862
426.045	2.45862
426.257	12.99594
426.47	-8.0781
426.682	-27.04265
426.894	15.10348
427.106	50.93519
427.318	31.96461
427.531	-3.86348
427.743	65.69137
427.955	12.99594
428.167	40.39575
428.379	15.10348
428.591	-22.82848
428.804	12.99594
429.016	2.45862
429.228	-22.82848
429.44	-27.04265
429.652	40.39575
429.864	10.88843
430.076	57.25913
430.288	0.35123
430.5	48.82725
430.712	-50.21884
430.924	36.18013
431.136	15.10348
431.348	17.21104
431.56	-8.0781
431.772	27.74919
431.984	21.42623
432.196	23.53386
432.408	31.96461
432.62	141.59765
432.832	34.07236
433.044	-35.47071
433.256	-1.75614
433.468	76.23219
433.679	-33.36373
433.891	57.25913
434.103	40.39575
434.315	59.36716
434.527	12.99594
434.739	118.40105
434.95	25.64151
435.162	48.82725
435.374	-3.86348
435.586	48.82725
435.798	82.55695
436.009	-18.61421
436.221	95.20708
436.433	8.78094
436.645	21.42623
436.856	6.67348
437.068	-22.82848
437.28	2.45862
437.491	-71.28546
437.703	6.67348
437.915	44.61145
438.126	2.45862
438.338	-14.39983
438.55	15.10348
438.761	50.93519
438.973	-35.47071
439.184	59.36716
439.396	93.09867
439.608	-50.21884
439.819	-10.18537
440.031	65.69137
440.242	-8.0781
440.454	-31.25673
440.665	36.18013
440.877	29.85689
441.088	48.82725
441.3	40.39575
441.511	19.31862
441.723	69.90763
441.934	2.45862
442.146	-18.61421
442.357	25.64151
442.569	74.12398
442.78	6.67348
442.991	-130.25824
443.203	15.10348
443.414	2.45862
443.626	15.10348
443.837	34.07236
444.048	36.18013
444.26	-8.0781
444.471	86.77357
444.682	-5.9708
444.894	-1.75614
445.105	6.67348
445.316	84.66525
445.528	78.34042
445.739	57.25913
445.95	15.10348
446.161	10.88843
446.373	67.79949
446.584	84.66525
446.795	53.04315
447.006	-35.47071
447.217	19.31862
447.429	-10.18537
447.64	69.90763
447.851	23.53386
448.062	-35.47071
448.273	90.99028
448.484	15.10348
448.695	53.04315
448.907	12.99594
449.118	23.53386
449.329	-5.9708
449.54	-18.61421
449.751	-29.1497
449.962	50.93519
450.173	23.53386
450.384	67.79949
450.595	6.67348
450.806	0.35123
451.017	0.35123
451.228	27.74919
451.439	25.64151
451.65	-16.50703
451.861	0.35123
452.072	44.61145
452.283	10.88843
452.494	61.47521
452.705	4.56604
452.915	84.66525
453.126	-18.61421
453.337	0.35123
453.548	34.07236
453.759	-41.79148
453.97	-24.93558
454.181	80.44868
454.391	31.96461
454.602	19.31862
454.813	48.82725
455.024	86.77357
455.235	109.96657
455.445	2.45862
455.656	29.85689
455.867	17.21104
456.078	53.04315
456.288	-1.75614
456.499	42.50359
456.71	-22.82848
456.921	-22.82848
457.131	48.82725
457.342	-31.25673
457.553	57.25913
457.763	19.31862
457.974	8.78094
458.184	31.96461
458.395	40.39575
458.606	40.39575
458.816	36.18013
459.027	55.15113
459.237	-27.04265
459.448	31.96461
459.659	31.96461
459.869	31.96461
460.08	-10.18537
460.29	114.18377
460.501	29.85689
460.711	57.25913
460.922	128.94464
461.132	2.45862
461.343	8.78094
461.553	67.79949
461.764	23.53386
461.974	67.79949
462.184	95.20708
462.395	120.50972
462.605	99.42397
462.816	25.64151
463.026	84.66525
463.236	-5.9708
463.447	124.72714
463.657	67.79949
463.867	90.99028
464.078	40.39575
464.288	59.36716
464.498	63.58328
464.709	27.74919
464.919	48.82725
465.129	78.34042
465.339	40.39575
465.55	48.82725
465.76	120.50972
465.97	97.31551
466.18	97.31551
466.391	-16.50703
466.601	40.39575
466.811	101.53244
467.021	133.16222
467.231	82.55695
467.441	90.99028
467.651	99.42397
467.862	99.42397
468.072	2.45862
468.282	124.72714
468.492	84.66525
468.702	90.99028
468.912	133.16222
469.122	118.40105
469.332	160.57861
469.542	57.25913
469.752	128.94464
469.962	147.92445
470.172	103.64094
470.382	133.16222
470.592	150.03342
470.802	154.25143
471.012	158.46953
471.222	99.42397
471.432	185.88917
471.642	109.96657
471.852	103.64094
472.062	90.99028
472.272	185.88917
472.482	238.62888
472.691	133.16222
472.901	171.12431
473.111	135.27105
473.321	238.62888
473.531	141.59765
473.741	171.12431
473.95	240.73873
474.16	221.75083
474.37	215.42188
474.58	247.06838
474.79	240.73873
474.999	202.76452
475.209	259.7282
475.419	276.60902
475.628	280.82941
475.838	217.53151
476.048	310.37423
476.258	221.75083
476.467	280.82941
476.677	270.27857
476.886	221.75083
477.096	297.71172
477.306	430.69919
477.515	270.27857
477.725	217.53151
477.935	316.70572
478.144	329.36919
478.354	363.14154
478.563	352.58721
478.773	333.59049
478.982	346.25481
479.192	390.5848
479.401	312.48471
479.611	369.47435
479.82	500.38496
480.03	369.47435
480.239	464.48416
480.449	388.47368
480.658	483.48993
480.868	610.22455
481.077	513.05685
481.287	479.26632
481.496	529.9535
481.705	591.21126
481.915	599.66148
482.124	580.64877
482.333	574.31144
482.543	584.87373
482.752	707.41905
482.961	631.35163
483.171	766.59256
483.38	673.60945
483.589	836.34282
483.799	751.79841
484.008	923.01562
484.217	696.85324
484.426	836.34282
484.636	737.00477
484.845	868.05076
485.054	918.78737
485.263	961.07124
485.472	927.24391
485.682	969.52836
485.891	844.79808
486.1	876.50654
486.309	990.67163
486.518	1130.23204
486.727	935.70057
486.936	971.64266
487.146	1041.41807
487.355	1121.7732
487.564	1100.6264
487.773	1200.02006
487.982	1132.34677
488.191	1208.47949
488.4	1193.67552
488.609	1157.72378
488.818	1189.44585
489.027	1293.07638
489.236	1299.42131
489.445	1375.56166
489.654	1358.64142
489.863	1384.0218
490.072	1265.58192
490.281	1479.19899
490.49	1451.70332
490.698	1502.46452
490.907	1358.64142
491.116	1481.31404
491.325	1472.85384
491.534	1555.34036
491.743	1561.68542
491.952	1730.88001
492.16	1561.68542
492.369	1705.50191
492.578	1517.26981
492.787	1722.4207
492.996	1671.66375
493.204	1794.32299
493.413	1766.83146
493.622	1830.27237
493.831	1669.54884
494.039	2170.65229
494.248	1775.29046
494.457	2014.22534
494.665	1959.25546
494.874	2090.33002
495.083	1845.07468
495.291	1997.31199
495.5	2039.59457
495.709	2134.72004
495.917	1870.44952
496.126	1995.19779
496.335	2092.4439
496.543	2172.76588
496.752	2145.28859
496.96	2204.4687
497.169	2113.58235
497.377	2255.1892
497.586	2031.13827
497.794	2215.03589
498.003	2155.85694
498.211	2327.03423
498.42	2293.22616
498.628	2474.91422
498.837	2343.93734
499.045	2477.02641
499.254	2331.26007
499.462	2339.71162
499.671	2238.28293
499.879	2324.9213
500.087	2428.44319
500.296	2458.01627
500.504	2255.1892
500.713	2470.6898
500.921	2500.2598
501.129	2601.62558
501.338	2487.58721
501.546	2728.29321
501.754	2424.21829
501.962	2804.27126
502.171	2485.47507
502.379	2749.39997
502.587	2550.94607
502.795	2810.60197
503.004	2677.63164
503.212	2973.04647
503.42	2785.27839
503.628	2901.32828
503.837	2677.63164
504.045	2838.0336
504.253	2857.02335
504.461	3002.57249
504.669	2964.60993
504.877	2958.28236
505.085	2854.91343
505.294	3091.13254
505.502	2951.95466
505.71	3032.09554
505.918	2897.10903
506.126	3230.24168
506.334	2901.32828
506.542	3101.67357
506.75	3124.86243
506.958	3017.33439
507.166	2905.54746
507.374	3238.67024
507.582	2994.13679
507.79	3190.20239
507.998	3048.9645
508.206	3310.30213
508.414	3167.01903
508.622	3192.30987
508.83	3285.02253
509.037	3331.36659
509.245	3171.23433
509.453	3430.34618
509.661	3120.64642
509.869	3415.60701
510.077	3369.27824
510.285	3384.02014
510.492	3360.85392
510.7	3360.85392
510.908	3272.38181
511.116	3533.49573
511.324	3234.456
511.531	3445.08448
511.739	3411.39565
511.947	3381.9142
512.155	3525.07699
512.362	3476.6636
512.57	3522.97226
512.778	3617.66679
512.985	3377.70229
513.193	3605.04303
513.401	3645.01593
513.608	3607.14704
513.816	3691.29181
514.024	3642.91227
514.231	3577.68924
514.439	3752.27763
514.646	3586.10613
514.854	3790.1227
515.061	3550.33231
515.269	3863.69209
515.477	3657.63754
515.684	3748.07224
515.892	3615.56287
516.099	3764.89336
516.307	3729.14699
516.514	3825.85943
516.722	3907.82203
516.929	4077.95375
517.136	3781.71323
517.344	4134.63425
517.551	3775.40592
517.759	3985.55315
517.966	3899.41701
518.173	3991.85446
518.381	4042.25825
518.588	4014.95766
518.796	4046.45803
519.003	4214.38088
519.21	4038.05838
519.418	4128.33717
519.625	3899.41701
519.832	4126.2381
520.039	4029.65841
520.247	4365.39536
520.454	4094.74955
520.661	4239.55767
520.868	3991.85446
521.076	4344.4278
521.283	4254.24272
521.49	4547.72091
521.697	4277.3171
521.904	4377.97485
522.112	4329.74922
522.319	4589.61121
522.526	4327.65219
522.733	4442.95641
522.94	4403.13149
523.147	4478.58252
523.354	4428.28499
523.561	4631.4926
523.768	4380.07136
523.975	4514.20227
524.183	4421.99691
524.39	4671.27162
524.597	4637.77404
524.804	4771.72979
525.011	4648.24265
525.218	4685.92501
525.425	4742.43487
525.632	4880.5005
525.838	4740.34221
526.045	4790.5599
526.252	4409.42016
526.459	4771.72979
526.666	4704.76346
526.873	4865.86188
527.08	4696.39104
527.287	4807.29622
527.494	4574.95062
527.701	4809.38816
527.907	4614.74112
528.114	4962.03796
528.321	4782.19119
528.528	5041.45105
528.735	4780.09896
528.941	4997.56898
529.148	4874.22694
529.355	5045.62976
529.562	4949.49601
529.768	5235.663
529.975	4918.13751
530.182	5097.85586
530.388	4878.40933
530.595	5183.47526
530.802	4989.20934
531.008	5235.663
531.215	5152.15562
531.422	5317.04672
531.628	5173.03596
531.835	5221.0519
532.042	5135.44968
532.248	5417.16238
532.455	5202.26452
532.661	5356.6823
532.868	5281.57613
533.074	5463.03064
533.281	5490.12927
533.487	5515.13985
533.694	5241.92454
533.9	5415.07719
534.107	5423.41781
534.313	5533.89557
534.52	5531.81169
534.726	5485.96051
534.933	5473.45366
535.139	5631.81106
535.345	5475.5382
535.552	5581.81816
535.758	5731.75608
535.965	5798.35589
536.171	5604.73326
536.377	5792.11318
536.584	5575.5681
536.79	5898.21029
536.996	5862.85141
537.203	5721.34768
537.409	5660.9673
537.615	5858.69109
537.821	5883.65157
538.028	5850.37017
538.234	5683.87254
538.44	5914.8474
538.646	5806.67917
538.853	5806.67917
539.059	5875.33179
539.265	6093.60111
539.471	5815.00206
539.677	5848.28988
539.883	5777.54604
540.09	6182.9127
540.296	5948.1171
540.502	6243.12159
540.708	5931.48301
540.914	6433.99891
541.12	5970.98652
541.326	6373.85238
541.532	5981.38077
541.738	6268.02985
541.944	5975.14429
542.15	6375.92672
542.356	6218.20996
542.562	6284.63348
542.768	6214.05769
542.974	6263.87871
543.18	6307.46103
543.386	6655.75001
543.592	6402.89108
543.798	6330.28576
544.004	6375.92672
544.21	6394.59477
544.415	6182.9127
544.621	6475.46787
544.827	6307.46103
545.033	6552.16098
545.239	6512.78199
545.445	6757.21145
545.651	6581.17172
545.856	6881.37518
546.062	6550.08861
546.268	6465.1015
546.474	6554.23332
546.679	6562.52248
546.885	6508.63635
547.091	6523.14569
547.297	6238.96989
547.502	6655.75001
547.708	6485.83366
547.914	6566.66692
548.119	6603.9627
548.325	6643.32237
548.531	6263.87871
548.736	6833.78877
548.942	6699.24023
549.147	6831.71953
549.353	6844.13467
549.559	6757.21145
549.764	6438.14622
549.97	6902.06117
550.175	6647.46501
550.381	7152.18308
550.586	6794.46919
550.792	7050.93363
550.997	6868.96249
551.203	6817.23416
551.408	6862.75584
551.614	7174.90519
551.819	6808.95631
552.025	6945.49439
552.23	6947.56239
552.435	7135.65621
552.641	7044.73294
552.846	7112.92945
553.052	7102.59821
553.257	7224.47139
553.462	6947.56239
553.668	7061.26766
553.873	7100.53189
554.078	7214.14615
554.283	7040.59903
554.489	7205.88556
554.694	7172.83965
554.899	7391.66366
555.105	7265.76684
555.31	7300.86103
555.515	7245.12022
555.72	7307.05347
555.925	7257.50845
556.131	7496.85945
556.336	7195.55932
556.541	7472.11256
556.746	7323.56566
556.951	7397.85321
557.156	7412.29473
557.361	7457.67545
557.567	7373.09384
557.772	7492.73518
557.977	7288.47557
558.182	7449.42519
558.387	7470.05018
558.592	7612.304
558.797	7420.54655
559.002	7193.49401
559.207	7467.98778
559.412	7604.06019
559.617	7354.52225
559.822	7721.5025
560.027	7494.79733
560.232	7711.20329
560.437	7261.63769
560.642	7762.69408
560.847	7562.83599
561.051	7805.93622
561.256	7612.304
561.461	7500.98363
561.666	7465.92536
561.871	7740.03975
562.076	7604.06019
562.281	7886.21869
562.485	7612.304
562.69	7810.05404
562.895	7791.5232
563.1	7933.55002
563.305	7933.55002
563.509	7921.20377
563.714	7824.46575
563.919	7791.5232
564.123	7793.58226
564.328	7925.31927
564.533	7702.96355
564.737	7680.30251
564.942	7867.69477
565.147	8040.52004
565.351	8001.44123
565.556	7941.78045
565.761	8143.32414
565.965	7982.92766
566.17	7702.96355
566.374	7849.16916
566.579	7892.39296
566.784	7912.97252
566.988	7999.38425
567.193	8250.18739
567.397	7785.34587
567.602	8124.82312
567.806	7803.87728
568.011	8116.59991
568.215	7956.1829
568.42	8207.03754
568.624	8188.54207
568.828	8283.05763
569.033	8063.14127
569.237	8017.89636
569.442	8143.32414
569.646	8264.56874
569.85	8130.99031
570.055	8291.27441
570.259	8159.76814
570.463	8260.45988
570.668	8003.49819
570.872	8221.42179
571.076	8278.94913
571.281	8295.38268
571.485	8453.49189
571.689	8246.07826
571.893	8396.01091
572.098	8549.94414
572.302	8174.1556
572.506	8391.90455
572.71	8365.2113
572.914	8525.32202
573.119	8324.13837
573.323	8494.54054
573.527	8494.54054
573.731	8311.81497
573.935	8336.46107
574.139	8593.02631
574.343	8262.51432
574.547	8623.79422
574.751	8502.74935
574.955	8471.96473
575.159	8459.64968
575.364	8666.86224
575.568	8556.09924
575.772	8566.35737
575.976	8697.6201
576.18	8517.11404
576.383	8406.27648
576.587	8623.79422
576.791	8558.15091
576.995	8666.86224
577.199	8755.02369
577.403	8574.56354
577.607	8666.86224
577.811	8673.01414
578.015	8576.61503
578.219	8683.26695
578.422	8593.02631
578.626	8912.81003
578.83	8613.53871
579.034	8810.36356
579.238	8921.00381
579.442	8925.1006
579.645	8617.64097
579.849	8779.62083
580.053	8814.46229
580.257	8828.80725
580.46	8726.32369
580.664	8716.07282
580.868	9004.97375
581.071	8918.9554
581.275	8853.39655
581.479	8787.81929
581.682	8738.62413
581.886	8695.56971
582.09	8939.43879
582.293	9205.56377
582.497	9025.44974
582.7	9050.01861
582.904	9062.30211
583.107	9064.3493
583.311	8839.05311
583.515	9074.58499
583.718	8861.59241
583.922	9305.79749
584.125	8951.72797
584.329	8992.68732
584.532	8853.39655
584.735	9201.47174
584.939	9068.44363
585.142	9168.73306
585.346	9037.73449
585.549	9275.11796
585.753	9133.94344
585.956	9162.59408
586.159	9166.68675
586.363	9416.21298
586.566	9082.77322
586.769	9271.02708
586.973	9309.88781
587.176	9311.93294
587.379	9207.60976
587.582	9422.34578
587.786	9381.45771
587.989	9518.40727
588.192	9316.02316
588.395	9481.62196
588.599	9316.02316
588.802	9524.53765
589.005	9197.37965
589.208	9530.66789
589.411	9152.36209
589.615	9297.61665
589.818	9211.70169
590.021	9567.44633
590.224	9316.02316
590.427	9238.29758
590.63	9630.77502
590.833	9485.70947
591.036	9544.97123
591.239	9614.43357
591.442	9491.84062
591.645	9645.07296
591.848	9645.07296
592.051	9702.25717
592.254	9830.87788
592.457	9651.20042
592.66	9491.84062
592.863	9724.71909
593.066	9598.09112
593.269	9534.75464
593.472	9596.04825
593.675	9849.24739
593.878	9626.68975
594.081	9908.42987
594.284	9832.91899
594.486	9826.7956
594.689	9826.7956
594.892	9387.59134
595.095	9779.8451
595.298	9839.04225
595.5	9818.63086
595.703	9988.00068
595.906	10063.47066
596.109	9908.42987
596.311	9655.28532
596.514	9881.90133
596.717	9704.29924
596.92	10132.80435
597.122	9879.86057
597.325	10185.81333
597.528	9957.39914
597.73	10361.08508
597.933	9990.04067
598.136	10173.58132
598.338	9996.16055
598.541	10030.8374
598.743	10036.95641
598.946	10120.57017
599.148	9908.42987
599.351	10130.76535
599.554	10208.2374
599.756	10118.53109
599.959	10212.31433
600.161	10293.84141
600.363	10259.19505
600.566	10249.0042
600.768	10242.88953
600.971	10464.97893
601.173	10481.27295
601.376	10377.3844
601.578	10261.23318
601.78	10277.53773
601.983	10191.92915
602.185	10369.23485
602.388	10142.99911
602.59	10304.03078
602.792	10242.88953
602.995	10412.01767
603.197	10147.07692
603.399	10806.98582
603.601	10061.43119
603.804	10169.50387
604.006	10187.85195
604.208	10196.0063
604.41	10124.64828
604.613	10238.81301
604.815	10016.55919
605.017	10574.94776
605.219	10153.19353
605.421	10226.58314
605.623	10202.12191
605.826	10526.07729
606.028	10515.89503
606.23	10532.18649
606.432	10224.54478
606.634	10678.77375
606.836	10196.0063
607.038	10497.56615
607.24	10340.70974
607.442	10505.71244
607.644	10365.15999
607.846	10401.83181
608.048	10279.57573
608.25	10299.95507
608.452	10454.79475
608.654	10381.4591
608.856	10275.49971
609.058	10479.23624
609.26	10259.19505
609.462	10576.98388
609.664	10436.46242
609.866	10409.98053
610.067	10342.74733
610.269	10560.69462
610.471	10179.69739
610.673	10511.82203
610.875	10255.11875
611.077	10407.94337
611.278	10369.23485
611.48	10479.23624
611.682	10477.19952
611.884	10579.01998
612.085	10430.35141
612.287	10758.14871
612.489	10703.19876
612.69	10713.37534
612.892	10727.62204
613.094	10666.56058
613.295	10446.64718
613.497	10804.95108
613.699	10424.24028
613.9	10572.91164
614.102	10291.8035
614.304	10821.2287
614.505	10377.3844
614.707	10662.48943
614.908	10346.82248
615.11	10489.41965
615.311	10244.92777
615.513	10409.98053
615.714	10456.83161
615.916	10493.49293
616.117	10348.86003
616.319	10566.80319
616.52	10405.90619
616.722	10731.69242
616.923	10656.38261
617.124	10597.34432
617.326	10548.47716
617.527	10865.98832
617.729	10754.07864
617.93	10642.13294
618.131	10560.69462
618.333	10444.61025
618.534	10642.13294
618.735	10870.0571
618.937	10509.78551
619.138	10701.16341
619.339	10536.25924
619.54	10648.24001
619.742	10448.68409
619.943	10530.15011
620.144	10430.35141
620.345	10548.47716
620.546	10385.53375
620.748	10397.75737
620.949	10479.23624
621.15	10717.44588
621.351	10491.4563
621.552	10556.62218
621.753	10422.20321
621.954	10766.2887
622.155	10467.01573
622.356	10601.41626
622.558	10650.27568
622.759	10963.62638
622.96	10505.71244
623.161	10650.27568
623.362	10365.15999
623.563	10796.81198
623.764	10817.15936
623.965	10583.09214
624.166	10456.83161
624.366	10515.89503
624.567	10656.38261
624.768	10554.58595
624.969	10450.72099
625.17	10750.00853
625.371	10725.58683
625.572	10560.69462
625.773	10804.95108
625.973	10686.91561
626.174	10440.53636
626.375	10705.2341
626.576	10741.86815
626.777	11020.56992
626.977	10690.98647
627.178	10782.56811
627.379	10731.69242
627.58	10809.02055
627.78	11118.16736
627.981	10990.06554
628.182	10861.9195
628.382	10599.3803
628.583	10662.48943
628.784	10581.05607
628.984	10544.40457
629.185	11099.86975
629.386	10684.88016
629.586	11008.36847
629.787	10454.79475
629.987	10829.36723
630.188	10627.88266
630.388	10731.69242
630.589	10642.13294
630.79	10880.22884
630.99	10646.20433
631.191	10762.21873
631.391	10994.13293
631.591	10638.06149
631.792	10638.06149
631.992	11000.23394
632.193	10631.95423
632.393	10811.05527
632.594	10786.63785
632.794	10945.32123
632.994	10676.73825
633.195	10790.70754
633.395	10861.9195
633.595	10754.07864
633.796	10937.18532
633.996	11071.40505
634.196	10988.03182
634.397	11069.37178
634.597	10813.08998
634.797	11112.06826
634.997	10894.4688
635.198	11142.56284
635.398	11166.95677
635.598	11238.09711
635.798	10969.72789
635.998	10851.74723
636.199	10796.81198
636.399	11008.36847
636.599	10682.8447
636.799	10847.67825
636.999	10758.14871
637.199	10788.6727
637.399	10863.95391
637.599	10752.04359
637.799	10695.05728
637.999	11116.13434
638.199	10819.19404
638.399	11278.74303
638.599	10823.26335
638.799	10782.56811
638.999	10961.59252
639.199	11067.33849
639.399	10719.48114
639.599	11036.83791
639.799	10768.32367
639.999	10971.76171
640.199	10857.85063
640.399	10941.2533
640.599	10367.19742
640.799	11193.38182
640.998	10953.45697
641.198	11042.93822
641.398	10886.33175
641.598	11211.67505
641.798	11071.40505
641.997	11110.0352
642.197	10975.8293
642.397	11213.70758
642.597	10994.13293
642.796	11065.3052
642.996	11038.87136
643.196	11353.92725
643.395	10918.87886
643.595	11067.33849
643.795	11040.90479
643.994	11083.60447
644.194	11071.40505
644.394	11144.59572
644.593	10910.74235
644.793	11099.86975
644.992	11132.39824
645.192	11199.47966
645.392	11022.60346
645.591	11254.35597
645.791	11217.77261
645.99	11240.12951
646.19	11260.45288
646.389	11272.6464
646.589	11146.6286
646.788	11195.41445
646.987	11299.06445
647.187	11447.38054
647.386	11024.63698
647.586	11297.03236
647.785	11065.3052
647.984	11382.37176
648.184	11402.68808
648.383	11295.00025
648.582	11148.66146
648.782	11492.06832
648.981	11423.00342
649.18	11103.93596
649.38	11227.93499
649.579	11508.31727
649.778	11065.3052
649.977	11532.68957
650.177	11195.41445
650.376	11057.1719
650.575	11075.47157
650.774	11439.25499
650.973	11179.15317
651.173	11404.71966
651.372	11099.86975
651.571	11254.35597
651.77	11229.96743
651.969	11408.78279
652.168	11433.16072
652.367	11483.94361
652.566	11254.35597
652.765	11378.30838
652.964	11213.70758
653.163	11555.02965
653.362	11433.16072
653.561	11640.31784
653.76	11345.79989
653.959	11146.6286
654.158	11307.19274
654.357	11319.38486
654.556	11126.29936
654.755	11431.12928
654.954	11215.7401
655.153	11236.06471
655.352	11256.38828
655.551	11569.24548
655.749	11274.67862
655.948	11238.09711
656.147	11284.83956
656.346	11555.02965
656.545	11311.25682
656.743	11227.93499
656.942	11366.11799
657.141	11687.01648
657.34	11321.41685
657.538	11514.41048
657.737	11441.28639
657.936	11756.04063
658.135	11282.8074
658.333	11278.74303
658.532	11315.32086
658.731	11286.87172
658.929	10935.15132
659.128	11162.89122
659.326	11258.42058
659.525	11664.68294
659.724	11337.67237
659.922	11532.68957
660.121	11498.16175
660.319	11459.56858
660.518	11323.44883
660.716	11295.00025
660.915	11390.49841
661.113	11577.36861
661.312	11227.93499
661.51	11510.34835
661.709	11286.87172
661.907	11427.06637
662.105	11429.09783
662.304	11703.25837
662.502	11439.25499
662.701	11546.90612
662.899	11431.12928
663.097	11646.40924
663.296	11327.51275
663.494	11782.42954
663.692	11406.75123
663.891	11579.39937
664.089	11437.22358
664.287	11577.36861
664.485	11197.44706
664.684	11557.06051
664.882	11284.83956
665.08	11380.34008
665.278	11390.49841
665.476	11648.43969
665.675	11270.61417
665.873	11286.87172
666.071	11309.22479
666.269	11599.70644
666.467	11150.69432
666.665	11335.64047
666.863	11339.70427
667.061	11569.24548
667.259	11605.79838
667.457	11510.34835
667.655	11561.12221
667.853	11410.81433
668.051	11620.0126
668.249	11695.13749
668.447	11534.72053
668.645	11254.35597
668.843	11508.31727
669.041	11595.6451
669.239	11317.35287
669.437	11617.98202
669.635	11335.64047
669.833	11412.84587
670.031	11488.00599
670.229	11221.83759
670.426	11191.34919
670.624	11205.5774
670.822	11110.0352
671.02	11392.53004
671.218	11199.47966
671.415	11597.67577
671.613	11209.64251
671.811	11427.06637
672.009	11276.71083
672.206	11197.44706
672.404	11203.54483
672.602	11211.67505
672.799	11284.83956
672.997	11386.4351
673.195	11168.98953
673.392	11303.12862
673.59	11085.63766
673.788	11231.99987
673.985	11179.15317
674.183	11122.23338
674.38	10992.09924
674.578	11488.00599
674.775	11004.30123
674.973	11158.82563
675.17	11223.87007
675.368	11215.7401
675.565	11211.67505
675.763	11199.47966
675.96	10985.9981
676.158	11295.00025
676.355	10774.4285
676.553	11410.81433
676.75	11166.95677
676.947	11116.13434
677.145	11012.43566
677.342	11201.51225
677.539	11081.57126
677.737	11396.59329
677.934	11055.13855
678.131	11333.60855
678.329	11171.02228
678.526	11002.26759
678.723	11132.39824
678.92	11252.32365
679.118	11002.26759
679.315	10876.16018
679.512	10743.90326
679.709	10894.4688
679.906	10697.09267
680.104	11081.57126
680.301	10965.66023
680.498	11327.51275
680.695	11081.57126
680.892	11150.69432
681.089	11083.60447
681.286	11134.43118
681.483	10979.89685
681.68	10861.9195
681.877	10591.23632
682.075	10981.93061
682.272	10723.55161
682.469	11089.70403
682.665	10764.25372
682.862	10817.15936
683.059	10576.98388
683.256	10886.33175
683.453	10831.40184
683.65	10833.43643
683.847	10731.69242
684.044	10837.50558
684.241	10597.34432
684.438	10837.50558
684.635	10471.08929
684.831	10878.19452
685.028	10735.76275
685.225	10835.47101
685.422	10780.53323
685.619	10821.2287
685.815	10780.53323
686.012	10857.85063
686.209	10534.22287
686.405	10920.91295
686.602	11026.6705
686.799	10664.52501
686.996	10662.48943
687.192	10800.88155
687.389	10849.71275
687.586	10638.06149
687.782	10566.80319
687.979	10731.69242
688.175	10562.73082
688.372	10747.97345
688.568	10619.73938
688.765	10570.8755
688.962	10473.12604
689.158	10599.3803
689.355	10454.79475
689.551	10552.5497
689.748	10528.1137
689.944	10747.97345
690.14	10359.04761
690.337	10638.06149
690.533	10352.9351
690.73	10467.01573
690.926	10550.51343
691.123	10359.04761
691.319	10438.4994
691.515	10430.35141
691.712	10224.54478
691.908	10713.37534
692.104	10326.44621
692.301	10550.51343
692.497	10428.31438
692.693	10391.64562
692.889	10346.82248
693.086	10629.91845
693.282	10357.01012
693.478	10841.57468
693.674	10352.9351
693.87	10656.38261
694.067	10471.08929
694.263	10301.99293
694.459	10149.1158
694.655	10034.91675
694.851	10259.19505
695.047	10570.8755
695.243	10434.42543
695.439	10348.86003
695.635	9959.43935
695.831	10416.09193
696.027	10430.35141
696.224	10458.86846
696.42	10183.7747
696.615	10320.33307
696.811	10287.72763
697.007	10291.8035
697.203	10310.14424
697.399	10212.31433
697.595	10293.84141
697.791	10163.3876
697.987	10116.492
698.183	10253.08058
698.379	10246.96599
698.575	10083.86461
698.77	9977.80053
698.966	10281.61373
699.162	9975.76046
699.358	10004.32018
699.554	9773.72053
699.749	10012.47958
699.945	9749.22091
700.141	10073.66781
700.337	10083.86461
700.532	10393.68288
700.728	10161.34881
700.924	10542.36825
701.119	10167.46513
701.315	9941.07699
701.511	9802.30068
701.706	10350.89757
701.902	9883.94208
702.097	10038.99605
702.293	9961.47954
702.489	9883.94208
702.684	9710.42536
702.88	10038.99605
703.075	9775.76207
703.271	9798.21798
703.466	9900.26751
703.662	10094.06106
703.857	9681.83563
704.053	10202.12191
704.248	9934.95594
704.443	10083.86461
704.639	9851.28837
704.834	10334.59688
705.03	9932.91556
705.225	10189.89056
705.42	9702.25717
705.616	9875.77901
705.811	9716.55134
706.006	9785.96953
706.202	9875.77901
706.397	9994.1206
706.592	9669.58196
706.787	9924.7539
706.983	9759.42935
707.178	9902.30812
707.373	9808.42461
707.568	9975.76046
707.763	9745.13742
707.959	10116.492
708.154	9808.42461
708.349	9608.30527
708.544	9526.58108
708.739	9788.01097
708.934	9616.4763
709.129	9841.08331
709.324	9800.25933
709.519	10171.5426
709.714	9820.67207
709.909	9702.25717
710.104	9681.83563
710.299	9681.83563
710.494	9532.71127
710.689	9741.05388
710.884	9745.13742
711.079	10034.91675
711.274	9669.58196
711.469	9981.88064
711.664	9759.42935
711.859	9769.63741
712.054	9569.48943
712.249	9393.72481
712.443	9512.27674
712.638	9698.17298
712.833	9692.04659
713.028	9591.96245
713.223	9506.14607
713.417	9585.83363
713.612	9532.71127
713.807	9465.27126
714.002	9567.44633
714.196	9720.63525
714.391	9532.71127
714.586	9655.28532
714.78	9365.10065
714.975	9542.92794
715.17	9428.47843
715.364	9581.74767
715.559	9416.21298
715.754	9612.39082
715.948	9090.96118
716.143	9524.53765
716.337	9363.05595
716.532	9518.40727
716.726	9348.74254
716.921	9579.70467
717.115	9307.84265
717.31	9538.84132
717.504	9279.20878
717.699	9495.92797
717.893	9361.01122
718.088	9367.14534
718.282	9275.11796
718.476	9438.69918
718.671	8976.30443
718.865	9422.34578
719.059	9316.02316
719.254	9418.25726
719.448	9168.73306
719.642	9326.24842
719.837	9000.87835
720.031	9281.25417
720.225	9119.61686
720.419	9363.05595
720.614	9322.15837
720.808	9309.88781
721.002	8816.51162
721.196	9201.47174
721.39	8945.58346
721.585	9440.74329
721.779	9009.06909
721.973	9262.84511
722.167	9142.12968
722.361	9178.96437
722.555	8722.2234
722.749	9066.39647
722.943	9189.19525
723.137	8912.81003
723.331	8707.8718
723.525	8910.76154
723.719	8771.42207
723.913	9084.82024
724.107	8767.32258
724.301	9078.67914
724.495	8886.17827
724.689	8988.5917
724.883	8714.0226
725.077	8812.41294
725.271	8648.40552
725.465	8871.83683
725.659	8683.26695
725.853	9017.25955
726.046	8861.59241
726.24	9007.02143
726.434	8765.27281
726.628	9019.30713
726.822	8714.0226
727.015	9093.00813
727.209	8771.42207
727.403	8888.22697
727.596	8634.04925
727.79	8572.51202
727.984	8955.82422
728.177	9009.06909
728.371	8730.42391
728.565	8861.59241
728.758	8673.01414
728.952	8832.90565
729.146	8837.00397
729.339	8779.62083
729.533	8763.22302
729.726	9072.53788
729.92	9066.39647
730.113	9201.47174
730.307	8732.47399
730.5	8861.59241
730.694	8752.9738
730.887	9058.20768
731.081	8910.76154
731.274	8945.58346
731.468	8736.5741
731.661	9000.87835
731.854	8724.27356
732.048	8853.39655
732.241	8599.18022
732.435	8861.59241
732.628	8953.77611
732.821	8830.85646
733.014	8765.27281
733.208	8625.84526
733.401	8623.79422
733.594	8818.56094
733.788	8627.89629
733.981	8857.49452
734.174	8687.36794
734.367	8457.5971
734.56	8648.40552
734.754	8681.21642
734.947	8476.06959
735.14	8402.17031
735.333	8695.56971
735.526	8597.12894
735.719	8849.29852
735.912	8660.71016
736.105	8539.68525
736.298	8759.12339
736.491	8595.07763
736.684	8627.89629
736.877	8496.59277
737.07	8693.51929
737.263	8668.91289
737.456	8931.24564
737.649	8832.90565
737.842	8607.38519
738.035	8617.64097
738.228	8785.7697
738.421	8476.06959
738.614	8566.35737
738.807	8564.30578
739	8492.48829
739.192	8145.37971
739.385	8519.16607
739.578	8615.58985
739.771	8404.2234
739.964	8494.54054
740.156	8272.78622
740.349	8373.42496
740.542	8474.01717
740.735	8465.80729
740.927	8656.60869
741.12	8611.48756
741.313	8498.64498
741.505	8459.64968
741.698	8424.75328
741.891	8443.22854
742.083	8584.82082
742.276	8324.13837
742.468	8613.53871
742.661	8537.63342
742.854	8295.38268
743.046	8467.85979
743.239	8402.17031
743.431	8264.56874
743.624	8231.69567
743.816	8426.80617
744.009	8219.36696
744.201	8067.25395
744.393	8106.32046
744.586	8235.80508
744.778	8246.07826
744.971	8151.5463
745.163	8262.51432
745.355	8252.24193
745.548	8065.19762
745.74	7995.27022
745.932	8377.53167
746.125	8244.02366
746.317	8114.54406
746.509	8157.71271
746.702	8311.81497
746.894	8145.37971
747.086	8322.08452
747.278	8231.69567
747.471	8089.87229
747.663	8141.26855
747.855	7989.09903
748.047	8093.98445
748.239	8262.51432
748.431	8122.76734
748.623	8504.80151
748.815	7799.75933
749.008	8297.43678
749.2	8336.46107
749.392	8311.81497
749.584	7991.15612
749.776	8217.31211
749.968	7917.08819
750.16	8336.46107
750.352	8077.53532
750.544	8147.43526
750.736	7984.9848
750.928	8289.22024
751.12	8009.66896
751.311	8013.7827
751.503	8063.14127
751.695	8258.40542
751.887	8163.87895
752.079	8079.59153
752.271	7834.7592
752.463	8106.32046
752.654	7877.98604
752.846	8077.53532
753.038	7863.57811
753.23	8030.23685
753.421	7834.7592
753.613	7820.34822
753.805	7768.87209
753.997	7966.46975
754.188	7820.34822
754.38	7900.62503
754.572	7861.51975
754.763	7927.37699
754.955	7828.58319
755.146	8180.32135
755.338	7927.37699
755.53	7912.97252
755.721	7888.2768
755.913	7859.46137
756.104	7610.24308
756.296	7939.72287
756.487	7702.96355
756.679	7816.23061
756.87	7474.17492
757.062	7723.56228
757.253	7505.10772
757.445	7630.85134
757.636	7595.81603
757.827	7641.15468
758.019	7401.97947
758.21	7601.99918
758.401	7445.29993
758.593	7688.54318
758.784	7538.09736
758.975	7587.57154
759.167	7562.83599
759.358	7441.17458
759.549	7346.26764
759.74	7465.92536
759.932	7406.10564
760.123	7352.45863
760.314	7383.41063
760.505	7432.92363
760.696	7210.0159
760.888	7257.50845
761.079	7226.53637
761.27	7381.34731
761.461	7228.60133
761.652	7620.54748
761.843	7174.90519
762.034	7387.53719
762.225	7079.86752
762.416	7073.66777
762.607	7092.26641
762.798	7238.9258
762.989	7114.99563
763.18	7290.53987
763.371	6926.88137
763.562	7150.1173
763.753	6751.00111
763.944	6854.47999
764.135	6860.68691
764.326	7168.70852
764.517	7158.38028
764.708	7108.79702
764.899	6920.67663
765.089	7081.93405
765.28	6959.96991
765.471	7069.53449
765.662	6821.37295
765.853	6914.47168
766.043	6806.88679
766.234	7034.39801
766.425	6666.10574
766.615	6980.64731
766.806	7094.33282
766.997	6916.54002
767.187	6947.56239
767.378	6933.08591
767.569	6730.29847
767.759	6784.12056
767.95	6672.31891
768.141	6570.81126
768.331	6525.21836
768.522	6757.21145
768.712	6653.67879
768.903	6962.03775
769.093	6442.29344
769.284	6591.53161
769.474	6666.10574
769.665	6771.70145
769.855	6485.83366
770.046	6630.8939
770.236	6390.44648
770.426	6558.37795
770.617	6707.52293
770.807	6674.38992
770.998	6295.00999
771.188	6533.50882
771.378	6413.26094
771.569	6608.10622
771.759	6494.12587
771.949	6512.78199
772.139	6504.49061
772.33	6463.02816
772.52	6632.96537
772.71	6823.44231
772.9	6533.50882
773.09	6684.74462
773.281	6612.24964
773.471	6460.95479
773.661	6415.33484
773.851	6423.63021
774.041	6052.04603
774.231	6475.46787
774.421	6309.53613
774.611	6351.03305
774.802	6342.73441
774.992	6259.72747
775.182	6236.894
775.372	6280.48272
775.562	6182.9127
775.752	6324.06111
775.942	6091.52358
776.131	6191.21855
776.321	5952.27539
776.511	6172.52986
776.701	6095.67862
776.891	6253.50044
777.081	6033.34317
777.271	6218.20996
777.461	5827.4857
777.651	6122.68407
777.84	5952.27539
778.03	5973.06542
778.22	5875.33179
778.41	6110.22051
778.599	6130.99265
778.789	6058.27989
778.979	6079.0579
779.169	5985.5383
779.358	5987.61703
779.548	6390.44648
779.738	6091.52358
779.927	6143.4548
780.117	5948.1171
780.307	6039.57766
780.496	5790.03223
780.686	5975.14429
780.875	5663.04972
781.065	5821.24399
781.254	5544.31458
781.444	5925.24483
781.633	5973.06542
781.823	5977.22314
782.012	5850.37017
782.202	5877.41177
782.391	5681.79036
782.581	5762.97775
782.77	5542.23083
782.96	5731.75608
783.149	5513.05577
783.338	5708.85681
783.528	5592.23447
783.717	5752.57112
783.906	5602.65019
784.096	5694.28307
784.285	5485.96051
784.474	5362.93977
784.663	5417.16238
784.853	5538.06324
785.042	5385.88204
785.231	5502.63498
785.42	5383.7965
785.61	5475.5382
785.799	5164.6841
785.988	5392.13853
786.177	5256.53401
786.366	5394.22398
786.555	5266.96864
786.744	5200.17692
786.933	5164.6841
787.122	5365.02555
787.312	5427.58798
787.501	5519.30795
787.69	5097.85586
787.879	5415.07719
788.068	5210.6147
788.257	5298.26902
788.445	5060.25453
788.634	5679.70816
788.823	5227.31394
789.012	5502.63498
789.201	5218.96451
789.39	5448.43743
789.579	5335.82252
789.768	5223.13927
789.957	5127.09615
790.145	5202.26452
790.334	5145.89107
790.523	5294.09594
790.712	5208.52719
790.9	5160.50804
791.089	5252.35999
791.278	5419.24755
791.467	4955.76708
791.655	5373.36843
791.844	4968.30862
792.033	5022.6457
792.221	4970.3988
792.41	5310.78769
792.599	4855.40504
792.787	4901.41086
792.976	4930.68153
793.164	4924.40962
793.353	4962.03796
793.541	5264.88176
793.73	4907.68353
793.918	5033.09335
794.107	4905.59266
794.295	4943.22472
794.484	4704.76346
794.672	4788.46775
794.861	4851.22214
795.049	5058.16535
795.238	4863.77056
795.426	4947.4056
795.614	4830.30629
795.803	4997.56898
795.991	4882.59164
796.179	5064.43283
796.368	4788.46775
796.556	4803.11228
796.744	4635.68025
796.932	4888.86492
797.121	4683.83174
797.309	4704.76346
797.497	4740.34221
797.685	4715.22847
797.874	4612.64708
798.062	4924.40962
798.25	4595.89399
798.438	4736.15681
798.626	4530.9623
798.814	4608.45894
799.002	4583.32823
799.19	4656.61714
799.378	4491.15492
799.566	4738.24952
799.755	4476.48704
799.943	4621.02309
800.131	4694.29788
800.318	4813.57197
800.506	4539.34178
800.694	4547.72091
800.882	4373.78177
801.07	4654.52355
801.258	4589.61121
801.446	4731.97132
801.634	4493.25025
801.822	4489.05958
802.01	4520.48745
802.197	4660.80424
802.385	4401.03522
802.573	4589.61121
802.761	4331.84622
802.949	4512.10717
803.136	4507.9169
803.324	4543.53139
803.512	4442.95641
803.699	4671.27162
803.887	4468.10491
804.075	4746.62013
804.262	4432.47693
804.45	4725.69292
804.638	4453.43533
804.825	4916.04676
805.013	4507.9169
805.201	4803.11228
805.388	4411.51634
805.576	5003.83847
805.763	4782.19119
805.951	4763.36027
806.138	4581.23386
806.326	4771.72979
806.513	4411.51634
806.701	4677.55178
806.888	4463.91371
807.075	4685.92501
807.263	4503.72654
807.45	4480.67798
807.638	4486.96421
807.825	4656.61714
808.012	4654.52355
808.2	4788.46775
808.387	4421.99691
808.574	4587.51691
808.761	4654.52355
808.949	4512.10717
809.136	4415.70863
809.323	4514.20227
809.51	4361.20202
809.698	4319.26387
809.885	4153.52436
810.072	4434.57287
810.259	4302.4862
810.446	4708.94953
810.633	4413.6125
810.82	4595.89399
811.008	4731.97132
811.195	4631.4926
811.382	4373.78177
811.569	4702.67039
811.756	4564.4781
811.943	4675.45842
812.13	4572.85616
812.317	4713.13552
812.504	4572.85616
812.691	4654.52355
812.878	4461.81808
813.064	4909.77437
813.251	4480.67798
813.438	4863.77056
813.625	4564.4781
813.812	4669.17819
813.999	4484.86882
814.186	4692.2047
814.372	4512.10717
814.559	4754.99038
814.746	4612.64708
814.933	4394.74629
815.12	4524.67745
815.306	4639.8678
815.493	4484.86882
815.68	4415.70863
815.866	4277.3171
816.053	4547.72091
816.24	4203.88964
816.426	4514.20227
816.613	4377.97485
816.799	4486.96421
816.986	4212.28267
817.173	4415.70863
817.359	4226.96966
817.546	4516.29735
817.732	4459.72243
817.919	4524.67745
818.105	4520.48745
818.292	4226.96966
818.478	4455.53105
818.665	4593.79975
818.851	4117.84161
819.037	4369.58861
819.224	4187.10257
819.41	4407.32396
819.597	4195.49627
819.783	4382.16784
819.969	4172.41277
820.156	4304.58348
820.342	4237.45972
820.528	4432.47693
820.714	4354.91185
820.901	4365.39536
821.087	4285.70714
821.273	4172.41277
821.459	4092.65015
821.646	4268.92671
821.832	4218.57722
822.018	4394.74629
822.204	3882.606
822.39	4302.4862
822.576	4195.49627
822.762	4323.45808
822.948	4155.62315
823.134	4495.34555
823.32	4092.65015
823.507	4514.20227
823.693	4168.21549
823.879	4455.53105
824.065	4128.33717
824.25	4210.18445
824.436	4023.35821
824.622	4224.87158
824.808	4428.28499
824.994	4109.44479
825.18	4038.05838
825.366	4271.02434
825.552	3891.01166
825.738	4052.75754
825.923	3848.98015
826.109	4086.35182
826.295	3811.14499
826.481	4014.95766
826.667	3863.69209
826.852	4025.4583
827.038	3800.63409
827.224	4044.35815
827.409	3901.51829
827.595	3960.3461
827.781	3972.94999
827.966	4008.65703
828.152	3914.12558
828.338	4201.79133
828.523	3895.21437
828.709	4157.72193
828.894	3764.89336
829.08	4046.45803
829.266	3638.70488
829.451	3907.82203
829.637	3790.1227
829.822	3912.02442
830.008	3756.48295
830.193	3951.9431
830.378	3832.16531
830.564	4023.35821
830.749	3706.01401
830.935	3863.69209
831.12	3577.68924
831.305	3809.04285
831.491	3352.42931
831.676	3720.73527
831.861	3497.71408
832.047	3748.07224
832.232	3522.97226
832.417	3760.68819
832.602	3331.36659
832.788	3581.89772
832.973	3470.3481
833.158	3367.17219
833.343	3407.18423
833.528	3529.2864
833.714	3337.68559
833.899	3613.45894
834.084	3327.15383
834.269	3459.82191
834.454	3373.4903
834.639	3626.08225
834.824	3655.53399
835.009	3647.11958
835.194	3575.58498
835.379	3708.1171
835.564	3466.13768
835.749	3695.49825
835.934	3369.27824
836.119	3584.00194
836.304	3259.74048
836.489	3569.27206
836.674	3285.02253
836.859	3541.91417
837.044	3217.59834
837.228	3379.80825
837.413	3105.88987
837.598	3409.28995
837.783	2951.95466
837.968	3394.54954
838.152	3141.72584
838.337	3314.51516
838.522	3118.53839
838.707	3504.02888
838.891	3204.9544
839.076	3196.52478
839.261	2975.15557
839.445	3181.7723
839.63	3120.64642
839.815	3379.80825
839.999	3091.13254
840.184	3232.34885
840.368	3167.01903
840.553	3230.24168
840.737	3038.42151
840.922	3209.16911
841.106	3008.89911
841.291	3183.87985
841.475	3086.91602
841.66	3318.72812
841.844	3173.34196
842.029	3270.27496
842.213	3097.4572
842.397	3082.69943
842.582	2956.17314
842.766	3124.86243
842.951	2935.08014
843.135	3158.58822
843.319	2916.09518
843.504	3000.46359
843.688	2932.97076
843.872	2956.17314
844.056	3036.31287
844.241	3036.31287
844.425	2977.26466
844.609	2981.48278
844.793	2745.17872
844.977	2998.35467
845.161	2823.26301
845.346	2947.73612
845.53	2806.38151
845.714	2897.10903
845.898	2584.73317
846.082	2795.83012
846.266	2791.60947
846.45	2888.67037
846.634	2637.51934
846.818	2730.40394
847.002	2671.29842
847.186	2743.06808
847.37	2635.40804
847.554	2768.39491
847.738	2576.28668
847.922	2956.17314
848.106	2563.61659
848.29	2664.96509
848.473	2561.50486
848.657	2660.74281
848.841	2519.26793
849.025	2821.15287
849.209	2635.40804
849.392	2873.90216
849.576	2538.27512
849.76	2669.18733
849.944	2445.34235
850.127	2493.92356
850.311	2291.11307
850.495	2426.33075
850.678	2394.64283
850.862	2557.28138
851.046	2411.54335
851.229	2584.73317
851.413	2485.47507
851.596	2548.83427
851.78	2434.78046
851.964	2700.85245
852.147	2354.50146
852.331	2384.07967
852.514	2090.33002
852.698	2510.81999
852.881	2223.48948
853.065	2500.2598
853.248	2094.55778
853.431	2559.39313
853.615	2001.54037
853.798	2246.73613
853.982	2255.1892
854.165	2377.74165
854.348	2322.80836
854.532	2462.24082
854.715	2217.1493
854.898	2381.96701
855.081	2037.48051
855.265	2441.11763
855.448	2335.48587
855.631	2259.41567
855.814	2081.8744
855.997	2278.43436
856.181	2128.37881
856.364	2202.35524
856.547	2111.46854
856.73	2231.94293
856.913	2130.49256
857.096	2288.99998
857.279	1948.68385
857.462	2204.4687
857.645	1933.88335
857.828	2136.83376
858.011	2126.26506
858.194	2119.92374
858.377	2018.45361
858.56	2119.92374
858.743	2094.55778
858.926	2103.01322
859.109	2022.68186
859.292	2024.79597
859.475	2026.91008
859.658	2138.94748
859.841	1946.56951
860.023	2067.07678
860.206	1893.70915
860.389	1959.25546
860.572	1876.79312
860.755	2037.48051
860.937	1870.44952
861.12	1948.68385
861.303	1724.53553
861.486	1963.48406
861.668	1779.51994
861.851	1885.25118
862.034	1819.69916
862.216	1950.79818
862.399	1730.88001
862.581	1893.70915
862.764	1548.9953
862.947	1891.59467
863.129	1735.10965
863.312	1823.92846
863.494	1603.98543
863.677	1897.93811
863.859	1730.88001
864.042	1836.61625
864.224	1616.67529
864.406	1747.79847
864.589	1555.34036
864.771	1699.15732
864.954	1587.0655
865.136	1671.66375
865.318	1578.6055
865.501	1790.09357
865.683	1426.3227
865.865	1703.38705
866.048	1434.7829
866.23	1339.60625
866.412	1513.03973
866.594	1595.52548
866.777	1570.14547
866.959	1561.68542
867.141	1398.82708
867.323	1809.12583
867.505	1458.04848
867.687	1587.0655
867.869	1470.73879
868.052	1627.25012
868.234	1477.08394
868.416	1625.13515
868.598	1690.69781
868.78	1635.70994
868.962	1477.08394
869.144	1494.00433
869.326	1322.68619
869.508	1603.98543
869.69	1472.85384
869.872	1591.29549
870.054	1502.46452
870.236	1559.5704
870.417	1445.35816
870.599	1555.34036
870.781	1364.9865
870.963	1506.69461
871.145	1548.9953
871.327	1532.07507
871.508	1216.93897
871.69	1470.73879
871.872	1316.3412
872.054	1445.35816
872.235	1360.75644
872.417	1360.75644
872.599	1227.51339
872.78	1553.22534
872.962	1265.58192
873.144	1445.35816
873.325	1164.06812
873.507	1434.7829
873.689	1250.77739
873.87	1532.07507
874.052	1223.28361
874.233	1326.9162
874.415	1405.17222
874.596	1411.51736
874.778	1202.13491
874.959	1424.20765
875.141	1286.73147
875.322	1350.18133
875.503	1337.49123
875.685	1498.23443
875.866	1274.04171
876.048	1510.92469
876.229	1290.96141
876.41	1369.21656
876.592	1231.74319
876.773	1371.33159
876.954	1246.54755
877.136	1424.20765
877.317	1288.84644
877.498	1409.40231
877.679	1354.41137
877.86	1392.48196
878.042	1299.42131
878.223	1458.04848
878.404	1305.76625
878.585	1439.01301
878.766	1115.42911
878.947	1428.43775
879.128	1392.48196
879.309	1364.9865
879.49	1071.02172
879.672	1381.90676
879.853	1267.69687
880.034	1356.52639
880.215	1242.31771
880.396	1303.65127
880.576	1212.70922
880.757	1305.76625
880.938	1157.72378
881.119	1529.96003
881.3	1331.14621
881.481	1415.74745
881.662	1252.89232
881.843	1417.8625
882.023	1373.44662
882.204	1276.15667
882.385	1202.13491
882.566	1341.72126
882.747	1248.66247
882.927	1568.03046
883.108	1269.81181
883.289	1426.3227
883.469	1166.18291
883.65	1244.43263
883.831	1278.27162
884.011	1415.74745
884.192	1449.58827
884.373	1320.5712
884.553	1282.50154
884.734	1316.3412
884.914	1312.11122
885.095	1377.67669
885.275	1071.02172
885.456	1373.44662
885.636	1166.18291
885.817	1333.26121
885.997	1242.31771
886.178	1362.87147
886.358	1054.10521
886.538	1259.23711
886.719	1079.4801
886.899	1394.597
887.08	1235.97299
887.26	1481.31404
887.44	1185.21619
887.621	1447.47322
887.801	1189.44585
887.981	1388.25188
888.161	1223.28361
888.342	1513.03973
888.522	1443.24311
888.702	1559.5704
888.882	1267.69687
889.062	1367.10153
889.242	1324.8012
889.423	1356.52639
889.603	1238.08789
889.783	1443.24311
889.963	1231.74319
890.143	1297.30633
890.323	1155.609
890.503	1394.597
890.683	1261.35204
890.863	1265.58192
891.043	1115.42911
891.223	1392.48196
891.403	1293.07638
891.583	1271.92676
891.763	1009.70113
891.943	1252.89232
892.122	1153.49423
892.302	1295.19135
892.482	1282.50154
892.662	1185.21619
892.842	1250.77739
893.022	1174.64211
893.201	1180.98655
893.381	1314.22621
893.561	1214.82409
893.741	1443.24311
893.92	1183.10137
894.1	1269.81181
894.28	1248.66247
894.459	1341.72126
894.639	1183.10137
894.819	1381.90676
894.998	1151.37947
895.178	1307.88124
895.357	1049.87614
895.537	1212.70922
895.716	1206.36463
895.896	1235.97299
896.075	1073.1363
896.255	1219.05385
896.434	1252.89232
896.614	1335.37622
896.793	1147.14995
896.973	1274.04171
897.152	1123.8879
897.331	1187.33102
897.511	1060.44886
897.69	1011.81555
897.87	1098.51175
898.049	982.21424
898.228	944.15735
898.407	1138.69096
898.587	973.75696
898.766	1115.42911
898.945	1037.18907
899.124	1045.6471
899.304	1028.73113
899.483	1130.23204
899.662	1062.56342
899.841	1115.42911
900.02	882.84846
900.199	1087.93856
900.378	849.02576
900.557	1051.99068
900.737	931.47222
900.916	980.09991
901.095	967.41407
901.274	990.67163
901.453	766.59256
901.632	977.98559
901.811	781.38719
901.989	785.61432
902.168	781.38719
902.347	783.50075
902.526	743.34484
902.705	832.11524
902.884	743.34484
903.063	863.82293
903.242	751.79841
903.42	891.30447
903.599	652.47994
903.778	813.09159
903.957	665.1575
904.135	707.41905
904.314	756.02526
904.493	802.52322
904.672	766.59256
904.85	770.81955
905.029	728.55149
905.207	698.96638
905.386	572.19902
905.565	715.8719
905.743	563.74948
905.922	684.17464
906.1	580.64877
906.279	650.36706
906.457	540.51437
906.636	644.02847
906.814	513.05685
906.993	593.3238
907.171	468.70756
907.35	633.46441
907.528	508.83283
907.707	548.96331
907.885	521.50506
908.063	506.72084
908.242	470.81928
908.42	496.16112
908.598	466.59585
908.777	582.76124
908.955	542.62658
909.133	538.40216
909.311	466.59585
909.49	432.81063
909.668	504.60887
909.846	458.14918
910.024	399.02945
910.202	605.99929
910.38	453.92593
910.559	475.04277
910.737	453.92593
910.915	580.64877
911.093	491.93733
911.271	546.85105
911.449	491.93733
911.627	551.07558
911.805	513.05685
911.983	572.19902
912.161	466.59585
912.339	532.06565
912.517	496.16112
912.695	663.04455
912.872	513.05685
913.05	498.27303
913.228	420.14221
913.406	502.49691
913.584	559.52479
913.762	470.81928
913.939	525.72925
914.117	637.69
914.295	470.81928
914.473	563.74948
914.65	449.70275
914.828	496.16112
915.006	428.58776
915.184	563.74948
915.361	428.58776
915.539	506.72084
915.716	365.25246
915.894	523.61715
916.072	498.27303
916.249	453.92593
916.427	491.93733
916.604	479.26632
916.782	437.03357
916.959	513.05685
917.137	411.69691
917.314	523.61715
917.492	424.36495
917.669	447.59118
917.847	369.47435
918.024	563.74948
918.201	365.25246
918.379	451.81433
918.556	403.25187
918.733	388.47368
918.911	367.3634
919.088	496.16112
919.265	327.25857
919.442	462.37249
919.62	323.03738
919.797	439.14506
919.974	335.70117
920.151	333.59049
920.328	384.25149
920.506	348.36559
920.683	354.69804
920.86	373.69631
921.037	432.81063
921.214	306.15332
921.391	350.47639
921.568	388.47368
921.745	380.02937
921.922	407.47436
922.099	276.60902
922.276	327.25857
922.453	306.15332
922.63	392.69594
922.807	356.80889
922.984	415.91952
923.161	270.27857
923.338	411.69691
923.514	242.84859
923.691	344.14405
923.868	251.28824
924.045	356.80889
924.222	263.94829
924.399	314.5952
924.575	333.59049
924.752	352.58721
924.929	192.21728
925.105	346.25481
925.282	251.28824
925.459	323.03738
925.635	247.06838
925.812	268.16846
925.989	236.51906
926.165	274.49885
926.342	177.45199
926.518	230.1897
926.695	259.7282
926.871	181.67054
927.048	251.28824
927.224	276.60902
927.401	183.77985
927.577	209.09311
927.754	196.43612
927.93	329.36919
928.107	247.06838
928.283	263.94829
928.459	209.09311
928.636	287.16014
928.812	200.65503
928.988	289.27042
929.165	192.21728
929.341	200.65503
929.517	236.51906
929.693	160.57861
929.87	202.76452
930.046	156.36047
930.222	213.31227
930.398	247.06838
930.574	236.51906
930.751	190.10789
930.927	247.06838
931.103	194.32669
931.279	133.16222
931.455	175.34274
931.631	209.09311
931.807	179.56125
931.983	99.42397
932.159	225.97022
932.335	194.32669
932.511	187.99852
932.687	156.36047
932.863	160.57861
933.039	209.09311
933.215	217.53151
933.391	133.16222
933.566	139.48876
933.742	152.14241
933.918	76.23219
934.094	221.75083
934.27	154.25143
934.445	154.25143
934.621	152.14241
934.797	194.32669
934.973	103.64094
935.148	93.09867
935.324	122.61842
935.5	185.88917
935.675	84.66525
935.851	141.59765
936.027	141.59765
936.202	57.25913
936.378	133.16222
936.553	88.88192
936.729	99.42397
936.904	86.77357
937.08	82.55695
937.255	27.74919
937.431	101.53244
937.606	42.50359
937.782	65.69137
937.957	65.69137
938.133	97.31551
938.308	38.28793
938.483	25.64151
938.659	36.18013
938.834	-14.39983
939.009	107.85801
939.185	-1.75614
939.36	48.82725
939.535	40.39575
939.71	23.53386
939.886	76.23219
940.061	44.61145
940.236	15.10348
940.411	23.53386
940.586	46.71934
940.761	48.82725
940.937	29.85689
941.112	-69.17891
941.287	40.39575
941.462	-24.93558
941.637	135.27105
941.812	44.61145
941.987	44.61145
942.162	65.69137
942.337	2.45862
942.512	-31.25673
942.687	74.12398
942.862	19.31862
943.037	86.77357
943.212	-16.50703
943.386	29.85689
943.561	31.96461
943.736	-8.0781
943.911	-75.49848
944.086	72.0158
944.26	12.99594
944.435	38.28793
944.61	10.88843
944.785	48.82725
944.959	46.71934
945.134	95.20708
945.309	42.50359
945.483	25.64151
945.658	-24.93558
945.833	55.15113
946.007	-16.50703
946.182	-18.61421
946.357	90.99028
946.531	34.07236
946.706	23.53386
946.88	40.39575
947.055	34.07236
947.229	-18.61421
947.404	48.82725
947.578	42.50359
947.752	99.42397
947.927	25.64151
948.101	67.79949
948.276	23.53386
948.45	40.39575
948.624	4.56604
948.799	74.12398
948.973	-18.61421
949.147	50.93519
949.321	34.07236
949.496	63.58328
949.67	34.07236
949.844	34.07236
950.018	6.67348
950.193	107.85801
950.367	-1.75614
950.541	6.67348
950.715	-24.93558
950.889	90.99028
951.063	44.61145
951.237	15.10348
951.411	40.39575
951.585	53.04315
951.759	-35.47071
951.933	-5.9708
952.107	23.53386
952.281	84.66525
952.455	44.61145
952.629	90.99028
952.803	12.99594
952.977	29.85689
953.151	40.39575
953.325	48.82725
953.499	31.96461
953.672	19.31862
953.846	67.79949
954.02	53.04315
954.194	97.31551
954.368	53.04315
954.541	-31.25673
954.715	34.07236
954.889	-1.75614
955.062	6.67348
955.236	-27.04265
955.41	-24.93558
955.583	69.90763
955.757	25.64151
955.93	-10.18537
956.104	17.21104
956.278	10.88843
956.451	61.47521
956.625	-1.75614
956.798	97.31551
956.972	6.67348
957.145	69.90763
957.319	63.58328
957.492	44.61145
957.665	10.88843
957.839	36.18013
958.012	6.67348
958.185	23.53386
958.359	-5.9708
958.532	107.85801
958.705	90.99028
958.879	8.78094
959.052	-60.75247
959.225	-69.17891
959.398	63.58328
959.572	65.69137
959.745	40.39575
959.918	27.74919
960.091	-8.0781
960.264	67.79949
960.438	27.74919
960.611	150.03342
960.784	88.88192
960.957	65.69137
961.13	17.21104
961.303	69.90763
961.476	-27.04265
961.649	48.82725
961.822	67.79949
961.995	21.42623
962.168	27.74919
962.341	74.12398
962.514	76.23219
962.686	122.61842
962.859	31.96461
963.032	74.12398
963.205	15.10348
963.378	23.53386
963.551	74.12398
963.723	55.15113
963.896	-18.61421
964.069	65.69137
964.242	107.85801
964.414	61.47521
964.587	-41.79148
964.76	31.96461
964.932	15.10348
965.105	-69.17891
965.278	57.25913
965.45	-16.50703
965.623	40.39575
965.795	44.61145
965.968	84.66525
966.14	29.85689
966.313	36.18013
966.485	10.88843
966.658	31.96461
966.83	40.39575
967.003	-3.86348
967.175	40.39575
967.348	65.69137
967.52	12.99594
967.692	25.64151
967.865	-16.50703
968.037	135.27105
968.209	31.96461
968.382	-64.96574
968.554	84.66525
968.726	53.04315
968.898	69.90763
969.071	103.64094
969.243	48.82725
969.415	10.88843
969.587	-27.04265
969.759	19.31862
969.932	25.64151
970.104	29.85689
970.276	-52.32561
970.448	-14.39983
970.62	-5.9708
970.792	6.67348
970.964	17.21104
971.136	6.67348
971.308	-35.47071
971.48	29.85689
971.652	50.93519
971.824	-3.86348
971.996	31.96461
972.168	59.36716
972.339	67.79949
972.511	42.50359
972.683	-14.39983
972.855	-3.86348
973.027	-27.04265
973.199	65.69137
973.37	-56.53909
973.542	34.07236
973.714	69.90763
973.886	67.79949
974.057	65.69137
974.229	27.74919
974.401	15.10348
974.572	17.21104
974.744	44.61145
974.915	72.0158
975.087	8.78094
975.259	53.04315
975.43	-5.9708
975.602	23.53386
975.773	69.90763
975.945	23.53386
976.116	36.18013
976.288	6.67348
976.459	67.79949
976.63	-67.07234
976.802	82.55695
976.973	42.50359
977.145	-18.61421
977.316	-39.68458
977.487	34.07236
977.659	-31.25673
977.83	-52.32561
978.001	50.93519
978.172	29.85689
978.344	90.99028
978.515	27.74919
978.686	50.93519
978.857	-27.04265
979.028	31.96461
979.2	-16.50703
979.371	63.58328
979.542	59.36716
979.713	50.93519
979.884	-50.21884
980.055	69.90763
980.226	17.21104
980.397	61.47521
980.568	-8.0781
980.739	67.79949
980.91	-18.61421
981.081	-14.39983
981.252	59.36716
981.423	0.35123
981.594	-29.1497
981.765	48.82725
981.936	-8.0781
982.106	53.04315
982.277	65.69137
982.448	-1.75614
982.619	17.21104
982.79	-35.47071
982.96	0.35123
983.131	-16.50703
983.302	25.64151
983.472	34.07236
983.643	46.71934
983.814	19.31862
983.984	29.85689
984.155	-64.96574
984.326	-10.18537
984.496	27.74919
984.667	78.34042
984.837	8.78094
985.008	4.56604
985.178	6.67348
985.349	10.88843
985.519	0.35123
985.69	12.99594
985.86	55.15113
986.031	8.78094
986.201	-24.93558
986.371	-16.50703
986.542	82.55695
986.712	40.39575
986.882	-69.17891
987.053	55.15113
987.223	-24.93558
987.393	-18.61421
987.563	6.67348
987.734	48.82725
987.904	-10.18537
988.074	10.88843
988.244	0.35123
988.414	6.67348
988.585	-8.0781
988.755	10.88843
988.925	2.45862
989.095	8.78094
989.265	76.23219
989.435	109.96657
989.605	-1.75614
989.775	21.42623
989.945	8.78094
990.115	2.45862
990.285	2.45862
990.455	25.64151
990.625	-39.68458
990.795	8.78094
990.965	21.42623
991.134	31.96461
991.304	19.31862
991.474	72.0158
991.644	38.28793
991.814	57.25913
991.984	46.71934
992.153	-16.50703
992.323	-58.64579
992.493	23.53386
992.662	10.88843
992.832	-1.75614
993.002	-3.86348
993.171	8.78094
993.341	-58.64579
993.511	-18.61421
993.68	-24.93558
993.85	21.42623
994.019	6.67348
994.189	44.61145
994.358	19.31862
994.528	17.21104
994.697	40.39575
994.867	8.78094
995.036	38.28793
995.206	61.47521
995.375	-12.29261
995.544	25.64151
995.714	-35.47071
995.883	27.74919
996.052	57.25913
996.222	-10.18537
996.391	-67.07234
996.56	-27.04265
996.73	50.93519
996.899	-10.18537
997.068	-5.9708
997.237	-5.9708
997.406	38.28793
997.576	0.35123
997.745	-1.75614
997.914	23.53386
998.083	-54.43236
998.252	40.39575
998.421	23.53386
998.59	65.69137
998.759	48.82725
998.928	8.78094
999.097	57.25913
999.266	48.82725
999.435	-39.68458
999.604	31.96461
999.773	-35.47071
999.942	-60.75247
1000.111	23.53386
1000.28	-5.9708
1000.448	-52.32561
1000.617	6.67348
1000.786	-8.0781
1000.955	40.39575
1001.124	-22.82848
1001.292	0.35123
1001.461	-75.49848
1001.63	48.82725
1001.798	15.10348
1001.967	-14.39983
1002.136	61.47521
1002.304	0.35123
1002.473	57.25913
1002.642	40.39575
1002.81	-20.72135
1002.979	-37.57766
1003.147	-5.9708
1003.316	23.53386
1003.484	-77.60495
1003.653	-27.04265
1003.821	36.18013
1003.99	6.67348
1004.158	-31.25673
1004.327	-5.9708
1004.495	-41.79148
1004.663	67.79949
1004.832	40.39575
1005	-35.47071
1005.168	8.78094
1005.337	-35.47071
1005.505	69.90763
1005.673	-27.04265
1005.842	59.36716
1006.01	44.61145
1006.178	-14.39983
1006.346	-52.32561
1006.514	-69.17891
1006.683	-14.39983
1006.851	50.93519
1007.019	82.55695
1007.187	-5.9708
1007.355	-5.9708
1007.523	44.61145
1007.691	-43.89836
1007.859	-10.18537
1008.027	21.42623
1008.195	6.67348
1008.363	23.53386
1008.531	27.74919
1008.699	0.35123
1008.867	8.78094
1009.035	36.18013
1009.203	48.82725
1009.37	4.56604
1009.538	36.18013
1009.706	-90.24323
1009.874	53.04315
1010.042	15.10348
1010.209	-52.32561
1010.377	-27.04265
1010.545	-31.25673
1010.713	31.96461
1010.88	-41.79148
1011.048	2.45862
1011.216	-1.75614
1011.383	57.25913
1011.551	15.10348
1011.718	40.39575
1011.886	38.28793
1012.054	-10.18537
1012.221	27.74919
1012.389	29.85689
1012.556	-46.00521
1012.724	-16.50703
1012.891	6.67348
1013.058	15.10348
1013.226	-56.53909
1013.393	67.79949
1013.561	0.35123
1013.728	-33.36373
1013.895	63.58328
1014.063	-31.25673
1014.23	15.10348
1014.397	-31.25673
1014.565	8.78094
1014.732	-1.75614
1014.899	-31.25673
1015.066	17.21104
1015.233	6.67348
1015.401	-24.93558
1015.568	-14.39983
1015.735	-35.47071
1015.902	65.69137
1016.069	-39.68458
1016.236	29.85689
1016.403	-16.50703
1016.57	-27.04265
1016.737	10.88843
1016.904	-16.50703
1017.071	27.74919
1017.238	15.10348
1017.405	-1.75614
1017.572	6.67348
1017.739	76.23219
1017.906	-35.47071
1018.073	23.53386
1018.24	25.64151
1018.407	-50.21884
1018.573	-5.9708
1018.74	-75.49848
1018.907	-8.0781
1019.074	-22.82848
1019.241	48.82725
1019.407	-50.21884
1019.574	0.35123
1019.741	31.96461
1019.907	23.53386
1020.074	17.21104
1020.241	-14.39983
1020.407	31.96461
1020.574	-27.04265
1020.74	-8.0781
1020.907	-5.9708
1021.073	44.61145
1021.24	27.74919
1021.406	74.12398
1021.573	6.67348
1021.739	44.61145
1021.906	0.35123
1022.072	-12.29261
1022.239	21.42623
1022.405	-69.17891
1022.571	-52.32561
1022.738	29.85689
1022.904	36.18013
1023.07	8.78094
1023.237	10.88843
1023.403	-10.18537
1023.569	4.56604
1023.735	15.10348
1023.902	-10.18537
1024.068	-69.17891
1024.234	-18.61421
1024.4	82.55695
1024.566	57.25913
1024.732	-50.21884
1024.898	57.25913
1025.065	15.10348
1025.231	-27.04265
1025.397	-10.18537
1025.563	-43.89836
1025.729	25.64151
1025.895	23.53386
1026.061	23.53386
1026.227	-5.9708
1026.392	-1.75614
1026.558	-39.68458
1026.724	-35.47071
1026.89	19.31862
1027.056	-10.18537
1027.222	-5.9708
1027.388	-12.29261
1027.553	17.21104
1027.719	19.31862
1027.885	65.69137
1028.051	42.50359
1028.216	17.21104
1028.382	31.96461
1028.548	-24.93558
1028.713	-43.89836
1028.879	-24.93558
1029.045	-18.61421
1029.21	-52.32561
1029.376	-56.53909
1029.541	15.10348
1029.707	40.39575
1029.873	42.50359
1030.038	27.74919
1030.204	-43.89836
1030.369	31.96461
1030.534	17.21104
1030.7	-16.50703
1030.865	6.67348
1031.031	-18.61421
1031.196	-1.75614
1031.361	31.96461
1031.527	-35.47071
1031.692	-60.75247
1031.857	-27.04265
1032.023	-16.50703
1032.188	-18.61421
1032.353	-31.25673
1032.518	-35.47071
1032.684	29.85689
1032.849	19.31862
1033.014	2.45862
1033.179	8.78094
1033.344	36.18013
1033.509	-22.82848
1033.674	99.42397
1033.839	-1.75614
1034.004	42.50359
1034.17	15.10348
1034.335	40.39575
1034.5	-10.18537
1034.664	8.78094
1034.829	-10.18537
1034.994	-5.9708
1035.159	59.36716
1035.324	-119.7289
1035.489	21.42623
1035.654	116.2924
1035.819	4.56604
1035.984	-8.0781
1036.148	-50.21884
1036.313	-31.25673
1036.478	67.79949
1036.643	38.28793
1036.807	59.36716
1036.972	-41.79148
1037.137	-1.75614
1037.301	65.69137
1037.466	-24.93558
1037.631	-10.18537
1037.795	25.64151
1037.96	-22.82848
1038.124	40.39575
1038.289	0.35123
1038.454	-22.82848
1038.618	34.07236
1038.783	-10.18537
1038.947	19.31862
1039.111	-12.29261
1039.276	31.96461
1039.44	-111.30495
1039.605	6.67348
1039.769	15.10348
1039.933	-3.86348
1040.098	-27.04265
1040.262	15.10348
1040.426	-56.53909
1040.591	-27.04265
1040.755	-50.21884
1040.919	31.96461
1041.083	6.67348
1041.248	-73.39198
1041.412	-39.68458
1041.576	-77.60495
1041.74	29.85689
1041.904	-54.43236
1042.068	-1.75614
1042.232	-18.61421
1042.397	-3.86348
1042.561	-16.50703
1042.725	-86.03057
1042.889	-35.47071
1043.053	-39.68458
1043.217	19.31862
1043.381	15.10348
1043.544	-20.72135
1043.708	46.71934
1043.872	107.85801
1044.036	48.82725
1044.2	-18.61421
1044.364	23.53386
1044.528	-37.57766
1044.691	-24.93558
1044.855	31.96461
1045.019	-10.18537
1045.183	6.67348
1045.346	-18.61421
1045.51	-8.0781
1045.674	-14.39983
1045.837	21.42623
1046.001	27.74919
1046.165	-3.86348
1046.328	23.53386
1046.492	53.04315
1046.655	6.67348
1046.819	-22.82848
1046.983	-1.75614
1047.146	-22.82848
1047.31	25.64151
1047.473	40.39575
1047.636	-24.93558
1047.8	-31.25673
1047.963	42.50359
1048.127	-37.57766
1048.29	-35.47071
