Data from absorb_only_2.23.25_USB4F045381__74__0179.txt Node

Date: Sun Feb 23 19:27:15 EST 2025
User: ssocol
Spectrometer: USB4F04538
Trigger mode: 4
Integration Time (sec): 2.600000E-3
Scans to average: 1
Electric dark correction enabled: true
Nonlinearity correction enabled: true
Boxcar width: 0
XAxis mode: Wavelengths
Number of Pixels in Spectrum: 3648
>>>>>Begin Spectral Data<<<<<
345.52	-42.31821
345.736	-42.31821
345.952	-42.31821
346.168	10.36155
346.384	-19.141
346.6	-10.71218
346.816	60.94819
347.032	-23.35526
347.248	-10.71218
347.464	6.14661
347.68	-86.55716
347.896	56.73213
348.112	-0.17561
348.328	-10.71218
348.544	-6.49763
348.76	-14.92664
348.975	39.86879
349.191	-14.92664
349.407	29.32996
349.623	-27.56942
349.839	69.38059
350.055	-27.56942
350.27	-40.21131
350.486	23.00695
350.702	8.25407
350.918	-65.49239
351.133	44.08449
351.349	-19.141
351.565	35.65319
351.781	25.11459
351.996	27.22227
352.212	46.19237
352.428	33.54542
352.644	35.65319
352.859	-17.03383
353.075	35.65319
353.291	54.62413
353.506	-21.24814
353.722	-40.21131
353.938	-38.10439
354.153	-35.99745
354.369	27.22227
354.584	4.03918
354.8	-0.17561
355.016	27.22227
355.231	12.46906
355.447	27.22227
355.662	23.00695
355.878	44.08449
356.093	-25.46235
356.309	14.57659
356.524	14.57659
356.74	35.65319
356.955	-40.21131
357.171	75.70514
357.386	-29.67646
357.602	35.65319
357.817	-78.13156
358.033	16.68414
358.248	-14.92664
358.464	-48.63874
358.679	-23.35526
358.895	-21.24814
359.11	-10.71218
359.325	18.79172
359.541	-23.35526
359.756	-19.141
359.972	-10.71218
360.187	39.86879
360.402	18.79172
360.618	-27.56942
360.833	-19.141
361.048	-8.60492
361.264	12.46906
361.479	86.24649
361.694	-17.03383
361.909	1.93177
362.125	31.43768
362.34	-23.35526
362.555	18.79172
362.77	52.51615
362.986	-21.24814
363.201	31.43768
363.416	-29.67646
363.631	-46.53192
363.847	-27.56942
364.062	27.22227
364.277	-38.10439
364.492	18.79172
364.707	29.32996
364.922	-4.39031
365.138	-4.39031
365.353	44.08449
365.568	-38.10439
365.783	-31.78348
365.998	-21.24814
366.213	-23.35526
366.428	-10.71218
366.643	35.65319
366.858	-33.89048
367.073	-65.49239
367.288	-57.06577
367.503	-48.63874
367.718	-61.27913
367.933	-23.35526
368.148	-21.24814
368.363	94.67998
368.578	-50.74553
368.793	29.32996
369.008	-2.28298
369.223	12.46906
369.438	56.73213
369.653	-38.10439
369.868	44.08449
370.083	-44.42508
370.298	27.22227
370.513	4.03918
370.728	14.57659
370.943	1.93177
371.157	46.19237
371.372	-54.95905
371.587	44.08449
371.802	77.81336
372.017	20.89932
372.232	-17.03383
372.446	-2.28298
372.661	29.32996
372.876	-2.28298
373.091	-6.49763
373.306	10.36155
373.52	16.68414
373.735	-0.17561
373.95	4.03918
374.165	-29.67646
374.379	-2.28298
374.594	58.84015
374.809	-6.49763
375.023	-23.35526
375.238	-14.92664
375.453	-40.21131
375.667	-21.24814
375.882	10.36155
376.097	-65.49239
376.311	-14.92664
376.526	-48.63874
376.741	-46.53192
376.955	1.93177
377.17	-27.56942
377.384	27.22227
377.599	-2.28298
377.813	14.57659
378.028	63.05626
378.242	18.79172
378.457	-14.92664
378.672	4.03918
378.886	-14.92664
379.101	10.36155
379.315	27.22227
379.53	39.86879
379.744	-29.67646
379.958	12.46906
380.173	-44.42508
380.387	27.22227
380.602	18.79172
380.816	20.89932
381.031	6.14661
381.245	27.22227
381.459	-23.35526
381.674	-6.49763
381.888	31.43768
382.103	6.14661
382.317	56.73213
382.531	-17.03383
382.746	-46.53192
382.96	-21.24814
383.174	37.76098
383.388	14.57659
383.603	-21.24814
383.817	-61.27913
384.031	-12.81942
384.246	96.7884
384.46	75.70514
384.674	16.68414
384.888	-19.141
385.103	-4.39031
385.317	-84.4508
385.531	-21.24814
385.745	58.84015
385.959	-31.78348
386.174	20.89932
386.388	-52.8523
386.602	-6.49763
386.816	50.4082
387.03	29.32996
387.244	111.54801
387.458	-10.71218
387.672	-10.71218
387.887	14.57659
388.101	-29.67646
388.315	37.76098
388.529	35.65319
388.743	-31.78348
388.957	46.19237
389.171	-8.60492
389.385	-35.99745
389.599	-8.60492
389.813	71.48875
390.027	52.51615
390.241	-21.24814
390.455	-40.21131
390.669	-2.28298
390.883	-10.71218
391.097	73.59693
391.311	-52.8523
391.525	-6.49763
391.738	18.79172
391.952	1.93177
392.166	-19.141
392.38	-40.21131
392.594	44.08449
392.808	-46.53192
393.022	29.32996
393.236	8.25407
393.449	35.65319
393.663	10.36155
393.877	14.57659
394.091	69.38059
394.305	52.51615
394.518	-10.71218
394.732	6.14661
394.946	-52.8523
395.16	-14.92664
395.373	-54.95905
395.587	-38.10439
395.801	-40.21131
396.015	52.51615
396.228	10.36155
396.442	-27.56942
396.656	-57.06577
396.869	35.65319
397.083	-31.78348
397.297	39.86879
397.51	6.14661
397.724	18.79172
397.938	4.03918
398.151	-10.71218
398.365	-14.92664
398.578	12.46906
398.792	-19.141
399.005	-14.92664
399.219	-38.10439
399.433	8.25407
399.646	6.14661
399.86	77.81336
400.073	14.57659
400.287	-65.49239
400.5	52.51615
400.714	-23.35526
400.927	-19.141
401.141	10.36155
401.354	37.76098
401.567	18.79172
401.781	20.89932
401.994	-29.67646
402.208	63.05626
402.421	6.14661
402.635	14.57659
402.848	-4.39031
403.061	20.89932
403.275	-8.60492
403.488	27.22227
403.701	60.94819
403.915	25.11459
404.128	18.79172
404.341	-14.92664
404.555	18.79172
404.768	71.48875
404.981	54.62413
405.195	-12.81942
405.408	35.65319
405.621	14.57659
405.834	-40.21131
406.048	44.08449
406.261	-71.81209
406.474	82.02988
406.687	16.68414
406.9	37.76098
407.114	-46.53192
407.327	46.19237
407.54	44.08449
407.753	27.22227
407.966	16.68414
408.179	-2.28298
408.392	-38.10439
408.605	44.08449
408.819	-4.39031
409.032	10.36155
409.245	52.51615
409.458	8.25407
409.671	1.93177
409.884	12.46906
410.097	23.00695
410.31	-14.92664
410.523	63.05626
410.736	-14.92664
410.949	-10.71218
411.162	44.08449
411.375	10.36155
411.588	44.08449
411.801	-2.28298
412.014	-23.35526
412.227	25.11459
412.44	23.00695
412.653	-6.49763
412.865	10.36155
413.078	-42.31821
413.291	35.65319
413.504	48.30027
413.717	-88.66349
413.93	-44.42508
414.143	1.93177
414.356	16.68414
414.568	18.79172
414.781	20.89932
414.994	20.89932
415.207	-6.49763
415.42	-12.81942
415.632	12.46906
415.845	46.19237
416.058	44.08449
416.271	103.11382
416.483	56.73213
416.696	73.59693
416.909	18.79172
417.121	1.93177
417.334	27.22227
417.547	-48.63874
417.759	41.97663
417.972	44.08449
418.185	10.36155
418.397	27.22227
418.61	23.00695
418.823	39.86879
419.035	14.57659
419.248	46.19237
419.46	-6.49763
419.673	48.30027
419.885	-21.24814
420.098	-6.49763
420.311	58.84015
420.523	18.79172
420.736	-40.21131
420.948	109.43943
421.161	46.19237
421.373	-35.99745
421.586	-61.27913
421.798	14.57659
422.01	18.79172
422.223	25.11459
422.435	-54.95905
422.648	44.08449
422.86	31.43768
423.073	31.43768
423.285	27.22227
423.497	69.38059
423.71	1.93177
423.922	69.38059
424.134	-19.141
424.347	27.22227
424.559	12.46906
424.771	23.00695
424.984	44.08449
425.196	63.05626
425.408	27.22227
425.621	1.93177
425.833	1.93177
426.045	41.97663
426.257	60.94819
426.47	-33.89048
426.682	-48.63874
426.894	-57.06577
427.106	-19.141
427.318	77.81336
427.531	6.14661
427.743	63.05626
427.955	1.93177
428.167	29.32996
428.379	84.13817
428.591	-23.35526
428.804	16.68414
429.016	23.00695
429.228	56.73213
429.44	82.02988
429.652	4.03918
429.864	94.67998
430.076	-17.03383
430.288	35.65319
430.5	-44.42508
430.712	44.08449
430.924	-27.56942
431.136	10.36155
431.348	25.11459
431.56	54.62413
431.772	-6.49763
431.984	-42.31821
432.196	35.65319
432.408	33.54542
432.62	-2.28298
432.832	27.22227
433.044	29.32996
433.256	73.59693
433.468	46.19237
433.679	-8.60492
433.891	-19.141
434.103	58.84015
434.315	4.03918
434.527	90.46319
434.739	14.57659
434.95	73.59693
435.162	77.81336
435.374	18.79172
435.586	-6.49763
435.798	-19.141
436.009	-65.49239
436.221	86.24649
436.433	31.43768
436.645	58.84015
436.856	65.16435
437.068	-12.81942
437.28	-27.56942
437.491	-23.35526
437.703	63.05626
437.915	105.22233
438.126	27.22227
438.338	12.46906
438.55	23.00695
438.761	48.30027
438.973	18.79172
439.184	6.14661
439.396	-2.28298
439.608	29.32996
439.819	23.00695
440.031	1.93177
440.242	16.68414
440.454	-10.71218
440.665	46.19237
440.877	27.22227
441.088	35.65319
441.3	-27.56942
441.511	29.32996
441.723	56.73213
441.934	56.73213
442.146	56.73213
442.357	29.32996
442.569	23.00695
442.78	-38.10439
442.991	54.62413
443.203	20.89932
443.414	-40.21131
443.626	29.32996
443.837	35.65319
444.048	67.27246
444.26	29.32996
444.471	-12.81942
444.682	-4.39031
444.894	-27.56942
445.105	33.54542
445.316	23.00695
445.528	-82.34441
445.739	10.36155
445.95	52.51615
446.161	63.05626
446.373	20.89932
446.584	29.32996
446.795	90.46319
447.006	-6.49763
447.217	71.48875
447.429	-21.24814
447.64	103.11382
447.851	29.32996
448.062	35.65319
448.273	79.92161
448.484	31.43768
448.695	-23.35526
448.907	-2.28298
449.118	20.89932
449.329	12.46906
449.54	-6.49763
449.751	65.16435
449.962	10.36155
450.173	29.32996
450.384	48.30027
450.595	25.11459
450.806	60.94819
451.017	60.94819
451.228	48.30027
451.439	84.13817
451.65	79.92161
451.861	79.92161
452.072	18.79172
452.283	41.97663
452.494	75.70514
452.705	63.05626
452.915	65.16435
453.126	98.89685
453.337	39.86879
453.548	-4.39031
453.759	-14.92664
453.97	-17.03383
454.181	101.00532
454.391	82.02988
454.602	1.93177
454.813	54.62413
455.024	109.43943
455.235	27.22227
455.445	-6.49763
455.656	35.65319
455.867	35.65319
456.078	12.46906
456.288	-21.24814
456.499	54.62413
456.71	27.22227
456.921	88.35483
457.131	35.65319
457.342	65.16435
457.553	58.84015
457.763	98.89685
457.974	35.65319
458.184	44.08449
458.395	86.24649
458.606	84.13817
458.816	23.00695
459.027	1.93177
459.237	35.65319
459.448	1.93177
459.659	35.65319
459.869	90.46319
460.08	18.79172
460.29	103.11382
460.501	52.51615
460.711	79.92161
460.922	46.19237
461.132	44.08449
461.343	29.32996
461.553	35.65319
461.764	-4.39031
461.974	25.11459
462.184	12.46906
462.395	60.94819
462.605	67.27246
462.816	46.19237
463.026	90.46319
463.236	79.92161
463.447	77.81336
463.657	109.43943
463.867	29.32996
464.078	44.08449
464.288	46.19237
464.498	105.22233
464.709	92.57157
464.919	122.09124
465.129	105.22233
465.339	94.67998
465.55	88.35483
465.76	63.05626
465.97	56.73213
466.18	65.16435
466.391	136.85268
466.601	77.81336
466.811	105.22233
467.021	67.27246
467.231	25.11459
467.441	71.48875
467.651	132.63502
467.862	90.46319
468.072	77.81336
468.282	94.67998
468.492	111.54801
468.702	147.39721
468.912	124.19996
469.122	136.85268
469.332	136.85268
469.542	191.68993
469.752	44.08449
469.962	166.37868
470.172	132.63502
470.382	138.96154
470.592	101.00532
470.802	130.52622
471.012	86.24649
471.222	103.11382
471.432	187.47118
471.642	170.59702
471.852	223.33309
472.062	157.94226
472.272	147.39721
472.482	189.58055
472.691	103.11382
472.901	122.09124
473.111	124.19996
473.321	174.81543
473.531	210.67529
473.741	195.90876
473.95	280.30186
474.16	170.59702
474.37	252.87071
474.58	193.79933
474.79	259.20069
474.999	257.09068
475.209	233.8818
475.419	206.45618
475.628	193.79933
475.838	242.32113
476.048	288.74285
476.258	273.97131
476.467	316.17809
476.677	305.62571
476.886	326.73092
477.096	316.17809
477.306	364.72473
477.515	326.73092
477.725	330.95217
477.935	339.39489
478.144	373.16856
478.354	288.74285
478.563	428.0599
478.773	463.95624
478.982	394.2793
479.192	449.17485
479.401	402.72406
479.611	411.16909
479.82	476.6266
480.03	457.62127
480.239	529.42547
480.449	571.67092
480.658	529.42547
480.868	499.85698
481.077	499.85698
481.287	525.20123
481.496	561.10904
481.705	588.57061
481.915	523.08913
482.124	518.86497
482.333	668.85521
482.543	580.12066
482.752	721.68333
482.961	651.95172
483.171	730.13647
483.38	597.02077
483.589	740.70313
483.799	719.57007
484.008	761.83724
484.217	685.75944
484.426	778.74526
484.636	778.74526
484.845	939.40039
485.054	797.76753
485.263	985.91434
485.472	768.17767
485.682	1034.54595
485.891	863.29445
486.1	998.60053
486.309	875.97805
486.518	1040.88944
486.727	985.91434
486.936	1007.05811
487.146	1040.88944
487.355	1110.67107
487.564	1055.69112
487.773	1235.44426
487.982	1159.30986
488.191	1049.34751
488.4	1277.74289
488.609	1290.43267
488.818	1218.52513
489.027	1362.34271
489.236	1254.47851
489.445	1305.23751
489.654	1430.02404
489.863	1465.97992
490.072	1286.20273
490.281	1328.50245
490.49	1432.13909
490.698	1372.91786
490.907	1493.47557
491.116	1592.88174
491.325	1559.04165
491.534	1476.55518
491.743	1514.62601
491.952	1692.28397
492.16	1603.45668
492.369	1594.99673
492.578	1618.26152
492.787	1743.04018
492.996	1829.74372
493.204	1736.69576
493.413	1814.94117
493.622	1895.29501
493.831	1730.35131
494.039	1802.25311
494.248	1973.52689
494.457	1869.92089
494.665	1954.49825
494.874	2096.14319
495.083	2132.07787
495.291	1855.11898
495.5	2119.39529
495.709	2129.96413
495.917	1840.31682
496.126	2013.69681
496.335	2045.40821
496.543	2108.82627
496.752	2039.06605
496.96	2170.12389
497.169	2252.54763
497.377	2138.41905
497.586	2123.62285
497.794	2362.42439
498.003	2005.24018
498.211	2301.15014
498.42	2233.52794
498.628	2377.21348
498.837	2267.34022
499.045	2345.52198
499.254	2246.20781
499.462	2436.36476
499.671	2411.01522
499.879	2522.96385
500.087	2484.94704
500.296	2546.19451
500.504	2453.2636
500.713	2516.62797
500.921	2588.42845
501.129	2588.42845
501.338	2634.88022
501.546	2702.43563
501.754	2582.09366
501.962	2727.76552
502.171	2537.74716
502.379	2917.6773
502.587	2630.65757
502.795	2807.96419
503.004	2700.32472
503.212	2780.53
503.42	2782.6404
503.628	2848.05611
503.837	2639.10281
504.045	2951.42734
504.253	2934.55279
504.461	3021.02475
504.669	2759.42521
504.877	3054.76297
505.085	2816.40501
505.294	2928.22459
505.502	3120.11941
505.71	3086.38895
505.918	2974.6283
506.126	3037.89435
506.334	2911.34875
506.542	3271.8551
506.75	2909.2392
506.958	3143.30673
507.166	2985.17359
507.374	3172.81505
507.582	3136.98311
507.79	3290.81599
507.998	3044.2202
508.206	3398.23472
508.414	3162.27673
508.622	3339.26531
508.83	3244.46472
509.037	3385.59957
509.245	3139.091
509.453	3377.17579
509.661	3313.98854
509.869	3604.51702
510.077	3276.06875
510.285	3520.34133
510.492	3375.0698
510.7	3465.61137
510.908	3415.08059
511.116	3448.76892
511.324	3330.84
511.531	3318.20151
511.739	3490.87288
511.947	3779.08521
512.155	3501.39773
512.362	3406.6578
512.57	3520.34133
512.778	3751.75196
512.985	3585.58008
513.193	3572.95462
513.401	3612.93296
513.608	3793.80174
513.816	3716.00354
514.024	3633.97147
514.231	3568.74598
514.439	3694.97244
514.646	3768.57281
514.854	3682.35287
515.061	3478.24245
515.269	3644.49002
515.477	3701.28197
515.684	3789.59712
515.892	3905.19549
516.099	3947.21627
516.307	3730.72415
516.514	3999.73083
516.722	3697.07564
516.929	4035.43343
517.136	3837.94556
517.344	4073.22969
517.551	3903.09424
517.759	3989.22894
517.966	3961.92163
518.173	4222.24895
518.381	3997.63049
518.588	4102.62213
518.796	4125.71333
519.003	4092.1253
519.21	4024.93328
519.418	3991.32935
519.625	4020.73308
519.832	4264.20697
520.039	4243.22903
520.247	4339.7098
520.454	4245.32692
520.661	4142.50533
520.868	4052.23259
521.076	4444.52828
521.283	4171.88811
521.49	4446.62409
521.697	4247.42479
521.904	4484.34497
522.112	4331.32198
522.319	4507.39311
522.526	4448.71988
522.733	4532.53348
522.94	4501.10751
523.147	4499.01227
523.354	4499.01227
523.561	4459.19851
523.768	4415.1846
523.975	4436.14481
524.183	4427.76099
524.39	4735.63363
524.597	4599.55885
524.804	4750.28216
525.011	4515.77358
525.218	4601.65302
525.425	4754.46725
525.632	4808.86518
525.838	4654.00015
526.045	4942.7021
526.252	4517.86865
526.459	4957.33482
526.666	4817.23273
526.873	4886.25108
527.08	4540.91289
527.287	4994.95664
527.494	4576.52145
527.701	5053.4646
527.907	5059.73224
528.114	5045.10743
528.321	4886.25108
528.528	5237.2284
528.735	5007.49558
528.941	4902.97905
529.148	4934.34004
529.355	5001.22621
529.562	4854.88218
529.768	5126.57404
529.975	4792.12899
530.182	5159.98602
530.388	4925.97762
530.595	5151.63358
530.802	4957.33482
531.008	5243.4899
531.215	5157.89795
531.422	5385.36066
531.628	5285.22783
531.835	5178.77765
532.042	5237.2284
532.248	5458.34009
532.455	5268.53378
532.661	5402.04421
532.868	5437.49176
533.074	5485.43941
533.281	5306.09329
533.487	5489.60818
533.694	5293.57429
533.9	5645.86911
534.107	5291.48771
534.313	5602.12941
534.52	5377.01832
534.726	5535.45846
534.933	5443.74651
535.139	5535.45846
535.345	5377.01832
535.552	5629.20759
535.758	5735.39888
535.965	5739.562
536.171	5579.21399
536.377	5808.23974
536.584	5529.20682
536.79	5587.5472
536.996	5752.05077
537.203	5795.75479
537.409	5704.17252
537.615	5985.01861
537.821	5797.83567
538.028	6076.46078
538.234	5672.94085
538.44	5779.10686
538.646	5727.07237
538.853	5920.56606
539.059	5843.60915
539.265	6059.83832
539.471	5833.20709
539.677	5991.25476
539.883	6022.43228
540.09	6126.31912
540.296	6101.39164
540.502	6205.23382
540.708	5851.93037
540.914	6329.76704
541.12	6155.3969
541.326	6219.76704
541.532	6172.01071
541.738	6192.77585
541.944	6007.88343
542.15	6294.49118
542.356	6219.76704
542.562	6667.65905
542.768	6184.47008
542.974	6584.79775
543.18	6145.01251
543.386	6562.00442
543.592	6317.31751
543.798	6584.79775
544.004	6350.5144
544.21	6692.51026
544.415	6294.49118
544.621	6707.00528
544.827	6574.43749
545.033	6661.44573
545.239	6547.49811
545.445	6663.51686
545.651	6576.50959
545.856	6798.09107
546.062	6715.28763
546.268	6725.64007
546.474	6385.77954
546.679	6599.30114
546.885	6375.40814
547.091	6383.70531
547.297	6479.09596
547.502	6717.35817
547.708	6597.2293
547.914	6769.11403
548.119	6591.01363
548.325	6746.34321
548.531	6661.44573
548.736	7054.55061
548.942	6595.15743
549.147	6901.54405
549.353	6969.79195
549.559	6771.18397
549.764	6723.56963
549.97	6831.20221
550.175	6754.62383
550.381	6980.1304
550.586	6719.42868
550.792	6980.1304
550.997	6545.42569
551.203	7192.97768
551.408	7029.74711
551.614	6961.52079
551.819	7075.21772
552.025	7058.68421
552.23	6777.39364
552.435	7081.41742
552.641	7114.47909
552.846	7261.12154
553.052	7079.35088
553.257	7153.7324
553.462	7172.32327
553.668	7446.84691
553.873	6963.58862
554.078	7248.73354
554.283	7021.47855
554.489	7137.20567
554.694	7147.53504
554.899	6998.73818
555.105	7048.35003
555.31	7384.9581
555.515	7453.03472
555.72	7560.2592
555.925	7356.06995
556.131	7558.19773
556.336	7273.50875
556.541	7597.36184
556.746	7343.688
556.951	7422.09373
557.156	7304.47331
557.361	7593.23966
557.567	7137.20567
557.772	7401.46369
557.977	7455.09728
558.182	7475.72168
558.387	7461.28482
558.592	7521.08777
558.797	7401.46369
559.002	7446.84691
559.207	7483.97083
559.412	7428.28232
559.617	7465.40975
559.822	7677.72723
560.027	7543.76691
560.232	7795.12655
560.437	7570.56618
560.642	7797.18558
560.847	7714.80808
561.051	7813.65706
561.256	7504.59221
561.461	7704.50853
561.666	7636.51824
561.871	7891.87845
562.076	7448.90953
562.281	7873.35503
562.485	7634.45757
562.69	7928.92026
562.895	7819.83352
563.1	7865.12187
563.305	7768.35727
563.509	7922.74709
563.714	7836.30317
563.919	8021.49575
564.123	7661.24465
564.328	7873.35503
564.533	7863.06352
564.737	7863.06352
564.942	7669.48611
565.147	8042.06247
565.351	8011.21162
565.556	7840.42038
565.761	7809.53931
565.965	8138.69904
566.17	7895.99453
566.374	8019.43896
566.579	8105.80648
566.784	7988.58476
566.988	7797.18558
567.193	8033.83603
567.397	7978.299
567.602	8109.91833
567.806	7776.59434
568.011	8274.32697
568.215	7953.61111
568.42	8157.19885
568.624	8109.91833
568.828	8122.2534
569.033	7846.59603
569.237	8323.62491
569.442	8200.35881
569.646	8196.24871
569.85	7949.49617
570.055	8286.65251
570.259	8161.3097
570.463	8311.30148
570.668	8128.42066
570.872	8344.1624
571.076	8091.41436
571.281	8368.80481
571.485	8448.87344
571.689	8571.99914
571.893	8315.40937
572.098	8561.74127
572.302	8264.05514
572.506	8448.87344
572.71	8194.19364
572.914	8348.26966
573.119	8325.67875
573.323	8399.60391
573.527	8370.85822
573.731	8506.34061
573.935	8413.97534
574.139	8606.87239
574.343	8360.59099
574.547	8623.28145
574.751	8401.65703
574.955	8491.97522
575.159	8350.32326
575.364	8590.46212
575.568	8713.51004
575.772	8842.63905
575.976	8526.86098
576.18	8504.28847
576.383	8629.43454
576.587	8619.1793
576.791	8565.84448
576.995	8565.84448
577.199	8430.39867
577.403	8682.75432
577.607	8809.85122
577.811	8729.91139
578.015	8539.1723
578.219	8895.90945
578.422	8738.11162
578.626	8900.00667
578.83	8557.63799
579.034	8787.30689
579.238	8508.39273
579.442	9018.79524
579.645	8824.19647
579.849	8873.37346
580.053	8717.61048
580.257	8865.17801
580.46	8815.99929
580.664	9059.7431
580.868	8822.1472
581.071	9031.08033
581.275	8803.70298
581.479	8891.81216
581.682	8512.49692
581.886	8943.0232
582.09	8887.7148
582.293	9106.82456
582.497	8973.7445
582.7	9205.05227
582.904	8893.86082
583.107	9241.87758
583.311	9018.79524
583.515	9059.7431
583.718	9078.16737
583.922	9217.32798
584.125	9209.14424
584.329	9131.38518
584.532	8752.46133
584.735	9174.36033
584.939	9055.64863
585.142	9282.7882
585.346	9160.03612
585.549	9045.41214
585.753	9145.71107
585.956	9217.32798
586.159	9119.10518
586.363	9401.39146
586.566	9250.06024
586.769	9299.15057
586.973	9209.14424
587.176	9319.60205
587.379	9258.24263
587.582	9487.24227
587.786	9284.83355
587.989	9871.18717
588.192	9299.15057
588.395	9562.84931
588.599	9321.64711
588.802	9440.23226
589.005	9074.07321
589.208	9348.23134
589.411	9248.0146
589.615	9425.92317
589.818	9436.14403
590.021	9554.67662
590.224	9434.09989
590.427	9626.17908
590.63	9505.63518
590.833	9732.37615
591.036	9620.05105
591.239	9752.7939
591.442	9499.50435
591.645	9613.92288
591.848	9713.99886
592.051	9707.87282
592.254	9587.36585
592.457	9679.28283
592.66	9344.14164
592.863	9873.228
593.066	9436.14403
593.269	9891.59474
593.472	9546.50368
593.675	9963.00967
593.878	9521.98334
594.081	9863.02373
594.284	9644.56234
594.486	9922.20333
594.689	9871.18717
594.892	9650.68981
595.095	9767.08543
595.298	9912.00083
595.5	9742.58522
595.703	9899.75735
595.906	9946.68783
596.109	10144.5283
596.311	9936.48621
596.514	10118.02132
596.717	9916.08188
596.92	10099.66895
597.122	9881.39114
597.325	9938.52657
597.528	9791.58347
597.73	10197.53521
597.933	10118.02132
598.136	10293.33194
598.338	10018.08904
598.541	10317.7859
598.743	9991.57065
598.946	10154.72266
599.148	10215.88159
599.351	10156.76149
599.554	10089.4727
599.756	10195.49666
599.959	10340.20034
600.161	10189.38091
600.363	10175.11035
600.566	10177.14904
600.768	10091.51198
600.971	10317.7859
601.173	10103.74735
601.376	10460.39609
601.578	10366.68807
601.78	10330.01216
601.983	9999.73041
602.185	10311.67259
602.388	10234.22687
602.59	10566.29415
602.792	10462.43292
602.995	10497.057
603.197	10413.54552
603.399	10533.71378
603.601	10077.23673
603.804	10164.91668
604.006	10026.24805
604.208	10175.11035
604.41	10431.87917
604.613	10360.57571
604.815	10136.37255
605.017	10488.91049
605.219	10077.23673
605.421	10224.03518
605.623	10319.82364
605.826	10655.8737
606.028	10454.28554
606.23	10466.50653
606.432	10452.24866
606.634	10598.87131
606.836	10425.76807
607.038	10458.35925
607.24	10519.45885
607.442	10598.87131
607.644	10264.79987
607.846	10499.0936
608.048	10321.86137
608.25	10556.11313
608.452	10138.41151
608.654	10401.32251
608.856	10197.53521
609.058	10661.98053
609.26	10409.47124
609.462	10539.82284
609.664	10442.06408
609.866	10480.76378
610.067	10360.57571
610.269	10635.51681
610.471	10270.91411
610.673	10499.0936
610.875	10232.18856
611.077	10692.51303
611.278	10230.15023
611.48	10495.02039
611.682	10523.53175
611.884	10845.13511
612.085	10537.7865
612.287	10615.15869
612.489	10354.46324
612.69	10759.67497
612.892	10478.72706
613.094	10653.83807
613.295	10321.86137
613.497	10523.53175
613.699	10625.33791
613.9	10676.22937
614.102	10564.25797
614.304	10448.17486
614.505	10205.6893
614.707	10698.6192
614.908	10354.46324
615.11	10637.55256
615.311	10262.76177
615.513	10588.69129
615.714	10354.46324
615.916	10598.87131
616.117	10405.3969
616.319	10832.92778
616.52	10615.15869
616.722	10865.47972
616.923	10680.30036
617.124	10649.76677
617.326	10476.69034
617.527	10735.25396
617.729	10668.08725
617.93	10627.37371
618.131	10737.28911
618.333	10596.83533
618.534	10486.87383
618.735	10845.13511
618.937	10712.86652
619.138	10834.96236
619.339	10625.33791
619.54	10615.15869
619.742	10676.22937
619.943	10568.33031
620.144	10574.43873
620.345	10898.0287
620.546	10364.65063
620.748	10613.12281
620.949	10501.13018
621.15	10851.23861
621.351	10452.24866
621.552	10584.61919
621.753	10543.89549
621.954	10625.33791
622.155	10596.83533
622.356	11036.32954
622.558	10775.95469
622.759	10997.69187
622.96	10574.43873
623.161	10759.67497
623.362	10492.98377
623.563	10924.4726
623.764	10851.23861
623.965	10849.20412
624.166	10655.8737
624.366	10839.0315
624.567	10708.79592
624.768	10895.99448
624.969	10531.6774
625.17	10580.54705
625.371	10584.61919
625.572	10843.10058
625.773	10582.58312
625.973	10841.06604
626.174	10767.81493
626.375	10737.28911
626.576	10784.09427
626.777	10969.21943
626.977	10873.61724
627.178	10965.15177
627.379	10629.40951
627.58	10946.8467
627.78	10841.06604
627.981	11005.82645
628.182	10845.13511
628.382	10800.37286
628.583	10572.40261
628.784	10771.88483
628.984	10747.46468
629.185	10918.37033
629.386	10562.22178
629.586	10895.99448
629.787	10704.72527
629.987	10686.40675
630.188	10604.97917
630.388	10855.30756
630.589	10592.76333
630.79	10885.82318
630.99	10657.90933
631.191	10934.64281
631.391	10782.05939
631.591	10696.58383
631.792	10954.9824
631.992	11068.86346
632.193	10694.54844
632.393	10818.68537
632.594	10824.78933
632.794	10725.07803
632.994	10804.44239
633.195	10995.65819
633.395	10806.47714
633.595	10877.68593
633.796	10808.51187
633.996	10979.38841
634.196	10997.69187
634.397	10987.52339
634.597	11032.26261
634.797	11215.23197
634.997	10977.35464
635.198	11377.80045
635.398	10879.72026
635.598	11304.65267
635.798	10918.37033
635.998	10702.68993
636.199	10712.86652
636.399	11176.61229
636.599	10881.75458
636.799	11115.62608
636.999	10780.02451
637.199	10916.33622
637.399	10810.54659
637.599	10800.37286
637.799	10843.10058
637.999	11044.46328
638.199	10912.26796
638.399	10946.8467
638.599	11040.39644
638.799	11052.59685
638.999	10881.75458
639.199	11203.03669
639.399	10780.02451
639.599	11414.36952
639.799	10873.61724
639.999	10865.47972
640.199	10751.53482
640.399	11058.69691
640.599	10582.58312
640.799	11095.29521
640.998	10824.78933
641.198	11131.89001
641.398	10891.92599
641.598	10950.91457
641.798	11207.10182
641.997	11278.23498
642.197	11133.92295
642.397	11333.10057
642.597	11042.42987
642.796	11176.61229
642.996	11282.29935
643.196	11308.71678
643.395	11062.76356
643.595	11109.52693
643.795	11150.18611
643.994	11270.10612
644.194	11107.49386
644.394	11329.03671
644.593	11168.48135
644.793	11296.52433
644.992	10871.58288
645.192	11288.39583
645.392	11190.84103
645.591	11343.26006
645.791	11329.03671
645.99	11237.58901
646.19	11241.65379
646.389	11371.7053
646.589	10755.60492
646.788	11160.35023
646.987	11121.72513
647.187	11245.71854
647.386	11211.16692
647.586	11300.58852
647.785	11101.39458
647.984	11394.05377
648.184	11268.07387
648.383	11119.69213
648.582	11101.39458
648.782	11511.87165
648.981	11349.35563
649.18	11637.77974
649.38	11584.9839
649.579	11528.11987
649.778	11186.77573
649.977	11582.95317
650.177	11438.74714
650.376	11550.46018
650.575	11079.02973
650.774	11475.31095
650.973	11371.7053
651.173	11540.30564
651.372	11129.85705
651.571	11251.81557
651.77	11194.90629
651.969	11203.03669
652.168	11087.16256
652.367	11526.08887
652.566	11322.94083
652.765	11308.71678
652.964	11192.87367
653.163	11524.05787
653.362	11264.00936
653.561	11540.30564
653.76	11522.02686
653.959	11410.30645
654.158	11597.16811
654.357	11221.32947
654.556	11450.93542
654.755	11511.87165
654.954	11182.71038
655.153	11479.3734
655.352	11131.89001
655.551	11412.33799
655.749	11363.57829
655.948	11556.5528
656.147	11341.22818
656.346	11517.9648
656.545	11164.41581
656.743	11457.02943
656.942	11389.9905
657.141	11434.6843
657.34	11678.38774
657.538	11597.16811
657.737	11552.49106
657.936	11678.38774
658.135	11467.18592
658.333	11402.18019
658.532	11450.93542
658.731	11501.71621
658.929	11237.58901
659.128	11337.1644
659.326	11369.67356
659.525	11735.23295
659.724	11495.62283
659.922	11861.08023
660.121	11536.24375
660.319	11282.29935
660.518	11280.26717
660.716	11369.67356
660.915	11385.92719
661.113	11759.59307
661.312	11461.09206
661.51	11682.44834
661.709	11322.94083
661.907	11446.8727
662.105	11259.9448
662.304	11690.56944
662.502	11473.27971
662.701	11536.24375
662.899	11294.49222
663.097	11682.44834
663.296	11471.24845
663.494	11651.99295
663.692	11517.9648
663.891	11601.22943
664.089	11471.24845
664.287	11442.80994
664.485	11450.93542
664.684	11621.53552
664.882	11373.73703
665.08	11503.74732
665.278	11243.68617
665.476	11261.97709
665.675	11418.43255
665.873	11438.74714
666.071	11377.80045
666.269	11846.87331
666.467	11215.23197
666.665	11731.1728
666.863	11316.84487
667.061	11873.25727
667.259	11637.77974
667.457	11735.23295
667.655	11718.99216
667.853	11402.18019
668.051	11572.79937
668.249	11666.20572
668.447	11469.21719
668.645	11501.71621
668.843	11607.32136
669.041	11745.38315
669.239	11231.49176
669.437	11310.74881
669.635	11209.13438
669.833	11471.24845
670.031	11365.61005
670.229	11357.48292
670.426	11501.71621
670.624	11475.31095
670.822	10991.59082
671.02	11475.31095
671.218	11266.04162
671.415	11365.61005
671.613	11054.63021
671.811	11209.13438
672.009	11329.03671
672.206	11459.06075
672.404	11113.59304
672.602	11205.06926
672.799	11182.71038
672.997	11310.74881
673.195	11184.74306
673.392	11463.12336
673.59	11178.645
673.788	11296.52433
673.985	11154.25179
674.183	11392.02214
674.38	11105.46078
674.578	11249.78324
674.775	11146.12038
674.973	11268.07387
675.17	11190.84103
675.368	11335.13249
675.565	11150.18611
675.763	11355.45112
675.96	11278.23498
676.158	11276.20278
676.355	11308.71678
676.553	11438.74714
676.75	10993.62451
676.947	11156.28461
677.145	11034.29608
677.342	11308.71678
677.539	11148.15325
677.737	11302.6206
677.934	11186.77573
678.131	11272.13835
678.329	11034.29608
678.526	11302.6206
678.723	10914.3021
678.92	11215.23197
679.118	10963.11791
679.315	11316.84487
679.512	11072.93
679.709	11144.0875
679.906	11060.73024
680.104	11312.78084
680.301	10928.54072
680.498	11225.39442
680.695	11107.49386
680.892	11184.74306
681.089	11036.32954
681.286	11060.73024
681.483	10930.57476
681.68	10944.81274
681.877	10694.54844
682.075	10957.01629
682.272	10755.60492
682.469	11239.62141
682.665	11107.49386
682.862	11011.92726
683.059	10818.68537
683.256	10912.26796
683.453	10810.54659
683.65	10763.74497
683.847	10721.00757
684.044	10810.54659
684.241	10576.47485
684.438	10867.51412
684.635	10484.83716
684.831	10751.53482
685.028	10727.11324
685.225	10761.70998
685.422	10462.43292
685.619	10702.68993
685.815	10552.04063
686.012	10893.96024
686.209	10639.58829
686.405	11056.66357
686.602	11064.79687
686.799	10625.33791
686.996	10702.68993
687.192	10664.01612
687.389	10706.7606
687.586	10598.87131
687.782	10659.94494
687.979	10670.1228
688.175	10645.69541
688.372	10834.96236
688.568	10501.13018
688.765	10623.30209
688.962	10714.9018
689.158	10912.26796
689.355	10468.54332
689.551	10615.15869
689.748	10639.58829
689.944	10731.18362
690.14	10718.97233
690.337	10767.81493
690.533	10415.58265
690.73	10554.07688
690.926	10710.83122
691.123	10566.29415
691.319	10279.06623
691.515	10621.26626
691.712	10307.59698
691.908	10368.72549
692.104	10523.53175
692.301	10348.35065
692.497	10492.98377
692.693	10916.33622
692.889	10350.38819
693.086	10590.72731
693.282	10435.95317
693.478	10661.98053
693.674	10356.50074
693.87	10607.0151
694.067	10539.82284
694.263	10478.72706
694.459	10490.94714
694.655	10588.69129
694.851	10399.28529
695.047	10389.09902
695.243	10389.09902
695.439	10193.45809
695.635	10291.29402
695.831	10507.23985
696.027	10118.02132
696.224	10437.99015
696.42	10175.11035
696.615	10385.02442
696.811	10266.83796
697.007	10474.65361
697.203	10181.22639
697.399	10262.76177
697.595	10346.31309
697.791	10164.91668
697.987	10209.76626
698.183	10323.89909
698.379	10054.80281
698.575	10354.46324
698.77	10254.60921
698.966	10342.23794
699.162	10046.64459
699.358	9979.33058
699.554	9854.86006
699.749	10065.00026
699.945	9932.40546
700.141	9914.04136
700.337	10087.43341
700.532	10179.18772
700.728	10309.63479
700.924	10354.46324
701.119	10124.13852
701.315	10173.07164
701.511	10060.92132
701.706	10313.71037
701.902	9916.08188
702.097	10191.41951
702.293	10279.06623
702.489	10007.88994
702.684	10071.11856
702.88	10173.07164
703.075	9914.04136
703.271	10105.78653
703.466	9775.25168
703.662	9909.96029
703.857	9664.98669
704.053	9895.67608
704.248	10030.32747
704.443	9989.53067
704.639	10171.03292
704.834	10189.38091
705.03	9924.24379
705.225	10181.22639
705.42	9711.95686
705.616	9822.20297
705.811	10003.81021
706.006	9932.40546
706.202	9879.35038
706.397	9960.96949
706.592	9995.65056
706.787	9871.18717
706.983	10022.16857
707.178	10189.38091
707.373	9912.00083
707.568	10001.77032
707.763	10034.40684
707.959	10283.14222
708.154	9620.05105
708.349	9722.1667
708.544	9716.04084
708.739	9685.40951
708.934	9752.7939
709.129	9944.64754
709.324	10014.00944
709.519	10189.38091
709.714	9785.45916
709.909	9824.24415
710.104	9783.4177
710.299	9544.46041
710.494	9711.95686
710.689	9562.84931
710.884	9669.07138
711.079	9791.58347
711.274	9483.15478
711.469	10065.00026
711.664	9822.20297
711.859	9530.15704
712.054	9448.40853
712.249	9634.34957
712.443	9378.90199
712.638	9593.49463
712.833	9542.41712
713.028	9667.02905
713.223	9548.54694
713.417	9505.63518
713.612	9446.36449
713.807	9542.41712
714.002	9479.06723
714.196	9730.33429
714.391	9579.19392
714.586	9922.20333
714.78	9481.11101
714.975	9642.51981
715.17	9501.54798
715.364	9658.85955
715.559	9691.53605
715.754	9509.72232
715.948	9389.12472
716.143	9511.76586
716.337	9323.69215
716.532	9564.89244
716.726	9327.78218
716.921	9481.11101
717.115	9511.76586
717.31	9644.56234
717.504	9560.80616
717.699	9705.83078
717.893	9184.5914
718.088	9333.9171
718.282	9313.46678
718.476	9438.18816
718.671	9315.51189
718.865	9585.32289
719.059	9378.90199
719.254	9458.6285
719.448	9331.87214
719.642	9333.9171
719.837	8973.7445
720.031	9385.03568
720.225	9327.78218
720.419	9454.54056
720.614	9151.85048
720.808	9327.78218
721.002	8914.34639
721.196	9198.91419
721.39	8957.3603
721.585	9344.14164
721.779	9270.51571
721.973	9239.83187
722.167	8826.24571
722.361	9153.89692
722.555	9008.55718
722.749	9106.82456
722.943	8924.58851
723.137	9035.17522
723.331	8711.45978
723.525	8932.78188
723.719	8610.97476
723.913	9112.96495
724.107	9145.71107
724.301	9086.35549
724.495	8865.17801
724.689	8809.85122
724.883	8729.91139
725.077	8924.58851
725.271	8627.38353
725.465	8684.80483
725.659	8684.80483
725.853	9110.91817
726.046	9012.65245
726.24	9012.65245
726.434	8875.42227
726.628	9115.01171
726.822	8668.40023
727.015	9061.79031
727.209	8969.64855
727.403	8830.34416
727.596	8897.95807
727.79	9020.84279
727.984	8766.81014
728.177	8897.95807
728.371	8850.83529
728.565	8902.05526
728.758	8822.1472
728.952	8940.97497
729.146	8608.92358
729.339	8928.68523
729.533	8967.60056
729.726	9043.36479
729.92	8934.83018
730.113	9131.38518
730.307	8932.78188
730.5	9250.06024
730.694	8740.16164
730.887	8908.2009
731.081	8961.45645
731.274	8971.69653
731.468	8938.92672
731.661	9045.41214
731.854	8709.40951
732.048	8889.76349
732.241	8510.44484
732.435	8996.27093
732.628	9002.41413
732.821	8820.09791
733.014	8975.79244
733.208	8580.2051
733.401	8766.81014
733.594	8717.61048
733.788	8656.096
733.981	8598.6674
734.174	8457.08395
734.367	8467.34666
734.56	8672.50149
734.754	8578.15364
734.947	8656.096
735.14	8588.41076
735.333	8783.20769
735.526	8883.61736
735.719	8654.04523
735.912	8518.65306
736.105	8619.1793
736.298	8545.3277
736.491	8576.10216
736.684	8637.6384
736.877	8660.19748
737.07	8629.43454
737.263	8721.71086
737.456	8842.63905
737.649	9045.41214
737.842	8668.40023
738.035	8602.76993
738.228	8721.71086
738.421	8647.89281
738.614	8452.97874
738.807	8606.87239
739	8518.65306
739.192	8245.56461
739.385	8368.80481
739.578	8647.89281
739.771	8539.1723
739.964	8356.48396
740.156	8442.71536
740.349	8239.40075
740.542	8381.12498
740.735	8342.10874
740.927	8701.20825
741.12	8631.48554
741.313	8204.46882
741.505	8563.79288
741.698	8385.23154
741.891	8348.26966
742.083	8596.61611
742.276	8727.86128
742.468	8559.68964
742.661	8496.07971
742.854	8651.99444
743.046	8358.53748
743.239	8413.97534
743.431	8356.48396
743.624	8292.81502
743.816	8290.76087
744.009	8450.9261
744.201	8204.46882
744.393	8077.02126
744.586	8081.13368
744.778	8120.1976
744.971	8130.47638
745.163	8068.79619
745.355	8181.86276
745.548	8181.86276
745.74	8292.81502
745.932	8222.96291
746.125	8101.69454
746.317	8118.14179
746.509	8249.67375
746.702	8377.01833
746.894	8134.58775
747.086	8315.40937
747.278	8389.33803
747.471	8054.40154
747.663	7961.84073
747.855	8356.48396
748.047	8220.90809
748.239	8325.67875
748.431	8225.01771
748.623	8249.67375
748.815	7974.18456
749.008	8212.68861
749.2	8122.2534
749.392	8114.0301
749.584	8188.02829
749.776	8424.24006
749.968	8144.86582
750.16	8167.47583
750.352	8401.65703
750.544	8452.97874
750.736	8126.36493
750.928	8282.54407
751.12	8009.15474
751.311	8025.60925
751.503	8264.05514
751.695	8056.45798
751.887	7955.66854
752.079	8021.49575
752.271	7898.05255
752.463	8130.47638
752.654	7893.9365
752.846	7879.52969
753.038	7947.43867
753.23	8124.30917
753.421	8000.92699
753.613	8083.18986
753.805	7968.01274
753.997	7998.87
754.188	7889.82037
754.38	7974.18456
754.572	7926.86256
754.763	7963.89809
754.955	7908.3423
755.146	8013.26849
755.338	7885.70416
755.53	8035.89267
755.721	7943.32362
755.913	7836.30317
756.104	7710.68832
756.296	7823.95106
756.487	7844.5375
756.679	7895.99453
756.87	7813.65706
757.062	7589.1174
757.253	7747.7631
757.445	7659.18423
757.636	7483.97083
757.827	7572.62751
758.019	7593.23966
758.21	7354.00635
758.401	7294.15234
758.593	7661.24465
758.784	7587.05624
758.975	7475.72168
759.167	7314.79373
759.358	7535.52025
759.549	7450.97214
759.74	7566.44345
759.932	7446.84691
760.123	7426.21948
760.314	7395.27426
760.505	7372.57799
760.696	7413.84198
760.888	7320.98573
761.079	7256.99229
761.27	7500.46811
761.461	7372.57799
761.652	7519.0259
761.843	7403.5268
762.034	7516.96401
762.225	7157.86386
762.416	7300.34499
762.607	6754.62383
762.798	7161.99523
762.989	7298.2808
763.18	7337.49674
763.371	7075.21772
763.562	7029.74711
763.753	6973.9274
763.944	7120.67751
764.135	6833.27147
764.326	7040.08229
764.517	7009.07505
764.708	7071.08448
764.899	7133.07376
765.089	7062.81772
765.28	7069.01782
765.471	6975.99509
765.662	6891.20131
765.853	6918.09126
766.043	6707.00528
766.234	6903.61253
766.425	6878.78927
766.615	6897.40702
766.806	6891.20131
766.997	6988.40075
767.187	6824.99432
767.378	6967.7242
767.569	6655.23221
767.759	6897.40702
767.95	6957.38507
768.141	6980.1304
768.331	6557.85987
768.522	6911.88622
768.712	6582.72574
768.903	6661.44573
769.093	6613.8034
769.284	6704.93463
769.474	6760.83405
769.665	6864.30752
769.855	6510.19098
770.046	6822.92497
770.236	6369.18502
770.426	6557.85987
770.617	6760.83405
770.807	6535.06323
770.998	6516.40935
771.188	6526.77285
771.378	6367.1106
771.569	6433.48049
771.759	6514.33658
771.949	6597.2293
772.139	6601.37296
772.33	6491.53459
772.52	6733.9216
772.71	6814.64737
772.9	6412.74246
773.09	6512.26379
773.281	6628.30453
773.471	6439.70144
773.661	6458.36305
773.851	6286.19
774.041	6275.81299
774.231	6327.69218
774.421	6246.75426
774.611	6277.88844
774.802	6259.20856
774.992	6474.94956
775.182	6284.11464
775.372	6346.36511
775.562	6213.53865
775.752	6267.51096
775.942	6136.70457
776.131	6261.2842
776.321	5980.86107
776.511	6205.23382
776.701	6205.23382
776.891	6545.42569
777.081	6279.96386
777.271	5933.04252
777.461	6030.7454
777.651	5935.12184
777.84	5760.37615
778.03	6178.2405
778.22	6005.80493
778.41	5933.04252
778.599	5960.07193
778.789	6080.61616
778.979	6151.24321
779.169	6109.70118
779.358	6034.90181
779.548	6387.85375
779.738	6003.7264
779.927	6001.64785
780.117	6036.97998
780.307	6088.92664
780.496	5772.8635
780.686	5972.54569
780.875	5785.35001
781.065	5741.64352
781.254	5695.8446
781.444	5835.28755
781.633	5693.76256
781.823	5822.80444
782.012	5520.87097
782.202	5781.18794
782.391	5622.95914
782.581	5829.0461
782.77	5737.48045
782.96	5826.96557
783.149	5552.12846
783.338	5820.72384
783.528	5739.562
783.717	5822.80444
783.906	5639.62122
784.096	5639.62122
784.285	5520.87097
784.474	5577.13063
784.663	5502.11393
784.853	5422.89653
785.042	5343.64521
785.231	5545.87738
785.42	5577.13063
785.61	5545.87738
785.799	5260.18619
785.988	5335.30099
786.177	5199.65501
786.366	5556.29572
786.555	5235.14119
786.744	5210.09283
786.933	5260.18619
787.122	5418.72626
787.312	5427.06672
787.501	5560.46289
787.69	5017.94407
787.879	5520.87097
788.068	5377.01832
788.257	5301.92038
788.445	5293.57429
788.634	5504.19814
788.823	5404.12955
789.012	5472.93253
789.201	5468.76338
789.39	5364.50411
789.579	5151.63358
789.768	5468.76338
789.957	5130.75086
790.145	5447.91622
790.334	5137.01592
790.523	5402.04421
790.712	5285.22783
790.9	5537.54229
791.089	5076.44491
791.278	5289.40111
791.467	5222.61743
791.655	5191.30435
791.844	5045.10743
792.033	5101.51115
792.221	4871.6129
792.41	5172.51398
792.599	4888.34215
792.787	4946.88299
792.976	4894.61525
793.164	4961.51539
793.353	4921.79626
793.541	4990.7768
793.73	4913.43329
793.918	4992.86673
794.107	4637.25059
794.295	4917.61482
794.484	4944.79256
794.672	4946.88299
794.861	4838.15
795.049	4921.79626
795.238	4775.39135
795.426	4850.69927
795.614	4907.16081
795.803	5088.97845
795.991	4959.42512
796.179	5088.97845
796.368	4729.35535
796.556	5011.67504
796.744	4568.14354
796.932	4733.54089
797.121	4668.65483
797.309	4777.48363
797.497	4641.43811
797.685	4787.94471
797.874	4534.62836
798.062	4800.49726
798.25	4773.29904
798.438	4760.74472
798.626	4540.91289
798.814	4610.0295
799.002	4379.54723
799.19	4584.899
799.378	4400.51115
799.566	4589.08764
799.755	4492.72642
799.943	4645.62555
800.131	4603.74718
800.318	4829.78336
800.506	4385.83664
800.694	4459.19851
800.882	4291.4751
801.07	4744.00435
801.258	4593.27619
801.446	4752.37472
801.634	4467.58101
801.822	4710.51929
802.01	4739.81904
802.197	4852.79074
802.385	4501.10751
802.573	4515.77358
802.761	4551.38666
802.949	4633.06298
803.136	4507.39311
803.324	4651.90653
803.512	4654.00015
803.699	4658.18731
803.887	4503.20273
804.075	4691.6814
804.262	4478.05865
804.45	4679.12179
804.638	4557.67066
804.825	4702.14712
805.013	4620.4996
805.201	4804.68127
805.388	4599.55885
805.576	4725.16972
805.763	4913.43329
805.951	4825.59991
806.138	4517.86865
806.326	4733.54089
806.513	4547.19722
806.701	4597.46465
806.888	4383.74019
807.075	4490.63109
807.263	4339.7098
807.45	4603.74718
807.638	4473.86766
807.825	4813.049
808.012	4658.18731
808.2	4925.97762
808.387	4507.39311
808.574	4624.68748
808.761	4475.96317
808.949	4327.12793
809.136	4331.32198
809.323	4511.58339
809.51	4419.37682
809.698	4241.13112
809.885	4339.7098
810.072	4471.77214
810.259	4396.31854
810.446	4641.43811
810.633	4540.91289
810.82	4779.57589
811.008	4584.899
811.195	4599.55885
811.382	4540.91289
811.569	4720.98399
811.756	4473.86766
811.943	4741.91171
812.13	4637.25059
812.317	4783.76035
812.504	4591.18192
812.691	4616.31163
812.878	4584.899
813.064	4744.00435
813.251	4532.53348
813.438	4921.79626
813.625	4591.18192
813.812	4628.87527
813.999	4620.4996
814.186	4729.35535
814.372	4509.48826
814.559	4813.049
814.746	4616.31163
814.933	4459.19851
815.12	4595.37043
815.306	4750.28216
815.493	4540.91289
815.68	4526.24868
815.866	4270.49994
816.053	4681.21511
816.24	4471.77214
816.426	4486.44037
816.613	4184.47946
816.799	4582.80464
816.986	4289.37768
817.173	4366.96784
817.359	4096.32409
817.546	4584.899
817.732	4173.98672
817.919	4687.49495
818.105	4352.29089
818.292	4478.05865
818.478	4438.24071
818.665	4540.91289
818.851	4215.95452
819.037	4339.7098
819.224	4375.35419
819.41	4272.59755
819.597	4159.296
819.783	4289.37768
819.969	4194.97168
820.156	4348.09728
820.342	4423.56895
820.528	4524.15371
820.714	4306.15643
820.901	4278.89026
821.087	4390.02946
821.273	4440.33659
821.459	4161.39474
821.646	4515.77358
821.832	4289.37768
822.018	4377.45072
822.204	4037.53339
822.39	4348.09728
822.576	4132.01049
822.762	4429.85698
822.948	4325.03088
823.134	4341.8067
823.32	4234.83725
823.507	4540.91289
823.693	4197.07006
823.879	4278.89026
824.065	4194.97168
824.25	4171.88811
824.436	4052.23259
824.622	4209.65989
824.808	4148.80199
824.994	4431.95294
825.18	3970.32424
825.366	4115.21764
825.552	4006.03172
825.738	4079.52841
825.923	3753.85464
826.109	4194.97168
826.295	3882.08063
826.481	4075.32928
826.667	3858.96336
826.852	4024.93328
827.038	3911.49912
827.224	4062.7314
827.409	3945.11542
827.595	4207.56164
827.781	3743.34107
827.966	4285.18277
828.152	3953.51869
828.338	4207.56164
828.523	3970.32424
828.709	4062.7314
828.894	3749.64927
829.08	3991.32935
829.266	3774.88031
829.451	4045.93306
829.637	3854.75995
829.822	3980.82705
830.008	3938.81276
830.193	3896.79037
830.378	3802.21076
830.564	3978.72653
830.749	3684.45618
830.935	3852.65822
831.12	3465.61137
831.305	3718.10654
831.491	3575.05891
831.676	3840.04743
831.861	3583.47588
832.047	3795.90402
832.232	3492.97788
832.417	3926.20689
832.602	3377.17579
832.788	3669.7326
832.973	3288.70929
833.158	3539.28344
833.343	3434.03084
833.528	3705.48823
833.714	3524.55081
833.899	3730.72415
834.084	3566.64163
834.269	3549.80619
834.454	3423.5031
834.639	3751.75196
834.824	3665.5257
835.009	3840.04743
835.194	3471.92699
835.379	3800.10853
835.564	3490.87288
835.749	3663.42221
835.934	3324.52083
836.119	3591.89257
836.304	3246.57178
836.489	3389.81136
836.674	3415.08059
836.859	3406.6578
837.044	3579.26743
837.228	3450.87429
837.413	3147.5224
837.598	3383.49366
837.783	3103.25469
837.968	3246.57178
838.152	3094.82194
838.337	3233.92921
838.522	3286.60258
838.707	3448.76892
838.891	3153.84578
839.076	3305.5624
839.261	3080.06403
839.445	3356.11511
839.63	3295.02933
839.815	3351.90277
839.999	3212.85693
840.184	3404.55206
840.368	3155.95354
840.553	3419.29188
840.737	2924.00572
840.922	3246.57178
841.106	2970.41008
841.291	3217.07152
841.475	3221.28604
841.66	3389.81136
841.844	3111.68717
842.029	3368.75173
842.213	3088.49722
842.397	3181.24541
842.582	2983.06456
842.766	3158.06129
842.951	3067.41378
843.135	3335.05269
843.319	2892.36231
843.504	2841.72614
843.688	2909.2392
843.872	2911.34875
844.056	2879.70404
844.241	3103.25469
844.425	2909.2392
844.609	3128.55139
844.793	2812.18462
844.977	3058.97997
845.161	2839.61612
845.346	2894.47198
845.53	2734.0977
845.714	2890.25264
845.898	2563.08866
846.082	2824.84561
846.266	2782.6404
846.45	2919.78679
846.634	2691.88096
846.818	2917.6773
847.002	2554.64168
847.186	2672.88174
847.37	2641.21409
847.554	2820.62534
847.738	2750.98292
847.922	2917.6773
848.106	2700.32472
848.29	2810.07441
848.473	2453.2636
848.657	2723.544
848.841	2582.09366
849.025	2748.87231
849.209	2573.64711
849.392	2913.45828
849.576	2641.21409
849.76	2672.88174
849.944	2503.9559
850.127	2588.42845
850.311	2406.79014
850.495	2700.32472
850.678	2220.84775
850.862	2582.09366
851.046	2468.04951
851.229	2691.88096
851.413	2394.11468
851.596	2689.76999
851.78	2476.49836
851.964	2622.21214
852.147	2413.12774
852.331	2463.82502
852.514	2556.75344
852.698	2425.80264
852.881	2233.52794
853.065	2482.83489
853.248	2362.42439
853.431	2280.01922
853.615	2072.89017
853.798	2489.17131
853.982	2199.7134
854.165	2556.75344
854.348	2347.63481
854.532	2419.46523
854.715	2267.34022
854.898	2345.52198
855.081	2296.92403
855.265	2385.66416
855.448	2229.30125
855.631	2345.52198
855.814	2132.07787
855.997	2330.73184
856.181	2013.69681
856.364	2089.80154
856.547	2024.26744
856.73	2301.15014
856.913	2165.89668
857.096	2292.69789
857.279	2106.71244
857.462	2252.54763
857.645	2119.39529
857.828	2157.44217
858.011	1996.78344
858.194	2170.12389
858.377	1992.55503
858.56	2142.64647
858.743	1992.55503
858.926	2066.54829
859.109	1939.69786
859.292	2144.76016
859.475	1979.86966
859.658	2277.90607
859.841	1948.15526
860.023	2168.01029
860.206	1927.01159
860.389	2047.52225
860.572	1859.34812
860.755	1967.18407
860.937	1831.85835
861.12	1831.85835
861.303	1920.66837
861.486	1865.69179
861.668	1781.10599
861.851	1912.21067
862.034	1730.35131
862.216	1895.29501
862.399	1798.02372
862.581	1791.6796
862.764	1685.93932
862.947	1717.66231
863.129	1609.80162
863.312	1825.51444
863.494	1673.24993
863.677	1721.89199
863.859	1633.06625
864.042	1924.89719
864.224	1700.74347
864.406	1793.79431
864.589	1427.90899
864.771	1658.44552
864.954	1523.08617
865.136	1715.54747
865.318	1645.75593
865.501	1717.66231
865.683	1514.62601
865.865	1736.69576
866.048	1554.81161
866.23	1607.68664
866.412	1472.32508
866.594	1548.46654
866.777	1561.15666
866.959	1626.72138
867.141	1501.93576
867.323	1567.50171
867.505	1410.9886
867.687	1688.05421
867.869	1370.80283
868.052	1622.49145
868.234	1497.70566
868.416	1607.68664
868.598	1501.93576
868.78	1654.21567
868.962	1664.79029
869.144	1658.44552
869.326	1413.10364
869.508	1556.92663
869.69	1510.39593
869.872	1677.47974
870.054	1370.80283
870.236	1573.84674
870.417	1565.38669
870.599	1658.44552
870.781	1434.25414
870.963	1499.82071
871.145	1322.15744
871.327	1552.69659
871.508	1292.54764
871.69	1561.15666
871.872	1360.22769
872.054	1449.0595
872.235	1442.71435
872.417	1495.59062
872.599	1303.12252
872.78	1518.85609
872.962	1341.19251
873.144	1364.45774
873.325	1345.42254
873.507	1457.51971
873.689	1303.12252
873.87	1542.12146
874.052	1402.52841
874.233	1455.40466
874.415	1328.50245
874.596	1510.39593
874.778	1311.58247
874.959	1540.00643
875.141	1303.12252
875.322	1497.70566
875.503	1322.15744
875.685	1607.68664
875.866	1358.11266
876.048	1535.77637
876.229	1370.80283
876.41	1379.26297
876.592	1265.05319
876.773	1442.71435
876.954	1248.13374
877.136	1400.41337
877.317	1286.20273
877.498	1362.34271
877.679	1305.23751
877.86	1425.79394
878.042	1343.30752
878.223	1482.90033
878.404	1332.73246
878.585	1493.47557
878.766	1235.44426
878.947	1355.99764
879.128	1252.36358
879.309	1298.89256
879.49	1309.46748
879.672	1383.49304
879.853	1313.69746
880.034	1413.10364
880.215	1201.6062
880.396	1508.28089
880.576	1150.85078
880.757	1370.80283
880.938	1201.6062
881.119	1239.67408
881.3	1201.6062
881.481	1497.70566
881.662	1313.69746
881.843	1387.72312
882.023	1252.36358
882.204	1465.97992
882.385	1133.93281
882.566	1396.18328
882.747	1311.58247
882.927	1468.09497
883.108	1336.96248
883.289	1442.71435
883.469	1256.59344
883.65	1497.70566
883.831	1332.73246
884.011	1523.08617
884.192	1383.49304
884.373	1489.24548
884.553	1275.62793
884.734	1387.72312
884.914	1275.62793
885.095	1485.01538
885.275	1203.72105
885.456	1241.78899
885.636	1062.03478
885.817	1370.80283
885.997	1326.38745
886.178	1362.34271
886.358	1138.16228
886.538	1246.01882
886.719	1155.08031
886.899	1201.6062
887.08	1205.83591
887.26	1430.02404
887.44	1406.7585
887.621	1430.02404
887.801	1163.53942
887.981	1472.32508
888.161	1315.81245
888.342	1343.30752
888.522	1343.30752
888.702	1379.26297
888.882	1389.83816
889.062	1336.96248
889.242	1256.59344
889.423	1355.99764
889.603	1138.16228
889.783	1349.65257
889.963	1243.9039
890.143	1385.60808
890.323	1203.72105
890.503	1404.64346
890.683	1305.23751
890.863	1271.39803
891.043	1093.7538
891.223	1379.26297
891.403	1303.12252
891.583	1339.07749
891.763	1210.06564
891.943	1381.378
892.122	1201.6062
892.302	1372.91786
892.482	1144.50651
892.662	1239.67408
892.842	1193.14681
893.022	1281.9728
893.201	1193.14681
893.381	1277.74289
893.561	1201.6062
893.741	1294.66261
893.92	1256.59344
894.1	1430.02404
894.28	1294.66261
894.459	1375.0329
894.639	1167.76901
894.819	1449.0595
894.998	1161.42464
895.178	1379.26297
895.357	1049.34751
895.537	1254.47851
895.716	1191.03198
895.896	1235.44426
896.075	1171.9986
896.255	1203.72105
896.434	1260.82331
896.614	1176.22822
896.793	1212.1805
896.973	1203.72105
897.152	1157.19508
897.331	1254.47851
897.511	1072.60766
897.69	1091.63916
897.87	1045.11847
898.049	1108.5564
898.228	1032.43147
898.407	1163.53942
898.587	1034.54595
898.766	1121.24452
898.945	979.57133
899.124	998.60053
899.304	1007.05811
899.483	1201.6062
899.662	1007.05811
899.841	1262.93825
900.02	1053.57658
900.199	1051.46204
900.378	873.8641
900.557	1000.71491
900.737	968.99979
900.916	983.8
901.095	905.57427
901.274	856.95276
901.453	869.63621
901.632	1009.17253
901.811	899.23209
901.989	971.11408
902.168	859.06665
902.347	886.54795
902.526	793.54029
902.705	914.03062
902.884	766.06419
903.063	880.20598
903.242	761.83724
903.42	867.52228
903.599	740.70313
903.778	899.23209
903.957	713.23036
904.135	778.74526
904.314	787.19951
904.493	867.52228
904.672	685.75944
904.85	837.92817
905.029	797.76753
905.207	723.7966
905.386	647.72597
905.565	630.82344
905.743	698.43809
905.922	685.75944
906.1	601.24592
906.279	753.38348
906.457	508.30483
906.636	656.17752
906.814	569.55852
906.993	611.80904
907.171	476.6266
907.35	594.90821
907.528	563.22139
907.707	670.9682
907.885	518.86497
908.063	601.24592
908.242	535.76193
908.42	436.5057
908.598	417.50302
908.777	472.40309
908.955	487.18564
909.133	525.20123
909.311	419.61437
909.49	537.87412
909.668	550.54751
909.846	487.18564
910.024	478.73838
910.202	508.30483
910.38	425.9485
910.559	529.42547
910.737	480.85017
910.915	506.19285
911.093	419.61437
911.271	679.42027
911.449	575.89576
911.627	561.10904
911.805	470.29135
911.983	527.31334
912.161	493.52124
912.339	679.42027
912.517	527.31334
912.695	569.55852
912.872	428.0599
913.05	529.42547
913.228	476.6266
913.406	493.52124
913.584	518.86497
913.762	495.63314
913.939	463.95624
914.117	552.65979
914.295	394.2793
914.473	535.76193
914.65	525.20123
914.828	478.73838
915.006	518.86497
915.184	590.68313
915.361	373.16856
915.539	508.30483
915.716	561.10904
915.894	569.55852
916.072	440.72869
916.249	495.63314
916.427	463.95624
916.604	520.97704
916.782	434.39422
916.959	542.09852
917.137	411.16909
917.314	618.14706
917.492	476.6266
917.669	508.30483
917.847	301.40489
918.024	417.50302
918.201	421.72573
918.379	491.40936
918.556	428.0599
918.733	470.29135
918.911	377.39057
919.088	385.8348
919.265	364.72473
919.442	415.39169
919.62	482.96198
919.797	381.61266
919.974	468.17963
920.151	453.39803
920.328	347.8379
920.506	400.61285
920.683	432.28277
920.86	383.72372
921.037	415.39169
921.214	364.72473
921.391	392.16815
921.568	470.29135
921.745	411.16909
921.922	444.95174
922.099	364.72473
922.276	434.39422
922.453	373.16856
922.63	390.05702
922.807	406.94654
922.984	352.0595
923.161	235.99161
923.338	398.50165
923.514	328.84154
923.691	409.05781
923.868	297.18413
924.045	280.30186
924.222	360.50292
924.399	297.18413
924.575	299.2945
924.752	394.2793
924.929	303.51529
925.105	402.72406
925.282	212.78487
925.459	248.65082
925.635	238.10143
925.812	322.50973
925.989	206.45618
926.165	263.42077
926.342	271.86117
926.518	238.10143
926.695	244.431
926.871	238.10143
927.048	276.08147
927.224	225.4428
927.401	261.31072
927.577	238.10143
927.754	179.03394
927.93	229.66226
928.107	250.76076
928.283	244.431
928.459	202.23715
928.636	263.42077
928.812	168.48784
928.988	292.96345
929.165	191.68993
929.341	179.03394
929.517	191.68993
929.693	242.32113
929.87	176.92467
930.046	189.58055
930.222	179.03394
930.398	276.08147
930.574	225.4428
930.751	225.4428
930.927	225.4428
931.103	149.50617
931.279	130.52622
931.455	200.12766
931.631	119.98255
931.807	189.58055
931.983	166.37868
932.159	141.07043
932.335	145.28826
932.511	208.56572
932.687	111.54801
932.863	170.59702
933.039	181.14322
933.215	263.42077
933.391	160.05133
933.566	265.53084
933.742	157.94226
933.918	166.37868
934.094	94.67998
934.27	151.61516
934.445	128.41744
934.621	136.85268
934.797	35.65319
934.973	128.41744
935.148	149.50617
935.324	69.38059
935.5	136.85268
935.675	90.46319
935.851	69.38059
936.027	101.00532
936.202	60.94819
936.378	117.87389
936.553	113.65661
936.729	98.89685
936.904	73.59693
937.08	94.67998
937.255	119.98255
937.431	39.86879
937.606	56.73213
937.782	20.89932
937.957	35.65319
938.133	18.79172
938.308	138.96154
938.483	119.98255
938.659	-2.28298
938.834	63.05626
939.009	-50.74553
939.185	119.98255
939.36	27.22227
939.535	48.30027
939.71	109.43943
939.886	65.16435
940.061	63.05626
940.236	18.79172
940.411	29.32996
940.586	63.05626
940.761	119.98255
940.937	50.4082
941.112	25.11459
941.287	63.05626
941.462	37.76098
941.637	92.57157
941.812	25.11459
941.987	86.24649
942.162	27.22227
942.337	48.30027
942.512	-6.49763
942.687	6.14661
942.862	44.08449
943.037	29.32996
943.212	-14.92664
943.386	69.38059
943.561	-4.39031
943.736	111.54801
943.911	-2.28298
944.086	94.67998
944.26	39.86879
944.435	82.02988
944.61	71.48875
944.785	35.65319
944.959	90.46319
945.134	-8.60492
945.309	98.89685
945.483	33.54542
945.658	16.68414
945.833	39.86879
946.007	-12.81942
946.182	18.79172
946.357	111.54801
946.531	31.43768
946.706	46.19237
946.88	31.43768
947.055	-31.78348
947.229	103.11382
947.404	18.79172
947.578	10.36155
947.752	29.32996
947.927	14.57659
948.101	103.11382
948.276	-6.49763
948.45	1.93177
948.624	-17.03383
948.799	79.92161
948.973	52.51615
949.147	103.11382
949.321	58.84015
949.496	16.68414
949.67	-31.78348
949.844	54.62413
950.018	-23.35526
950.193	-23.35526
950.367	-6.49763
950.541	37.76098
950.715	52.51615
950.889	44.08449
951.063	25.11459
951.237	46.19237
951.411	16.68414
951.585	39.86879
951.759	-0.17561
951.933	10.36155
952.107	69.38059
952.281	63.05626
952.455	18.79172
952.629	33.54542
952.803	25.11459
952.977	-14.92664
953.151	52.51615
953.325	105.22233
953.499	-2.28298
953.672	6.14661
953.846	18.79172
954.02	18.79172
954.194	54.62413
954.368	-23.35526
954.541	69.38059
954.715	111.54801
954.889	18.79172
955.062	56.73213
955.236	132.63502
955.41	63.05626
955.583	56.73213
955.757	44.08449
955.93	18.79172
956.104	25.11459
956.278	-6.49763
956.451	136.85268
956.625	23.00695
956.798	-42.31821
956.972	44.08449
957.145	23.00695
957.319	-42.31821
957.492	145.28826
957.665	1.93177
957.839	18.79172
958.012	71.48875
958.185	52.51615
958.359	52.51615
958.532	56.73213
958.705	35.65319
958.879	10.36155
959.052	33.54542
959.225	54.62413
959.398	-27.56942
959.572	33.54542
959.745	18.79172
959.918	46.19237
960.091	73.59693
960.264	27.22227
960.438	27.22227
960.611	18.79172
960.784	71.48875
960.957	27.22227
961.13	-10.71218
961.303	63.05626
961.476	44.08449
961.649	-14.92664
961.822	58.84015
961.995	52.51615
962.168	79.92161
962.341	-23.35526
962.514	-21.24814
962.686	-27.56942
962.859	29.32996
963.032	35.65319
963.205	16.68414
963.378	1.93177
963.551	94.67998
963.723	12.46906
963.896	65.16435
964.069	-6.49763
964.242	98.89685
964.414	27.22227
964.587	-14.92664
964.76	-29.67646
964.932	-12.81942
965.105	31.43768
965.278	86.24649
965.45	39.86879
965.623	10.36155
965.795	-10.71218
965.968	6.14661
966.14	-38.10439
966.313	60.94819
966.485	69.38059
966.658	52.51615
966.83	12.46906
967.003	-40.21131
967.175	44.08449
967.348	41.97663
967.52	-4.39031
967.692	-14.92664
967.865	65.16435
968.037	98.89685
968.209	-2.28298
968.382	69.38059
968.554	20.89932
968.726	128.41744
968.898	48.30027
969.071	23.00695
969.243	54.62413
969.415	52.51615
969.587	25.11459
969.759	6.14661
969.932	65.16435
970.104	-0.17561
970.276	52.51615
970.448	86.24649
970.62	52.51615
970.792	18.79172
970.964	101.00532
971.136	8.25407
971.308	-4.39031
971.48	67.27246
971.652	-14.92664
971.824	111.54801
971.996	10.36155
972.168	-6.49763
972.339	4.03918
972.511	-33.89048
972.683	69.38059
972.855	-21.24814
973.027	6.14661
973.199	60.94819
973.37	20.89932
973.542	-67.59898
973.714	101.00532
973.886	-63.38577
974.057	58.84015
974.229	27.22227
974.401	86.24649
974.572	48.30027
974.744	73.59693
974.915	107.33087
975.087	31.43768
975.259	69.38059
975.43	18.79172
975.602	-0.17561
975.773	67.27246
975.945	-0.17561
976.116	44.08449
976.288	-14.92664
976.459	18.79172
976.63	31.43768
976.802	27.22227
976.973	-25.46235
977.145	10.36155
977.316	18.79172
977.487	82.02988
977.659	48.30027
977.83	33.54542
978.001	117.87389
978.172	126.30869
978.344	119.98255
978.515	20.89932
978.686	44.08449
978.857	-31.78348
979.028	-31.78348
979.2	98.89685
979.371	-14.92664
979.542	52.51615
979.713	103.11382
979.884	77.81336
980.055	46.19237
980.226	-4.39031
980.397	115.76524
980.568	-78.13156
980.739	-40.21131
980.91	18.79172
981.081	-33.89048
981.252	82.02988
981.423	-12.81942
981.594	44.08449
981.765	-19.141
981.936	37.76098
982.106	69.38059
982.277	-14.92664
982.448	77.81336
982.619	69.38059
982.79	82.02988
982.96	35.65319
983.131	39.86879
983.302	6.14661
983.472	4.03918
983.643	44.08449
983.814	90.46319
983.984	86.24649
984.155	-38.10439
984.326	-27.56942
984.496	-23.35526
984.667	-10.71218
984.837	56.73213
985.008	-6.49763
985.178	14.57659
985.349	-0.17561
985.519	44.08449
985.69	39.86879
985.86	4.03918
986.031	-46.53192
986.201	86.24649
986.371	111.54801
986.542	39.86879
986.712	58.84015
986.882	-71.81209
987.053	39.86879
987.223	-40.21131
987.393	90.46319
987.563	37.76098
987.734	-19.141
987.904	20.89932
988.074	31.43768
988.244	-31.78348
988.414	29.32996
988.585	29.32996
988.755	27.22227
988.925	31.43768
989.095	54.62413
989.265	-0.17561
989.435	-19.141
989.605	35.65319
989.775	52.51615
989.945	60.94819
990.115	31.43768
990.285	44.08449
990.455	12.46906
990.625	94.67998
990.795	84.13817
990.965	12.46906
991.134	77.81336
991.304	10.36155
991.474	-14.92664
991.644	18.79172
991.814	60.94819
991.984	65.16435
992.153	-19.141
992.323	-31.78348
992.493	39.86879
992.662	12.46906
992.832	35.65319
993.002	65.16435
993.171	1.93177
993.341	18.79172
993.511	69.38059
993.68	1.93177
993.85	56.73213
994.019	-46.53192
994.189	27.22227
994.358	-40.21131
994.528	73.59693
994.697	-19.141
994.867	-23.35526
995.036	-71.81209
995.206	6.14661
995.375	-10.71218
995.544	-25.46235
995.714	54.62413
995.883	44.08449
996.052	-4.39031
996.222	-31.78348
996.391	18.79172
996.56	8.25407
996.73	-27.56942
996.899	44.08449
997.068	-6.49763
997.237	-14.92664
997.406	6.14661
997.576	-14.92664
997.745	35.65319
997.914	-6.49763
998.083	56.73213
998.252	-48.63874
998.421	98.89685
998.59	-8.60492
998.759	-21.24814
998.928	86.24649
999.097	96.7884
999.266	-40.21131
999.435	8.25407
999.604	27.22227
999.773	29.32996
999.942	25.11459
1000.111	48.30027
1000.28	14.57659
1000.448	6.14661
1000.617	18.79172
1000.786	6.14661
1000.955	117.87389
1001.124	20.89932
1001.292	77.81336
1001.461	69.38059
1001.63	20.89932
1001.798	44.08449
1001.967	-44.42508
1002.136	-14.92664
1002.304	-46.53192
1002.473	37.76098
1002.642	10.36155
1002.81	-69.70555
1002.979	46.19237
1003.147	56.73213
1003.316	-12.81942
1003.484	-54.95905
1003.653	10.36155
1003.821	-0.17561
1003.99	56.73213
1004.158	-12.81942
1004.327	82.02988
1004.495	-23.35526
1004.663	-12.81942
1004.832	-40.21131
1005	35.65319
1005.168	12.46906
1005.337	16.68414
1005.505	60.94819
1005.673	27.22227
1005.842	6.14661
1006.01	-10.71218
1006.178	-2.28298
1006.346	77.81336
1006.514	71.48875
1006.683	46.19237
1006.851	-0.17561
1007.019	77.81336
1007.187	-6.49763
1007.355	52.51615
1007.523	-14.92664
1007.691	27.22227
1007.859	37.76098
1008.027	48.30027
1008.195	-21.24814
1008.363	-21.24814
1008.531	25.11459
1008.699	31.43768
1008.867	-21.24814
1009.035	-14.92664
1009.203	-0.17561
1009.37	1.93177
1009.538	-0.17561
1009.706	29.32996
1009.874	25.11459
1010.042	-35.99745
1010.209	20.89932
1010.377	-23.35526
1010.545	-6.49763
1010.713	41.97663
1010.88	-10.71218
1011.048	50.4082
1011.216	-4.39031
1011.383	10.36155
1011.551	44.08449
1011.718	-35.99745
1011.886	44.08449
1012.054	18.79172
1012.221	46.19237
1012.389	-23.35526
1012.556	-31.78348
1012.724	-23.35526
1012.891	-59.17246
1013.058	37.76098
1013.226	37.76098
1013.393	65.16435
1013.561	14.57659
1013.728	82.02988
1013.895	-6.49763
1014.063	-78.13156
1014.23	-12.81942
1014.397	63.05626
1014.565	-27.56942
1014.732	20.89932
1014.899	-31.78348
1015.066	-25.46235
1015.233	-12.81942
1015.401	20.89932
1015.568	-21.24814
1015.735	-31.78348
1015.902	-4.39031
1016.069	-27.56942
1016.236	-23.35526
1016.403	52.51615
1016.57	-12.81942
1016.737	60.94819
1016.904	39.86879
1017.071	-38.10439
1017.238	-12.81942
1017.405	-29.67646
1017.572	-6.49763
1017.739	35.65319
1017.906	77.81336
1018.073	20.89932
1018.24	-8.60492
1018.407	46.19237
1018.573	29.32996
1018.74	39.86879
1018.907	27.22227
1019.074	14.57659
1019.241	-4.39031
1019.407	-31.78348
1019.574	69.38059
1019.741	-21.24814
1019.907	35.65319
1020.074	25.11459
1020.241	31.43768
1020.407	50.4082
1020.574	-40.21131
1020.74	60.94819
1020.907	-14.92664
1021.073	-65.49239
1021.24	-21.24814
1021.406	-8.60492
1021.573	44.08449
1021.739	6.14661
1021.906	-23.35526
1022.072	65.16435
1022.239	8.25407
1022.405	-27.56942
1022.571	-2.28298
1022.738	23.00695
1022.904	-38.10439
1023.07	-21.24814
1023.237	107.33087
1023.403	-65.49239
1023.569	-27.56942
1023.735	-38.10439
1023.902	10.36155
1024.068	-33.89048
1024.234	54.62413
1024.4	6.14661
1024.566	10.36155
1024.732	-14.92664
1024.898	-71.81209
1025.065	44.08449
1025.231	-48.63874
1025.397	1.93177
1025.563	27.22227
1025.729	44.08449
1025.895	52.51615
1026.061	-8.60492
1026.227	14.57659
1026.392	1.93177
1026.558	35.65319
1026.724	-40.21131
1026.89	35.65319
1027.056	-10.71218
1027.222	-14.92664
1027.388	-2.28298
1027.553	-10.71218
1027.719	27.22227
1027.885	65.16435
1028.051	48.30027
1028.216	1.93177
1028.382	-2.28298
1028.548	-23.35526
1028.713	31.43768
1028.879	-21.24814
1029.045	48.30027
1029.21	105.22233
1029.376	31.43768
1029.541	-59.17246
1029.707	-63.38577
1029.873	-10.71218
1030.038	31.43768
1030.204	33.54542
1030.369	8.25407
1030.534	-14.92664
1030.7	27.22227
1030.865	-14.92664
1031.031	27.22227
1031.196	111.54801
1031.361	1.93177
1031.527	-14.92664
1031.692	14.57659
1031.857	-2.28298
1032.023	56.73213
1032.188	54.62413
1032.353	23.00695
1032.518	-14.92664
1032.684	4.03918
1032.849	25.11459
1033.014	52.51615
1033.179	-61.27913
1033.344	-21.24814
1033.509	12.46906
1033.674	4.03918
1033.839	-48.63874
1034.004	-17.03383
1034.17	23.00695
1034.335	-48.63874
1034.5	46.19237
1034.664	20.89932
1034.829	18.79172
1034.994	58.84015
1035.159	44.08449
1035.324	23.00695
1035.489	37.76098
1035.654	14.57659
1035.819	-10.71218
1035.984	67.27246
1036.148	-27.56942
1036.313	-57.06577
1036.478	52.51615
1036.643	65.16435
1036.807	52.51615
1036.972	18.79172
1037.137	-4.39031
1037.301	-38.10439
1037.466	69.38059
1037.631	6.14661
1037.795	44.08449
1037.96	-19.141
1038.124	39.86879
1038.289	67.27246
1038.454	10.36155
1038.618	-33.89048
1038.783	-6.49763
1038.947	6.14661
1039.111	-21.24814
1039.276	69.38059
1039.44	56.73213
1039.605	-27.56942
1039.769	27.22227
1039.933	-46.53192
1040.098	-21.24814
1040.262	-27.56942
1040.426	-17.03383
1040.591	63.05626
1040.755	25.11459
1040.919	-0.17561
1041.083	-19.141
1041.248	-23.35526
1041.412	71.48875
1041.576	-6.49763
1041.74	-65.49239
1041.904	77.81336
1042.068	-12.81942
1042.232	-31.78348
1042.397	31.43768
1042.561	-2.28298
1042.725	-14.92664
1042.889	-40.21131
1043.053	-71.81209
1043.217	18.79172
1043.381	29.32996
1043.544	-6.49763
1043.708	23.00695
1043.872	-31.78348
1044.036	-33.89048
1044.2	27.22227
1044.364	-0.17561
1044.528	18.79172
1044.691	79.92161
1044.855	60.94819
1045.019	27.22227
1045.183	31.43768
1045.346	-21.24814
1045.51	25.11459
1045.674	79.92161
1045.837	69.38059
1046.001	-46.53192
1046.165	52.51615
1046.328	10.36155
1046.492	79.92161
1046.655	29.32996
1046.819	23.00695
1046.983	-8.60492
1047.146	-33.89048
1047.31	37.76098
1047.473	-23.35526
1047.636	23.00695
1047.8	12.46906
1047.963	37.76098
1048.127	39.86879
1048.29	-65.49239
