Data from absorb_only_2.23.25_USB4F045381__22__0127.txt Node

Date: Sun Feb 23 19:15:56 EST 2025
User: ssocol
Spectrometer: USB4F04538
Trigger mode: 4
Integration Time (sec): 2.600000E-3
Scans to average: 1
Electric dark correction enabled: true
Nonlinearity correction enabled: true
Boxcar width: 0
XAxis mode: Wavelengths
Number of Pixels in Spectrum: 3648
>>>>>Begin Spectral Data<<<<<
345.52	19.66988
345.736	19.66988
345.952	19.66988
346.168	55.50246
346.384	78.6918
346.6	-37.2265
346.816	-16.15583
347.032	9.13219
347.248	93.45007
347.464	2.80986
347.68	-75.1474
347.896	-26.69148
348.112	-16.15583
348.328	-14.04863
348.544	42.8549
348.76	42.8549
348.975	-5.61958
349.191	53.39447
349.407	-24.5844
349.623	-24.5844
349.839	49.17857
350.055	-60.40135
350.27	120.86117
350.486	63.93463
350.702	-14.04863
350.918	-33.01256
351.133	-98.3172
351.349	76.58356
351.565	76.58356
351.781	-7.72688
351.996	-51.97449
352.212	-20.37016
352.428	44.96277
352.644	30.20817
352.859	38.63923
353.075	9.13219
353.291	57.61047
353.506	34.42366
353.722	89.23331
353.938	110.318
354.153	0.70246
354.369	47.07066
354.584	101.88386
354.8	42.8549
355.016	-20.37016
355.231	30.20817
355.447	34.42366
355.662	89.23331
355.878	-35.11954
356.093	59.7185
356.309	51.28651
356.524	30.20817
356.74	30.20817
356.955	70.25899
357.171	-16.15583
357.386	-28.79853
357.602	19.66988
357.817	51.28651
358.033	9.13219
358.248	-7.72688
358.464	36.53143
358.679	55.50246
358.895	36.53143
359.11	-20.37016
359.325	53.39447
359.541	25.99279
359.756	38.63923
359.972	34.42366
360.187	38.63923
360.402	44.96277
360.618	13.34719
360.833	51.28651
361.048	25.99279
361.264	-66.72124
361.479	49.17857
361.694	-28.79853
361.909	78.6918
362.125	11.23968
362.34	34.42366
362.555	-49.86771
362.77	-45.65407
362.986	0.70246
363.201	25.99279
363.416	11.23968
363.631	68.15085
363.847	15.45473
364.062	0.70246
364.277	2.80986
364.492	55.50246
364.707	59.7185
364.922	-39.33343
365.138	21.7775
365.353	51.28651
365.568	38.63923
365.783	30.20817
365.998	106.10089
366.213	47.07066
366.428	-11.94141
366.643	34.42366
366.858	55.50246
367.073	17.5623
367.288	93.45007
367.503	-1.40491
367.718	-18.26301
367.933	118.75249
368.148	68.15085
368.363	89.23331
368.578	-1.40491
368.793	34.42366
369.008	49.17857
369.223	-5.61958
369.438	-22.47729
369.653	-24.5844
369.868	-26.69148
370.083	53.39447
370.298	30.20817
370.513	21.7775
370.728	25.99279
370.943	101.88386
371.157	-49.86771
371.372	51.28651
371.587	-64.61464
371.802	-22.47729
372.017	34.42366
372.232	40.74705
372.446	9.13219
372.661	15.45473
372.876	7.02472
373.091	95.55848
373.306	66.04272
373.52	-7.72688
373.735	-7.72688
373.95	63.93463
374.165	68.15085
374.379	87.12496
374.594	-14.04863
374.809	97.66692
375.023	51.28651
375.238	28.10047
375.453	2.80986
375.667	23.88513
375.882	-5.61958
376.097	15.45473
376.311	-1.40491
376.526	-11.94141
376.741	42.8549
376.955	-28.79853
377.17	17.5623
377.384	9.13219
377.599	-18.26301
377.813	63.93463
378.028	38.63923
378.242	42.8549
378.457	-7.72688
378.672	-7.72688
378.886	36.53143
379.101	76.58356
379.315	36.53143
379.53	47.07066
379.744	2.80986
379.958	-16.15583
380.173	106.10089
380.387	61.82655
380.602	42.8549
380.816	42.8549
381.031	32.3159
381.245	93.45007
381.459	-5.61958
381.674	49.17857
381.888	23.88513
382.103	-5.61958
382.317	59.7185
382.531	38.63923
382.746	9.13219
382.96	34.42366
383.174	9.13219
383.388	85.01664
383.603	42.8549
383.817	-3.51226
384.031	21.7775
384.246	7.02472
384.46	68.15085
384.674	4.91728
384.888	7.02472
385.103	-16.15583
385.317	30.20817
385.531	21.7775
385.745	17.5623
385.959	9.13219
386.174	68.15085
386.388	93.45007
386.602	44.96277
386.816	70.25899
387.03	-7.72688
387.244	-33.01256
387.458	-28.79853
387.672	51.28651
387.887	76.58356
388.101	-28.79853
388.315	47.07066
388.529	118.75249
388.743	21.7775
388.957	-14.04863
389.171	25.99279
389.385	61.82655
389.599	93.45007
389.813	55.50246
390.027	13.34719
390.241	78.6918
390.455	13.34719
390.669	-24.5844
390.883	-20.37016
391.097	68.15085
391.311	59.7185
391.525	34.42366
391.738	30.20817
391.952	-35.11954
392.166	59.7185
392.38	53.39447
392.594	25.99279
392.808	97.66692
393.022	21.7775
393.236	30.20817
393.449	72.36716
393.663	38.63923
393.877	4.91728
394.091	23.88513
394.305	11.23968
394.518	68.15085
394.732	51.28651
394.946	89.23331
395.16	34.42366
395.373	42.8549
395.587	87.12496
395.801	47.07066
396.015	68.15085
396.228	25.99279
396.442	30.20817
396.656	21.7775
396.869	13.34719
397.083	44.96277
397.297	11.23968
397.51	89.23331
397.724	13.34719
397.938	49.17857
398.151	38.63923
398.365	19.66988
398.578	17.5623
398.792	36.53143
399.005	89.23331
399.219	110.318
399.433	32.3159
399.646	25.99279
399.86	49.17857
400.073	95.55848
400.287	47.07066
400.5	87.12496
400.714	61.82655
400.927	25.99279
401.141	21.7775
401.354	53.39447
401.567	74.47535
401.781	7.02472
401.994	68.15085
402.208	89.23331
402.421	87.12496
402.635	25.99279
402.848	-24.5844
403.061	51.28651
403.275	34.42366
403.488	23.88513
403.701	42.8549
403.915	11.23968
404.128	57.61047
404.341	9.13219
404.555	36.53143
404.768	34.42366
404.981	30.20817
405.195	61.82655
405.408	7.02472
405.621	53.39447
405.834	30.20817
406.048	72.36716
406.261	25.99279
406.474	93.45007
406.687	42.8549
406.9	0.70246
407.114	15.45473
407.327	95.55848
407.54	68.15085
407.753	55.50246
407.966	21.7775
408.179	42.8549
408.392	110.318
408.605	25.99279
408.819	76.58356
409.032	53.39447
409.245	-18.26301
409.458	51.28651
409.671	-7.72688
409.884	44.96277
410.097	17.5623
410.31	59.7185
410.523	63.93463
410.736	25.99279
410.949	85.01664
411.162	110.318
411.375	11.23968
411.588	32.3159
411.801	21.7775
412.014	59.7185
412.227	120.86117
412.44	61.82655
412.653	25.99279
412.865	38.63923
413.078	80.80005
413.291	87.12496
413.504	0.70246
413.717	76.58356
413.93	-35.11954
414.143	47.07066
414.356	85.01664
414.568	51.28651
414.781	13.34719
414.994	112.42659
415.207	76.58356
415.42	85.01664
415.632	129.2961
415.845	120.86117
416.058	87.12496
416.271	76.58356
416.483	25.99279
416.696	21.7775
416.909	85.01664
417.121	103.99236
417.334	139.84024
417.547	59.7185
417.759	44.96277
417.972	72.36716
418.185	47.07066
418.397	61.82655
418.61	78.6918
418.823	11.23968
419.035	9.13219
419.248	51.28651
419.46	25.99279
419.673	59.7185
419.885	63.93463
420.098	103.99236
420.311	28.10047
420.523	2.80986
420.736	-5.61958
420.948	61.82655
421.161	70.25899
421.373	160.93012
421.586	47.07066
421.798	82.90833
422.01	70.25899
422.223	53.39447
422.435	76.58356
422.648	19.66988
422.86	82.90833
423.073	63.93463
423.285	93.45007
423.497	68.15085
423.71	59.7185
423.922	59.7185
424.134	120.86117
424.347	66.04272
424.559	74.47535
424.771	42.8549
424.984	51.28651
425.196	13.34719
425.408	63.93463
425.621	61.82655
425.833	0.70246
426.045	118.75249
426.257	89.23331
426.47	101.88386
426.682	38.63923
426.894	177.80353
427.106	42.8549
427.318	129.2961
427.531	97.66692
427.743	127.18734
427.955	63.93463
428.167	131.40488
428.379	57.61047
428.591	95.55848
428.804	118.75249
429.016	78.6918
429.228	93.45007
429.44	135.62252
429.652	51.28651
429.864	91.34168
430.076	91.34168
430.288	103.99236
430.5	152.49392
430.712	55.50246
430.924	135.62252
431.136	112.42659
431.348	152.49392
431.56	108.20943
431.772	211.55428
431.984	110.318
432.196	110.318
432.408	196.78769
432.62	99.77538
432.832	186.24073
433.044	114.5352
433.256	169.36666
433.468	72.36716
433.679	95.55848
433.891	103.99236
434.103	173.58505
434.315	114.5352
434.527	127.18734
434.739	78.6918
434.95	167.25749
435.162	203.11611
435.374	205.22562
435.586	148.27594
435.798	179.9128
436.009	203.11611
436.221	152.49392
436.433	120.86117
436.645	154.60294
436.856	255.85985
437.068	198.89714
437.28	205.22562
437.491	186.24073
437.703	160.93012
437.915	186.24073
438.126	211.55428
438.338	116.64384
438.55	272.74039
438.761	226.32184
438.973	270.63026
439.184	236.87069
439.396	129.2961
439.608	219.99277
439.819	135.62252
440.031	209.44471
440.242	234.76089
440.454	173.58505
440.665	203.11611
440.877	253.74986
441.088	198.89714
441.3	148.27594
441.511	241.09037
441.723	213.66387
441.934	207.33515
442.146	287.51185
442.357	219.99277
442.569	255.85985
442.78	279.07091
442.991	300.17382
443.203	217.88312
443.414	260.07987
443.626	228.43158
443.837	302.28422
444.048	279.07091
444.26	295.95309
444.471	306.50506
444.682	196.78769
444.894	194.67826
445.105	253.74986
445.316	437.38548
445.528	289.62213
445.739	306.50506
445.95	306.50506
446.161	300.17382
446.373	384.60334
446.584	321.27857
446.795	289.62213
447.006	236.87069
447.217	371.93715
447.429	382.49226
447.64	348.71739
447.851	262.18991
448.062	350.82819
448.273	355.04985
448.484	262.18991
448.695	399.38131
448.907	331.83161
449.118	386.71443
449.329	342.38509
449.54	405.71498
449.751	238.98052
449.962	407.82623
450.173	428.93966
450.384	363.49336
450.595	365.60428
450.806	428.93966
451.017	433.16254
451.228	397.27012
451.439	338.16365
451.65	371.93715
451.861	469.05951
452.072	523.96917
452.283	515.52089
452.494	473.28298
452.705	464.83611
452.915	490.17744
453.126	498.62502
453.337	515.52089
453.548	412.04879
453.759	490.17744
453.97	496.5131
454.181	517.63294
454.391	507.07284
454.602	523.96917
454.813	600.01358
455.024	640.15495
455.235	568.32629
455.445	509.18483
455.656	678.18766
455.867	593.67589
456.078	568.32629
456.288	587.33831
456.499	614.80198
456.71	623.25277
456.921	536.64201
457.131	785.96659
457.342	671.84861
457.553	726.79042
457.763	633.81654
457.974	758.49094
458.184	640.15495
458.395	847.26422
458.606	775.39883
458.816	881.08681
459.027	836.69512
459.237	802.8755
459.448	900.11294
459.659	840.92273
459.869	819.78501
460.08	969.88074
460.29	1084.06175
460.501	946.62393
460.711	1120.01095
460.922	887.42878
461.132	969.88074
461.343	1018.51126
461.553	1120.01095
461.764	1179.2242
461.974	1033.3125
462.184	976.22366
462.395	1194.028
462.605	1229.98077
462.816	980.4523
463.026	1234.21057
463.236	1306.11875
463.447	1399.17959
463.657	1130.5845
463.867	1471.0913
464.078	1405.52473
464.288	1488.0117
464.498	1471.0913
464.709	1492.24179
464.919	1394.94951
465.129	1606.4529
465.339	1597.99297
465.55	1629.71757
465.76	1549.3478
465.97	1640.29233
466.18	1439.36552
466.391	1866.57286
466.601	1644.52221
466.811	1836.96869
467.021	1758.72485
467.231	2039.94691
467.441	1676.24605
467.651	2097.02396
467.862	2101.25168
468.072	2162.55012
468.282	2063.20116
468.492	2225.95509
468.702	2287.23906
468.912	2340.06377
469.122	2211.16128
469.332	2409.78291
469.542	2337.9509
469.752	2492.16347
469.962	2454.14373
470.172	2656.87234
470.382	2699.09336
470.592	2684.31658
470.802	2747.64112
471.012	2730.75573
471.222	2696.98243
471.432	2851.04522
471.642	2819.39441
471.852	3078.83417
472.062	2933.32232
472.272	3177.90843
472.482	3213.73498
472.691	3521.21831
472.901	3135.7535
473.111	3203.19825
473.321	3310.65322
473.531	3531.74185
473.741	3506.48458
473.95	3775.75634
474.16	3599.08158
474.37	3891.36189
474.58	3569.62278
474.79	4111.8939
474.999	3880.85478
475.209	3914.47577
475.419	4030.00841
475.628	4355.26131
475.838	4460.0717
476.048	4543.88052
476.258	4455.88034
476.467	4690.46036
476.677	4816.01248
476.886	4882.94016
477.096	4799.27691
477.306	4776.26313
477.515	4818.10432
477.725	5060.60272
477.935	5052.24587
478.144	5052.24587
478.354	5110.73607
478.563	5442.53033
478.773	5350.77226
478.982	5496.72961
479.192	5452.9545
479.401	5534.24288
479.611	5550.91299
479.82	5992.12087
480.03	5963.0172
480.239	5979.64843
480.449	5692.54802
480.658	6195.71739
480.868	6226.86022
481.077	6247.61917
481.287	6299.5063
481.496	6457.15356
481.705	6341.00548
481.915	6647.81022
482.124	6533.85424
482.333	6502.7632
482.543	6589.805
482.752	6825.85654
482.961	6935.49874
483.171	7292.94819
483.38	6941.70299
483.589	7034.74252
483.799	7377.56451
484.008	7274.36894
484.217	7286.75531
484.426	7573.48639
484.636	7569.36373
484.845	7738.32341
485.054	7410.57556
485.263	7917.43115
485.472	7552.87219
485.682	7919.48895
485.891	8069.65298
486.1	8038.80621
486.309	8192.99483
486.518	8289.5626
486.727	8322.42683
486.936	8386.08707
487.146	8223.81907
487.355	8609.77825
487.564	8316.26517
487.773	8745.11576
487.982	8665.15335
488.191	8691.8106
488.4	8765.61444
488.609	8802.50748
488.818	8945.92482
489.027	9154.74959
489.236	9228.4097
489.445	9220.22632
489.654	9257.04938
489.863	9594.34584
490.072	9481.96259
490.281	9596.38873
490.49	9522.83478
490.698	9420.64224
490.907	9837.34136
491.116	9918.97258
491.325	10057.69212
491.534	9872.03752
491.743	9821.01227
491.952	10100.51862
492.16	10110.71449
492.369	10212.65407
492.578	10322.71042
492.787	10247.30569
492.996	10495.86898
493.204	10689.29029
493.413	10740.17222
493.622	10813.4291
493.831	10664.86428
494.039	10917.18377
494.248	10618.04283
494.457	11098.17548
494.665	10998.53923
494.874	10943.62627
495.083	10978.20205
495.291	11366.45662
495.5	11165.2628
495.709	11309.56346
495.917	11226.24128
496.126	11319.72353
496.335	11256.727
496.543	11600.04488
496.752	11364.42486
496.96	11553.33726
497.169	11644.71719
497.377	11784.79771
497.586	11794.94685
497.794	12006.00164
498.003	11807.12554
498.211	12048.60784
498.42	11922.80797
498.628	12391.36605
498.837	12046.57905
499.045	12168.29277
499.254	12099.32503
499.462	12158.151
499.671	12326.48081
499.879	12565.71136
500.087	12253.47638
500.296	12602.19626
500.504	12427.86095
500.713	12814.98619
500.921	12697.45307
501.129	12756.22203
501.338	12411.64126
501.546	13007.45756
501.754	12735.95742
501.962	12944.65632
502.171	12752.16916
502.379	13047.97192
502.587	12867.66734
502.795	12934.52662
503.004	13013.53484
503.212	13349.74525
503.42	13199.88371
503.628	13313.29459
503.837	13151.27479
504.045	13596.7664
504.253	13562.34872
504.461	13165.45266
504.669	13661.54994
504.877	13908.50771
505.085	13748.59755
505.294	13819.44605
505.502	13586.64366
505.71	14011.7318
505.918	13697.9892
506.126	13847.78444
506.334	13689.89167
506.542	13946.96452
506.75	14015.77967
506.958	14080.54429
507.166	14319.34489
507.374	14274.8248
507.582	14013.75573
507.79	14232.32752
507.998	13817.42185
508.206	14307.20313
508.414	14394.21772
508.622	14432.66509
508.83	14408.38261
509.037	14946.60599
509.245	14313.27402
509.453	14855.55734
509.661	14442.78273
509.869	14885.907
510.077	14509.55824
510.285	15090.25895
510.492	14724.04039
510.7	15094.3055
510.908	14952.67586
511.116	14786.76424
511.324	15144.88729
511.531	15063.95639
511.739	14997.18819
511.947	14999.21147
512.155	15096.32877
512.362	15031.58396
512.57	14811.04425
512.778	15049.79346
512.985	14989.09505
513.193	15312.81899
513.401	15357.33123
513.608	15460.51943
513.816	15203.56214
514.024	15296.63275
514.231	15320.91211
514.439	15583.94247
514.646	15357.33123
514.854	15745.81306
515.061	15197.49232
515.269	15699.27468
515.477	15545.49896
515.684	15719.50869
515.892	15933.99586
516.099	16205.16144
516.307	15871.26713
516.514	16233.49381
516.722	16073.62251
516.929	15950.18412
517.136	15944.11351
517.344	16091.83519
517.551	16294.20721
517.759	16290.1596
517.966	16330.63603
518.173	16071.59889
518.381	16524.93372
518.588	16336.70756
518.796	16433.85438
519.003	16652.45211
519.21	16334.68371
519.418	16609.945
519.625	16500.64549
519.832	16788.07689
520.039	17105.92848
520.247	16873.10097
520.454	16992.54719
520.661	17346.8933
520.868	16800.22292
521.076	17395.49634
521.283	17002.67017
521.49	16990.5226
521.697	16982.42427
521.904	17334.74281
522.112	16773.90664
522.319	17280.06696
522.526	17221.34345
522.733	17340.81804
522.94	17504.85971
523.147	17255.76728
523.354	17233.49294
523.561	17527.13856
523.768	17478.53065
523.975	17703.35778
524.183	17881.62821
524.39	18019.40098
524.597	17855.29114
524.804	17970.77344
525.011	17646.64084
525.218	17681.07582
525.425	17699.30649
525.632	17934.30412
525.838	18126.79411
526.045	18055.87299
526.252	17918.09589
526.459	18266.62313
526.666	18094.37248
526.873	18207.85228
527.08	18286.88967
527.287	18380.12055
527.494	18120.71499
527.701	18384.17425
527.907	18380.12055
528.114	18980.23644
528.321	18805.84288
528.528	19032.96593
528.735	18957.92863
528.941	18740.95978
529.148	18491.60277
529.355	19152.6315
529.562	18661.88897
529.768	18876.81343
529.975	18844.36914
530.182	18826.11968
530.388	18891.00813
530.595	19371.71726
530.802	18921.426
531.008	19166.83005
531.215	19363.60211
531.422	19426.49622
531.628	19696.37759
531.835	19440.69866
532.042	19452.87235
532.248	20098.29314
532.455	19793.79654
532.661	19527.94673
532.868	19584.76356
533.074	19781.61864
533.281	19791.76688
533.487	19767.41129
533.694	19558.38391
533.9	20092.20228
534.107	19858.74788
534.313	20372.42098
534.52	19893.25503
534.726	20128.74801
534.933	20023.17519
535.139	20008.96433
535.345	20065.809
535.552	20250.57693
535.758	20463.81393
535.965	20575.52794
536.171	20585.68438
536.377	20916.84145
536.584	20691.3176
536.79	20536.9344
536.996	21113.96242
537.203	20764.45488
537.409	20691.3176
537.615	20872.13898
537.821	20843.69299
538.028	21213.5536
538.234	20847.75666
538.44	20953.41768
538.646	21132.25395
538.853	21077.38036
539.059	20750.23332
539.265	21052.99306
539.471	20973.73839
539.677	20705.53831
539.883	21227.7817
540.09	20878.23465
540.296	21028.60634
540.502	21662.85002
540.708	21370.07365
540.914	21896.7229
541.12	21782.83058
541.326	22024.86612
541.532	21699.45282
541.738	21927.23182
541.944	21705.55341
542.15	22116.4062
542.356	22055.37863
542.562	22112.33759
542.768	22246.60959
542.974	21998.42263
543.18	21477.82205
543.386	21949.60557
543.592	22177.43714
543.798	22293.40514
544.004	22161.1619
544.21	22372.75855
544.415	22523.34173
544.621	22653.59162
544.827	22519.27165
545.033	22667.83858
545.239	22655.62689
545.445	22663.768
545.651	22541.65724
545.856	22846.95775
546.062	22806.2465
546.268	22570.14861
546.474	22421.59417
546.679	22258.81694
546.885	22161.1619
547.091	22743.14678
547.297	22592.53518
547.502	22704.4744
547.708	22576.254
547.914	22783.85589
548.119	23144.19083
548.325	22932.45582
548.531	22863.24263
548.736	23042.39066
548.942	22781.8204
549.147	22698.36835
549.353	22922.27717
549.559	23423.16483
549.764	23060.71408
549.97	23252.10794
550.175	23518.8849
550.381	23710.34535
550.586	23329.48804
550.792	23427.23788
550.997	23058.67814
551.203	23675.71755
551.408	23865.16244
551.614	23802.01132
551.819	23840.71651
552.025	24066.85707
552.23	23808.12259
552.435	24136.13229
552.641	24042.40776
552.846	24213.56129
553.052	23895.72043
553.257	24052.59493
553.462	23789.78884
553.668	24046.48262
553.873	24062.78216
554.078	24297.10749
554.283	23793.86299
554.489	24264.50356
554.694	24223.74961
554.899	24615.03085
555.105	24354.16601
555.31	24659.87117
555.515	24187.07198
555.72	24433.6438
555.925	24527.3919
556.131	25018.63571
556.336	24661.90939
556.541	24910.59097
556.746	24447.90947
556.951	24778.09224
557.156	24747.51704
557.361	24824.97526
557.567	24918.74507
557.772	24945.24613
557.977	24608.91635
558.182	24818.86001
558.387	24935.05336
558.592	25030.8676
558.797	24816.8216
559.002	24906.51394
559.207	24802.55279
559.412	25024.75164
559.617	24947.28468
559.822	25510.0118
560.027	25346.88565
560.232	25304.06725
560.437	25312.22306
560.642	25554.87378
560.847	25624.20785
561.051	25726.17383
561.256	25153.19091
561.461	25793.47402
561.666	25528.36431
561.871	25715.97702
562.076	25560.9914
562.281	25609.933
562.485	25230.66647
562.69	25265.3276
562.895	25110.37683
563.1	25609.933
563.305	25607.89374
563.509	25811.82898
563.714	25815.90788
563.919	26105.52852
564.123	25481.46377
564.328	25813.86843
564.533	25514.09012
564.737	25950.51574
564.942	26093.2903
565.147	26352.34583
565.351	26425.78379
565.556	26109.60794
565.761	25997.42642
565.965	26099.4094
566.17	25938.27833
566.374	25885.25032
566.579	25909.72463
566.784	26221.79474
566.988	26134.08462
567.193	26036.17943
567.397	26091.2506
567.602	26601.22727
567.806	26083.09183
568.011	26464.54355
568.215	26619.58831
568.42	26525.74435
568.624	26374.78499
568.828	26735.8777
569.033	26446.18359
569.237	26566.54567
569.442	26489.0237
569.646	26435.98367
569.85	26654.27059
570.055	26974.59198
570.259	26911.34098
570.463	26713.43551
570.668	26499.22383
570.872	26725.67668
571.076	26666.51151
571.281	26968.47086
571.485	27054.16773
571.689	27421.46696
571.893	27378.61321
572.098	27309.23213
572.302	27058.2486
572.506	27117.42175
572.71	27052.1273
572.914	27394.93838
573.119	27533.70562
573.323	27066.41034
573.527	27072.53166
573.731	27794.9299
573.935	27237.81201
574.139	27180.67707
574.343	26664.47135
574.547	27121.5027
574.751	27456.15851
574.955	27333.7194
575.159	27527.58341
575.364	27364.32875
575.568	27807.17527
575.772	27876.56647
575.976	27550.03155
576.18	27643.90721
576.383	27566.35757
576.587	27433.71099
576.791	27660.23367
576.995	27723.49944
577.199	27658.19286
577.403	27605.13217
577.607	27852.07531
577.811	27872.4846
578.015	27701.05016
578.219	27935.75415
578.422	27613.2953
578.626	28299.06474
578.83	28162.30887
579.034	27994.94278
579.238	28170.47326
579.442	28346.01191
579.645	28215.37773
579.849	28356.21789
580.053	28499.10445
580.257	28356.21789
580.46	28458.27918
580.664	28356.21789
580.868	28262.32387
581.071	28486.85682
581.275	28529.72367
581.479	28774.68603
581.682	28478.69176
581.886	28309.27059
582.09	28582.79757
582.293	29066.6191
582.497	28682.82337
582.7	28931.87812
582.904	28952.29313
583.107	29123.78331
583.311	28942.08561
583.515	28688.94749
583.718	28303.14708
583.922	29042.12041
584.125	28778.76886
584.329	29225.86427
584.532	28980.87432
584.735	29278.9474
584.939	28856.34349
585.142	29317.73937
585.346	29199.32297
585.549	29327.94784
585.753	29207.48951
585.956	29285.07243
586.159	29280.98908
586.363	29628.08878
586.566	29501.49593
586.769	29056.4113
586.973	29056.4113
587.176	29654.63296
587.379	29227.90592
587.582	29291.19746
587.786	29391.24097
587.989	29340.19805
588.192	29378.99061
588.395	29742.43426
588.599	29742.43426
588.802	30079.36516
589.005	29605.62846
589.208	30112.03888
589.411	29766.93731
589.615	29824.11169
589.818	29797.56634
590.021	30381.60862
590.224	29830.23757
590.427	30126.33373
590.63	30606.26636
590.833	30285.62307
591.036	30234.56801
591.239	30732.89847
591.442	30365.27047
591.645	30826.85464
591.848	30667.53933
592.051	30316.25647
592.254	30165.13432
592.457	30426.53896
592.66	30508.23202
592.863	30387.73545
593.066	30367.31273
593.269	30538.86743
593.472	30802.34406
593.675	31233.35163
593.878	30732.89847
594.081	30937.15472
594.284	30677.7516
594.486	31167.98135
594.689	31513.23634
594.892	30830.93976
595.095	30690.00638
595.298	30350.97465
595.5	30606.26636
595.703	31543.88251
595.906	31008.64771
596.109	30826.85464
596.311	30982.09297
596.514	30865.66347
596.717	30953.49582
596.92	31660.34147
597.122	31108.74087
597.325	31382.48352
597.528	31378.3976
597.73	31693.03272
597.933	31576.57218
598.136	31754.33004
598.338	31388.61241
598.541	31688.94629
598.743	31635.82333
598.946	31172.06694
599.148	31290.55191
599.351	31374.31169
599.554	32230.46363
599.756	31590.87405
599.959	32269.29477
600.161	31460.1172
600.363	31876.92957
600.566	31725.72442
600.768	31670.55744
600.971	31934.14498
601.173	31772.71955
601.376	31733.89742
601.578	32022.01443
601.78	31964.79671
601.983	31860.58258
602.185	31944.36218
602.388	31948.44907
602.59	31801.32574
602.792	32001.57936
602.995	31817.6723
603.197	31834.01898
603.399	32099.66952
603.601	31421.30007
603.804	31411.08513
604.006	31801.32574
604.208	31966.84017
604.41	31797.23912
604.613	32019.97091
604.815	31923.92784
605.017	32154.84726
605.219	31513.23634
605.421	31423.34306
605.623	31958.66633
605.826	32308.12667
606.028	32396.01228
606.23	32671.95924
606.432	32111.93111
606.634	32784.39443
606.836	32034.27557
607.038	32680.1361
607.24	31791.1092
607.442	32387.8367
607.644	32322.43336
607.846	32725.1095
608.048	32733.28661
608.25	32819.14864
608.452	31936.18842
608.654	31983.18795
608.856	31979.101
609.058	32340.82782
609.26	32494.12196
609.462	32631.07553
609.664	32723.06523
609.866	32316.30191
610.067	32461.41816
610.269	32297.90768
610.471	31599.04659
610.673	32520.69423
610.875	32586.10455
611.077	32130.32364
611.278	32169.15284
611.48	32026.10147
611.682	32275.42607
611.884	32945.90549
612.085	32512.51811
612.287	33021.55548
612.489	32700.57841
612.69	32387.8367
612.892	32610.63404
613.094	33021.55548
613.295	32342.87166
613.497	32741.46376
613.699	32404.18789
613.9	32494.12196
614.102	32312.21429
614.304	32661.73823
614.505	32259.07597
614.707	32833.45941
614.908	32228.41991
615.11	31883.05972
615.311	32465.5061
615.513	32363.31019
615.714	32784.39443
615.916	32964.30651
616.117	32320.38954
616.319	32731.24233
616.52	32870.25909
616.722	32929.54922
616.923	32831.415
617.124	32765.99544
617.326	32283.60117
617.527	32596.32513
617.729	32265.20724
617.93	32551.35502
618.131	32199.808
618.333	32449.15438
618.534	32447.11043
618.735	32819.14864
618.937	32434.84675
619.138	33179.00106
619.339	32776.21708
619.54	32459.37419
619.742	32522.73827
619.943	32526.82635
620.144	32960.21738
620.345	32921.37114
620.546	32620.85476
620.748	32639.2522
620.949	32790.52748
621.15	32802.79363
621.351	32794.61618
621.552	32626.98722
621.753	33082.89599
621.954	33260.79749
622.155	32440.97858
622.356	32776.21708
622.558	33242.3929
622.759	33084.94071
622.96	32449.15438
623.161	32207.98279
623.362	32659.69403
623.563	32927.50469
623.764	32393.96838
623.965	32698.53417
624.166	32952.03914
624.366	32827.32621
624.567	32731.24233
624.768	32929.54922
624.969	32451.19834
625.17	32158.93456
625.371	32690.35722
625.572	32483.90196
625.773	32588.14866
625.973	32978.61856
626.174	32823.23742
626.375	32958.17281
626.576	33420.31385
626.777	33616.66691
626.977	32653.56146
627.178	32982.70774
627.379	32479.81398
627.58	32320.38954
627.78	32410.31962
627.981	32459.37419
628.182	32941.81641
628.382	33201.49463
628.583	33590.07575
628.784	33293.51734
628.984	32549.31096
629.185	33397.81686
629.386	32359.22246
629.586	33174.91136
629.787	32496.16597
629.987	32686.26877
630.188	33060.40418
630.388	33342.59852
630.589	32743.50805
630.79	33264.88743
630.99	33387.59108
631.191	34103.58911
631.391	33614.62142
631.591	33252.61764
631.792	33432.58509
631.992	33203.53952
632.193	33588.0303
632.393	33336.46328
632.594	33211.71909
632.794	33352.82397
632.994	33123.79102
633.195	33148.32857
633.395	32990.88613
633.595	32708.7554
633.796	33009.28767
633.996	33316.01267
634.196	33405.99754
634.397	33839.64514
634.597	33549.16732
634.797	33688.26118
634.997	33352.82397
635.198	33015.42156
635.398	33048.13607
635.598	33667.80527
635.798	33403.95237
635.998	33585.98485
636.199	33446.90167
636.399	33559.39431
636.599	33866.24152
636.799	33397.81686
636.999	33105.38812
637.199	33011.33229
637.399	33702.58051
637.599	33436.67552
637.799	33506.2148
637.999	34386.0151
638.199	34005.37054
638.399	33798.72876
638.599	33338.50835
638.799	33780.31683
638.999	33412.13308
639.199	33371.22998
639.399	33281.24731
639.599	33663.71413
639.799	33271.02237
639.999	33405.99754
640.199	33471.44472
640.399	33858.05796
640.599	32451.19834
640.799	33915.34404
640.998	33661.66856
641.198	33905.11419
641.398	33596.21212
641.598	34064.70993
641.798	34099.4965
641.997	33815.09515
642.197	33943.9881
642.397	34248.88622
642.597	33856.01208
642.796	34244.79308
642.996	33530.75893
643.196	34003.3244
643.395	33653.48633
643.595	33778.27107
643.795	34277.53859
643.994	33798.72876
644.194	33414.17827
644.394	34076.98742
644.593	34373.73419
644.793	34197.72312
644.992	33794.6372
645.192	33448.9469
645.392	33946.03413
645.591	34216.14157
645.791	34201.81608
645.99	34122.00602
646.19	33549.16732
646.389	33618.71241
646.589	33628.93994
646.788	33808.95773
646.987	33937.85003
647.187	34160.88714
647.386	33694.39802
647.586	34111.77436
647.785	34410.57734
647.984	34095.40391
648.184	33894.88442
648.383	33784.40834
648.582	33723.03698
648.782	34232.51377
648.981	34359.40664
649.18	34453.56264
649.38	34623.47438
649.579	34721.74965
649.778	34498.59675
649.977	34668.516
650.177	34529.30295
650.376	34811.84398
650.575	34492.45562
650.774	34906.04258
650.973	34367.59379
651.173	34488.36155
651.372	34117.91335
651.571	34428.9994
651.77	34197.72312
651.969	34246.83965
652.168	34386.0151
652.367	34598.90707
652.566	34441.28095
652.765	34400.34301
652.964	34287.77176
653.163	34562.05724
653.362	34498.59675
653.561	34588.67087
653.76	34660.32646
653.959	34498.59675
654.158	34179.30498
654.357	33954.21829
654.556	33911.25209
654.755	34451.51568
654.954	34142.4696
655.153	33815.09515
655.352	34248.88622
655.551	34850.75096
655.749	34924.47385
655.948	34926.52179
656.147	34234.56031
656.346	34019.69356
656.545	34488.36155
656.743	34162.93355
656.942	34557.96289
657.141	34856.89431
657.34	34725.84466
657.538	34298.00502
657.737	34410.57734
657.936	34666.46861
658.135	34359.40664
658.333	34349.1728
658.532	34590.7181
658.731	34175.2121
658.929	34152.70153
659.128	34533.39718
659.326	34285.72512
659.525	34660.32646
659.724	34222.28111
659.922	34813.89168
660.121	34379.87463
660.319	34588.67087
660.518	34627.56898
660.716	34334.84558
660.915	34081.07995
661.113	34105.63542
661.312	34293.91171
661.51	34224.32764
661.709	34070.84866
661.907	34328.7054
662.105	34611.19065
662.304	34795.46257
662.502	34435.14016
662.701	34893.75527
662.899	35061.69595
663.097	35133.38741
663.296	34257.07253
663.494	34932.66564
663.692	34723.79715
663.891	34758.60541
664.089	34269.35212
664.287	34584.57642
664.485	34361.45342
664.684	34828.22567
664.882	34375.781
665.08	34015.60125
665.278	34001.27828
665.476	34158.84073
665.675	33950.1262
665.873	34236.60686
666.071	34357.35987
666.269	34652.13699
666.467	34662.37384
666.665	34924.47385
666.863	34619.37978
667.061	34744.27244
667.259	35006.39502
667.457	35465.29359
667.655	34590.7181
667.853	34246.83965
668.051	33911.25209
668.249	34367.59379
668.447	34545.67996
668.645	34660.32646
668.843	34271.39873
669.041	34664.42122
669.239	33616.66691
669.437	34079.03369
669.635	34293.91171
669.833	34517.02036
670.031	34218.18808
670.229	34400.34301
670.426	34697.17991
670.624	34169.07281
670.822	33806.91193
671.02	34036.06295
671.218	34076.98742
671.415	33825.32426
671.613	33800.77455
671.811	33473.49
672.009	33612.57593
672.206	33911.25209
672.404	33716.9
672.602	34046.29393
672.799	34113.82069
672.997	34379.87463
673.195	33821.2326
673.392	34586.62364
673.59	34396.2493
673.788	33796.68298
673.985	33680.07878
674.183	33714.85435
674.38	33845.78272
674.578	34328.7054
674.775	34318.47184
674.973	34332.79885
675.17	34269.35212
675.368	33892.83847
675.565	34265.25891
675.763	34212.04855
675.96	33776.22532
676.158	33410.0879
676.355	33250.57269
676.553	33651.44078
676.75	33166.73199
676.947	33510.30546
677.145	33369.18486
677.342	33201.49463
677.539	33487.807
677.737	33860.10384
677.934	33802.82034
678.131	34097.4502
678.329	33430.53987
678.526	33203.53952
678.723	33244.43784
678.92	33675.9876
679.118	33369.18486
679.315	33354.86907
679.512	33156.50784
679.709	33154.46301
679.906	32921.37114
680.104	33641.21307
680.301	33150.37338
680.498	33303.74245
680.695	33573.71223
680.892	33230.1233
681.089	32986.79693
681.286	33252.61764
681.483	33113.56716
681.68	33414.17827
681.877	33346.68869
682.075	33569.62138
682.272	33238.30302
682.469	33373.27511
682.665	33093.11964
682.862	32620.85476
683.059	33524.62286
683.256	33361.00439
683.453	33246.48279
683.65	32751.68525
683.847	32778.26141
684.044	33031.77873
684.241	32475.726
684.438	33264.88743
684.635	32855.94801
684.831	33628.93994
685.028	33111.52239
685.225	33244.43784
685.422	32545.22282
685.619	32997.01995
685.815	33001.10918
686.012	32481.85797
686.209	32152.80361
686.405	32872.30354
686.602	32645.38472
686.799	32330.60865
686.996	32743.50805
687.192	32637.20803
687.389	32702.62265
687.586	32676.04767
687.782	32831.415
687.979	32817.10426
688.175	32344.91551
688.372	32978.61856
688.568	32866.1702
688.765	32692.40146
688.962	32639.2522
689.158	32604.50163
689.355	32557.48725
689.551	32426.671
689.748	32402.14398
689.944	32228.41991
690.14	31656.2551
690.337	32032.23204
690.533	32438.93463
690.73	32271.33853
690.926	32774.17275
691.123	32610.63404
691.319	32694.44569
691.515	32297.90768
691.712	31693.03272
691.908	31362.054
692.104	32046.53678
692.301	31905.53709
692.497	31766.58969
692.693	31550.01179
692.889	31578.6153
693.086	31697.11916
693.282	31641.95284
693.478	31737.98393
693.674	31717.55145
693.87	31431.51504
694.067	31227.2231
694.263	31329.36709
694.459	31476.46143
694.655	31484.63358
694.851	31750.2435
695.047	31942.31874
695.243	31368.18284
695.439	31480.5475
695.635	31219.05174
695.831	31842.19236
696.027	31905.53709
696.224	31842.19236
696.42	31870.79944
696.615	31313.02379
696.811	31214.96608
697.007	31008.64771
697.203	30757.4085
697.399	30820.72698
697.595	30824.81208
697.791	30957.58111
697.987	30969.83701
698.183	31296.68059
698.379	31147.55345
698.575	31227.2231
698.77	31204.75194
698.966	31268.08023
699.162	31419.25707
699.358	31439.68705
699.554	30816.64187
699.749	31182.28096
699.945	30957.58111
700.141	30788.04631
700.337	30636.9027
700.532	30961.66641
700.728	31182.28096
700.924	31033.16
701.119	30728.81348
701.315	30792.13137
701.511	30397.94686
701.706	30951.45318
701.902	30830.93976
702.097	31253.78016
702.293	30608.30877
702.489	30109.99677
702.684	29926.21097
702.88	30301.96085
703.075	30338.72113
703.271	30312.172
703.466	30818.68442
703.662	30879.96158
703.857	30726.77099
704.053	30530.69796
704.248	30130.41799
704.443	30046.69173
704.639	30457.17362
704.834	30800.30152
705.03	30461.25826
705.225	30596.05431
705.42	30293.79195
705.616	30222.31491
705.811	29603.58662
706.006	30001.76624
706.202	29887.41292
706.397	29640.33992
706.592	30363.2282
706.787	30083.44936
706.983	30099.7862
707.178	30442.87741
707.373	30383.6509
707.568	30504.14731
707.763	30214.1462
707.959	30287.66529
708.154	30071.19677
708.349	30163.09218
708.544	30402.03143
708.739	29683.21921
708.934	29916.00092
709.129	30130.41799
709.324	29577.04278
709.519	29489.24523
709.714	29354.49
709.909	29595.41926
710.104	29374.90716
710.299	29315.69768
710.494	29538.24827
710.689	29956.8413
710.884	29987.47188
711.079	30038.52342
711.274	29997.68213
711.469	30228.44146
711.664	29693.42864
711.859	30183.5137
712.054	30673.66669
712.249	30175.34507
712.443	30044.64965
712.638	29862.90909
712.833	29193.19808
713.028	29789.39857
713.223	29115.61694
713.417	29423.90879
713.612	29033.95421
713.807	29668.92606
714.002	29483.11989
714.196	29585.2101
714.391	29726.09898
714.586	29781.23082
714.78	30067.11259
714.975	29830.23757
715.17	29342.23975
715.364	29564.79184
715.559	29364.69857
715.754	29329.98954
715.948	29150.32411
716.143	29207.48951
716.337	28143.93906
716.532	29046.20351
716.726	28793.05881
716.921	28935.96112
717.115	29031.91266
717.31	29195.23971
717.504	28956.37615
717.699	30101.82831
717.893	29334.07294
718.088	29066.6191
718.282	29084.99322
718.476	28625.66546
718.671	28221.50111
718.865	28791.01739
719.059	28674.65791
719.254	28225.58336
719.448	28533.80626
719.642	28419.49557
719.837	28019.43491
720.031	28335.80595
720.225	28152.10341
720.419	28478.69176
720.614	28074.54279
720.808	28454.19668
721.002	28470.52672
721.196	28407.2482
721.39	28793.05881
721.585	28805.30738
721.779	28164.34997
721.973	28305.18825
722.167	28197.00766
722.361	28466.4442
722.555	28944.12712
722.749	28327.64121
722.943	28178.63767
723.137	27958.2049
723.331	27703.091
723.525	27868.40273
723.719	28262.32387
723.913	28392.95964
724.107	27996.98379
724.301	27572.47984
724.495	27647.98881
724.689	27374.53193
724.883	27596.96906
725.077	27694.92766
725.271	27292.90739
725.465	27327.59757
725.659	27558.19455
725.853	27750.03058
726.046	28072.50174
726.24	27935.75415
726.434	27441.87371
726.628	27556.1538
726.822	27519.42049
727.015	27658.19286
727.209	27088.85525
727.403	27390.85708
727.596	27148.029
727.79	27723.49944
727.984	27723.49944
728.177	27631.66241
728.371	27231.69036
728.565	27372.49129
728.758	27662.27448
728.952	27341.88187
729.146	27088.85525
729.339	27392.89773
729.533	27262.29873
729.726	27213.32548
729.92	26648.15016
730.113	27619.41766
730.307	27831.66613
730.5	27854.11623
730.694	27645.94801
730.887	27672.47857
731.081	28039.84514
731.274	27525.54268
731.468	27207.20387
731.661	27143.94801
731.854	26905.21999
732.048	27029.68266
732.241	27111.30033
732.435	27676.56021
732.628	27499.01327
732.821	27521.46122
733.014	27431.67032
733.208	26939.90578
733.401	27523.50195
733.594	27270.46101
733.788	27443.91439
733.981	28064.33757
734.174	28190.88432
734.367	27690.84599
734.56	27437.79235
734.754	27274.54216
734.947	26686.91315
735.14	27017.4402
735.333	27013.35939
735.526	26797.08459
735.719	26529.82445
735.912	26892.97804
736.105	26701.19439
736.298	27192.92018
736.491	27325.55696
736.684	27015.39979
736.877	27407.18231
737.07	26735.8777
737.263	26668.55166
737.456	27239.85256
737.649	26835.84964
737.842	27278.62331
738.035	27248.01478
738.228	26844.01077
738.421	27290.86681
738.614	27258.21759
738.807	27129.66461
739	27166.39349
739.192	26799.12485
739.385	26892.97804
739.578	26795.04434
739.771	26882.77646
739.964	26160.6013
740.156	26333.98668
740.349	26209.55593
740.542	26537.98468
740.735	26313.58777
740.927	26391.10449
741.12	26193.23761
741.313	26025.9812
741.505	26132.04488
741.698	26187.11827
741.891	25942.35746
742.083	26158.56154
742.276	25634.40423
742.468	25720.05574
742.661	25632.36495
742.854	25718.01638
743.046	26201.39676
743.239	26336.02658
743.431	26423.74382
743.624	25736.3707
743.816	25797.55289
744.009	25565.06982
744.201	25877.09227
744.393	25940.3179
744.586	25793.47402
744.778	25754.72518
744.971	25620.12931
745.163	25817.94733
745.355	26056.57601
745.548	26109.60794
745.74	26132.04488
745.932	25775.11922
746.125	25730.25257
746.317	25342.80766
746.509	25485.54203
746.702	25803.6712
746.894	25526.32513
747.086	25544.67779
747.278	25760.84337
747.471	25361.15865
747.663	25420.29078
747.855	25359.11965
748.047	25369.3147
748.239	25609.933
748.431	25669.07228
748.623	25758.80397
748.815	25328.53479
749.008	25644.60065
749.2	25775.11922
749.392	25542.6386
749.584	25454.95525
749.776	26191.19783
749.968	25952.55532
750.16	25558.95219
750.352	25169.50129
750.544	25253.09419
750.736	25950.51574
750.928	25979.06995
751.12	25677.22955
751.311	25328.53479
751.503	25454.95525
751.695	25016.59707
751.887	24847.39802
752.079	25136.88067
752.271	24873.89802
752.463	25302.0283
752.654	25134.8419
752.846	25387.66594
753.038	24906.51394
753.23	24943.20757
753.421	25232.70534
753.613	25412.13452
753.805	25467.18991
753.997	25365.23668
754.188	25689.46552
754.38	25448.83794
754.572	25854.6578
754.763	25683.34753
754.955	25281.63894
755.146	25116.49307
755.338	24755.67037
755.53	24759.74706
755.721	24998.24942
755.913	25183.77299
756.104	24904.47543
756.296	24792.36085
756.487	24449.94743
756.679	24708.78924
756.87	24362.31739
757.062	24046.48262
757.253	24295.06973
757.445	24274.69221
757.636	24156.50796
757.827	24134.09474
758.019	23964.98762
758.21	23956.83836
758.401	23830.53083
758.593	23912.0183
758.784	23905.90658
758.975	23954.80106
759.167	23930.35361
759.358	24185.03436
759.549	24150.39523
759.74	23584.05992
759.932	23549.4353
760.123	23659.42241
760.314	23394.65379
760.505	23223.60065
760.696	23011.85223
760.888	23117.72199
761.079	23315.23346
761.27	23885.53436
761.461	23785.71471
761.652	23529.06829
761.843	23539.25176
762.034	23818.30811
762.225	23303.01538
762.416	23545.36187
762.607	23030.1752
762.798	23349.85199
762.989	23594.2438
763.18	23867.19962
763.371	23653.31179
763.562	23421.1283
763.753	23408.90923
763.944	23256.18046
764.135	23115.68595
764.326	23028.1393
764.517	22559.97304
764.708	22818.45973
764.899	22820.49528
765.089	22694.29767
765.28	22800.13993
765.471	22651.55635
765.662	22360.54997
765.853	22535.55204
766.043	22555.90284
766.234	22675.97977
766.425	22486.71157
766.615	22340.20263
766.806	22511.13155
766.997	22824.56639
767.187	22228.29882
767.378	22596.60551
767.569	22588.46486
767.759	22513.16657
767.95	22283.23203
768.141	22791.99788
768.331	22309.68231
768.522	21988.25223
768.712	21668.9504
768.903	22228.29882
769.093	22094.02903
769.284	22126.57779
769.474	21872.31638
769.665	21959.77561
769.855	21821.47126
770.046	21961.80963
770.236	21849.94423
770.426	21831.64009
770.617	21327.38399
770.807	21500.18633
770.998	21555.0825
771.188	21431.06193
771.378	21744.19129
771.569	21437.16096
771.759	21677.08429
771.949	21705.55341
772.139	22187.60929
772.33	21461.55742
772.52	21723.85539
772.71	21689.28525
772.9	21530.68385
773.09	21475.78896
773.281	21422.92995
773.471	21193.22808
773.661	21120.05956
773.851	21077.38036
774.041	20929.03338
774.231	21006.25237
774.421	20597.87226
774.611	20465.84498
774.802	20628.3426
774.992	20805.08902
775.182	20912.77751
775.372	21193.22808
775.562	20736.01196
775.752	20758.3599
775.942	20504.43574
776.131	20451.62771
776.321	20549.12167
776.511	20900.58578
776.701	20859.94774
776.891	20744.13843
777.081	20573.49666
777.271	20348.05096
777.461	20246.51572
777.651	20774.61326
777.84	20664.90824
778.03	20455.68977
778.22	20829.4703
778.41	20922.9374
778.599	20439.44165
778.789	20348.05096
778.979	20187.6301
779.169	20112.50529
779.358	20378.51358
779.548	20185.59962
779.738	20236.36277
779.927	20569.43412
780.117	20287.12856
780.307	20063.77877
780.496	19994.75368
780.686	20305.40488
780.875	19899.34465
781.065	20421.16283
781.254	19690.28922
781.444	19682.17146
781.633	19570.55905
781.823	19822.21222
782.012	19771.47051
782.202	19513.74303
782.391	19617.23179
782.581	19523.88851
782.77	19503.59766
782.96	19191.17089
783.149	18783.53886
783.338	19404.1785
783.528	19359.54456
783.717	19260.13981
783.906	18947.78888
784.096	19053.24724
784.285	19154.65985
784.474	19314.91263
784.663	19183.05721
784.853	19605.05608
785.042	19381.86128
785.231	19519.8303
785.42	19300.71198
785.61	18988.34849
785.799	18947.78888
785.988	18968.06849
786.177	18909.25874
786.366	18749.06995
786.555	19205.36998
786.744	19045.13467
786.933	18692.30011
787.122	18726.76714
787.312	18801.78757
787.501	18517.9548
787.69	18321.34363
787.879	18544.30748
788.068	18562.55203
788.257	18513.9006
788.445	18669.99852
788.634	19069.47257
788.823	18998.48865
789.012	18505.79224
789.201	18408.49675
789.39	18641.61537
789.579	18363.90591
789.768	18536.19889
789.957	18183.53421
790.145	18623.36945
790.334	18140.97887
790.523	17683.10144
790.712	17922.14793
790.9	18394.30856
791.089	18230.14431
791.278	18438.90065
791.467	18122.74136
791.655	18029.53198
791.844	17936.33016
792.033	18051.82049
792.221	17549.41779
792.41	17579.79919
792.599	17508.91038
792.787	17697.28084
792.976	17476.50536
793.164	17674.99899
793.353	17719.5631
793.541	17709.43475
793.73	17685.12706
793.918	18199.7462
794.107	17460.30316
794.295	17646.64084
794.484	17727.66584
794.672	17545.36699
794.861	17650.69197
795.049	17997.1131
795.238	17415.74813
795.426	17901.88789
795.614	17395.49634
795.803	17764.12884
795.991	17395.49634
796.179	17338.79296
796.368	16943.9578
796.556	16937.88423
796.744	17055.31077
796.932	17302.34204
797.121	17381.32027
797.309	17087.70591
797.497	16976.35055
797.685	16972.30142
797.874	17114.02748
798.062	17431.94979
798.25	17091.75535
798.438	17091.75535
798.626	16966.22774
798.814	16790.10122
799.002	16755.68791
799.19	16696.98445
799.378	16800.22292
799.566	16998.62097
799.755	16703.05713
799.943	16800.22292
800.131	16994.57178
800.318	17288.16695
800.506	17079.60706
800.694	16952.05592
800.882	17186.92047
801.07	16978.37512
801.258	17037.08882
801.446	17225.39327
801.634	17008.74399
801.822	16854.88115
802.01	16583.63158
802.197	16622.08979
802.385	16502.66949
802.573	16468.26164
802.761	16583.63158
802.949	16745.56648
803.136	16239.56508
803.324	16199.09026
803.512	16154.56874
803.699	16158.61611
803.887	16304.32626
804.075	16144.45032
804.262	16423.7347
804.45	16624.11393
804.638	16958.12954
804.825	17089.73063
805.013	16741.51793
805.201	16607.92088
805.388	16601.84853
805.576	16869.05211
805.763	16622.08979
805.951	16601.84853
806.138	16810.34468
806.326	16688.88758
806.513	16739.49365
806.701	16435.87832
806.888	16433.85438
807.075	16148.49768
807.263	16429.8065
807.45	16678.76654
807.638	16674.71814
807.825	16800.22292
808.012	16891.321
808.2	16877.14985
808.387	16804.27162
808.574	17037.08882
808.761	16569.46296
808.949	16599.82441
809.136	16603.87264
809.323	16569.46296
809.51	16790.10122
809.698	16320.51685
809.885	16280.04061
810.072	16233.49381
810.259	16352.89838
810.446	16405.51942
810.633	16437.90226
810.82	16721.2753
811.008	16690.9118
811.195	16670.66975
811.382	16486.47749
811.569	16393.37599
811.756	16174.80569
811.943	16858.92998
812.13	16573.51113
812.317	16887.27208
812.504	16889.29654
812.691	16909.54123
812.878	16686.86337
813.064	16692.93601
813.251	16579.58339
813.438	16660.54882
813.625	15968.39602
813.812	16075.64614
813.999	16579.58339
814.186	16545.17416
814.372	16771.88232
814.559	16775.93095
814.746	16703.05713
814.933	16310.39772
815.12	16575.53521
815.306	16435.87832
815.493	16318.49302
815.68	16417.66292
815.866	16134.33194
816.053	16557.31852
816.24	16800.22292
816.426	16249.6839
816.613	15903.6431
816.799	16330.63603
816.986	16399.4477
817.173	16512.78957
817.359	16403.49551
817.546	16429.8065
817.732	16083.74065
817.919	16288.1358
818.105	16201.11398
818.292	16490.52548
818.478	16302.30245
818.665	16381.23263
818.851	16288.1358
819.037	16314.44537
819.224	16393.37599
819.41	16443.9741
819.597	16134.33194
819.783	16346.82681
819.969	16215.28011
820.156	16033.15032
820.342	15958.27828
820.528	16031.12673
820.714	15759.97702
820.901	15729.62574
821.087	15915.78417
821.273	16132.30827
821.459	15907.69012
821.646	15952.20766
821.832	15790.32854
822.018	15709.39167
822.204	15397.79706
822.39	15699.27468
822.576	15610.24607
822.762	15887.45508
822.948	15800.44576
823.134	15931.97234
823.32	15808.53956
823.507	16069.57527
823.693	15812.58647
823.879	15630.4797
824.065	15794.37542
824.25	15677.01737
824.436	15555.61565
824.622	15549.54564
824.808	15840.91494
824.994	15549.54564
825.18	15268.30687
825.366	15727.60233
825.552	15304.72587
825.738	15672.97059
825.923	15242.00431
826.109	15640.59655
826.295	15223.79485
826.481	15468.61267
826.667	15122.63131
826.852	15454.4495
827.038	15106.44513
827.224	15409.93683
827.409	15076.09604
827.595	15383.634
827.781	15148.93383
827.966	15179.28289
828.152	14962.79232
828.338	14966.83889
828.523	14764.50748
828.709	15055.86329
828.894	14717.9703
829.08	14819.13756
829.266	14734.15719
829.451	15080.14259
829.637	14847.46407
829.822	15201.53886
830.008	15242.00431
830.193	15347.2148
830.378	14985.04848
830.564	14920.30315
830.749	14665.36249
830.935	14325.41574
831.12	13884.2187
831.305	14114.94954
831.491	14208.04298
831.676	14240.4223
831.861	14173.6394
832.047	14548.00409
832.232	14262.6828
832.417	14384.0999
832.602	14133.16383
832.788	14319.34489
832.973	14062.32948
833.158	14123.0448
833.343	13953.03656
833.528	14173.6394
833.714	13942.91648
833.899	14096.73508
834.084	14410.40615
834.269	14525.74603
834.454	14187.80565
834.639	14214.11414
834.824	14278.87211
835.009	14408.38261
835.194	14434.68862
835.379	14578.35577
835.564	14141.25901
835.749	14337.55741
835.934	14390.1706
836.119	14313.27402
836.304	13651.42774
836.489	13829.56696
836.674	13863.97755
836.859	14169.59188
837.044	14009.70786
837.228	14062.32948
837.413	13959.10858
837.598	13959.10858
837.783	13554.25029
837.968	13716.20843
838.152	13473.26284
838.337	13679.7697
838.522	13493.51025
838.707	13657.50107
838.891	13321.39485
839.076	13453.01505
839.261	13291.01852
839.445	13398.34409
839.63	13349.74525
839.815	13491.48553
839.999	13250.51525
840.184	13047.97192
840.368	13210.01024
840.553	13291.01852
840.737	13029.7407
840.922	13365.94512
841.106	12940.60445
841.291	13254.56565
841.475	13122.91837
841.66	13248.49004
841.844	13155.32564
842.029	13299.11897
842.213	13088.48433
842.397	12916.29284
842.582	12950.73407
842.766	13131.0203
842.951	12792.6969
843.135	12889.95441
843.319	12843.35342
843.504	12926.42277
843.688	12665.02671
843.872	13064.17712
844.056	12970.99292
844.241	13135.07123
844.425	12853.48431
844.609	12602.19626
844.793	12557.60333
844.977	12804.85478
845.161	12316.34185
845.346	12545.4411
845.53	12326.48081
845.714	12650.83969
845.898	12334.59185
846.082	12271.72835
846.266	12440.02543
846.45	12387.31093
846.634	12338.64733
846.818	12036.43499
847.002	12074.98138
847.186	12160.17937
847.37	11870.04391
847.554	11825.39301
847.738	12012.08845
847.922	12190.60401
848.106	12008.03058
848.29	11821.33363
848.473	12060.78041
848.657	11591.92217
848.841	11671.1124
849.025	12113.52499
849.209	11669.08206
849.392	11912.66147
849.576	11843.65978
849.76	11652.83896
849.944	11636.59528
850.127	12103.3822
850.311	11989.76979
850.495	12107.43934
850.678	11723.89829
850.862	11760.43888
851.046	11522.87311
851.229	11303.4673
851.413	11598.01422
851.596	11790.88722
851.78	11697.5061
851.964	11697.5061
852.147	11317.69154
852.331	11362.39308
852.514	11453.81316
852.698	11463.96973
852.881	11246.56535
853.065	11524.90412
853.248	11134.77001
853.431	11431.46786
853.615	10803.25545
853.798	11319.72353
853.982	11270.95288
854.165	11344.10667
854.348	11108.34097
854.532	11193.7206
854.715	11053.44409
854.898	11220.14385
855.081	10957.86375
855.265	10911.08138
855.448	10734.06678
855.631	10628.22196
855.814	10620.07868
855.997	10632.29353
856.181	10430.69091
856.364	10725.92603
856.547	10571.21486
856.73	10530.4895
856.913	10493.83236
857.096	10363.46212
857.279	10402.17134
857.462	10471.42875
857.645	10173.92111
857.828	10261.57287
858.011	10453.09736
858.194	10673.00647
858.377	10383.83598
858.56	10654.68625
858.743	10567.14255
858.926	10538.63498
859.109	10373.64921
859.292	10320.67269
859.475	10322.71042
859.658	10457.17109
859.841	10237.11445
860.023	10206.53867
860.206	10220.80775
860.389	10257.4966
860.572	9978.14054
860.755	10208.57715
860.937	10033.21703
861.12	9821.01227
861.303	9710.76569
861.486	10029.13765
861.668	9643.37087
861.851	9725.05941
862.034	9708.72367
862.216	9627.03019
862.399	9531.00846
862.581	9486.05009
862.764	9416.5537
862.947	9479.91881
863.129	9504.44308
863.312	9686.26043
863.494	9502.39948
863.677	9561.65747
863.859	9400.19888
864.042	9610.68851
864.224	9365.44143
864.406	9727.10131
864.589	9297.95752
864.771	9441.08397
864.954	9322.49921
865.136	9349.08335
865.318	8984.83732
865.501	9091.30234
865.683	8825.05032
865.865	9025.79099
866.048	8923.39361
866.23	9134.28454
866.412	8950.02118
866.594	9109.72421
866.777	9040.12312
866.959	9142.47077
867.141	8855.78704
867.323	9079.02031
867.505	8907.00593
867.687	9359.30728
867.869	9003.26734
868.052	9383.84303
868.234	8952.06933
868.416	9216.13454
868.598	8931.58703
868.78	9236.5928
868.962	9238.63853
869.144	9072.87907
869.326	8904.95739
869.508	8700.0122
869.69	8665.15335
869.872	8659.00123
870.054	8585.16272
870.236	8872.1783
870.417	8568.75087
870.599	8775.8631
870.781	8675.40651
870.963	8779.96243
871.145	8617.98282
871.327	8396.3531
871.508	8429.20117
871.69	8611.82942
871.872	8394.29993
872.054	8704.1129
872.235	8340.91076
872.417	8636.44203
872.599	8379.92721
872.78	8839.39463
872.962	8476.41166
873.144	8632.34011
873.325	8349.12533
873.507	8533.87168
873.689	8308.04935
873.87	8445.62336
874.052	8511.29988
874.233	8498.98702
874.415	8203.27008
874.596	8601.57337
874.778	8158.05529
874.959	8406.61865
875.141	8332.69587
875.322	8611.82942
875.503	8207.38003
875.685	8232.03812
875.866	8102.5512
876.048	8496.93481
876.229	8219.70943
876.41	8418.93668
876.592	8207.38003
876.773	8281.34576
876.954	8190.93972
877.136	8361.44661
877.317	8322.42683
877.498	8741.0158
877.679	8363.50009
877.86	8496.93481
878.042	8234.09283
878.223	8531.81979
878.404	8505.14353
878.585	8423.04253
878.766	8201.21507
878.947	8365.55354
879.128	7977.09896
879.309	8281.34576
879.49	8215.59971
879.672	8556.44119
879.853	8496.93481
880.034	8537.97539
880.215	8544.13083
880.396	8593.36819
880.576	8238.2022
880.757	8749.21564
880.938	8375.82055
881.119	8769.71396
881.3	8303.94132
881.481	8704.1129
881.662	8332.69587
881.843	8505.14353
882.023	8246.42069
882.204	8312.1573
882.385	7816.57375
882.566	8227.92864
882.747	8053.20194
882.927	8630.28913
883.108	8363.50009
883.289	8722.56509
883.469	8464.09686
883.65	8837.3455
883.831	8297.77913
884.011	8732.81567
884.192	8388.14031
884.373	8416.88372
884.553	8322.42683
884.734	8544.13083
884.914	8234.09283
885.095	8482.5688
885.275	8176.55341
885.456	8293.67091
885.636	8203.27008
885.817	8398.40625
885.997	8773.8134
886.178	8552.33781
886.358	8439.46518
886.538	8324.48068
886.719	8081.99042
886.899	8540.02722
887.08	8312.1573
887.26	8576.95694
887.44	8381.98052
887.621	8804.55692
887.801	8488.72578
887.981	8792.26
888.161	8642.59476
888.342	8794.30953
888.522	8663.10266
888.702	8704.1129
888.882	8379.92721
889.062	8560.54449
889.242	8308.04935
889.423	8533.87168
889.603	8529.76788
889.783	8603.62462
889.963	8377.87389
890.143	8531.81979
890.323	8110.77495
890.503	8390.19354
890.683	8209.43498
890.863	8353.2325
891.043	8316.26517
891.223	8853.73805
891.403	8371.7138
891.583	8644.64563
891.763	8420.98962
891.943	8388.14031
892.122	8102.5512
892.302	8386.08707
892.482	8162.16612
892.662	8324.48068
892.842	8314.21124
893.022	8535.92354
893.201	8133.38861
893.381	8238.2022
893.561	8299.83321
893.741	8400.45938
893.92	8153.94437
894.1	8075.82179
894.28	8014.12551
894.459	8166.27688
894.639	7884.50358
894.819	8248.47526
894.998	7931.83531
895.178	8277.23723
895.357	7915.37334
895.537	7942.12337
895.716	8172.44286
895.896	8326.5345
896.075	8077.87802
896.255	7993.55602
896.434	7861.86281
896.614	7771.2746
896.793	7660.04274
896.973	7789.80729
897.152	7511.63736
897.331	7592.03735
897.511	7826.8676
897.69	7664.16354
897.87	7410.57556
898.049	7536.37929
898.228	7309.46159
898.407	7437.39294
898.587	7169.05278
898.766	7311.52566
898.945	7022.33988
899.124	7270.23998
899.304	7286.75531
899.483	7404.38641
899.662	7136.00054
899.841	7427.079
900.02	7367.24742
900.199	7332.16521
900.378	7222.75056
900.557	7210.36009
900.737	7177.31495
900.916	7305.33337
901.095	7007.86911
901.274	7136.00054
901.453	6763.76659
901.632	7069.87893
901.811	7100.87628
901.989	7133.93458
902.168	7049.21124
902.347	7410.57556
902.526	6558.72333
902.705	6776.18622
902.884	6581.51706
903.063	6827.92585
903.242	6796.88378
903.42	6772.04643
903.599	6508.98182
903.778	6755.48637
903.957	6228.93622
904.135	6587.73305
904.314	6523.49114
904.493	6774.11634
904.672	6419.82821
904.85	6423.97585
905.029	6152.10857
905.207	6158.33904
905.386	5996.27816
905.565	5946.38445
905.743	5719.61289
905.922	5913.11444
906.1	5661.31437
906.279	5602.99737
906.457	5525.90725
906.636	5933.90891
906.814	5684.21957
906.993	6017.0632
907.171	5902.71632
907.35	5723.77636
907.528	5223.48716
907.707	5646.73686
907.885	5267.31645
908.063	5169.20807
908.242	4885.03127
908.42	5284.01061
908.598	5121.17884
908.777	5210.96262
908.955	4857.84502
909.133	4987.4677
909.311	4868.30173
909.49	5250.62079
909.668	4797.18487
909.846	5398.74238
910.024	5160.85605
910.202	5442.53033
910.38	5133.70939
910.559	5457.12401
910.737	5267.31645
910.915	5331.99797
911.093	5158.76798
911.271	5342.42837
911.449	5286.09727
911.627	5455.03926
911.805	5075.22633
911.983	5284.01061
912.161	5008.36631
912.339	5246.44664
912.517	5169.20807
912.695	5652.98451
912.872	5225.5745
913.05	5379.97294
913.228	5392.48611
913.406	5384.14409
913.584	5250.62079
913.762	5567.58159
913.939	5258.96881
914.117	5354.94407
914.295	5342.42837
914.473	5404.99843
914.65	5135.79773
914.828	5367.45893
915.006	5223.48716
915.184	5419.59507
915.361	5043.88864
915.539	5421.68021
915.716	5058.51355
915.894	5020.90437
916.072	4983.2877
916.249	5133.70939
916.427	4903.85026
916.604	5252.70783
916.782	5125.35578
916.959	5377.88733
917.137	4983.2877
917.314	5173.38395
917.492	4920.57669
917.669	5016.72511
917.847	4824.37972
918.024	5083.58217
918.201	4778.35541
918.379	5048.0673
918.556	4828.5632
918.733	4916.39522
918.911	4740.69099
919.088	5020.90437
919.265	4600.43143
919.442	4573.20523
919.62	4491.50415
919.797	4665.34018
919.974	4548.07003
920.151	4483.12265
920.328	4137.08306
920.506	4717.67023
920.683	4466.35859
920.86	4763.70901
921.037	4420.25018
921.214	4596.24303
921.391	4460.0717
921.568	4493.59947
921.745	4527.12158
921.922	4604.61974
922.099	4246.20103
922.276	4464.26298
922.453	4246.20103
922.63	4499.88529
922.807	4025.80831
922.984	4195.84601
923.161	3988.00368
923.338	4269.27632
923.514	3994.30491
923.691	4164.36791
923.868	3859.83905
924.045	4046.80801
924.222	3895.5646
924.399	4101.39753
924.575	3792.5754
924.752	4197.94438
924.929	3704.26141
925.105	3864.04236
925.282	3840.9232
925.459	3897.66592
925.635	3779.96122
925.812	3603.28968
925.989	3386.47704
926.165	3847.22866
926.342	3287.48038
926.518	3512.79915
926.695	3224.27129
926.871	3514.90397
927.048	3300.12037
927.224	3767.34633
927.401	3498.06491
927.577	3704.26141
927.754	3531.74185
927.93	3590.66515
928.107	3348.56794
928.283	3506.48458
928.459	3205.30563
928.636	3409.6409
928.812	3038.77295
928.988	3481.22469
929.165	3080.9425
929.341	3272.73295
929.517	3059.85851
929.693	3335.93033
929.87	3042.99019
930.046	3257.98469
930.222	2994.48828
930.398	3120.99775
930.574	2918.55626
930.751	3051.42447
930.927	2889.02199
931.103	3137.8614
931.279	2861.59478
931.455	3072.50909
931.631	2654.76115
931.807	2962.85228
931.983	2836.27523
932.159	2851.04522
932.335	2515.39598
932.511	2654.76115
932.687	2538.6271
932.863	2798.29214
933.039	2471.04183
933.215	2688.53858
933.391	2471.04183
933.566	2789.85085
933.742	2435.13253
933.918	2623.09188
934.094	2283.01282
934.27	2251.31489
934.445	2211.16128
934.621	2435.13253
934.797	1851.77089
934.973	2080.11279
935.148	1775.64292
935.324	1987.09331
935.5	1853.88547
935.675	1965.95074
935.851	1743.92134
936.027	1811.59295
936.202	1817.93694
936.378	1794.67544
936.553	1454.17088
936.729	1523.96743
936.904	1276.50916
937.08	1386.48934
937.255	1234.21057
937.431	1397.06455
937.606	1031.19802
937.782	1141.15816
937.957	942.39551
938.133	1100.97885
938.308	864.17524
938.483	897.9989
938.659	836.69512
938.834	917.0256
939.009	718.33734
939.185	779.6259
939.36	676.07463
939.535	703.54489
939.71	726.79042
939.886	619.02735
940.061	547.20309
940.236	646.49347
940.411	627.47824
940.586	650.7192
940.761	536.64201
940.937	600.01358
941.112	521.85708
941.287	583.11332
941.462	490.17744
941.637	523.96917
941.812	479.61829
941.987	490.17744
942.162	445.83155
942.337	426.82825
942.512	418.38275
942.687	479.61829
942.862	344.49584
943.037	350.82819
943.212	393.0478
943.386	348.71739
943.561	397.27012
943.736	369.82618
943.911	397.27012
944.086	382.49226
944.26	323.38914
944.435	380.38121
944.61	331.83161
944.785	357.1607
944.959	407.82623
945.134	371.93715
945.309	418.38275
945.483	441.60848
945.658	380.38121
945.833	369.82618
946.007	323.38914
946.182	342.38509
946.357	441.60848
946.531	342.38509
946.706	340.27436
946.88	439.49697
947.055	264.29997
947.229	333.94227
947.404	441.60848
947.578	350.82819
947.752	346.60661
947.927	426.82825
948.101	323.38914
948.276	414.16009
948.45	367.71522
948.624	405.71498
948.799	388.82553
948.973	439.49697
949.147	323.38914
949.321	393.0478
949.496	333.94227
949.67	435.274
949.844	363.49336
950.018	390.93666
950.193	424.71685
950.367	418.38275
950.541	365.60428
950.715	386.71443
950.889	304.39463
951.063	348.71739
951.237	447.94311
951.411	475.39473
951.585	456.38949
951.759	340.27436
951.933	319.16801
952.107	431.05109
952.281	414.16009
952.455	426.82825
952.629	346.60661
952.803	407.82623
952.977	469.05951
953.151	466.9478
953.325	380.38121
953.499	540.8664
953.672	323.38914
953.846	399.38131
954.02	397.27012
954.194	519.745
954.368	367.71522
954.541	376.15915
954.715	452.16626
954.889	490.17744
955.062	464.83611
955.236	483.8419
955.41	456.38949
955.583	469.05951
955.757	374.04814
955.93	393.0478
956.104	488.06558
956.278	475.39473
956.451	418.38275
956.625	380.38121
956.798	378.27017
956.972	447.94311
957.145	454.27787
957.319	464.83611
957.492	422.60547
957.665	405.71498
957.839	422.60547
958.012	549.31535
958.185	433.16254
958.359	447.94311
958.532	329.72097
958.705	530.30552
958.879	418.38275
959.052	545.09085
959.225	471.17124
959.398	555.65221
959.572	490.17744
959.745	555.65221
959.918	376.15915
960.091	507.07284
960.264	460.61277
960.438	545.09085
960.611	363.49336
960.784	447.94311
960.957	395.15895
961.13	473.28298
961.303	321.27857
961.476	515.52089
961.649	376.15915
961.822	498.62502
961.995	405.71498
962.168	492.28931
962.341	492.28931
962.514	517.63294
962.686	405.71498
962.859	507.07284
963.032	473.28298
963.205	456.38949
963.378	397.27012
963.551	346.60661
963.723	346.60661
963.896	409.9375
964.069	298.06345
964.242	374.04814
964.414	369.82618
964.587	342.38509
964.76	365.60428
964.932	359.27157
965.105	485.95373
965.278	399.38131
965.45	350.82819
965.623	382.49226
965.795	384.60334
965.968	380.38121
966.14	340.27436
966.313	374.04814
966.485	306.50506
966.658	346.60661
966.83	291.73244
967.003	344.49584
967.175	310.72597
967.348	245.31013
967.52	255.85985
967.692	314.94696
967.865	268.52014
968.037	232.6511
968.209	295.95309
968.382	405.71498
968.554	264.29997
968.726	331.83161
968.898	357.1607
969.071	348.71739
969.243	245.31013
969.415	346.60661
969.587	215.77348
969.759	329.72097
969.932	215.77348
970.104	289.62213
970.276	281.18111
970.448	281.18111
970.62	329.72097
970.792	279.07091
970.964	238.98052
971.136	279.07091
971.308	285.40159
971.48	213.66387
971.652	205.22562
971.824	287.51185
971.996	279.07091
972.168	211.55428
972.339	228.43158
972.511	281.18111
972.683	249.52996
972.855	211.55428
973.027	238.98052
973.199	266.41005
973.37	163.03922
973.542	281.18111
973.714	169.36666
973.886	255.85985
974.057	194.67826
974.229	276.96072
974.401	222.10244
974.572	230.54133
974.744	188.35008
974.915	274.85054
975.087	198.89714
975.259	287.51185
975.43	205.22562
975.602	321.27857
975.773	171.47585
975.945	211.55428
976.116	217.88312
976.288	232.6511
976.459	207.33515
976.63	127.18734
976.802	207.33515
976.973	241.09037
977.145	238.98052
977.316	272.74039
977.487	279.07091
977.659	314.94696
977.83	141.94913
978.001	141.94913
978.172	148.27594
978.344	139.84024
978.515	139.84024
978.686	241.09037
978.857	156.71198
979.028	160.93012
979.2	177.80353
979.371	222.10244
979.542	160.93012
979.713	179.9128
979.884	154.60294
980.055	137.73137
980.226	190.45945
980.397	177.80353
980.568	224.21213
980.739	179.9128
980.91	127.18734
981.081	127.18734
981.252	129.2961
981.423	196.78769
981.594	177.80353
981.765	158.82104
981.936	186.24073
982.106	247.42003
982.277	114.5352
982.448	207.33515
982.619	120.86117
982.79	125.07859
982.96	103.99236
983.131	198.89714
983.302	110.318
983.472	165.14835
983.643	97.66692
983.814	160.93012
983.984	93.45007
984.155	139.84024
984.326	95.55848
984.496	135.62252
984.667	97.66692
984.837	213.66387
985.008	101.88386
985.178	122.96987
985.349	36.53143
985.519	89.23331
985.69	93.45007
985.86	137.73137
986.031	106.10089
986.201	135.62252
986.371	131.40488
986.542	154.60294
986.712	97.66692
986.882	135.62252
987.053	72.36716
987.223	163.03922
987.393	118.75249
987.563	93.45007
987.734	97.66692
987.904	148.27594
988.074	135.62252
988.244	85.01664
988.414	118.75249
988.585	93.45007
988.755	87.12496
988.925	68.15085
989.095	146.16698
989.265	25.99279
989.435	89.23331
989.605	97.66692
989.775	177.80353
989.945	59.7185
990.115	47.07066
990.285	125.07859
990.455	70.25899
990.625	125.07859
990.795	76.58356
990.965	70.25899
991.134	76.58356
991.304	108.20943
991.474	38.63923
991.644	114.5352
991.814	80.80005
991.984	103.99236
992.153	51.28651
992.323	133.51369
992.493	76.58356
992.662	89.23331
992.832	97.66692
993.002	85.01664
993.171	78.6918
993.341	87.12496
993.511	61.82655
993.68	87.12496
993.85	59.7185
994.019	30.20817
994.189	-14.04863
994.358	53.39447
994.528	150.38492
994.697	51.28651
994.867	144.05805
995.036	34.42366
995.206	74.47535
995.375	70.25899
995.544	120.86117
995.714	0.70246
995.883	122.96987
996.052	63.93463
996.222	120.86117
996.391	95.55848
996.56	97.66692
996.73	-7.72688
996.899	101.88386
997.068	61.82655
997.237	139.84024
997.406	-41.44034
997.576	36.53143
997.745	72.36716
997.914	34.42366
998.083	72.36716
998.252	34.42366
998.421	17.5623
998.59	68.15085
998.759	70.25899
998.928	68.15085
999.097	82.90833
999.266	68.15085
999.435	70.25899
999.604	70.25899
999.773	-11.94141
999.942	42.8549
1000.111	47.07066
1000.28	68.15085
1000.448	47.07066
1000.617	76.58356
1000.786	87.12496
1000.955	70.25899
1001.124	135.62252
1001.292	135.62252
1001.461	11.23968
1001.63	76.58356
1001.798	25.99279
1001.967	47.07066
1002.136	-14.04863
1002.304	32.3159
1002.473	55.50246
1002.642	47.07066
1002.81	34.42366
1002.979	99.77538
1003.147	-9.83416
1003.316	118.75249
1003.484	59.7185
1003.653	125.07859
1003.821	57.61047
1003.99	55.50246
1004.158	70.25899
1004.327	2.80986
1004.495	70.25899
1004.663	55.50246
1004.832	112.42659
1005	38.63923
1005.168	120.86117
1005.337	55.50246
1005.505	51.28651
1005.673	103.99236
1005.842	4.91728
1006.01	68.15085
1006.178	76.58356
1006.346	23.88513
1006.514	68.15085
1006.683	53.39447
1006.851	66.04272
1007.019	38.63923
1007.187	13.34719
1007.355	30.20817
1007.523	99.77538
1007.691	74.47535
1007.859	72.36716
1008.027	72.36716
1008.195	47.07066
1008.363	25.99279
1008.531	110.318
1008.699	-16.15583
1008.867	42.8549
1009.035	66.04272
1009.203	-16.15583
1009.37	55.50246
1009.538	51.28651
1009.706	23.88513
1009.874	42.8549
1010.042	103.99236
1010.209	97.66692
1010.377	25.99279
1010.545	36.53143
1010.713	93.45007
1010.88	112.42659
1011.048	76.58356
1011.216	63.93463
1011.383	15.45473
1011.551	19.66988
1011.718	108.20943
1011.886	7.02472
1012.054	30.20817
1012.221	49.17857
1012.389	42.8549
1012.556	44.96277
1012.724	68.15085
1012.891	51.28651
1013.058	34.42366
1013.226	59.7185
1013.393	28.10047
1013.561	114.5352
1013.728	25.99279
1013.895	51.28651
1014.063	89.23331
1014.23	49.17857
1014.397	25.99279
1014.565	-37.2265
1014.732	9.13219
1014.899	34.42366
1015.066	106.10089
1015.233	28.10047
1015.401	114.5352
1015.568	118.75249
1015.735	120.86117
1015.902	-20.37016
1016.069	106.10089
1016.236	-24.5844
1016.403	42.8549
1016.57	30.20817
1016.737	-3.51226
1016.904	-9.83416
1017.071	72.36716
1017.238	144.05805
1017.405	42.8549
1017.572	34.42366
1017.739	42.8549
1017.906	51.28651
1018.073	21.7775
1018.24	-49.86771
1018.407	34.42366
1018.573	61.82655
1018.74	25.99279
1018.907	13.34719
1019.074	61.82655
1019.241	25.99279
1019.407	34.42366
1019.574	2.80986
1019.741	9.13219
1019.907	72.36716
1020.074	89.23331
1020.241	68.15085
1020.407	9.13219
1020.574	72.36716
1020.74	47.07066
1020.907	68.15085
1021.073	9.13219
1021.24	28.10047
1021.406	25.99279
1021.573	146.16698
1021.739	-3.51226
1021.906	-54.08124
1022.072	47.07066
1022.239	59.7185
1022.405	4.91728
1022.571	34.42366
1022.738	68.15085
1022.904	72.36716
1023.07	13.34719
1023.237	-20.37016
1023.403	38.63923
1023.569	63.93463
1023.735	34.42366
1023.902	85.01664
1024.068	15.45473
1024.234	55.50246
1024.4	-7.72688
1024.566	51.28651
1024.732	28.10047
1024.898	32.3159
1025.065	40.74705
1025.231	21.7775
1025.397	36.53143
1025.563	36.53143
1025.729	34.42366
1025.895	110.318
1026.061	59.7185
1026.227	95.55848
1026.392	85.01664
1026.558	21.7775
1026.724	-22.47729
1026.89	-75.1474
1027.056	15.45473
1027.222	-45.65407
1027.388	53.39447
1027.553	-41.44034
1027.719	95.55848
1027.885	51.28651
1028.051	47.07066
1028.216	0.70246
1028.382	30.20817
1028.548	36.53143
1028.713	-14.04863
1028.879	49.17857
1029.045	28.10047
1029.21	0.70246
1029.376	17.5623
1029.541	-1.40491
1029.707	2.80986
1029.873	125.07859
1030.038	21.7775
1030.204	55.50246
1030.369	40.74705
1030.534	36.53143
1030.7	2.80986
1030.865	70.25899
1031.031	11.23968
1031.196	120.86117
1031.361	40.74705
1031.527	13.34719
1031.692	53.39447
1031.857	51.28651
1032.023	11.23968
1032.188	-7.72688
1032.353	17.5623
1032.518	32.3159
1032.684	25.99279
1032.849	7.02472
1033.014	42.8549
1033.179	30.20817
1033.344	78.6918
1033.509	36.53143
1033.674	53.39447
1033.839	13.34719
1034.004	135.62252
1034.17	38.63923
1034.335	-1.40491
1034.5	78.6918
1034.664	70.25899
1034.829	57.61047
1034.994	-20.37016
1035.159	59.7185
1035.324	-3.51226
1035.489	0.70246
1035.654	103.99236
1035.819	70.25899
1035.984	9.13219
1036.148	30.20817
1036.313	61.82655
1036.478	9.13219
1036.643	17.5623
1036.807	68.15085
1036.972	25.99279
1037.137	-1.40491
1037.301	21.7775
1037.466	11.23968
1037.631	32.3159
1037.795	59.7185
1037.96	25.99279
1038.124	13.34719
1038.289	11.23968
1038.454	47.07066
1038.618	51.28651
1038.783	-26.69148
1038.947	30.20817
1039.111	-39.33343
1039.276	-81.46674
1039.44	13.34719
1039.605	-1.40491
1039.769	-18.26301
1039.933	-14.04863
1040.098	72.36716
1040.262	47.07066
1040.426	30.20817
1040.591	-24.5844
1040.755	25.99279
1040.919	76.58356
1041.083	25.99279
1041.248	-16.15583
1041.412	51.28651
1041.576	68.15085
1041.74	-7.72688
1041.904	87.12496
1042.068	42.8549
1042.232	25.99279
1042.397	25.99279
1042.561	-3.51226
1042.725	51.28651
1042.889	34.42366
1043.053	59.7185
1043.217	-5.61958
1043.381	63.93463
1043.544	36.53143
1043.708	68.15085
1043.872	28.10047
1044.036	-3.51226
1044.2	59.7185
1044.364	-14.04863
1044.528	47.07066
1044.691	34.42366
1044.855	0.70246
1045.019	-37.2265
1045.183	17.5623
1045.346	2.80986
1045.51	63.93463
1045.674	-5.61958
1045.837	2.80986
1046.001	42.8549
1046.165	-37.2265
1046.328	47.07066
1046.492	42.8549
1046.655	19.66988
1046.819	-3.51226
1046.983	4.91728
1047.146	63.93463
1047.31	74.47535
1047.473	11.23968
1047.636	61.82655
1047.8	-39.33343
1047.963	44.96277
1048.127	38.63923
1048.29	42.8549
