Data from mixed_try1_USB4F045381__8__00073.txt Node

Date: Thu Apr 03 19:51:26 EDT 2025
User: mmckonesweet
Spectrometer: USB4F04538
Trigger mode: 4
Integration Time (sec): 2.700000E-3
Scans to average: 1
Electric dark correction enabled: true
Nonlinearity correction enabled: true
Boxcar width: 0
XAxis mode: Wavelengths
Number of Pixels in Spectrum: 3648
>>>>>Begin Spectral Data<<<<<
345.52	15.10348
345.736	15.10348
345.952	15.10348
346.168	-48.11204
346.384	36.18013
346.6	-18.61421
346.816	61.47521
347.032	-1.75614
347.248	-69.17891
347.464	-5.9708
347.68	23.53386
347.896	-1.75614
348.112	-56.53909
348.328	31.96461
348.544	63.58328
348.76	-3.86348
348.975	-22.82848
349.191	-56.53909
349.407	19.31862
349.623	19.31862
349.839	-5.9708
350.055	44.61145
350.27	-5.9708
350.486	-22.82848
350.702	6.67348
350.918	61.47521
351.133	38.28793
351.349	27.74919
351.565	-27.04265
351.781	36.18013
351.996	-39.68458
352.212	-22.82848
352.428	-5.9708
352.644	15.10348
352.859	10.88843
353.075	17.21104
353.291	29.85689
353.506	-54.43236
353.722	38.28793
353.938	-31.25673
354.153	6.67348
354.369	4.56604
354.584	-35.47071
354.8	-20.72135
355.016	0.35123
355.231	17.21104
355.447	-37.57766
355.662	-3.86348
355.878	10.88843
356.093	-14.39983
356.309	-48.11204
356.524	-14.39983
356.74	19.31862
356.955	-22.82848
357.171	2.45862
357.386	-8.0781
357.602	-12.29261
357.817	27.74919
358.033	-31.25673
358.248	-27.04265
358.464	-12.29261
358.679	67.79949
358.895	23.53386
359.11	-22.82848
359.325	-31.25673
359.541	6.67348
359.756	-90.24323
359.972	2.45862
360.187	-5.9708
360.402	53.04315
360.618	38.28793
360.833	21.42623
361.048	-37.57766
361.264	2.45862
361.479	-10.18537
361.694	0.35123
361.909	-12.29261
362.125	-33.36373
362.34	2.45862
362.555	15.10348
362.77	-12.29261
362.986	8.78094
363.201	17.21104
363.416	-24.93558
363.631	-8.0781
363.847	44.61145
364.062	-37.57766
364.277	78.34042
364.492	-20.72135
364.707	34.07236
364.922	15.10348
365.138	-3.86348
365.353	4.56604
365.568	10.88843
365.783	-10.18537
365.998	-56.53909
366.213	36.18013
366.428	-27.04265
366.643	34.07236
366.858	19.31862
367.073	36.18013
367.288	-43.89836
367.503	19.31862
367.718	6.67348
367.933	6.67348
368.148	-12.29261
368.363	-10.18537
368.578	44.61145
368.793	53.04315
369.008	10.88843
369.223	-5.9708
369.438	10.88843
369.653	-3.86348
369.868	-5.9708
370.083	10.88843
370.298	2.45862
370.513	-14.39983
370.728	-20.72135
370.943	8.78094
371.157	-31.25673
371.372	38.28793
371.587	-71.28546
371.802	27.74919
372.017	55.15113
372.232	36.18013
372.446	72.0158
372.661	-31.25673
372.876	8.78094
373.091	15.10348
373.306	-46.00521
373.52	-56.53909
373.735	-50.21884
373.95	-54.43236
374.165	-14.39983
374.379	8.78094
374.594	23.53386
374.809	40.39575
375.023	-22.82848
375.238	-39.68458
375.453	36.18013
375.667	-39.68458
375.882	4.56604
376.097	-22.82848
376.311	-12.29261
376.526	23.53386
376.741	-5.9708
376.955	-14.39983
377.17	-31.25673
377.384	0.35123
377.599	-5.9708
377.813	-3.86348
378.028	-37.57766
378.242	-29.1497
378.457	-46.00521
378.672	69.90763
378.886	-33.36373
379.101	12.99594
379.315	72.0158
379.53	46.71934
379.744	-20.72135
379.958	12.99594
380.173	69.90763
380.387	19.31862
380.602	-22.82848
380.816	-14.39983
381.031	6.67348
381.245	38.28793
381.459	36.18013
381.674	84.66525
381.888	-20.72135
382.103	10.88843
382.317	19.31862
382.531	-39.68458
382.746	-29.1497
382.96	69.90763
383.174	-14.39983
383.388	15.10348
383.603	31.96461
383.817	-3.86348
384.031	12.99594
384.246	-20.72135
384.46	67.79949
384.674	90.99028
384.888	-22.82848
385.103	-58.64579
385.317	-18.61421
385.531	29.85689
385.745	-20.72135
385.959	2.45862
386.174	46.71934
386.388	63.58328
386.602	-33.36373
386.816	2.45862
387.03	46.71934
387.244	31.96461
387.458	-1.75614
387.672	84.66525
387.887	10.88843
388.101	72.0158
388.315	-18.61421
388.529	-39.68458
388.743	-14.39983
388.957	38.28793
389.171	120.50972
389.385	21.42623
389.599	-31.25673
389.813	46.71934
390.027	-5.9708
390.241	-46.00521
390.455	2.45862
390.669	61.47521
390.883	-48.11204
391.097	23.53386
391.311	-5.9708
391.525	-39.68458
391.738	29.85689
391.952	-37.57766
392.166	-5.9708
392.38	-67.07234
392.594	-16.50703
392.808	19.31862
393.022	-14.39983
393.236	38.28793
393.449	-31.25673
393.663	10.88843
393.877	38.28793
394.091	36.18013
394.305	19.31862
394.518	-88.13691
394.732	-10.18537
394.946	-27.04265
395.16	2.45862
395.373	-37.57766
395.587	-14.39983
395.801	-22.82848
396.015	46.71934
396.228	42.50359
396.442	-43.89836
396.656	78.34042
396.869	-3.86348
397.083	31.96461
397.297	36.18013
397.51	-22.82848
397.724	38.28793
397.938	-41.79148
398.151	-14.39983
398.365	-62.85911
398.578	0.35123
398.792	-48.11204
399.005	40.39575
399.219	-24.93558
399.433	88.88192
399.646	80.44868
399.86	53.04315
400.073	-14.39983
400.287	48.82725
400.5	-29.1497
400.714	6.67348
400.927	19.31862
401.141	-14.39983
401.354	-39.68458
401.567	-3.86348
401.781	61.47521
401.994	10.88843
402.208	38.28793
402.421	10.88843
402.635	23.53386
402.848	27.74919
403.061	19.31862
403.275	69.90763
403.488	-29.1497
403.701	76.23219
403.915	-1.75614
404.128	36.18013
404.341	-35.47071
404.555	27.74919
404.768	-77.60495
404.981	23.53386
405.195	19.31862
405.408	23.53386
405.621	25.64151
405.834	-24.93558
406.048	57.25913
406.261	12.99594
406.474	-46.00521
406.687	17.21104
406.9	55.15113
407.114	-16.50703
407.327	-31.25673
407.54	-39.68458
407.753	-31.25673
407.966	-29.1497
408.179	-5.9708
408.392	29.85689
408.605	-29.1497
408.819	-3.86348
409.032	-16.50703
409.245	-48.11204
409.458	6.67348
409.671	36.18013
409.884	-24.93558
410.097	4.56604
410.31	2.45862
410.523	-18.61421
410.736	-48.11204
410.949	-5.9708
411.162	-64.96574
411.375	53.04315
411.588	63.58328
411.801	-14.39983
412.014	6.67348
412.227	-3.86348
412.44	2.45862
412.653	63.58328
412.865	36.18013
413.078	-20.72135
413.291	-1.75614
413.504	0.35123
413.717	63.58328
413.93	-12.29261
414.143	27.74919
414.356	31.96461
414.568	-64.96574
414.781	8.78094
414.994	48.82725
415.207	-94.45578
415.42	88.88192
415.632	-24.93558
415.845	27.74919
416.058	-12.29261
416.271	8.78094
416.483	36.18013
416.696	-31.25673
416.909	17.21104
417.121	-3.86348
417.334	-48.11204
417.547	-31.25673
417.759	-77.60495
417.972	-5.9708
418.185	10.88843
418.397	-14.39983
418.61	10.88843
418.823	-12.29261
419.035	-5.9708
419.248	-22.82848
419.46	36.18013
419.673	-37.57766
419.885	23.53386
420.098	-98.66823
420.311	27.74919
420.523	4.56604
420.736	-39.68458
420.948	128.94464
421.161	17.21104
421.373	55.15113
421.586	38.28793
421.798	-48.11204
422.01	69.90763
422.223	46.71934
422.435	-3.86348
422.648	-56.53909
422.86	15.10348
423.073	-39.68458
423.285	-8.0781
423.497	-14.39983
423.71	-46.00521
423.922	31.96461
424.134	-73.39198
424.347	-69.17891
424.559	76.23219
424.771	-18.61421
424.984	-22.82848
425.196	-22.82848
425.408	38.28793
425.621	57.25913
425.833	-12.29261
426.045	-8.0781
426.257	-41.79148
426.47	44.61145
426.682	21.42623
426.894	31.96461
427.106	-14.39983
427.318	-10.18537
427.531	6.67348
427.743	15.10348
427.955	-98.66823
428.167	57.25913
428.379	23.53386
428.591	-56.53909
428.804	53.04315
429.016	-90.24323
429.228	-41.79148
429.44	36.18013
429.652	-43.89836
429.864	8.78094
430.076	-24.93558
430.288	10.88843
430.5	44.61145
430.712	59.36716
430.924	-35.47071
431.136	31.96461
431.348	46.71934
431.56	-60.75247
431.772	95.20708
431.984	19.31862
432.196	-27.04265
432.408	-41.79148
432.62	8.78094
432.832	105.74946
433.044	27.74919
433.256	-77.60495
433.468	-43.89836
433.679	-1.75614
433.891	27.74919
434.103	19.31862
434.315	-22.82848
434.527	44.61145
434.739	-16.50703
434.95	-33.36373
435.162	-31.25673
435.374	-31.25673
435.586	-8.0781
435.798	-22.82848
436.009	-10.18537
436.221	23.53386
436.433	-58.64579
436.645	19.31862
436.856	-22.82848
437.068	12.99594
437.28	-3.86348
437.491	-56.53909
437.703	15.10348
437.915	-22.82848
438.126	63.58328
438.338	-60.75247
438.55	23.53386
438.761	-27.04265
438.973	-1.75614
439.184	-5.9708
439.396	69.90763
439.608	-22.82848
439.819	48.82725
440.031	2.45862
440.242	78.34042
440.454	-35.47071
440.665	-77.60495
440.877	-22.82848
441.088	-43.89836
441.3	-48.11204
441.511	4.56604
441.723	-5.9708
441.934	-5.9708
442.146	-62.85911
442.357	4.56604
442.569	2.45862
442.78	-27.04265
442.991	48.82725
443.203	-12.29261
443.414	0.35123
443.626	84.66525
443.837	-1.75614
444.048	-14.39983
444.26	31.96461
444.471	-14.39983
444.682	27.74919
444.894	-50.21884
445.105	21.42623
445.316	23.53386
445.528	-50.21884
445.739	-39.68458
445.95	12.99594
446.161	-48.11204
446.373	86.77357
446.584	55.15113
446.795	-3.86348
447.006	12.99594
447.217	10.88843
447.429	19.31862
447.64	-22.82848
447.851	44.61145
448.062	40.39575
448.273	15.10348
448.484	46.71934
448.695	-39.68458
448.907	69.90763
449.118	0.35123
449.329	80.44868
449.54	-86.03057
449.751	10.88843
449.962	78.34042
450.173	23.53386
450.384	-64.96574
450.595	10.88843
450.806	112.07516
451.017	10.88843
451.228	-22.82848
451.439	-31.25673
451.65	40.39575
451.861	36.18013
452.072	-1.75614
452.283	-5.9708
452.494	12.99594
452.705	-27.04265
452.915	31.96461
453.126	29.85689
453.337	-33.36373
453.548	27.74919
453.759	27.74919
453.97	2.45862
454.181	23.53386
454.391	-3.86348
454.602	-41.79148
454.813	61.47521
455.024	-3.86348
455.235	88.88192
455.445	44.61145
455.656	-1.75614
455.867	103.64094
456.078	29.85689
456.288	-16.50703
456.499	38.28793
456.71	38.28793
456.921	55.15113
457.131	-43.89836
457.342	17.21104
457.553	12.99594
457.763	-14.39983
457.974	-35.47071
458.184	55.15113
458.395	-5.9708
458.606	61.47521
458.816	-39.68458
459.027	46.71934
459.237	40.39575
459.448	-48.11204
459.659	-18.61421
459.869	-48.11204
460.08	-12.29261
460.29	10.88843
460.501	29.85689
460.711	61.47521
460.922	-14.39983
461.132	46.71934
461.343	-22.82848
461.553	-86.03057
461.764	44.61145
461.974	-39.68458
462.184	-10.18537
462.395	25.64151
462.605	19.31862
462.816	-14.39983
463.026	-79.71139
463.236	40.39575
463.447	48.82725
463.657	2.45862
463.867	12.99594
464.078	29.85689
464.288	19.31862
464.498	36.18013
464.709	36.18013
464.919	6.67348
465.129	2.45862
465.339	-29.1497
465.55	-29.1497
465.76	-14.39983
465.97	0.35123
466.18	4.56604
466.391	78.34042
466.601	10.88843
466.811	-14.39983
467.021	57.25913
467.231	-86.03057
467.441	48.82725
467.651	-20.72135
467.862	23.53386
468.072	46.71934
468.282	-29.1497
468.492	-31.25673
468.702	36.18013
468.912	-22.82848
469.122	12.99594
469.332	-31.25673
469.542	65.69137
469.752	17.21104
469.962	-5.9708
470.172	67.79949
470.382	-39.68458
470.592	-29.1497
470.802	10.88843
471.012	29.85689
471.222	-43.89836
471.432	10.88843
471.642	53.04315
471.852	-12.29261
472.062	-16.50703
472.272	-8.0781
472.482	2.45862
472.691	4.56604
472.901	-1.75614
473.111	27.74919
473.321	29.85689
473.531	4.56604
473.741	-18.61421
473.95	53.04315
474.16	10.88843
474.37	36.18013
474.58	10.88843
474.79	10.88843
474.999	0.35123
475.209	-24.93558
475.419	53.04315
475.628	10.88843
475.838	-39.68458
476.048	2.45862
476.258	38.28793
476.467	27.74919
476.677	-16.50703
476.886	2.45862
477.096	23.53386
477.306	6.67348
477.515	-14.39983
477.725	19.31862
477.935	27.74919
478.144	-14.39983
478.354	-39.68458
478.563	76.23219
478.773	15.10348
478.982	55.15113
479.192	-46.00521
479.401	65.69137
479.611	2.45862
479.82	-12.29261
480.03	27.74919
480.239	44.61145
480.449	6.67348
480.658	15.10348
480.868	-10.18537
481.077	27.74919
481.287	53.04315
481.496	-29.1497
481.705	57.25913
481.915	-16.50703
482.124	65.69137
482.333	19.31862
482.543	-3.86348
482.752	15.10348
482.961	27.74919
483.171	15.10348
483.38	19.31862
483.589	27.74919
483.799	-1.75614
484.008	-31.25673
484.217	-14.39983
484.426	6.67348
484.636	-16.50703
484.845	19.31862
485.054	-35.47071
485.263	-58.64579
485.472	10.88843
485.682	-24.93558
485.891	6.67348
486.1	-20.72135
486.309	-5.9708
486.518	-31.25673
486.727	-35.47071
486.936	-24.93558
487.146	63.58328
487.355	-10.18537
487.564	-41.79148
487.773	-1.75614
487.982	29.85689
488.191	-14.39983
488.4	10.88843
488.609	50.93519
488.818	10.88843
489.027	31.96461
489.236	42.50359
489.445	-37.57766
489.654	78.34042
489.863	-12.29261
490.072	55.15113
490.281	27.74919
490.49	12.99594
490.698	-54.43236
490.907	21.42623
491.116	6.67348
491.325	74.12398
491.534	-27.04265
491.743	31.96461
491.952	46.71934
492.16	107.85801
492.369	72.0158
492.578	31.96461
492.787	53.04315
492.996	38.28793
493.204	4.56604
493.413	88.88192
493.622	12.99594
493.831	6.67348
494.039	-46.00521
494.248	4.56604
494.457	15.10348
494.665	40.39575
494.874	103.64094
495.083	53.04315
495.291	99.42397
495.5	-20.72135
495.709	29.85689
495.917	12.99594
496.126	31.96461
496.335	19.31862
496.543	21.42623
496.752	19.31862
496.96	-8.0781
497.169	36.18013
497.377	-31.25673
497.586	6.67348
497.794	21.42623
498.003	6.67348
498.211	-20.72135
498.42	69.90763
498.628	38.28793
498.837	46.71934
499.045	61.47521
499.254	19.31862
499.462	10.88843
499.671	19.31862
499.879	90.99028
500.087	29.85689
500.296	38.28793
500.504	12.99594
500.713	4.56604
500.921	-1.75614
501.129	50.93519
501.338	44.61145
501.546	36.18013
501.754	65.69137
501.962	23.53386
502.171	44.61145
502.379	2.45862
502.587	-46.00521
502.795	42.50359
503.004	10.88843
503.212	-27.04265
503.42	0.35123
503.628	-46.00521
503.837	-50.21884
504.045	-3.86348
504.253	-35.47071
504.461	-1.75614
504.669	44.61145
504.877	-46.00521
505.085	78.34042
505.294	114.18377
505.502	-31.25673
505.71	-14.39983
505.918	-12.29261
506.126	36.18013
506.334	-27.04265
506.542	44.61145
506.75	74.12398
506.958	-5.9708
507.166	124.72714
507.374	-29.1497
507.582	27.74919
507.79	36.18013
507.998	55.15113
508.206	50.93519
508.414	-1.75614
508.622	90.99028
508.83	0.35123
509.037	44.61145
509.245	8.78094
509.453	69.90763
509.661	29.85689
509.869	-5.9708
510.077	46.71934
510.285	34.07236
510.492	27.74919
510.7	36.18013
510.908	78.34042
511.116	-43.89836
511.324	15.10348
511.531	-46.00521
511.739	-10.18537
511.947	78.34042
512.155	-5.9708
512.362	-12.29261
512.57	-3.86348
512.778	99.42397
512.985	6.67348
513.193	-5.9708
513.401	103.64094
513.608	-64.96574
513.816	46.71934
514.024	-22.82848
514.231	-29.1497
514.439	46.71934
514.646	0.35123
514.854	-20.72135
515.061	105.74946
515.269	-24.93558
515.477	-64.96574
515.684	44.61145
515.892	19.31862
516.099	27.74919
516.307	-27.04265
516.514	31.96461
516.722	-22.82848
516.929	-5.9708
517.136	12.99594
517.344	53.04315
517.551	17.21104
517.759	46.71934
517.966	-46.00521
518.173	63.58328
518.381	-27.04265
518.588	103.64094
518.796	55.15113
519.003	101.53244
519.21	105.74946
519.418	2.45862
519.625	12.99594
519.832	4.56604
520.039	69.90763
520.247	53.04315
520.454	42.50359
520.661	36.18013
520.868	12.99594
521.076	-1.75614
521.283	55.15113
521.49	21.42623
521.697	21.42623
521.904	21.42623
522.112	84.66525
522.319	36.18013
522.526	42.50359
522.733	6.67348
522.94	2.45862
523.147	67.79949
523.354	103.64094
523.561	23.53386
523.768	2.45862
523.975	-20.72135
524.183	46.71934
524.39	-10.18537
524.597	69.90763
524.804	72.0158
525.011	74.12398
525.218	63.58328
525.425	80.44868
525.632	27.74919
525.838	27.74919
526.045	8.78094
526.252	-22.82848
526.459	69.90763
526.666	-12.29261
526.873	50.93519
527.08	107.85801
527.287	55.15113
527.494	97.31551
527.701	50.93519
527.907	44.61145
528.114	143.70656
528.321	40.39575
528.528	53.04315
528.735	12.99594
528.941	103.64094
529.148	44.61145
529.355	36.18013
529.562	31.96461
529.768	63.58328
529.975	61.47521
530.182	10.88843
530.388	69.90763
530.595	78.34042
530.802	29.85689
531.008	61.47521
531.215	61.47521
531.422	65.69137
531.628	12.99594
531.835	10.88843
532.042	4.56604
532.248	114.18377
532.455	-8.0781
532.661	53.04315
532.868	55.15113
533.074	95.20708
533.281	95.20708
533.487	72.0158
533.694	116.2924
533.9	69.90763
534.107	44.61145
534.313	38.28793
534.52	50.93519
534.726	4.56604
534.933	42.50359
535.139	40.39575
535.345	63.58328
535.552	78.34042
535.758	38.28793
535.965	21.42623
536.171	15.10348
536.377	57.25913
536.584	55.15113
536.79	17.21104
536.996	40.39575
537.203	86.77357
537.409	65.69137
537.615	112.07516
537.821	69.90763
538.028	48.82725
538.234	48.82725
538.44	38.28793
538.646	95.20708
538.853	53.04315
539.059	137.37989
539.265	63.58328
539.471	55.15113
539.677	88.88192
539.883	21.42623
540.09	82.55695
540.296	103.64094
540.502	74.12398
540.708	38.28793
540.914	63.58328
541.12	63.58328
541.326	82.55695
541.532	74.12398
541.738	78.34042
541.944	19.31862
542.15	112.07516
542.356	112.07516
542.562	103.64094
542.768	128.94464
542.974	63.58328
543.18	154.25143
543.386	-3.86348
543.592	160.57861
543.798	103.64094
544.004	95.20708
544.21	61.47521
544.415	53.04315
544.621	10.88843
544.827	103.64094
545.033	97.31551
545.239	65.69137
545.445	86.77357
545.651	55.15113
545.856	78.34042
546.062	107.85801
546.268	61.47521
546.474	80.44868
546.679	116.2924
546.885	42.50359
547.091	93.09867
547.297	72.0158
547.502	139.48876
547.708	69.90763
547.914	78.34042
548.119	137.37989
548.325	86.77357
548.531	44.61145
548.736	116.2924
548.942	80.44868
549.147	40.39575
549.353	97.31551
549.559	95.20708
549.764	154.25143
549.97	61.47521
550.175	137.37989
550.381	61.47521
550.586	82.55695
550.792	139.48876
550.997	72.0158
551.203	80.44868
551.408	162.68771
551.614	124.72714
551.819	114.18377
552.025	116.2924
552.23	116.2924
552.435	88.88192
552.641	97.31551
552.846	128.94464
553.052	120.50972
553.257	95.20708
553.462	164.79683
553.668	107.85801
553.873	131.05342
554.078	42.50359
554.283	128.94464
554.489	122.61842
554.694	114.18377
554.899	183.77985
555.105	116.2924
555.31	82.55695
555.515	103.64094
555.72	114.18377
555.925	139.48876
556.131	21.42623
556.336	156.36047
556.541	160.57861
556.746	164.79683
556.951	162.68771
557.156	128.94464
557.361	112.07516
557.567	78.34042
557.772	187.99852
557.977	114.18377
558.182	192.21728
558.387	179.56125
558.592	112.07516
558.797	112.07516
559.002	171.12431
559.207	175.34274
559.412	137.37989
559.617	135.27105
559.822	185.88917
560.027	156.36047
560.232	175.34274
560.437	202.76452
560.642	112.07516
560.847	181.67054
561.051	230.1897
561.256	112.07516
561.461	192.21728
561.666	116.2924
561.871	192.21728
562.076	150.03342
562.281	196.43612
562.485	183.77985
562.69	225.97022
562.895	107.85801
563.1	204.87403
563.305	154.25143
563.509	215.42188
563.714	166.90597
563.919	181.67054
564.123	147.92445
564.328	139.48876
564.533	112.07516
564.737	147.92445
564.942	187.99852
565.147	211.20268
565.351	234.40925
565.556	240.73873
565.761	158.46953
565.965	137.37989
566.17	145.81549
566.374	223.86052
566.579	131.05342
566.784	225.97022
566.988	196.43612
567.193	78.34042
567.397	128.94464
567.602	238.62888
567.806	204.87403
568.011	200.65503
568.215	171.12431
568.42	268.16846
568.624	280.82941
568.828	192.21728
569.033	175.34274
569.237	263.94829
569.442	175.34274
569.646	204.87403
569.85	200.65503
570.055	200.65503
570.259	187.99852
570.463	183.77985
570.668	190.10789
570.872	247.06838
571.076	251.28824
571.281	211.20268
571.485	204.87403
571.689	221.75083
571.893	249.1783
572.098	221.75083
572.302	169.01513
572.506	306.15332
572.71	223.86052
572.914	219.64116
573.119	238.62888
573.323	263.94829
573.527	230.1897
573.731	316.70572
573.935	255.50818
574.139	339.92257
574.343	223.86052
574.547	221.75083
574.751	230.1897
574.955	255.50818
575.159	247.06838
575.364	272.3887
575.568	198.54556
575.772	365.25246
575.976	297.71172
576.18	259.7282
576.383	244.95848
576.587	268.16846
576.791	249.1783
576.995	280.82941
577.199	320.92681
577.403	310.37423
577.607	206.98356
577.811	449.70275
578.015	316.70572
578.219	263.94829
578.422	162.68771
578.626	342.0333
578.83	367.3634
579.034	428.58776
579.238	285.04988
579.442	306.15332
579.645	306.15332
579.849	388.47368
580.053	390.5848
580.257	312.48471
580.46	293.49103
580.664	407.47436
580.868	316.70572
581.071	375.80731
581.275	274.49885
581.479	350.47639
581.682	242.84859
581.886	280.82941
582.09	314.5952
582.293	415.91952
582.497	297.71172
582.7	361.03064
582.904	320.92681
583.107	405.3631
583.311	316.70572
583.515	342.0333
583.718	268.16846
583.922	451.81433
584.125	367.3634
584.329	432.81063
584.532	306.15332
584.735	356.80889
584.939	392.69594
585.142	424.36495
585.346	365.25246
585.549	380.02937
585.753	331.47983
585.956	325.14796
586.159	396.91826
586.363	451.81433
586.566	443.36809
586.769	439.14506
586.973	377.91833
587.176	441.25656
587.379	443.36809
587.582	394.80709
587.786	426.47635
587.989	432.81063
588.192	390.5848
588.395	428.58776
588.599	508.83283
588.802	449.70275
589.005	316.70572
589.208	578.53632
589.411	458.14918
589.615	382.14042
589.818	426.47635
590.021	506.72084
590.224	424.36495
590.427	483.48993
590.63	441.25656
590.833	464.48416
591.036	477.15454
591.239	538.40216
591.442	424.36495
591.645	456.03755
591.848	597.54891
592.051	508.83283
592.254	521.50506
592.457	593.3238
592.66	496.16112
592.863	572.19902
593.066	534.1778
593.269	650.36706
593.472	500.38496
593.675	625.01338
593.878	551.07558
594.081	618.67523
594.284	517.28093
594.486	567.97422
594.689	548.96331
594.892	525.72925
595.095	574.31144
595.298	572.19902
595.5	572.19902
595.703	614.44987
595.906	479.26632
596.109	519.39299
596.311	544.73881
596.514	553.18786
596.717	517.28093
596.92	646.14132
597.122	508.83283
597.325	601.77407
597.528	582.76124
597.73	644.02847
597.933	441.25656
598.136	477.15454
598.338	673.60945
598.541	711.64545
598.743	614.44987
598.946	620.78794
599.148	618.67523
599.351	631.35163
599.554	614.44987
599.756	595.43635
599.959	584.87373
600.161	652.47994
600.363	608.11191
600.566	679.94853
600.768	648.25418
600.971	673.60945
601.173	703.19269
601.376	745.45822
601.578	646.14132
601.78	758.1387
601.983	644.02847
602.185	775.04658
602.388	641.91564
602.59	791.95509
602.792	707.41905
602.995	747.57161
603.197	646.14132
603.399	855.36735
603.601	688.40079
603.804	764.47908
604.006	707.41905
604.208	720.09839
604.41	781.38719
604.613	711.64545
604.815	724.32492
605.017	789.84149
605.219	669.38345
605.421	766.59256
605.623	656.70575
605.826	821.54645
606.028	688.40079
606.23	787.7279
606.432	756.02526
606.634	863.82293
606.836	601.77407
607.038	730.6648
607.24	753.91183
607.442	897.64656
607.644	677.83549
607.846	823.66019
608.048	868.05076
608.25	802.52322
608.452	758.1387
608.654	906.10279
608.856	830.00146
609.058	762.36561
609.26	686.28771
609.462	920.90149
609.664	865.93684
609.866	935.70057
610.067	895.53252
610.269	933.58639
610.471	737.00477
610.673	952.61424
610.875	764.47908
611.077	1003.35791
611.278	874.39258
611.48	846.91191
611.682	813.09159
611.884	933.58639
612.085	891.30447
612.287	857.48123
612.489	762.36561
612.69	840.57043
612.892	813.09159
613.094	1032.96009
613.295	836.34282
613.497	1058.33431
613.699	872.27863
613.9	984.32858
614.102	838.45662
614.304	1005.47231
614.505	876.50654
614.707	1068.90714
614.908	830.00146
615.11	1022.38774
615.311	961.07124
615.513	918.78737
615.714	984.32858
615.916	1026.61666
616.117	874.39258
616.319	956.84273
616.52	927.24391
616.722	999.12912
616.923	948.38578
617.124	1068.90714
617.326	916.67325
617.527	1054.10521
617.729	863.82293
617.93	1045.6471
618.131	973.75696
618.333	1032.96009
618.534	897.64656
618.735	1117.5438
618.937	1003.35791
619.138	1032.96009
619.339	965.29979
619.54	1049.87614
619.742	1018.15885
619.943	1077.36549
620.144	914.55914
620.345	1075.2509
620.546	982.21424
620.748	1134.46149
620.949	918.78737
621.15	1032.96009
621.351	992.78599
621.552	1126.00261
621.753	1030.84561
621.954	1164.06812
622.155	939.92894
622.356	1176.75692
622.558	1153.49423
622.759	1049.87614
622.96	1085.82394
623.161	1238.08789
623.362	1121.7732
623.563	1142.92045
623.764	1081.5947
623.965	1293.07638
624.166	961.07124
624.366	1183.10137
624.567	1096.3971
624.768	1174.64211
624.969	1024.5022
625.17	1183.10137
625.371	980.09991
625.572	1204.24977
625.773	1126.00261
625.973	1159.83855
626.174	933.58639
626.375	1282.50154
626.576	1136.57623
626.777	1271.92676
626.977	1111.19974
627.178	1087.93856
627.379	1204.24977
627.58	1261.35204
627.78	1174.64211
627.981	1295.19135
628.182	1054.10521
628.382	1244.43263
628.583	1079.4801
628.784	1348.06631
628.984	1113.31442
629.185	1405.17222
629.386	1123.8879
629.586	1348.06631
629.787	1159.83855
629.987	1439.01301
630.188	1221.16873
630.388	1345.95129
630.589	1058.33431
630.79	1282.50154
630.99	1259.23711
631.191	1354.41137
631.391	1267.69687
631.591	1345.95129
631.792	1240.2028
631.992	1261.35204
632.193	1170.4125
632.393	1267.69687
632.594	1187.33102
632.794	1405.17222
632.994	1153.49423
633.195	1295.19135
633.395	1221.16873
633.595	1320.5712
633.796	1318.4562
633.996	1449.58827
634.196	1345.95129
634.397	1381.90676
634.597	1257.12217
634.797	1288.84644
634.997	1295.19135
635.198	1314.22621
635.398	1227.51339
635.598	1439.01301
635.798	1248.66247
635.998	1441.12806
636.199	1257.12217
636.399	1422.0926
636.599	1151.37947
636.799	1309.99623
636.999	1358.64142
637.199	1483.42909
637.399	1284.61651
637.599	1523.61493
637.799	1405.17222
637.999	1487.65919
638.199	1225.3985
638.399	1422.0926
638.599	1487.65919
638.799	1544.76525
638.999	1316.3412
639.199	1546.88027
639.399	1449.58827
639.599	1574.37549
639.799	1373.44662
639.999	1553.22534
640.199	1274.04171
640.399	1582.8355
640.599	1356.52639
640.799	1722.4207
640.998	1447.47322
641.198	1548.9953
641.398	1405.17222
641.598	1489.77424
641.798	1485.54414
641.997	1616.67529
642.197	1534.1901
642.397	1832.387
642.597	1439.01301
642.796	1682.23826
642.996	1415.74745
643.196	1686.46804
643.395	1506.69461
643.595	1661.08918
643.795	1544.76525
643.994	1743.56888
644.194	1574.37549
644.394	1648.3996
644.593	1658.97426
644.793	1790.09357
644.992	1548.9953
645.192	1709.73163
645.392	1532.07507
645.591	1709.73163
645.791	1548.9953
645.99	1720.30586
646.19	1608.21539
646.389	1639.93984
646.589	1525.72996
646.788	1646.28466
646.987	1422.0926
647.187	1709.73163
647.386	1443.24311
647.586	1667.43393
647.785	1654.7444
647.984	1798.55239
648.184	1637.82489
648.383	1781.63467
648.582	1658.97426
648.782	1665.31902
648.981	1616.67529
649.18	1752.02805
649.38	1720.30586
649.579	1878.90764
649.778	1688.58293
649.977	1963.48406
650.177	1735.10965
650.376	1758.37239
650.575	1510.92469
650.774	1768.94621
650.973	1610.33037
651.173	1855.64762
651.372	1678.00847
651.571	1794.32299
651.77	1646.28466
651.969	1902.16704
652.168	1881.02216
652.367	1855.64762
652.566	1781.63467
652.765	1995.19779
652.964	1737.22446
653.163	1914.85371
653.362	1828.15774
653.561	1929.65458
653.76	1866.22043
653.959	2052.27882
654.158	1823.92846
654.357	1872.56406
654.556	1709.73163
654.755	2018.45361
654.954	1781.63467
655.153	1906.39595
655.352	1637.82489
655.551	1942.34081
655.749	1781.63467
655.948	1908.5104
656.147	2005.76872
656.346	1912.73928
656.545	1864.10588
656.743	1904.2815
656.942	1815.46984
657.141	2086.10222
657.34	2029.02418
657.538	2062.84883
657.737	1840.84548
657.936	2041.70863
658.135	1861.99132
658.333	1931.76896
658.532	1938.11209
658.731	1988.85516
658.929	1874.67859
659.128	2048.05076
659.326	1838.73087
659.525	2130.49256
659.724	1931.76896
659.922	1980.39823
660.121	1836.61625
660.319	1900.05258
660.518	1817.5845
660.716	2039.59457
660.915	1971.94119
661.113	2162.19785
661.312	1986.74094
661.51	1995.19779
661.709	2153.74328
661.907	2176.99303
662.105	1887.36568
662.304	2284.77376
662.502	1929.65458
662.701	2141.06119
662.899	1881.02216
663.097	2157.97058
663.296	2111.46854
663.494	2322.80836
663.692	2037.48051
663.891	2113.58235
664.089	1999.42618
664.287	2217.1493
664.485	1950.79818
664.684	2261.5289
664.882	2052.27882
665.08	2265.75532
665.278	1982.51247
665.476	2210.80904
665.675	1980.39823
665.873	2141.06119
666.071	1971.94119
666.269	2043.82268
666.467	2018.45361
666.665	2056.50684
666.863	1906.39595
667.061	2083.98831
667.259	2016.33948
667.457	2346.05019
667.655	2033.25235
667.853	2253.07594
668.051	2132.6063
668.249	2272.09488
668.447	2058.62084
668.645	2259.41567
668.843	2174.87946
669.041	2310.1305
669.239	2018.45361
669.437	2219.2627
669.635	2005.76872
669.833	2219.2627
670.031	2039.59457
670.229	2250.96268
670.426	2073.41866
670.624	2210.80904
670.822	2128.37881
671.02	2122.03752
671.218	1940.22645
671.415	2269.9817
671.613	2191.7878
671.811	2174.87946
672.009	2202.35524
672.206	2365.06534
672.404	2221.3761
672.602	2288.99998
672.799	2231.94293
672.997	2371.40354
673.195	2062.84883
673.392	2318.58244
673.59	2107.2409
673.788	2166.42508
673.985	2098.78552
674.183	2411.54335
674.38	2088.21612
674.578	2288.99998
674.775	2128.37881
674.973	2295.33923
675.17	2073.41866
675.368	2244.62285
675.565	2075.53261
675.763	2403.09317
675.96	2234.05627
676.158	2329.14716
676.355	2130.49256
676.553	2487.58721
676.75	2242.50955
676.947	2327.03423
677.145	2208.6956
677.342	2206.58216
677.539	2064.96281
677.737	2255.1892
677.934	2058.62084
678.131	2282.66064
678.329	2187.56076
678.526	2413.65586
678.723	2312.2435
678.92	2428.44319
679.118	2343.93734
679.315	2196.0148
679.512	2191.7878
679.709	2282.66064
679.906	2223.48948
680.104	2310.1305
680.301	2031.13827
680.498	2312.2435
680.695	2005.76872
680.892	2301.67841
681.089	2200.24177
681.286	2202.35524
681.483	2033.25235
681.68	2227.71623
681.877	2318.58244
682.075	2343.93734
682.272	2217.1493
682.469	2250.96268
682.665	2073.41866
682.862	2297.4523
683.059	2126.26506
683.256	2430.55562
683.453	2064.96281
683.65	2276.32121
683.847	2316.46947
684.044	2217.1493
684.241	2160.08422
684.438	2305.90447
684.635	2031.13827
684.831	2470.6898
685.028	2331.26007
685.225	2371.40354
685.422	2088.21612
685.619	2312.2435
685.815	2103.01322
686.012	2354.50146
686.209	2077.64654
686.405	2517.15596
686.602	2155.85694
686.799	2322.80836
686.996	2204.4687
687.192	2411.54335
687.389	2157.97058
687.586	2212.92247
687.782	2242.50955
687.979	2396.75543
688.175	2217.1493
688.372	2449.56704
688.568	2288.99998
688.765	2284.77376
688.962	2250.96268
689.158	2225.60286
689.355	2132.6063
689.551	2430.55562
689.748	2067.07678
689.944	2441.11763
690.14	2236.16961
690.337	2278.43436
690.533	2286.88687
690.73	2458.01627
690.926	2185.44723
691.123	2293.22616
691.319	2041.70863
691.515	2559.39313
691.712	2219.2627
691.908	2314.35649
692.104	2031.13827
692.301	2327.03423
692.497	2219.2627
692.693	2458.01627
692.889	2215.03589
693.086	2405.20573
693.282	2115.69616
693.478	2261.5289
693.674	2136.83376
693.87	2354.50146
694.067	2155.85694
694.263	2343.93734
694.459	2335.48587
694.655	2362.95258
694.851	2227.71623
695.047	2217.1493
695.243	2024.79597
695.439	2299.56536
695.635	2200.24177
695.831	2424.21829
696.027	2227.71623
696.224	2346.05019
696.42	2031.13827
696.615	2223.48948
696.811	2166.42508
697.007	2310.1305
697.203	2022.68186
697.399	2168.53869
697.595	2246.73613
697.791	2284.77376
697.987	2329.14716
698.183	2400.9806
698.379	2234.05627
698.575	2515.04398
698.77	2045.93672
698.966	2491.81145
699.162	2272.09488
699.358	2354.50146
699.554	2168.53869
699.749	2394.64283
699.945	2379.85433
700.141	2453.79168
700.337	2318.58244
700.532	2436.89286
700.728	2219.2627
700.924	2413.65586
701.119	2280.5475
701.315	2301.67841
701.511	2086.10222
701.706	2225.60286
701.902	2196.0148
702.097	2341.82449
702.293	2058.62084
702.489	2318.58244
702.684	2227.71623
702.88	2386.19232
703.075	2143.17489
703.271	2498.14773
703.466	2176.99303
703.662	2386.19232
703.857	2033.25235
704.053	2483.36292
704.248	2267.86851
704.443	2386.19232
704.639	2160.08422
704.834	2394.64283
705.03	2170.65229
705.225	2413.65586
705.42	2191.7878
705.616	2244.62285
705.811	2253.07594
706.006	2343.93734
706.202	2265.75532
706.397	2293.22616
706.592	2381.96701
706.787	2346.05019
706.983	2267.86851
707.178	2439.00525
707.373	2257.30244
707.568	2293.22616
707.763	2136.83376
707.959	2464.35308
708.154	2388.30496
708.349	2238.28293
708.544	2255.1892
708.739	2491.81145
708.934	2250.96268
709.129	2470.6898
709.324	2005.76872
709.519	2449.56704
709.714	2107.2409
709.909	2462.24082
710.104	2253.07594
710.299	2221.3761
710.494	2250.96268
710.689	2284.77376
710.884	2234.05627
711.079	2417.88087
711.274	2250.96268
711.469	2449.56704
711.664	2103.01322
711.859	2318.58244
712.054	2261.5289
712.249	2265.75532
712.443	2217.1493
712.638	2187.56076
712.833	2284.77376
713.028	2297.4523
713.223	2208.6956
713.417	2430.55562
713.612	2166.42508
713.807	2259.41567
714.002	2394.64283
714.196	2422.10583
714.391	2284.77376
714.586	2305.90447
714.78	2390.4176
714.975	2411.54335
715.17	2157.97058
715.364	2493.92356
715.559	2301.67841
715.754	2310.1305
715.948	2305.90447
716.143	2390.4176
716.337	2250.96268
716.532	2419.99335
716.726	2259.41567
716.921	2462.24082
717.115	2312.2435
717.31	2441.11763
717.504	2267.86851
717.699	2415.76837
717.893	2141.06119
718.088	2379.85433
718.282	2157.97058
718.476	2360.83982
718.671	2109.35472
718.865	2377.74165
719.059	2075.53261
719.254	2166.42508
719.448	2198.12829
719.642	2295.33923
719.837	2128.37881
720.031	2369.29081
720.225	1999.42618
720.419	2261.5289
720.614	2122.03752
720.808	2293.22616
721.002	2098.78552
721.196	2329.14716
721.39	2111.46854
721.585	2462.24082
721.779	2274.20805
721.973	2356.61426
722.167	2174.87946
722.361	2176.99303
722.555	2018.45361
722.749	2234.05627
722.943	1955.02683
723.137	2265.75532
723.331	2147.40227
723.525	2362.95258
723.719	2073.41866
723.913	2208.6956
724.107	2124.15129
724.301	2225.60286
724.495	2200.24177
724.689	2430.55562
724.883	2293.22616
725.077	2403.09317
725.271	2255.1892
725.465	2288.99998
725.659	2225.60286
725.853	2388.30496
726.046	2149.51595
726.24	2354.50146
726.434	2191.7878
726.628	2352.38866
726.822	2166.42508
727.015	2443.23
727.209	2202.35524
727.403	2392.53022
727.596	2134.72004
727.79	2394.64283
727.984	2164.31147
728.177	2162.19785
728.371	2168.53869
728.565	2411.54335
728.758	2149.51595
728.952	2390.4176
729.146	2259.41567
729.339	2504.48391
729.533	2360.83982
729.726	2411.54335
729.92	2356.61426
730.113	2519.26793
730.307	2259.41567
730.5	2248.84941
730.694	2236.16961
730.887	2388.30496
731.081	2221.3761
731.274	2293.22616
731.468	2191.7878
731.661	2284.77376
731.854	1965.59835
732.048	2229.82958
732.241	2100.89937
732.435	2193.90131
732.628	2103.01322
732.821	2288.99998
733.014	2267.86851
733.208	2411.54335
733.401	2365.06534
733.594	2381.96701
733.788	2320.69541
733.981	2462.24082
734.174	2377.74165
734.367	2354.50146
734.56	2185.44723
734.754	2284.77376
734.947	2394.64283
735.14	2411.54335
735.333	2141.06119
735.526	2436.89286
735.719	2067.07678
735.912	2310.1305
736.105	2276.32121
736.298	2267.86851
736.491	2261.5289
736.684	2280.5475
736.877	2242.50955
737.07	2204.4687
737.263	2276.32121
737.456	2259.41567
737.649	2153.74328
737.842	2263.64211
738.035	2225.60286
738.228	2257.30244
738.421	2242.50955
738.614	2428.44319
738.807	2327.03423
739	2377.74165
739.192	2386.19232
739.385	2261.5289
739.578	2183.33369
739.771	2335.48587
739.964	2179.10659
740.156	2119.92374
740.349	2143.17489
740.542	2481.25076
740.735	2261.5289
740.927	2301.67841
741.12	2217.1493
741.313	2314.35649
741.505	2377.74165
741.698	2329.14716
741.891	2310.1305
742.083	2310.1305
742.276	2337.59875
742.468	2400.9806
742.661	2335.48587
742.854	2377.74165
743.046	2124.15129
743.239	2369.29081
743.431	2331.26007
743.624	2267.86851
743.816	2236.16961
744.009	2428.44319
744.201	2200.24177
744.393	2136.83376
744.586	2141.06119
744.778	2259.41567
744.971	2295.33923
745.163	2305.90447
745.355	2069.19075
745.548	2035.36643
745.74	2168.53869
745.932	2255.1892
746.125	2242.50955
746.317	2303.79144
746.509	2240.39624
746.702	2390.4176
746.894	2009.99704
747.086	2284.77376
747.278	2238.28293
747.471	2253.07594
747.663	2107.2409
747.855	2388.30496
748.047	2073.41866
748.239	2301.67841
748.431	2185.44723
748.623	2242.50955
748.815	2267.86851
749.008	2174.87946
749.2	2132.6063
749.392	2335.48587
749.584	2215.03589
749.776	2276.32121
749.968	2350.27584
750.16	2360.83982
750.352	2267.86851
750.544	2428.44319
750.736	2160.08422
750.928	2288.99998
751.12	2377.74165
751.311	2352.38866
751.503	2284.77376
751.695	2348.16302
751.887	2217.1493
752.079	2381.96701
752.271	2196.0148
752.463	2297.4523
752.654	2185.44723
752.846	2360.83982
753.038	2124.15129
753.23	2354.50146
753.421	2145.28859
753.613	2191.7878
753.805	2381.96701
753.997	2365.06534
754.188	2244.62285
754.38	2174.87946
754.572	2077.64654
754.763	2225.60286
754.955	2147.40227
755.146	2215.03589
755.338	2081.8744
755.53	2115.69616
755.721	2162.19785
755.913	2100.89937
756.104	2100.89937
756.296	2151.62962
756.487	2071.30471
756.679	2318.58244
756.87	2014.22534
757.062	1993.08359
757.253	2124.15129
757.445	2037.48051
757.636	2210.80904
757.827	2157.97058
758.019	2071.30471
758.21	2210.80904
758.401	1982.51247
758.593	2217.1493
758.784	2168.53869
758.975	1980.39823
759.167	1997.31199
759.358	2155.85694
759.549	1963.48406
759.74	2234.05627
759.932	2200.24177
760.123	2090.33002
760.314	2041.70863
760.505	2075.53261
760.696	2005.76872
760.888	2162.19785
761.079	1929.65458
761.27	2111.46854
761.461	1967.71264
761.652	2037.48051
761.843	1914.85371
762.034	2196.0148
762.225	1830.27237
762.416	2048.05076
762.607	2048.05076
762.798	1955.02683
762.989	2107.2409
763.18	2014.22534
763.371	1910.62485
763.562	1976.16972
763.753	1914.85371
763.944	1957.14115
764.135	1906.39595
764.326	2075.53261
764.517	2024.79597
764.708	1931.76896
764.899	1796.43769
765.089	1931.76896
765.28	1796.43769
765.471	1895.82363
765.662	1658.97426
765.853	1802.78178
766.043	1694.92757
766.234	1967.71264
766.425	1726.65036
766.615	2026.91008
766.806	1902.16704
766.997	1955.02683
767.187	2007.88288
767.378	1965.59835
767.569	1804.89647
767.759	1921.19698
767.95	1948.68385
768.141	1916.96814
768.331	1933.88335
768.522	1948.68385
768.712	1940.22645
768.903	1847.18928
769.093	1728.76519
769.284	1944.45516
769.474	1840.84548
769.665	1739.33927
769.855	1730.88001
770.046	1883.13667
770.236	1762.60193
770.426	1798.55239
770.617	1916.96814
770.807	1834.50163
770.998	1845.07468
771.188	2007.88288
771.378	1895.82363
771.569	2005.76872
771.759	1720.30586
771.949	1678.00847
772.139	1845.07468
772.33	1635.70994
772.52	1688.58293
772.71	1864.10588
772.9	1709.73163
773.09	1722.4207
773.281	1787.97885
773.471	1790.09357
773.661	1616.67529
773.851	1699.15732
774.041	1648.3996
774.231	1610.33037
774.421	1548.9953
774.611	1722.4207
774.802	1447.47322
774.992	1650.51454
775.182	1612.44534
775.372	1735.10965
775.562	1635.70994
775.752	1747.79847
775.942	1682.23826
776.131	1819.69916
776.321	1603.98543
776.511	1716.07618
776.701	1603.98543
776.891	1658.97426
777.081	1608.21539
777.271	1701.27219
777.461	1618.79026
777.651	1895.82363
777.84	1538.42016
778.03	1684.35315
778.22	1485.54414
778.41	1658.97426
778.599	1498.23443
778.789	1739.33927
778.979	1612.44534
779.169	1631.48003
779.358	1580.7205
779.548	1646.28466
779.738	1474.96889
779.927	1561.68542
780.117	1477.08394
780.307	1517.26981
780.496	1540.53519
780.686	1716.07618
780.875	1489.77424
781.065	1620.90523
781.254	1472.85384
781.444	1678.00847
781.633	1542.65022
781.823	1570.14547
782.012	1483.42909
782.202	1500.34947
782.391	1419.97755
782.581	1565.91545
782.77	1460.16353
782.96	1553.22534
783.149	1396.71204
783.338	1540.53519
783.528	1394.597
783.717	1517.26981
783.906	1430.5528
784.096	1466.50869
784.285	1341.72126
784.474	1485.54414
784.663	1432.66785
784.853	1460.16353
785.042	1309.99623
785.231	1639.93984
785.42	1422.0926
785.61	1574.37549
785.799	1472.85384
785.988	1517.26981
786.177	1246.54755
786.366	1455.93342
786.555	1337.49123
786.744	1510.92469
786.933	1208.47949
787.122	1540.53519
787.312	1430.5528
787.501	1445.35816
787.69	1430.5528
787.879	1464.39363
788.068	1142.92045
788.257	1386.13684
788.445	1174.64211
788.634	1375.56166
788.823	1286.73147
789.012	1282.50154
789.201	1267.69687
789.39	1422.0926
789.579	1235.97299
789.768	1364.9865
789.957	1320.5712
790.145	1367.10153
790.334	1282.50154
790.523	1447.47322
790.712	1235.97299
790.9	1280.38658
791.089	1155.609
791.278	1261.35204
791.467	1204.24977
791.655	1447.47322
791.844	1178.87173
792.033	1248.66247
792.221	1282.50154
792.41	1246.54755
792.599	1136.57623
792.787	1329.0312
792.976	1212.70922
793.164	1282.50154
793.353	1206.36463
793.541	1252.89232
793.73	1159.83855
793.918	1155.609
794.107	1204.24977
794.295	1257.12217
794.484	1235.97299
794.672	1248.66247
794.861	1214.82409
795.049	1396.71204
795.238	1159.83855
795.426	1297.30633
795.614	1115.42911
795.803	1329.0312
795.991	1187.33102
796.179	1244.43263
796.368	1187.33102
796.556	1331.14621
796.744	1071.02172
796.932	1282.50154
797.121	1043.53258
797.309	1126.00261
797.497	1087.93856
797.685	1200.02006
797.874	1041.41807
798.062	1252.89232
798.25	1045.6471
798.438	1261.35204
798.626	1130.23204
798.814	1312.11122
799.002	1204.24977
799.19	1248.66247
799.378	1104.85572
799.566	1235.97299
799.755	1049.87614
799.943	1221.16873
800.131	1284.61651
800.318	1113.31442
800.506	1212.70922
800.694	1191.56068
800.882	965.29979
801.07	1238.08789
801.258	1058.33431
801.446	1261.35204
801.634	1104.85572
801.822	1045.6471
802.01	1185.21619
802.197	1337.49123
802.385	973.75696
802.573	1358.64142
802.761	1121.7732
802.949	1147.14995
803.136	1159.83855
803.324	1149.26471
803.512	1246.54755
803.699	1307.88124
803.887	1153.49423
804.075	1345.95129
804.262	1066.79256
804.45	1214.82409
804.638	1136.57623
804.825	1219.05385
805.013	1049.87614
805.201	1223.28361
805.388	1151.37947
805.576	1212.70922
805.763	992.78599
805.951	1159.83855
806.138	1202.13491
806.326	1138.69096
806.513	1049.87614
806.701	1145.0352
806.888	1001.24351
807.075	1178.87173
807.263	1100.6264
807.45	1238.08789
807.638	1138.69096
807.825	1371.33159
808.012	1111.19974
808.2	1312.11122
808.387	1161.95334
808.574	1195.79036
808.761	1200.02006
808.949	1297.30633
809.136	1240.2028
809.323	1132.34677
809.51	1231.74319
809.698	1274.04171
809.885	1233.85809
810.072	1320.5712
810.259	1126.00261
810.446	1320.5712
810.633	1005.47231
810.82	1307.88124
811.008	1111.19974
811.195	1210.59435
811.382	1094.28246
811.569	1259.23711
811.756	1037.18907
811.943	1345.95129
812.13	1102.74106
812.317	1286.73147
812.504	1305.76625
812.691	1278.27162
812.878	1329.0312
813.064	1455.93342
813.251	1212.70922
813.438	1339.60625
813.625	1170.4125
813.812	1398.82708
813.999	1214.82409
814.186	1320.5712
814.372	1235.97299
814.559	1269.81181
814.746	1210.59435
814.933	1255.00724
815.12	1039.30357
815.306	1111.19974
815.493	1068.90714
815.68	1185.21619
815.866	1077.36549
816.053	1261.35204
816.24	1060.44886
816.426	1206.36463
816.613	1263.46698
816.799	1320.5712
816.986	1138.69096
817.173	1223.28361
817.359	1018.15885
817.546	1265.58192
817.732	1117.5438
817.919	1227.51339
818.105	1244.43263
818.292	1193.67552
818.478	1121.7732
818.665	1324.8012
818.851	1096.3971
819.037	1398.82708
819.224	1278.27162
819.41	1415.74745
819.597	1151.37947
819.783	1219.05385
819.969	1159.83855
820.156	1269.81181
820.342	1117.5438
820.528	1197.90521
820.714	1140.8057
820.901	1297.30633
821.087	1187.33102
821.273	1269.81181
821.459	1178.87173
821.646	1337.49123
821.832	1202.13491
822.018	1312.11122
822.204	977.98559
822.39	1280.38658
822.576	1174.64211
822.762	1159.83855
822.948	1200.02006
823.134	1138.69096
823.32	1142.92045
823.507	1172.5273
823.693	1077.36549
823.879	1035.07458
824.065	1126.00261
824.25	1051.99068
824.436	988.55727
824.622	1123.8879
824.808	1003.35791
824.994	1060.44886
825.18	973.75696
825.366	1117.5438
825.552	1058.33431
825.738	1235.97299
825.923	1041.41807
826.109	1157.72378
826.295	999.12912
826.481	1100.6264
826.667	1066.79256
826.852	1195.79036
827.038	1075.2509
827.224	1303.65127
827.409	1278.27162
827.595	1130.23204
827.781	1077.36549
827.966	1252.89232
828.152	1092.16782
828.338	1126.00261
828.523	948.38578
828.709	1037.18907
828.894	1035.07458
829.08	1117.5438
829.266	994.90036
829.451	992.78599
829.637	984.32858
829.822	1035.07458
830.008	982.21424
830.193	990.67163
830.378	933.58639
830.564	973.75696
830.749	994.90036
830.935	1032.96009
831.12	868.05076
831.305	906.10279
831.491	810.9779
831.676	1151.37947
831.861	942.04314
832.047	1073.1363
832.232	969.52836
832.417	1104.85572
832.602	914.55914
832.788	1155.609
832.973	1032.96009
833.158	1202.13491
833.343	931.47222
833.528	1151.37947
833.714	1009.70113
833.899	1032.96009
834.084	1026.61666
834.269	1009.70113
834.454	990.67163
834.639	1009.70113
834.824	918.78737
835.009	1041.41807
835.194	939.92894
835.379	1026.61666
835.564	931.47222
835.749	1056.21976
835.934	933.58639
836.119	834.22902
836.304	804.63688
836.489	965.29979
836.674	842.68425
836.859	1185.21619
837.044	882.84846
837.228	1096.3971
837.413	783.50075
837.598	903.98872
837.783	906.10279
837.968	1001.24351
838.152	846.91191
838.337	963.18551
838.522	859.59512
838.707	838.45662
838.891	855.36735
839.076	825.77394
839.261	796.18231
839.445	973.75696
839.63	827.8877
839.815	914.55914
839.999	779.27365
840.184	937.81475
840.368	823.66019
840.553	925.12976
840.737	859.59512
840.922	770.81955
841.106	868.05076
841.291	753.91183
841.475	779.27365
841.66	804.63688
841.844	701.07953
842.029	916.67325
842.213	751.79841
842.397	876.50654
842.582	745.45822
842.766	903.98872
842.951	737.00477
843.135	749.685
843.319	720.09839
843.504	720.09839
843.688	669.38345
843.872	730.6648
844.056	868.05076
844.241	868.05076
844.425	694.74011
844.609	817.319
844.793	772.93306
844.977	749.685
845.161	720.09839
845.346	830.00146
845.53	713.75867
845.714	853.25348
845.898	616.56254
846.082	745.45822
846.266	639.80281
846.45	819.43272
846.634	694.74011
846.818	823.66019
847.002	711.64545
847.186	817.319
847.37	605.99929
847.554	753.91183
847.738	698.96638
847.922	717.98514
848.106	677.83549
848.29	821.54645
848.473	677.83549
848.657	749.685
848.841	705.30587
849.025	728.55149
849.209	650.36706
849.392	677.83549
849.576	768.70605
849.76	703.19269
849.944	622.90065
850.127	724.32492
850.311	671.49644
850.495	787.7279
850.678	717.98514
850.862	745.45822
851.046	578.53632
851.229	711.64545
851.413	663.04455
851.596	686.28771
851.78	677.83549
851.964	620.78794
852.147	489.82546
852.331	705.30587
852.514	576.42387
852.698	570.08662
852.881	553.18786
853.065	601.77407
853.248	576.42387
853.431	652.47994
853.615	601.77407
853.798	570.08662
853.982	546.85105
854.165	593.3238
854.348	567.97422
854.532	658.81867
854.715	567.97422
854.898	618.67523
855.081	544.73881
855.265	618.67523
855.448	475.04277
855.631	563.74948
855.814	542.62658
855.997	584.87373
856.181	466.59585
856.364	496.16112
856.547	523.61715
856.73	637.69
856.913	458.14918
857.096	627.12612
857.279	458.14918
857.462	586.98623
857.645	534.1778
857.828	534.1778
858.011	468.70756
858.194	496.16112
858.377	485.60176
858.56	631.35163
858.743	466.59585
858.926	548.96331
859.109	458.14918
859.292	538.40216
859.475	477.15454
859.658	618.67523
859.841	380.02937
860.023	475.04277
860.206	420.14221
860.389	470.81928
860.572	382.14042
860.755	468.70756
860.937	460.26082
861.12	491.93733
861.303	411.69691
861.486	485.60176
861.668	424.36495
861.851	468.70756
862.034	475.04277
862.216	418.03086
862.399	399.02945
862.581	519.39299
862.764	339.92257
862.947	542.62658
863.129	415.91952
863.312	434.92209
863.494	342.0333
863.677	356.80889
863.859	373.69631
864.042	441.25656
864.224	424.36495
864.406	458.14918
864.589	401.14065
864.771	496.16112
864.954	415.91952
865.136	468.70756
865.318	475.04277
865.501	456.03755
865.683	443.36809
865.865	394.80709
866.048	403.25187
866.23	500.38496
866.412	373.69631
866.594	392.69594
866.777	420.14221
866.959	443.36809
867.141	367.3634
867.323	365.25246
867.505	367.3634
867.687	420.14221
867.869	318.81625
868.052	396.91826
868.234	276.60902
868.416	426.47635
868.598	247.06838
868.78	323.03738
868.962	392.69594
869.144	424.36495
869.326	382.14042
869.508	394.80709
869.69	342.0333
869.872	418.03086
870.054	382.14042
870.236	401.14065
870.417	272.3887
870.599	403.25187
870.781	335.70117
870.963	348.36559
871.145	312.48471
871.327	377.91833
871.508	342.0333
871.69	377.91833
871.872	348.36559
872.054	403.25187
872.235	333.59049
872.417	352.58721
872.599	274.49885
872.78	373.69631
872.962	350.47639
873.144	310.37423
873.325	282.93964
873.507	337.81186
873.689	384.25149
873.87	394.80709
874.052	280.82941
874.233	384.25149
874.415	356.80889
874.596	386.36258
874.778	285.04988
874.959	356.80889
875.141	325.14796
875.322	350.47639
875.503	299.82209
875.685	278.71921
875.866	339.92257
876.048	386.36258
876.229	361.03064
876.41	373.69631
876.592	356.80889
876.773	451.81433
876.954	348.36559
877.136	354.69804
877.317	327.25857
877.498	405.3631
877.679	339.92257
877.86	361.03064
878.042	244.95848
878.223	382.14042
878.404	365.25246
878.585	318.81625
878.766	365.25246
878.947	263.94829
879.128	323.03738
879.309	394.80709
879.49	289.27042
879.672	394.80709
879.853	297.71172
880.034	403.25187
880.215	365.25246
880.396	365.25246
880.576	390.5848
880.757	422.25357
880.938	365.25246
881.119	403.25187
881.3	363.14154
881.481	382.14042
881.662	308.26376
881.843	415.91952
882.023	280.82941
882.204	367.3634
882.385	280.82941
882.566	382.14042
882.747	342.0333
882.927	369.47435
883.108	293.49103
883.289	282.93964
883.469	301.93248
883.65	361.03064
883.831	263.94829
884.011	420.14221
884.192	356.80889
884.373	339.92257
884.553	356.80889
884.734	458.14918
884.914	363.14154
885.095	390.5848
885.275	373.69631
885.456	399.02945
885.636	323.03738
885.817	396.91826
885.997	403.25187
886.178	314.5952
886.358	310.37423
886.538	375.80731
886.719	407.47436
886.899	333.59049
887.08	390.5848
887.26	358.91976
887.44	380.02937
887.621	386.36258
887.801	350.47639
887.981	348.36559
888.161	356.80889
888.342	439.14506
888.522	356.80889
888.702	325.14796
888.882	350.47639
889.062	422.25357
889.242	409.58562
889.423	369.47435
889.603	325.14796
889.783	327.25857
889.963	289.27042
890.143	401.14065
890.323	211.20268
890.503	344.14405
890.683	407.47436
890.863	320.92681
891.043	375.80731
891.223	496.16112
891.403	318.81625
891.583	339.92257
891.763	339.92257
891.943	390.5848
892.122	291.38072
892.302	323.03738
892.482	390.5848
892.662	282.93964
892.842	375.80731
893.022	339.92257
893.201	301.93248
893.381	350.47639
893.561	306.15332
893.741	390.5848
893.92	346.25481
894.1	356.80889
894.28	308.26376
894.459	377.91833
894.639	274.49885
894.819	291.38072
894.998	342.0333
895.178	348.36559
895.357	354.69804
895.537	348.36559
895.716	297.71172
895.896	316.70572
896.075	344.14405
896.255	356.80889
896.434	297.71172
896.614	287.16014
896.793	333.59049
896.973	257.61818
897.152	287.16014
897.331	327.25857
897.511	293.49103
897.69	276.60902
897.87	230.1897
898.049	333.59049
898.228	274.49885
898.407	377.91833
898.587	266.05836
898.766	358.91976
898.945	251.28824
899.124	289.27042
899.304	270.27857
899.483	285.04988
899.662	263.94829
899.841	238.62888
900.02	375.80731
900.199	318.81625
900.378	289.27042
900.557	280.82941
900.737	263.94829
900.916	331.47983
901.095	325.14796
901.274	276.60902
901.453	204.87403
901.632	272.3887
901.811	266.05836
901.989	187.99852
902.168	272.3887
902.347	238.62888
902.526	289.27042
902.705	266.05836
902.884	261.83823
903.063	297.71172
903.242	247.06838
903.42	259.7282
903.599	306.15332
903.778	198.54556
903.957	263.94829
904.135	234.40925
904.314	209.09311
904.493	219.64116
904.672	145.81549
904.85	206.98356
905.029	95.20708
905.207	200.65503
905.386	232.29947
905.565	194.32669
905.743	206.98356
905.922	137.37989
906.1	183.77985
906.279	247.06838
906.457	164.79683
906.636	249.1783
906.814	145.81549
906.993	268.16846
907.171	173.23352
907.35	183.77985
907.528	209.09311
907.707	192.21728
907.885	169.01513
908.063	209.09311
908.242	187.99852
908.42	154.25143
908.598	152.14241
908.777	190.10789
908.955	263.94829
909.133	164.79683
909.311	206.98356
909.49	162.68771
909.668	120.50972
909.846	120.50972
910.024	86.77357
910.202	230.1897
910.38	112.07516
910.559	145.81549
910.737	107.85801
910.915	86.77357
911.093	137.37989
911.271	95.20708
911.449	145.81549
911.627	131.05342
911.805	139.48876
911.983	192.21728
912.161	97.31551
912.339	177.45199
912.517	137.37989
912.695	145.81549
912.872	120.50972
913.05	219.64116
913.228	86.77357
913.406	272.3887
913.584	204.87403
913.762	217.53151
913.939	177.45199
914.117	230.1897
914.295	95.20708
914.473	175.34274
914.65	143.70656
914.828	162.68771
915.006	204.87403
915.184	198.54556
915.361	171.12431
915.539	169.01513
915.716	154.25143
915.894	124.72714
916.072	158.46953
916.249	112.07516
916.427	133.16222
916.604	105.74946
916.782	105.74946
916.959	171.12431
917.137	179.56125
917.314	204.87403
917.492	88.88192
917.669	120.50972
917.847	175.34274
918.024	158.46953
918.201	141.59765
918.379	213.31227
918.556	221.75083
918.733	181.67054
918.911	118.40105
919.088	124.72714
919.265	124.72714
919.442	59.36716
919.62	99.42397
919.797	95.20708
919.974	141.59765
920.151	162.68771
920.328	114.18377
920.506	169.01513
920.683	97.31551
920.86	103.64094
921.037	187.99852
921.214	154.25143
921.391	162.68771
921.568	175.34274
921.745	162.68771
921.922	173.23352
922.099	86.77357
922.276	63.58328
922.453	74.12398
922.63	145.81549
922.807	147.92445
922.984	78.34042
923.161	105.74946
923.338	162.68771
923.514	38.28793
923.691	164.79683
923.868	112.07516
924.045	166.90597
924.222	147.92445
924.399	139.48876
924.575	80.44868
924.752	118.40105
924.929	105.74946
925.105	53.04315
925.282	185.88917
925.459	154.25143
925.635	175.34274
925.812	90.99028
925.989	80.44868
926.165	59.36716
926.342	128.94464
926.518	137.37989
926.695	198.54556
926.871	90.99028
927.048	69.90763
927.224	128.94464
927.401	120.50972
927.577	53.04315
927.754	109.96657
927.93	150.03342
928.107	-18.61421
928.283	59.36716
928.459	126.83588
928.636	118.40105
928.812	97.31551
928.988	86.77357
929.165	105.74946
929.341	69.90763
929.517	72.0158
929.693	82.55695
929.87	145.81549
930.046	80.44868
930.222	95.20708
930.398	-39.68458
930.574	38.28793
930.751	61.47521
930.927	112.07516
931.103	50.93519
931.279	53.04315
931.455	84.66525
931.631	53.04315
931.807	74.12398
931.983	118.40105
932.159	27.74919
932.335	44.61145
932.511	78.34042
932.687	78.34042
932.863	42.50359
933.039	40.39575
933.215	69.90763
933.391	46.71934
933.566	74.12398
933.742	27.74919
933.918	97.31551
934.094	38.28793
934.27	-3.86348
934.445	103.64094
934.621	69.90763
934.797	74.12398
934.973	67.79949
935.148	36.18013
935.324	61.47521
935.5	40.39575
935.675	19.31862
935.851	34.07236
936.027	40.39575
936.202	78.34042
936.378	46.71934
936.553	-46.00521
936.729	48.82725
936.904	61.47521
937.08	57.25913
937.255	23.53386
937.431	53.04315
937.606	27.74919
937.782	44.61145
937.957	29.85689
938.133	15.10348
938.308	82.55695
938.483	-10.18537
938.659	36.18013
938.834	50.93519
939.009	63.58328
939.185	63.58328
939.36	86.77357
939.535	10.88843
939.71	-29.1497
939.886	4.56604
940.061	21.42623
940.236	50.93519
940.411	-29.1497
940.586	112.07516
940.761	31.96461
940.937	-18.61421
941.112	-10.18537
941.287	-58.64579
941.462	99.42397
941.637	-46.00521
941.812	19.31862
941.987	19.31862
942.162	88.88192
942.337	-5.9708
942.512	-46.00521
942.687	-14.39983
942.862	23.53386
943.037	36.18013
943.212	-31.25673
943.386	38.28793
943.561	4.56604
943.736	10.88843
943.911	15.10348
944.086	10.88843
944.26	2.45862
944.435	-12.29261
944.61	-20.72135
944.785	40.39575
944.959	57.25913
945.134	21.42623
945.309	-56.53909
945.483	12.99594
945.658	29.85689
945.833	53.04315
946.007	95.20708
946.182	21.42623
946.357	21.42623
946.531	-31.25673
946.706	-22.82848
946.88	19.31862
947.055	31.96461
947.229	44.61145
947.404	27.74919
947.578	-43.89836
947.752	2.45862
947.927	80.44868
948.101	10.88843
948.276	29.85689
948.45	78.34042
948.624	6.67348
948.799	-64.96574
948.973	38.28793
949.147	15.10348
949.321	36.18013
949.496	-14.39983
949.67	17.21104
949.844	2.45862
950.018	80.44868
950.193	48.82725
950.367	10.88843
950.541	36.18013
950.715	57.25913
950.889	84.66525
951.063	116.2924
951.237	65.69137
951.411	2.45862
951.585	44.61145
951.759	61.47521
951.933	86.77357
952.107	-22.82848
952.281	44.61145
952.455	19.31862
952.629	15.10348
952.803	69.90763
952.977	44.61145
953.151	-1.75614
953.325	61.47521
953.499	6.67348
953.672	29.85689
953.846	-27.04265
954.02	2.45862
954.194	19.31862
954.368	105.74946
954.541	105.74946
954.715	36.18013
954.889	-27.04265
955.062	27.74919
955.236	36.18013
955.41	61.47521
955.583	36.18013
955.757	29.85689
955.93	19.31862
956.104	48.82725
956.278	44.61145
956.451	48.82725
956.625	-43.89836
956.798	-31.25673
956.972	0.35123
957.145	-48.11204
957.319	86.77357
957.492	40.39575
957.665	19.31862
957.839	-16.50703
958.012	-3.86348
958.185	46.71934
958.359	-31.25673
958.532	82.55695
958.705	23.53386
958.879	53.04315
959.052	23.53386
959.225	38.28793
959.398	78.34042
959.572	63.58328
959.745	-1.75614
959.918	80.44868
960.091	53.04315
960.264	-5.9708
960.438	29.85689
960.611	10.88843
960.784	-20.72135
960.957	23.53386
961.13	107.85801
961.303	86.77357
961.476	-35.47071
961.649	-31.25673
961.822	72.0158
961.995	-20.72135
962.168	36.18013
962.341	124.72714
962.514	2.45862
962.686	61.47521
962.859	-12.29261
963.032	59.36716
963.205	44.61145
963.378	23.53386
963.551	-56.53909
963.723	27.74919
963.896	-22.82848
964.069	-27.04265
964.242	-20.72135
964.414	61.47521
964.587	44.61145
964.76	65.69137
964.932	29.85689
965.105	23.53386
965.278	46.71934
965.45	6.67348
965.623	19.31862
965.795	69.90763
965.968	69.90763
966.14	-5.9708
966.313	27.74919
966.485	57.25913
966.658	-48.11204
966.83	19.31862
967.003	15.10348
967.175	-27.04265
967.348	57.25913
967.52	63.58328
967.692	12.99594
967.865	-22.82848
968.037	36.18013
968.209	10.88843
968.382	2.45862
968.554	2.45862
968.726	-20.72135
968.898	-35.47071
969.071	-94.45578
969.243	34.07236
969.415	10.88843
969.587	-37.57766
969.759	2.45862
969.932	27.74919
970.104	38.28793
970.276	42.50359
970.448	31.96461
970.62	44.61145
970.792	27.74919
970.964	21.42623
971.136	112.07516
971.308	46.71934
971.48	61.47521
971.652	-64.96574
971.824	53.04315
971.996	-14.39983
972.168	63.58328
972.339	82.55695
972.511	21.42623
972.683	-48.11204
972.855	-18.61421
973.027	-5.9708
973.199	-27.04265
973.37	4.56604
973.542	124.72714
973.714	-14.39983
973.886	46.71934
974.057	53.04315
974.229	-12.29261
974.401	40.39575
974.572	12.99594
974.744	8.78094
974.915	-14.39983
975.087	57.25913
975.259	44.61145
975.43	90.99028
975.602	-3.86348
975.773	12.99594
975.945	6.67348
976.116	-5.9708
976.288	38.28793
976.459	29.85689
976.63	-20.72135
976.802	-18.61421
976.973	36.18013
977.145	-3.86348
977.316	59.36716
977.487	57.25913
977.659	27.74919
977.83	27.74919
978.001	31.96461
978.172	15.10348
978.344	12.99594
978.515	-1.75614
978.686	80.44868
978.857	82.55695
979.028	-1.75614
979.2	19.31862
979.371	-27.04265
979.542	-5.9708
979.713	38.28793
979.884	-20.72135
980.055	44.61145
980.226	-29.1497
980.397	61.47521
980.568	4.56604
980.739	27.74919
980.91	-20.72135
981.081	88.88192
981.252	34.07236
981.423	-5.9708
981.594	-10.18537
981.765	74.12398
981.936	44.61145
982.106	-64.96574
982.277	-54.43236
982.448	44.61145
982.619	-22.82848
982.79	-22.82848
982.96	-22.82848
983.131	-22.82848
983.302	0.35123
983.472	50.93519
983.643	55.15113
983.814	23.53386
983.984	-5.9708
984.155	59.36716
984.326	27.74919
984.496	99.42397
984.667	-20.72135
984.837	21.42623
985.008	-58.64579
985.178	2.45862
985.349	65.69137
985.519	46.71934
985.69	10.88843
985.86	-48.11204
986.031	19.31862
986.201	15.10348
986.371	-31.25673
986.542	15.10348
986.712	-18.61421
986.882	-62.85911
987.053	-20.72135
987.223	23.53386
987.393	21.42623
987.563	63.58328
987.734	36.18013
987.904	23.53386
988.074	-39.68458
988.244	-39.68458
988.414	31.96461
988.585	27.74919
988.755	46.71934
988.925	29.85689
989.095	-5.9708
989.265	38.28793
989.435	-12.29261
989.605	-1.75614
989.775	-39.68458
989.945	17.21104
990.115	-33.36373
990.285	15.10348
990.455	50.93519
990.625	-1.75614
990.795	-10.18537
990.965	-43.89836
991.134	-16.50703
991.304	-20.72135
991.474	29.85689
991.644	12.99594
991.814	42.50359
991.984	21.42623
992.153	57.25913
992.323	-1.75614
992.493	2.45862
992.662	-31.25673
992.832	-10.18537
993.002	-8.0781
993.171	12.99594
993.341	57.25913
993.511	-20.72135
993.68	40.39575
993.85	6.67348
994.019	29.85689
994.189	38.28793
994.358	-5.9708
994.528	63.58328
994.697	19.31862
994.867	53.04315
995.036	48.82725
995.206	-20.72135
995.375	55.15113
995.544	23.53386
995.714	-1.75614
995.883	-3.86348
996.052	2.45862
996.222	-27.04265
996.391	15.10348
996.56	27.74919
996.73	65.69137
996.899	-88.13691
997.068	-1.75614
997.237	90.99028
997.406	50.93519
997.576	46.71934
997.745	44.61145
997.914	48.82725
998.083	-29.1497
998.252	-31.25673
998.421	4.56604
998.59	27.74919
998.759	27.74919
998.928	12.99594
999.097	40.39575
999.266	-1.75614
999.435	-20.72135
999.604	-48.11204
999.773	-5.9708
999.942	-12.29261
1000.111	19.31862
1000.28	27.74919
1000.448	-56.53909
1000.617	-1.75614
1000.786	74.12398
1000.955	82.55695
1001.124	29.85689
1001.292	12.99594
1001.461	21.42623
1001.63	48.82725
1001.798	40.39575
1001.967	-12.29261
1002.136	-14.39983
1002.304	-1.75614
1002.473	-39.68458
1002.642	78.34042
1002.81	31.96461
1002.979	-24.93558
1003.147	53.04315
1003.316	80.44868
1003.484	61.47521
1003.653	44.61145
1003.821	-8.0781
1003.99	55.15113
1004.158	2.45862
1004.327	-14.39983
1004.495	36.18013
1004.663	-27.04265
1004.832	53.04315
1005	-14.39983
1005.168	-12.29261
1005.337	44.61145
1005.505	38.28793
1005.673	2.45862
1005.842	10.88843
1006.01	-31.25673
1006.178	44.61145
1006.346	-29.1497
1006.514	72.0158
1006.683	10.88843
1006.851	-10.18537
1007.019	72.0158
1007.187	-20.72135
1007.355	2.45862
1007.523	53.04315
1007.691	-69.17891
1007.859	-20.72135
1008.027	-41.79148
1008.195	-5.9708
1008.363	-48.11204
1008.531	-12.29261
1008.699	2.45862
1008.867	-3.86348
1009.035	2.45862
1009.203	-39.68458
1009.37	23.53386
1009.538	31.96461
1009.706	34.07236
1009.874	2.45862
1010.042	6.67348
1010.209	19.31862
1010.377	36.18013
1010.545	-22.82848
1010.713	95.20708
1010.88	19.31862
1011.048	-14.39983
1011.216	-14.39983
1011.383	21.42623
1011.551	55.15113
1011.718	-62.85911
1011.886	27.74919
1012.054	17.21104
1012.221	-39.68458
1012.389	114.18377
1012.556	-1.75614
1012.724	4.56604
1012.891	44.61145
1013.058	10.88843
1013.226	19.31862
1013.393	-1.75614
1013.561	-10.18537
1013.728	-1.75614
1013.895	27.74919
1014.063	2.45862
1014.23	53.04315
1014.397	19.31862
1014.565	-46.00521
1014.732	-75.49848
1014.899	15.10348
1015.066	-73.39198
1015.233	-58.64579
1015.401	-10.18537
1015.568	27.74919
1015.735	-1.75614
1015.902	-14.39983
1016.069	-31.25673
1016.236	36.18013
1016.403	-22.82848
1016.57	29.85689
1016.737	-14.39983
1016.904	40.39575
1017.071	-18.61421
1017.238	-56.53909
1017.405	-8.0781
1017.572	25.64151
1017.739	46.71934
1017.906	53.04315
1018.073	-31.25673
1018.24	-35.47071
1018.407	-41.79148
1018.573	-73.39198
1018.74	80.44868
1018.907	-18.61421
1019.074	44.61145
1019.241	46.71934
1019.407	27.74919
1019.574	4.56604
1019.741	-20.72135
1019.907	-62.85911
1020.074	25.64151
1020.241	8.78094
1020.407	19.31862
1020.574	-48.11204
1020.74	-29.1497
1020.907	27.74919
1021.073	27.74919
1021.24	-43.89836
1021.406	27.74919
1021.573	-31.25673
1021.739	-27.04265
1021.906	-56.53909
1022.072	59.36716
1022.239	-62.85911
1022.405	27.74919
1022.571	-56.53909
1022.738	-67.07234
1022.904	23.53386
1023.07	-24.93558
1023.237	38.28793
1023.403	-3.86348
1023.569	-20.72135
1023.735	10.88843
1023.902	15.10348
1024.068	-18.61421
1024.234	-60.75247
1024.4	-29.1497
1024.566	-14.39983
1024.732	46.71934
1024.898	-20.72135
1025.065	-1.75614
1025.231	38.28793
1025.397	38.28793
1025.563	-31.25673
1025.729	27.74919
1025.895	19.31862
1026.061	-58.64579
1026.227	31.96461
1026.392	4.56604
1026.558	-14.39983
1026.724	-39.68458
1026.89	-39.68458
1027.056	36.18013
1027.222	-20.72135
1027.388	-1.75614
1027.553	-27.04265
1027.719	-62.85911
1027.885	-5.9708
1028.051	27.74919
1028.216	-86.03057
1028.382	-77.60495
1028.548	-10.18537
1028.713	36.18013
1028.879	74.12398
1029.045	-22.82848
1029.21	69.90763
1029.376	27.74919
1029.541	10.88843
1029.707	38.28793
1029.873	-1.75614
1030.038	-31.25673
1030.204	6.67348
1030.369	12.99594
1030.534	-39.68458
1030.7	10.88843
1030.865	4.56604
1031.031	2.45862
1031.196	-10.18537
1031.361	74.12398
1031.527	65.69137
1031.692	21.42623
1031.857	2.45862
1032.023	-29.1497
1032.188	-10.18537
1032.353	-64.96574
1032.518	-52.32561
1032.684	10.88843
1032.849	-20.72135
1033.014	2.45862
1033.179	-12.29261
1033.344	-10.18537
1033.509	-10.18537
1033.674	-31.25673
1033.839	48.82725
1034.004	63.58328
1034.17	-48.11204
1034.335	36.18013
1034.5	-1.75614
1034.664	27.74919
1034.829	42.50359
1034.994	-64.96574
1035.159	-3.86348
1035.324	34.07236
1035.489	36.18013
1035.654	-94.45578
1035.819	-22.82848
1035.984	40.39575
1036.148	0.35123
1036.313	-3.86348
1036.478	6.67348
1036.643	88.88192
1036.807	-31.25673
1036.972	-90.24323
1037.137	-41.79148
1037.301	-22.82848
1037.466	12.99594
1037.631	15.10348
1037.795	21.42623
1037.96	27.74919
1038.124	-5.9708
1038.289	-31.25673
1038.454	-73.39198
1038.618	48.82725
1038.783	-20.72135
1038.947	48.82725
1039.111	69.90763
1039.276	2.45862
1039.44	29.85689
1039.605	8.78094
1039.769	21.42623
1039.933	-31.25673
1040.098	15.10348
1040.262	36.18013
1040.426	25.64151
1040.591	-5.9708
1040.755	-27.04265
1040.919	78.34042
1041.083	8.78094
1041.248	69.90763
1041.412	-98.66823
1041.576	-33.36373
1041.74	29.85689
1041.904	-8.0781
1042.068	-22.82848
1042.232	72.0158
1042.397	40.39575
1042.561	6.67348
1042.725	72.0158
1042.889	42.50359
1043.053	-73.39198
1043.217	2.45862
1043.381	31.96461
1043.544	40.39575
1043.708	-3.86348
1043.872	-48.11204
1044.036	12.99594
1044.2	4.56604
1044.364	36.18013
1044.528	-31.25673
1044.691	12.99594
1044.855	-18.61421
1045.019	-18.61421
1045.183	-3.86348
1045.346	4.56604
1045.51	15.10348
1045.674	4.56604
1045.837	29.85689
1046.001	6.67348
1046.165	-22.82848
1046.328	27.74919
1046.492	12.99594
1046.655	-37.57766
1046.819	-62.85911
1046.983	-22.82848
1047.146	-46.00521
1047.31	-29.1497
1047.473	-8.0781
1047.636	40.39575
1047.8	-14.39983
1047.963	-8.0781
1048.127	42.50359
1048.29	-5.9708
