Data from mixed_try1_USB4F045381__24__00089.txt Node

Date: Thu Apr 03 19:53:32 EDT 2025
User: mmckonesweet
Spectrometer: USB4F04538
Trigger mode: 4
Integration Time (sec): 2.700000E-3
Scans to average: 1
Electric dark correction enabled: true
Nonlinearity correction enabled: true
Boxcar width: 0
XAxis mode: Wavelengths
Number of Pixels in Spectrum: 3648
>>>>>Begin Spectral Data<<<<<
345.52	-62.1569
345.736	-62.1569
345.952	-62.1569
346.168	-62.1569
346.384	-5.26836
346.6	-7.37567
346.816	-7.37567
347.032	34.77495
347.248	26.34407
347.464	1.05369
347.68	3.16109
347.896	-47.40976
348.112	26.34407
348.328	68.5022
348.544	-102.17852
348.76	-7.37567
348.975	11.59093
349.191	17.91356
349.407	13.69845
349.623	-72.68981
349.839	3.16109
350.055	-5.26836
350.27	22.12877
350.486	17.91356
350.702	-3.16104
350.918	17.91356
351.133	47.42198
351.349	51.63784
351.565	-3.16104
351.781	9.48343
351.996	-64.26353
352.212	-3.16104
352.428	68.5022
352.644	49.5299
352.859	1.05369
353.075	-17.91182
353.291	34.77495
353.506	38.99053
353.722	47.42198
353.938	60.06984
354.153	32.66719
354.369	36.88273
354.584	55.85379
354.8	41.09836
355.016	5.26851
355.231	9.48343
355.447	-20.01897
355.662	26.34407
355.878	45.31408
356.093	45.31408
356.309	30.55946
356.524	-87.4348
356.74	-24.23321
356.955	-15.80464
357.171	-74.79631
357.386	-3.16104
357.602	-24.23321
357.817	-28.44736
358.033	-49.51657
358.248	-38.98228
358.464	45.31408
358.679	-91.64742
358.895	9.48343
359.11	-32.6614
359.325	-68.47672
359.541	-47.40976
359.756	-36.87534
359.972	-79.00925
360.187	13.69845
360.402	-11.5902
360.618	-32.6614
360.833	30.55946
361.048	36.88273
361.264	-15.80464
361.479	17.91356
361.694	-28.44736
361.909	43.20621
362.125	36.88273
362.34	13.69845
362.555	43.20621
362.77	68.5022
362.986	76.93493
363.201	1.05369
363.416	-36.87534
363.631	20.02115
363.847	-49.51657
364.062	-30.55439
364.277	-22.12611
364.492	-15.80464
364.707	26.34407
364.922	79.04317
365.138	17.91356
365.353	36.88273
365.568	43.20621
365.783	34.77495
365.998	1.05369
366.213	-28.44736
366.428	-1.05368
366.643	-15.80464
366.858	60.06984
367.073	-7.37567
367.288	45.31408
367.503	72.71852
367.718	-1.05368
367.933	43.20621
368.148	-15.80464
368.363	5.26851
368.578	-28.44736
368.793	20.02115
369.008	5.26851
369.223	-55.83685
369.438	-38.98228
369.653	-20.01897
369.868	-57.94356
370.083	20.02115
370.298	85.36802
370.513	1.05369
370.728	34.77495
370.943	26.34407
371.157	28.45175
371.372	9.48343
371.587	34.77495
371.802	-66.37014
372.017	13.69845
372.232	68.5022
372.446	22.12877
372.661	15.80599
372.876	-3.16104
373.091	-22.12611
373.306	17.91356
373.52	-36.87534
373.735	-38.98228
373.95	-47.40976
374.165	-30.55439
374.379	-3.16104
374.594	11.59093
374.809	9.48343
375.023	-11.5902
375.238	-24.23321
375.453	-7.37567
375.667	-22.12611
375.882	17.91356
376.097	1.05369
376.311	1.05369
376.526	-20.01897
376.741	-68.47672
376.955	-7.37567
377.17	-32.6614
377.384	-32.6614
377.599	70.61035
377.813	-3.16104
378.028	57.9618
378.242	3.16109
378.457	15.80599
378.672	-36.87534
378.886	11.59093
379.101	-15.80464
379.315	22.12877
379.53	-13.69743
379.744	22.12877
379.958	-11.5902
380.173	-15.80464
380.387	-24.23321
380.602	32.66719
380.816	-17.91182
381.031	34.77495
381.245	68.5022
381.459	-32.6614
381.674	-7.37567
381.888	-28.44736
382.103	17.91356
382.317	26.34407
382.531	36.88273
382.746	26.34407
382.96	-7.37567
383.174	-66.37014
383.388	-7.37567
383.603	-36.87534
383.817	-72.68981
384.031	-3.16104
384.246	-30.55439
384.46	-26.3403
384.674	5.26851
384.888	22.12877
385.103	-38.98228
385.317	51.63784
385.531	9.48343
385.745	102.23527
385.959	-1.05368
386.174	-47.40976
386.388	62.17789
386.602	1.05369
386.816	-32.6614
387.03	5.26851
387.244	43.20621
387.458	9.48343
387.672	3.16109
387.887	85.36802
388.101	-13.69743
388.315	1.05369
388.529	-36.87534
388.743	-55.83685
388.957	-15.80464
389.171	-5.26836
389.385	-3.16104
389.599	13.69845
389.813	13.69845
390.027	38.99053
390.241	36.88273
390.455	-7.37567
390.669	53.7458
390.883	83.25972
391.097	-15.80464
391.311	-57.94356
391.525	17.91356
391.738	30.55946
391.952	-15.80464
392.166	49.5299
392.38	5.26851
392.594	-32.6614
392.808	-20.01897
393.022	28.45175
393.236	55.85379
393.449	-24.23321
393.663	-38.98228
393.877	62.17789
394.091	-28.44736
394.305	38.99053
394.518	-24.23321
394.732	1.05369
394.946	-28.44736
395.16	-5.26836
395.373	1.05369
395.587	76.93493
395.801	49.5299
396.015	5.26851
396.228	-32.6614
396.442	-13.69743
396.656	-60.05024
396.869	36.88273
397.083	-5.26836
397.297	-28.44736
397.51	17.91356
397.724	-15.80464
397.938	-36.87534
398.151	81.15143
398.365	-60.05024
398.578	60.06984
398.792	64.28597
399.005	43.20621
399.219	-13.69743
399.433	43.20621
399.646	-3.16104
399.86	30.55946
400.073	36.88273
400.287	-13.69743
400.5	98.01833
400.714	20.02115
400.927	-7.37567
401.141	-13.69743
401.354	83.25972
401.567	-7.37567
401.781	1.05369
401.994	43.20621
402.208	9.48343
402.421	9.48343
402.635	9.48343
402.848	123.32132
403.061	98.01833
403.275	-26.3403
403.488	-24.23321
403.701	-41.08919
403.915	9.48343
404.128	26.34407
404.341	43.20621
404.555	76.93493
404.768	55.85379
404.981	-55.83685
405.195	11.59093
405.408	-7.37567
405.621	22.12877
405.834	-1.05368
406.048	-30.55439
406.261	38.99053
406.474	11.59093
406.687	9.48343
406.9	5.26851
407.114	7.37596
407.327	34.77495
407.54	22.12877
407.753	-13.69743
407.966	22.12877
408.179	22.12877
408.392	38.99053
408.605	1.05369
408.819	-11.5902
409.032	-13.69743
409.245	53.7458
409.458	-49.51657
409.671	64.28597
409.884	17.91356
410.097	-11.5902
410.31	11.59093
410.523	110.66943
410.736	11.59093
410.949	-110.60293
411.162	79.04317
411.375	-32.6614
411.588	9.48343
411.801	30.55946
412.014	-34.76838
412.227	1.05369
412.44	53.7458
412.653	11.59093
412.865	68.5022
413.078	34.77495
413.291	47.42198
413.504	45.31408
413.717	-22.12611
413.93	-9.48295
414.143	-41.08919
414.356	5.26851
414.568	55.85379
414.781	-32.6614
414.994	11.59093
415.207	-62.1569
415.42	26.34407
415.632	13.69845
415.845	-47.40976
416.058	-36.87534
416.271	-3.16104
416.483	17.91356
416.696	-24.23321
416.909	5.26851
417.121	-13.69743
417.334	26.34407
417.547	76.93493
417.759	79.04317
417.972	36.88273
418.185	43.20621
418.397	3.16109
418.61	9.48343
418.823	85.36802
419.035	30.55946
419.248	-15.80464
419.46	11.59093
419.673	3.16109
419.885	32.66719
420.098	64.28597
420.311	51.63784
420.523	-68.47672
420.736	17.91356
420.948	-15.80464
421.161	60.06984
421.373	-24.23321
421.586	87.47635
421.798	38.99053
422.01	62.17789
422.223	81.15143
422.435	36.88273
422.648	-13.69743
422.86	5.26851
423.073	28.45175
423.285	60.06984
423.497	-15.80464
423.71	43.20621
423.922	-41.08919
424.134	30.55946
424.347	-28.44736
424.559	26.34407
424.771	9.48343
424.984	45.31408
425.196	34.77495
425.408	-7.37567
425.621	34.77495
425.833	13.69845
426.045	-11.5902
426.257	47.42198
426.47	-38.98228
426.682	89.5847
426.894	13.69845
427.106	11.59093
427.318	36.88273
427.531	5.26851
427.743	36.88273
427.955	26.34407
428.167	22.12877
428.379	17.91356
428.591	47.42198
428.804	102.23527
429.016	34.77495
429.228	3.16109
429.44	51.63784
429.652	20.02115
429.864	1.05369
430.076	26.34407
430.288	-28.44736
430.5	38.99053
430.712	70.61035
430.924	9.48343
431.136	-22.12611
431.348	9.48343
431.56	43.20621
431.772	26.34407
431.984	26.34407
432.196	93.80147
432.408	-22.12611
432.62	-45.30293
432.832	9.48343
433.044	-7.37567
433.256	-13.69743
433.468	20.02115
433.679	51.63784
433.891	1.05369
434.103	60.06984
434.315	1.05369
434.527	-13.69743
434.739	1.05369
434.95	-7.37567
435.162	13.69845
435.374	11.59093
435.586	20.02115
435.798	7.37596
436.009	-7.37567
436.221	62.17789
436.433	-11.5902
436.645	38.99053
436.856	-28.44736
437.068	26.34407
437.28	-1.05368
437.491	1.05369
437.703	30.55946
437.915	60.06984
438.126	95.90989
438.338	45.31408
438.55	3.16109
438.761	81.15143
438.973	-15.80464
439.184	98.01833
439.396	60.06984
439.608	-3.16104
439.819	5.26851
440.031	38.99053
440.242	-11.5902
440.454	28.45175
440.665	11.59093
440.877	-3.16104
441.088	-17.91182
441.3	60.06984
441.511	-38.98228
441.723	133.86516
441.934	-3.16104
442.146	79.04317
442.357	41.09836
442.569	47.42198
442.78	98.01833
442.991	-24.23321
443.203	49.5299
443.414	26.34407
443.626	68.5022
443.837	72.71852
444.048	62.17789
444.26	68.5022
444.471	-1.05368
444.682	55.85379
444.894	7.37596
445.105	55.85379
445.316	11.59093
445.528	-34.76838
445.739	28.45175
445.95	11.59093
446.161	13.69845
446.373	20.02115
446.584	9.48343
446.795	41.09836
447.006	26.34407
447.217	-7.37567
447.429	55.85379
447.64	51.63784
447.851	-28.44736
448.062	30.55946
448.273	93.80147
448.484	28.45175
448.695	-41.08919
448.907	41.09836
449.118	64.28597
449.329	26.34407
449.54	106.45231
449.751	-20.01897
449.962	34.77495
450.173	-32.6614
450.384	-17.91182
450.595	30.55946
450.806	-1.05368
451.017	66.39408
451.228	26.34407
451.439	-34.76838
451.65	55.85379
451.861	45.31408
452.072	43.20621
452.283	55.85379
452.494	-20.01897
452.705	68.5022
452.915	150.73642
453.126	85.36802
453.337	110.66943
453.548	72.71852
453.759	114.88664
453.97	5.26851
454.181	17.91356
454.391	17.91356
454.602	36.88273
454.813	41.09836
455.024	38.99053
455.235	26.34407
455.445	62.17789
455.656	91.69308
455.867	-7.37567
456.078	45.31408
456.288	34.77495
456.499	43.20621
456.71	32.66719
456.921	17.91356
457.131	20.02115
457.342	26.34407
457.553	43.20621
457.763	11.59093
457.974	72.71852
458.184	102.23527
458.395	62.17789
458.606	24.2364
458.816	28.45175
459.027	93.80147
459.237	5.26851
459.448	11.59093
459.659	-3.16104
459.869	26.34407
460.08	30.55946
460.29	53.7458
460.501	102.23527
460.711	81.15143
460.922	62.17789
461.132	34.77495
461.343	26.34407
461.553	148.62743
461.764	98.01833
461.974	20.02115
462.184	13.69845
462.395	47.42198
462.605	1.05369
462.816	74.82672
463.026	13.69845
463.236	-15.80464
463.447	55.85379
463.657	55.85379
463.867	53.7458
464.078	49.5299
464.288	93.80147
464.498	1.05369
464.709	157.06349
464.919	68.5022
465.129	127.53879
465.339	76.93493
465.55	98.01833
465.76	125.43005
465.97	43.20621
466.18	150.73642
466.391	76.93493
466.601	81.15143
466.811	22.12877
467.021	91.69308
467.231	154.95444
467.441	60.06984
467.651	70.61035
467.862	186.59229
468.072	95.90989
468.282	60.06984
468.492	129.64756
468.702	79.04317
468.912	81.15143
469.122	176.04582
469.332	157.06349
469.542	169.71819
469.752	190.81102
469.962	129.64756
470.172	171.82738
470.382	64.28597
470.592	121.21262
470.802	129.64756
471.012	72.71852
471.222	171.82738
471.432	102.23527
471.642	178.15507
471.852	146.51847
472.062	201.3582
472.272	182.37364
472.482	178.15507
472.691	233.00273
472.901	222.45405
473.111	159.17255
473.321	173.93659
473.531	241.44201
473.741	146.51847
473.95	190.81102
474.16	203.46769
474.37	241.44201
474.58	205.57721
474.79	359.62338
474.999	249.88161
475.209	298.41518
475.419	247.77168
475.628	296.30482
475.838	300.52556
476.048	311.07772
476.258	296.30482
476.467	296.30482
476.677	416.6233
476.886	458.85306
477.096	456.74142
477.306	422.95736
477.515	340.62615
477.725	422.95736
477.935	422.95736
478.144	475.74669
478.354	439.84889
478.563	598.2531
478.773	414.51198
478.982	437.73739
479.192	475.74669
479.401	448.29503
479.611	566.56597
479.82	498.97701
480.03	615.15409
480.239	596.14053
480.449	600.36568
480.658	665.86183
480.868	640.50708
481.077	729.25593
481.287	646.84561
481.496	746.16268
481.705	862.41365
481.915	712.34986
482.124	796.88685
482.333	754.61631
482.543	760.95663
482.752	921.6062
482.961	820.1373
483.171	851.84424
483.38	864.52756
483.589	951.20475
483.799	1006.17711
484.008	1120.3634
484.217	940.63367
484.426	1065.38284
484.636	1048.46646
484.845	1243.02269
485.054	982.91902
485.263	1166.88784
485.472	1152.08439
485.682	1287.43646
485.891	1133.05168
486.1	1314.93121
486.309	1399.5321
486.518	1293.78137
486.727	1293.78137
486.936	1336.08123
487.146	1319.1612
487.355	1365.69151
487.564	1405.87723
487.773	1530.66505
487.982	1412.22237
488.191	1644.8747
488.4	1575.08049
488.609	1625.84014
488.818	1509.51466
489.027	1627.9551
489.236	1792.91318
489.445	1805.60136
489.654	1672.36872
489.863	1890.18501
490.072	1619.49525
490.281	1742.15901
490.49	1797.14259
490.698	1953.61729
490.907	1807.71604
491.116	2260.12008
491.325	1945.15995
491.534	1902.87186
491.743	1890.18501
491.952	2114.28695
492.16	2059.32551
492.369	2095.26241
492.578	2021.27245
492.787	2268.57291
492.996	2141.76576
493.204	2215.74036
493.413	2369.99506
493.622	2325.62561
493.831	2272.79927
494.039	2494.62759
494.248	2173.4704
494.457	2306.60881
494.665	2576.99056
494.874	2591.77177
495.083	2642.44566
495.291	2560.09704
495.5	2663.55767
495.709	2798.64386
495.917	2606.55238
496.126	2672.00212
496.335	2536.86722
496.543	2650.89061
496.752	2760.65636
496.96	2838.73694
497.169	2714.2213
497.377	2902.03148
497.586	2695.22331
497.794	2950.54848
498.003	2676.22427
498.211	3068.64369
498.42	2821.85625
498.628	2973.74951
498.837	2925.23623
499.045	3279.40451
499.254	2984.29483
499.462	3211.97888
499.671	3041.23301
499.879	3195.11981
500.087	3193.01236
500.296	3439.47
500.504	3214.08619
500.713	3492.1008
500.921	3313.11083
501.129	3384.72211
501.338	3110.8088
501.546	3496.31078
501.754	3178.25969
501.962	3496.31078
502.171	3380.51024
502.379	3691.99288
502.587	3489.99578
502.795	3677.26979
503.004	3544.72025
503.212	3757.18383
503.42	3557.34721
503.628	3902.21871
503.837	3641.50981
504.045	3660.44225
504.253	3498.41574
504.461	4011.45734
504.669	3551.03381
504.877	3904.31997
505.085	3801.33483
505.294	4103.84673
505.502	4030.35842
505.71	4059.75679
505.918	3807.64141
506.126	4087.05164
506.334	4003.05632
506.542	4063.95622
506.75	3996.75534
506.958	4101.74741
507.166	4191.99894
507.374	4112.24377
507.582	4103.84673
507.79	4391.25236
507.998	4282.21133
508.206	4282.21133
508.414	4061.85652
508.622	4206.68736
508.83	4286.4063
509.037	4456.22962
509.245	4072.35485
509.453	4525.37578
509.661	4435.27151
509.869	4508.61528
510.077	4351.41723
510.285	4502.32973
510.492	4527.47074
510.7	4644.75317
510.908	4661.50209
511.116	4623.81501
511.324	4598.68627
511.531	4665.68909
511.739	4359.80422
511.947	4594.49783
512.155	4694.9956
512.362	4703.36808
512.57	4682.43621
512.778	4837.27849
512.985	4770.3349
513.193	4711.7402
513.401	4724.2977
513.608	5012.89404
513.816	4607.06287
514.024	4950.1928
514.231	4833.0952
514.439	5117.34989
514.646	4845.6448
514.854	5100.64085
515.061	4881.19755
515.269	5234.27151
515.477	5031.70036
515.684	5192.52218
515.892	4822.63657
516.099	5301.05102
516.307	5150.76352
516.514	5259.31663
516.722	5100.64085
516.929	5159.11599
517.136	5198.78517
517.344	5403.26066
517.551	5342.77604
517.759	5230.097
517.966	5228.00971
518.173	5365.7208
518.381	5236.35873
518.588	5545.00916
518.796	5311.48315
519.003	5559.59474
519.21	5478.31754
519.418	5663.74385
519.625	5390.74822
519.832	5403.26066
520.039	5492.90839
520.247	5813.61494
520.454	5513.75046
520.661	5828.17922
520.868	5555.42755
521.076	5952.96843
521.283	5617.9255
521.49	5776.15864
521.697	5826.09868
521.904	6079.75046
522.112	5967.52164
522.319	5884.34487
522.526	5703.30505
522.733	6154.53156
522.94	5896.82379
523.147	6067.28398
523.354	5925.93797
523.561	6353.79918
523.768	6085.98338
523.975	6166.99211
524.183	6017.4096
524.39	6193.98708
524.597	6075.59506
524.804	6318.52792
525.011	6183.60487
525.218	6418.10001
525.425	6075.59506
525.632	6314.37792
525.838	6304.0025
526.045	6129.60791
526.252	6137.91617
526.459	6795.15907
526.666	6583.93441
526.873	6532.1271
527.08	6536.27222
527.287	6782.7407
527.494	6299.85217
527.701	6623.29832
527.907	6697.85974
528.114	6772.39142
528.321	6646.08414
528.528	6453.35225
528.735	6621.22674
528.941	6656.44041
529.148	6610.86851
529.355	6716.49545
529.562	6708.21314
529.768	6948.25171
529.975	6639.8701
530.182	6844.82437
530.388	6685.43491
530.595	7080.55637
530.802	6956.52346
531.008	7369.65479
531.215	7136.34486
531.422	7169.39704
531.628	7171.46262
531.835	7028.88582
532.042	7078.48981
532.248	7384.09839
532.455	7047.48883
532.661	7417.10834
532.868	7212.76941
533.074	7592.38087
533.281	7099.15434
533.487	7470.73765
533.694	7103.28698
533.9	7654.2048
534.107	7318.06175
534.313	7522.29051
534.52	7408.85637
534.726	7610.93006
534.933	7452.17531
535.139	7641.84155
535.345	7674.80853
535.552	7868.38087
535.758	7623.29523
535.965	7474.86237
536.171	7569.70728
536.377	7755.14292
536.584	7779.85476
536.79	7821.03448
536.996	7769.55853
537.203	7691.29
537.409	7592.38087
537.615	7911.60061
537.821	7853.97226
538.028	8215.94219
538.234	7746.90497
538.44	8150.17597
538.646	7936.29353
538.853	8030.92242
539.059	8150.17597
539.265	8096.72585
539.471	8215.94219
539.677	8232.38057
539.883	8127.56411
540.09	8289.90497
540.296	8540.36919
540.502	8365.89579
540.708	8226.21633
540.914	8435.70177
541.12	8363.84233
541.326	8378.21611
541.532	8339.19935
541.738	8523.95405
541.944	8427.49046
542.15	8759.80667
542.356	8470.59642
542.562	8558.83479
542.768	8439.80731
542.974	8753.6571
543.18	8628.57996
543.386	8811.04669
543.592	8530.10987
543.798	8753.6571
544.004	8513.69396
544.21	8815.1454
544.415	8888.90987
544.621	9024.08473
544.827	8954.45881
545.033	9122.3458
545.239	8897.10448
545.445	9130.53243
545.651	8921.68662
545.856	9130.53243
546.062	9114.1589
546.268	8999.51319
546.474	8956.50692
546.679	8880.71497
546.885	8815.1454
547.091	9009.75164
547.297	8938.07328
547.502	9236.93376
547.708	9265.57246
547.914	9298.29839
548.119	9341.24472
548.325	9337.15491
548.531	9126.43915
548.736	9273.75434
548.942	9015.8945
549.147	9177.60022
549.353	9126.43915
549.559	9196.0156
549.764	9345.33447
549.97	9559.95484
550.175	9461.86474
550.381	9886.66305
550.586	9308.52437
550.792	9666.17807
550.997	9512.95792
551.203	9766.23477
551.408	9425.07142
551.614	9633.49849
551.819	9588.55757
552.025	9653.92369
552.23	9739.69268
552.435	9878.50006
552.641	10145.71766
552.846	9829.51713
553.052	9884.62232
553.257	9964.19977
553.462	9898.90709
553.668	10143.67875
553.873	10023.35843
554.078	10204.83992
554.283	9796.85707
554.489	10129.40601
554.694	10139.60089
554.899	10115.1326
555.105	10196.68582
555.31	10174.26089
555.515	10037.63629
555.72	10300.63436
555.925	10196.68582
556.131	10149.79543
556.336	10106.97605
556.541	10121.24986
556.746	10270.06492
556.951	10361.76423
557.156	10318.97458
557.361	10579.69868
557.567	10459.54741
557.772	10650.95424
557.977	10490.09854
558.182	10606.1668
558.387	10661.13237
558.592	10677.41675
558.797	10496.20842
559.002	10736.44113
559.207	10516.57385
559.412	10740.5114
559.617	10418.80807
559.822	10526.75609
560.027	10538.97437
560.232	10673.34573
560.437	10538.97437
560.642	10793.42064
560.847	10884.97556
561.051	10823.94157
561.256	10667.2391
561.461	10860.56321
561.666	10791.38582
561.871	10722.19479
562.076	10846.32191
562.281	11045.64944
562.485	10652.98989
562.69	10604.13086
562.895	10724.23002
563.1	10850.39091
563.305	10945.99922
563.509	10976.50723
563.714	10773.07188
563.919	11092.41491
564.123	11090.38175
564.328	11196.09199
564.533	10933.7953
564.737	11047.68284
564.942	11023.2813
565.147	11189.9941
565.351	11133.07589
565.556	11157.47042
565.761	10828.01082
565.965	11370.85874
566.17	11135.10883
566.374	11192.02674
566.579	11299.74182
566.784	11265.19485
566.988	11313.96619
567.193	11624.75057
567.397	11378.98561
567.602	11610.5365
567.806	11230.64491
568.011	11712.05583
568.215	11253.00109
568.42	11608.50589
568.624	11407.42841
568.828	11718.14628
569.033	11565.8608
569.237	11734.38709
569.442	11456.18305
569.646	11592.26062
569.85	11596.32199
570.055	11734.38709
570.259	11604.44463
570.463	11807.46384
570.668	11539.45941
570.872	11309.90213
571.076	11677.54177
571.281	11683.63268
571.485	11756.71728
571.689	11925.17546
571.893	11996.19495
572.098	12192.97031
572.302	11793.25534
572.506	12199.05501
572.71	11758.74725
572.914	11939.38015
573.119	11734.38709
573.323	11929.23398
573.527	11941.40936
573.731	12328.84654
573.935	12042.85959
574.139	12211.22422
574.343	12006.33979
574.547	12059.08979
574.751	12270.03838
574.955	11965.75924
575.159	12160.51743
575.364	12231.50565
575.568	12069.23341
575.772	12178.77241
575.976	12215.28056
576.18	12391.70398
576.383	12261.92644
576.587	12387.64886
576.791	12294.37351
576.995	12265.98242
577.199	12300.45713
577.403	12280.17814
577.607	12535.64358
577.811	12576.18408
578.015	12176.74411
578.219	12786.9556
578.422	12328.84654
578.626	12464.69157
578.83	12539.69775
579.034	12707.92376
579.238	12641.04373
579.442	12951.07172
579.645	12537.67067
579.849	12630.90982
580.053	12598.4803
580.257	12764.66545
580.46	12535.64358
580.664	12813.29763
580.868	12987.53726
581.071	13034.12974
581.275	12803.1662
581.479	13011.84671
581.682	13038.18113
581.886	12857.87433
582.09	13054.38652
582.293	13113.12844
582.497	12813.29763
582.7	13028.05261
582.904	13062.48909
583.107	13084.77077
583.311	12880.16168
583.515	13040.20682
583.718	12778.85017
583.922	13125.28144
584.125	13263.00394
584.329	13412.85579
584.532	13295.40627
584.735	13552.56311
584.939	13256.92838
585.142	13092.87306
585.346	13129.3324
585.549	13098.94972
585.753	12983.48562
585.956	13307.55686
586.159	13341.98273
586.363	13319.7073
586.566	13489.79826
586.769	13218.44893
586.973	13315.65717
587.176	13512.07006
587.379	13420.95526
587.582	13801.56558
587.786	13647.71625
587.989	13576.85826
588.192	13402.73137
588.395	13880.50784
588.599	13623.42255
588.802	13698.32659
589.005	13663.91178
589.208	13898.72468
589.411	13698.32659
589.615	13706.42406
589.818	13961.46992
590.021	14250.87802
590.224	13797.51714
590.427	13846.09764
590.63	13852.17009
590.833	14060.64292
591.036	13979.68581
591.239	14060.64292
591.442	14024.2127
591.645	14022.18877
591.848	14060.64292
592.051	14269.09109
592.254	14283.2567
592.457	14384.43716
592.66	14323.7294
592.863	14392.53142
593.066	14335.87107
593.269	14313.61129
593.472	14254.92538
593.675	14376.34288
593.878	14167.90541
594.081	14133.50113
594.284	14400.62566
594.486	14689.98032
594.689	14479.54317
594.892	14222.54628
595.095	14570.59925
595.298	14526.08327
595.5	14475.49617
595.703	14700.0972
595.906	14370.27215
596.109	14505.84853
596.311	14515.96592
596.514	14449.19054
596.717	14718.30752
596.92	15084.52635
597.122	14489.66065
597.325	14821.49811
597.528	14643.44237
597.73	14667.72311
597.933	14582.73987
598.136	14750.68126
598.338	14843.75465
598.541	14926.71026
598.743	15042.03756
598.946	14944.91991
599.148	14920.64036
599.351	14847.80129
599.554	14651.53597
599.756	14979.31583
599.959	14985.38569
600.161	15017.75822
600.363	14948.9665
600.566	15013.71166
600.768	14930.75685
600.971	15341.48216
601.173	14754.72796
601.376	15197.82953
601.578	15033.94445
601.78	15207.94589
601.983	15400.15757
602.185	15163.43393
602.388	14934.80344
602.59	14991.45555
602.792	14987.40898
602.995	15195.80626
603.197	15288.87685
603.399	15315.17948
603.601	15054.17723
603.804	14922.66366
604.006	15153.31758
604.208	15056.2005
604.41	15112.85216
604.613	15124.99179
604.815	15383.97121
605.017	15377.90134
605.219	15236.2717
605.421	15373.85476
605.623	15191.75972
605.826	15450.7401
606.028	15420.39055
606.23	15608.55994
606.432	15454.78672
606.634	15879.69834
606.836	15505.36961
607.038	15746.1503
607.24	15450.7401
607.442	15412.29735
607.644	15547.85952
607.846	15422.41385
608.048	15557.97621
608.25	15616.65338
608.452	15661.16753
608.654	15479.06646
608.856	15523.57954
609.058	15738.05663
609.26	15566.06958
609.462	15383.97121
609.664	15537.74285
609.866	15321.24932
610.067	15472.99652
610.269	15671.28444
610.471	15361.71502
610.673	15802.80645
610.875	15738.05663
611.077	15869.58089
611.278	15800.783
611.48	16017.29887
611.682	15636.88703
611.884	16104.31433
612.085	15841.25219
612.287	15934.33312
612.489	15655.09739
612.69	15914.09791
612.892	16278.35411
613.094	15997.06311
613.295	15487.15972
613.497	16019.32246
613.699	15562.02289
613.9	15776.50171
614.102	15608.55994
614.304	15760.31426
614.505	15814.94717
614.707	16252.04496
614.908	15932.30959
615.11	15960.63908
615.311	15713.77571
615.513	15725.91615
615.714	15776.50171
615.916	16114.43259
616.117	15938.38017
616.319	15845.29913
616.52	15487.15972
616.722	15966.70972
616.923	15711.75231
617.124	16250.02119
617.326	15667.23767
617.527	16098.24339
617.729	16118.4799
617.93	16298.59213
618.131	16385.61772
618.333	16357.28342
618.534	16233.83111
618.735	16488.83881
618.937	16185.26152
619.138	15553.92954
619.339	15475.01983
619.54	15948.49784
619.742	15863.51044
619.943	15825.06446
620.144	15796.73611
620.345	16025.39322
620.546	15881.72184
620.748	16274.30653
620.949	16351.21183
621.15	16359.30729
621.351	16100.26703
621.552	16326.92566
621.753	16150.85864
621.954	16428.11989
622.155	15916.12142
622.356	16549.55961
622.558	16045.62918
622.759	16523.24703
622.96	16005.1574
623.161	16326.92566
623.362	16239.90237
623.563	16500.98282
623.764	16219.66487
623.965	16347.16412
624.166	16284.4255
624.366	16448.35933
624.567	16078.00704
624.768	16511.10288
624.969	16345.14026
625.17	16284.4255
625.371	16424.07203
625.572	16349.18798
625.773	16134.66922
625.973	16339.06871
626.174	16258.11627
626.375	16393.7133
626.576	16529.31913
626.777	16577.89665
626.977	16387.64161
627.178	16387.64161
627.379	16324.90182
627.58	16284.4255
627.78	16335.02102
627.981	16660.88618
628.182	16679.10391
628.382	16592.06533
628.583	16507.05485
628.784	16254.06873
628.984	16043.60558
629.185	16563.72808
629.386	16247.99742
629.586	16675.05551
629.787	16207.52246
629.987	16697.32182
630.188	16426.09596
630.388	16434.1917
630.589	16375.49828
630.79	16430.14382
630.99	16399.78501
631.191	16780.31697
631.391	16784.36562
631.591	16938.22165
631.792	16604.20999
631.992	16924.05008
632.193	16920.00109
632.393	16891.65841
632.594	16571.82439
632.794	16849.14533
632.994	16577.89665
633.195	17063.74694
633.395	16717.56417
633.595	16881.53614
633.796	16699.34605
633.996	16715.53993
634.196	16715.53993
634.397	16938.22165
634.597	16788.41428
634.797	17274.32949
634.997	16891.65841
635.198	16675.05551
635.398	16749.95243
635.598	16780.31697
635.798	16521.223
635.998	17027.30304
636.199	16731.73396
636.399	17132.58784
636.599	16938.22165
636.799	17241.93015
636.999	16567.77623
637.199	16942.27069
637.399	16800.56031
637.599	17114.36494
637.799	16675.05551
637.999	16950.36881
638.199	16824.85264
638.399	16978.71255
638.599	16608.25824
638.799	16944.29522
638.999	17114.36494
639.199	17219.65603
639.399	16857.24297
639.599	17013.13066
639.799	17071.8457
639.999	17075.8951
640.199	17096.14226
640.399	17075.8951
640.599	16420.02417
640.799	17438.363
640.998	17250.02991
641.198	17049.57421
641.398	16782.3413
641.598	17069.821
641.798	17108.29068
641.997	17316.85479
642.197	16982.7617
642.397	17130.56307
642.597	17096.14226
642.796	17100.19172
642.996	17160.93504
643.196	17640.90177
643.395	17638.87623
643.595	17551.78076
643.795	17189.2828
643.994	17377.60752
644.194	17343.18064
644.394	17744.2091
644.593	17403.93455
644.793	17847.52519
644.992	17357.3563
645.192	17403.93455
645.392	17545.70456
645.591	17436.33777
645.791	17395.83387
645.99	17418.11086
646.19	17083.99393
646.389	17466.71651
646.589	17227.75567
646.788	17434.31254
646.987	17197.38227
647.187	17782.69837
647.386	17723.95208
647.586	17788.77574
647.785	17225.73075
647.984	17596.34048
648.184	17946.79811
648.383	17586.21314
648.582	17478.8682
648.782	17752.31201
648.981	17509.24793
649.18	17796.87894
649.38	17926.53765
649.579	17610.5189
649.778	17655.0807
649.977	18003.52927
650.177	17663.18302
650.376	17687.49028
650.575	17458.61544
650.774	17588.2386
650.973	17541.65377
651.173	17711.79803
651.372	17792.82733
651.571	17671.28539
651.77	17695.59281
651.969	17841.44753
652.168	17651.02956
652.367	17873.86209
652.566	17610.5189
652.765	18033.92211
652.964	17649.004
653.163	17857.6547
653.362	18110.9209
653.561	18131.18461
653.76	17752.31201
653.959	17800.93056
654.158	17918.43356
654.357	17796.87894
654.556	17543.67916
654.755	18048.1057
654.954	17574.06043
655.153	17606.46791
655.352	17967.05892
655.551	17983.26782
655.749	17888.04374
655.948	18023.79107
656.147	18088.63124
656.346	18108.89455
656.545	17634.82514
656.743	17857.6547
656.942	17981.2417
657.141	17987.32008
657.34	17748.26055
657.538	17940.71993
657.737	17954.90239
657.936	18512.21135
658.135	18139.2902
658.333	18210.21657
658.532	18149.42226
658.731	18216.29618
658.929	17863.73244
659.128	17963.00673
659.326	17659.13185
659.525	18149.42226
659.724	17918.43356
659.922	17960.98064
660.121	17835.3699
660.319	17505.19726
660.518	17851.57698
660.716	18062.28948
660.915	18271.01418
661.113	18123.07909
661.312	17896.14762
661.51	18078.49972
661.709	17987.32008
661.907	18116.99998
662.105	17954.90239
662.304	18429.10374
662.502	18356.13648
662.701	18749.40787
662.899	18127.13184
663.097	18313.57451
663.296	18086.60493
663.494	18236.56179
663.692	18066.34202
663.891	18558.83552
664.089	18040.00077
664.287	18068.36829
664.485	17989.34622
664.684	18524.37398
664.882	17926.53765
665.08	18416.94219
665.278	18133.211
665.476	18250.74794
665.675	18035.94832
665.873	17987.32008
666.071	18023.79107
666.269	18060.26322
666.467	18396.67324
666.665	18315.60123
666.863	17997.4508
667.061	18315.60123
667.259	18311.54779
667.457	18455.45424
667.655	18044.05323
667.853	18506.13009
668.051	17973.13723
668.249	18194.00443
668.447	17920.45958
668.645	18200.08395
668.843	18042.027
669.041	18226.42894
669.239	17894.12164
669.437	18350.0561
669.635	18374.37784
669.833	18339.9222
670.031	17764.46646
670.229	18025.81727
670.426	18228.4555
670.624	18165.63375
670.822	17908.30353
671.02	18121.05271
671.218	18246.69474
671.415	18175.76606
671.613	17800.93056
671.811	18042.027
672.009	17987.32008
672.206	18157.52798
672.404	18108.89455
672.602	18179.819
672.799	18400.727
672.997	18123.07909
673.195	18094.7102
673.392	18562.88989
673.59	18433.15762
673.788	17999.47695
673.985	17956.92847
674.183	18050.13195
674.38	18157.52798
674.578	18313.57451
674.775	17736.10625
674.973	17948.82417
675.17	17932.61575
675.368	18042.027
675.565	17707.7467
675.763	18143.34301
675.96	17764.46646
676.158	18110.9209
676.355	17823.21472
676.553	18189.95143
676.75	17853.60288
676.947	18157.52798
677.145	18054.18444
677.342	17934.64179
677.539	17969.08502
677.737	18214.26964
677.934	18143.34301
678.131	17825.24058
678.329	17967.05892
678.526	18044.05323
678.723	18181.84548
678.92	18311.54779
679.118	17993.3985
679.315	17831.31816
679.512	18025.81727
679.709	18311.54779
679.906	17713.82369
680.104	17843.47341
680.301	17798.90475
680.498	17628.74854
680.695	17509.24793
680.892	17780.67259
681.089	17713.82369
681.286	18058.23695
681.483	17596.34048
681.68	17723.95208
681.877	17529.50149
682.075	17853.60288
682.272	17841.44753
682.469	17950.85024
682.665	17752.31201
682.862	17768.51797
683.059	17343.18064
683.256	18046.07947
683.453	17640.90177
683.65	17464.69124
683.847	17756.36348
684.044	17567.98412
684.241	17430.2621
684.438	17608.4934
684.635	17326.98006
684.831	17942.74599
685.028	17630.77407
685.225	17559.88241
685.422	17335.08032
685.619	17721.9264
685.815	17699.64409
686.012	17835.3699
686.209	17632.7996
686.405	17675.33659
686.602	17412.03528
686.799	17118.41445
686.996	17318.87984
687.192	16982.7617
687.389	16796.51162
687.586	17248.00497
687.782	17243.95508
687.979	17596.34048
688.175	17169.03435
688.372	17521.40003
688.568	17515.32397
688.765	17412.03528
688.962	17130.56307
689.158	17638.87623
689.355	17156.88541
689.551	17535.57761
689.748	17436.33777
689.944	16966.56517
690.14	17243.95508
690.337	17458.61544
690.533	17351.281
690.73	16978.71255
690.926	17090.06808
691.123	17000.983
691.319	17035.40161
691.515	17347.23081
691.712	17205.48178
691.908	17160.93504
692.104	17361.40652
692.301	17405.95973
692.497	17460.6407
692.693	17440.38823
692.889	17357.3563
693.086	17209.53155
693.282	17438.363
693.478	17410.01009
693.674	17258.12973
693.87	17112.34018
694.067	17033.37696
694.263	17015.15527
694.459	17041.47556
694.655	17231.8055
694.851	17118.41445
695.047	17414.06047
695.243	17231.8055
695.439	16739.83103
695.635	16705.41874
695.831	16865.34065
696.027	16859.26739
696.224	16691.24916
696.42	16634.57202
696.615	16579.92074
696.811	16531.34317
697.007	16974.66341
697.203	16899.75626
697.399	17122.46398
697.595	16871.41394
697.791	16915.9521
697.987	16962.51606
698.183	17039.45091
698.379	16857.24297
698.575	17416.08566
698.77	16786.38995
698.966	16950.36881
699.162	16865.34065
699.358	17264.20462
699.554	16893.68287
699.749	17270.27953
699.945	16841.04772
700.141	16843.07212
700.337	16610.28236
700.532	16743.87958
700.728	16731.73396
700.924	16966.56517
701.119	16725.66118
701.315	16784.36562
701.511	16484.79083
701.706	16537.4153
701.902	16575.87256
702.097	16666.95874
702.293	16883.56059
702.489	16782.3413
702.684	16537.4153
702.88	16541.46339
703.075	16488.83881
703.271	16573.84847
703.466	16618.37888
703.662	16697.32182
703.857	16551.58367
704.053	16934.17262
704.248	16792.46295
704.443	17017.1799
704.639	17090.06808
704.834	16972.63885
705.03	16539.43935
705.225	16885.58504
705.42	16636.59617
705.616	17142.71178
705.811	16254.06873
706.006	17033.37696
706.202	16652.78948
706.397	16715.53993
706.592	16733.75822
706.787	16814.73079
706.983	16820.80389
707.178	17329.00512
707.373	17092.0928
707.568	16697.32182
707.763	16766.14678
707.959	16901.78073
708.154	16849.14533
708.349	16839.02333
708.544	16671.00712
708.739	16656.83782
708.934	16389.66551
709.129	16223.71236
709.324	16179.19039
709.519	16784.36562
709.714	16332.99718
709.909	16314.78267
710.104	16322.87799
710.299	16450.38328
710.494	16634.57202
710.689	16466.57499
710.884	16555.6318
711.079	16456.45516
711.274	16292.5207
711.469	16938.22165
711.664	16268.23517
711.859	16511.10288
712.054	16134.66922
712.249	16545.5115
712.443	16304.66357
712.638	16114.43259
712.833	16059.79445
713.028	16375.49828
713.223	16148.83496
713.417	16284.4255
713.612	16191.33266
713.807	16409.90457
714.002	16371.45052
714.196	16231.80735
714.391	16061.81806
714.586	16021.34604
714.78	16213.59366
714.975	16007.18097
715.17	16043.60558
715.364	16033.48759
715.559	16189.30895
715.754	15936.35665
715.948	16179.19039
716.143	15984.92172
716.337	16096.21975
716.532	16312.75885
716.726	16365.3789
716.921	16247.99742
717.115	16136.69289
717.31	15869.58089
717.504	15768.40798
717.699	16294.54451
717.893	15938.38017
718.088	16023.36963
718.282	16029.4404
718.476	16001.11025
718.671	15988.96884
718.865	16335.02102
719.059	16041.58198
719.254	15946.4743
719.448	15574.16295
719.642	15709.72891
719.837	15169.50374
720.031	15847.32261
720.225	15485.13641
720.419	15507.39293
720.614	15507.39293
720.808	15549.88286
721.002	15865.53392
721.196	15736.03321
721.39	15816.97062
721.585	15861.48695
721.779	15845.29913
721.973	15802.80645
722.167	15551.9062
722.361	15908.02737
722.555	15647.00389
722.749	15331.36574
722.943	15226.15534
723.137	15448.7168
723.331	15481.08978
723.525	15572.13961
723.719	15614.63002
723.913	15549.88286
724.107	15096.66598
724.301	15298.99324
724.495	15323.27261
724.689	15454.78672
724.883	15343.50544
725.077	15309.10964
725.271	15416.34395
725.465	15369.80818
725.659	15015.73494
725.853	15412.29735
726.046	14934.80344
726.24	14880.1743
726.434	14785.07813
726.628	15367.78489
726.822	15284.8303
727.015	15472.99652
727.209	15177.59683
727.403	15578.20965
727.596	15416.34395
727.79	15557.97621
727.984	15353.62187
728.177	15816.97062
728.371	15616.65338
728.565	15501.32296
728.758	15288.87685
728.952	15464.90327
729.146	15224.13206
729.339	15774.47827
729.533	15663.19091
729.726	15452.76341
729.92	15835.18178
730.113	16094.19611
730.307	15448.7168
730.5	15185.68991
730.694	15228.17861
730.887	15268.64409
731.081	15396.11098
731.274	15622.72346
731.468	15104.75907
731.661	15282.80702
731.854	15303.0398
732.048	15523.57954
732.241	15317.20276
732.435	15048.1074
732.628	15179.6201
732.821	15139.15469
733.014	14944.91991
733.208	15337.43559
733.401	15349.5753
733.594	15072.3867
733.788	14967.17611
733.981	14969.1994
734.174	15709.72891
734.367	15495.253
734.56	15756.26741
734.754	15406.22746
734.947	15509.41625
735.14	15222.10879
735.333	15406.22746
735.526	15576.1863
735.719	15301.01652
735.912	15062.27033
736.105	15068.34015
736.298	15185.68991
736.491	15037.99101
736.684	14967.17611
736.877	15114.87543
737.07	15157.36412
737.263	15167.48047
737.456	14938.85003
737.649	15060.24705
737.842	15015.73494
738.035	15222.10879
738.228	14888.26753
738.421	15367.78489
738.614	15076.43325
738.807	14993.47883
739	15214.01571
739.192	14700.0972
739.385	15110.82889
739.578	14894.33744
739.771	15090.59617
739.964	14874.10437
740.156	14876.12768
740.349	14639.39557
740.542	15116.8987
740.735	14552.38824
740.927	14987.40898
741.12	14983.36241
741.313	14926.71026
741.505	14785.07813
741.698	14495.73111
741.891	14831.61473
742.083	14908.50057
742.276	14760.79801
742.468	15011.68838
742.661	14807.33481
742.854	14946.9432
743.046	14868.03444
743.239	14564.52893
743.431	14880.1743
743.624	14918.61706
743.816	14811.38147
744.009	14961.10624
744.201	14861.9645
744.393	14341.94188
744.586	14578.69301
744.778	14675.81665
744.971	14770.91474
745.163	14779.00811
745.355	14631.30195
745.548	14499.77808
745.74	14145.64389
745.932	14388.4843
746.125	14679.86342
746.317	14787.10146
746.509	14613.09125
746.702	14611.06783
746.894	14756.75131
747.086	14210.40399
747.278	14781.03145
747.471	14649.51257
747.663	14428.95528
747.855	14679.86342
748.047	14653.55936
748.239	14930.75685
748.431	14734.49442
748.623	15072.3867
748.815	14629.27854
749.008	14783.05479
749.2	14750.68126
749.392	14645.46577
749.584	14329.80024
749.776	14335.87107
749.968	14408.71986
750.16	14586.78674
750.352	14637.37217
750.544	14408.71986
750.736	14408.71986
750.928	14465.37865
751.12	14368.24857
751.311	14588.81017
751.503	14511.91897
751.695	14528.10674
751.887	14356.10706
752.079	14586.78674
752.271	14095.04855
752.463	14186.1192
752.654	14182.0717
752.846	13955.39791
753.038	14005.9973
753.23	14151.71524
753.421	13838.00101
753.613	13997.9015
753.805	14250.87802
753.997	14127.42972
754.188	14173.97669
754.38	14014.09306
754.572	13957.42191
754.763	14273.13841
754.955	13649.7407
755.146	14131.47733
755.338	14068.73842
755.53	14060.64292
755.721	14206.35655
755.913	14291.3513
756.104	14070.76229
756.296	13874.43551
756.487	13854.19423
756.679	14159.81034
756.87	13704.3997
757.062	14115.28685
757.253	14113.26303
757.445	14267.06742
757.636	14095.04855
757.827	14335.87107
758.019	13884.55605
758.21	14020.16485
758.401	13957.42191
758.593	14352.05987
758.784	13759.05637
758.975	13649.7407
759.167	13833.95267
759.358	13603.17743
759.549	13339.95771
759.74	13435.12918
759.932	13451.32771
760.123	13267.05429
760.314	13038.18113
760.505	13356.15773
760.696	13497.89715
760.888	13700.35096
761.079	13536.36606
761.27	13384.50715
761.461	13175.91714
761.652	13339.95771
761.843	13309.58195
762.034	13143.51062
762.225	13315.65717
762.416	13252.87799
762.607	13109.0774
762.798	13402.73137
762.989	13603.17743
763.18	13678.0827
763.371	13192.11996
763.562	13234.651
763.753	12975.38227
763.944	13593.05474
764.135	13435.12918
764.326	13398.68157
764.517	13177.94251
764.708	13234.651
764.899	13105.02634
765.089	13103.00081
765.28	12953.09763
765.471	13011.84671
765.662	12932.83833
765.853	12920.68249
766.043	12695.76423
766.234	12839.63873
766.425	12600.50719
766.615	13096.92417
766.806	13109.0774
766.997	13161.73943
767.187	12922.70848
767.378	12995.64049
767.569	12817.35017
767.759	12788.98195
767.95	13088.82193
768.141	12904.47442
768.331	12687.65777
768.522	12778.85017
768.712	12902.44839
768.903	13042.23251
769.093	12837.61252
769.284	12537.67067
769.474	12610.64155
769.665	12681.57785
769.855	12416.03414
770.046	12594.4265
770.236	12636.99018
770.426	12399.81414
770.617	12334.92981
770.807	12610.64155
770.998	12432.2537
771.188	12432.2537
771.378	12300.45713
771.569	12355.20691
771.759	12308.56853
771.949	12105.74887
772.139	12324.79099
772.33	12162.54579
772.52	12132.1196
772.71	12223.39316
772.9	12079.37685
773.09	11917.05831
773.281	12241.64609
773.471	12124.00567
773.661	12178.77241
773.851	12162.54579
774.041	12069.23341
774.231	12061.11853
774.421	11770.92686
774.611	11878.50007
774.802	12036.77313
774.992	11894.73548
775.182	11710.02566
775.372	11580.07628
775.562	11665.35973
775.752	11651.14693
775.942	11612.56711
776.131	11435.8693
776.321	11557.73746
776.511	11620.68945
776.701	11730.32694
776.891	11764.8371
777.081	11748.59733
777.271	12030.68661
777.461	11714.08598
777.651	11856.17551
777.84	11703.9351
778.03	11835.87957
778.22	11470.4021
778.41	11779.04643
778.599	11498.83879
778.789	11622.72002
778.979	11508.9943
779.169	11330.222
779.358	11263.16258
779.548	11894.73548
779.738	11271.29159
779.927	11683.63268
780.117	11395.23888
780.307	11474.4646
780.496	11446.02629
780.686	11638.96419
780.875	11194.05937
781.065	11429.77498
781.254	11141.20757
781.444	11135.10883
781.633	11033.4488
781.823	11183.89611
782.012	11490.71421
782.202	11389.14398
782.391	11214.38509
782.581	11244.87172
782.77	11051.74961
782.96	11348.50903
783.149	11072.08281
783.338	11165.6016
783.528	11263.16258
783.717	11372.89047
783.906	10948.03316
784.096	11055.81634
784.285	10872.76959
784.474	10941.93129
784.663	10891.07839
784.853	10817.83759
785.042	10685.55865
785.231	11072.08281
785.42	10913.45454
785.61	10850.39091
785.799	10777.14173
785.988	10823.94157
786.177	10591.91499
786.366	10945.99922
786.555	10880.90695
786.744	10667.2391
786.933	10803.59457
787.122	10868.70084
787.312	10785.28128
787.501	10642.81151
787.69	10764.93205
787.879	10807.66407
788.068	10555.26469
788.257	10492.13518
788.445	10461.58424
788.634	10483.98854
788.823	10571.55422
789.012	10386.21285
789.201	10593.951
789.39	10524.71967
789.579	10408.62242
789.768	10557.30093
789.957	10306.74789
790.145	10756.79202
790.334	10490.09854
790.523	10312.86129
790.712	10457.51057
790.9	10435.10443
791.089	10009.07986
791.278	10286.369
791.467	10043.75517
791.655	10172.22218
791.844	10265.98876
792.033	10251.72179
792.221	9837.68154
792.41	10186.49287
792.599	10025.39816
792.787	9800.93978
792.976	10002.96025
793.164	10111.05435
793.353	9919.31266
793.541	9964.19977
793.73	9833.59936
793.918	9788.69145
794.107	9854.00966
794.295	10155.91198
794.484	9962.1596
794.672	10361.76423
794.861	10082.50506
795.049	10139.60089
795.238	9774.40104
795.426	10119.21079
795.614	10247.64539
795.803	10002.96025
795.991	9864.21425
796.179	9890.74446
796.368	9586.51462
796.556	9504.78368
796.744	9543.60904
796.932	9780.52559
797.121	9478.21565
797.309	9547.69558
797.497	9854.00966
797.685	9635.54108
797.874	9827.47598
798.062	9606.94341
798.25	9504.78368
798.438	9833.59936
798.626	9660.05095
798.814	9476.17184
799.002	9713.14803
799.19	9782.56708
799.378	9429.15982
799.566	9535.43576
799.755	9486.39072
799.943	9707.02198
800.131	9774.40104
800.318	9559.95484
800.506	9496.60919
800.694	9555.86849
800.882	9167.36886
801.07	9429.15982
801.258	9363.73752
801.446	9666.17807
801.634	9431.204
801.822	9517.04494
802.01	9243.0709
802.197	9711.10603
802.385	9267.61796
802.573	9404.62842
802.761	9110.06534
802.949	9200.10772
803.136	9071.17314
803.324	9402.58403
803.512	9251.25352
803.699	9433.24816
803.887	9376.00547
804.075	9792.77429
804.262	9623.28531
804.45	9455.73288
804.638	9423.02719
804.825	9416.89441
805.013	9339.19983
805.201	9390.31734
805.388	9179.64644
805.576	9281.93596
805.763	9241.0252
805.951	9476.17184
806.138	9263.52695
806.326	9423.02719
806.513	9498.65284
806.701	9335.10998
806.888	9265.57246
807.075	9243.0709
807.263	9357.60332
807.45	9453.6889
807.638	9510.91438
807.825	9792.77429
808.012	9420.98295
808.2	9643.71129
808.387	9623.28531
808.574	9369.87157
808.761	9559.95484
808.949	9561.998
809.136	9741.73447
809.323	9849.92772
809.51	9702.93786
809.698	9839.72261
809.885	9698.85369
810.072	9707.02198
810.259	9592.64342
810.446	9637.58366
810.633	9684.55859
810.82	9690.68515
811.008	9576.29963
811.195	9523.17536
811.382	9515.00144
811.569	9459.8208
811.756	9339.19983
811.943	9572.21353
812.13	9232.84224
812.317	9749.90148
812.504	9480.25944
812.691	9551.78207
812.878	9455.73288
813.064	9564.04113
813.251	9318.74994
813.438	9455.73288
813.625	9175.55398
813.812	9322.84005
813.999	9429.15982
814.186	9672.30505
814.372	9339.19983
814.559	9764.19316
814.746	9322.84005
814.933	9273.75434
815.12	9331.02007
815.306	9150.99779
815.493	9185.785
815.68	9420.98295
815.866	9079.36149
816.053	9267.61796
816.24	9202.15375
816.426	9427.11563
816.613	9310.56952
816.799	9286.02667
816.986	9322.84005
817.173	9600.81493
817.359	9355.55855
817.546	9478.21565
817.732	9202.15375
817.919	9467.99645
818.105	8915.54132
818.292	9120.2991
818.478	9097.78427
818.665	9222.61317
818.851	9157.13707
819.037	9611.02898
819.224	9251.25352
819.41	9281.93596
819.597	9259.43587
819.783	9453.6889
819.969	9335.10998
820.156	9380.09466
820.342	9331.02007
820.528	9169.41516
820.714	9245.11658
820.901	9359.64807
821.087	9316.70486
821.273	9651.88124
821.459	9470.04032
821.646	9457.77685
821.832	9214.4296
822.018	9363.73752
822.204	8979.03499
822.39	9167.36886
822.576	8911.44437
822.762	9101.87803
822.948	9093.69044
823.134	9007.70399
823.32	8905.29881
823.507	9198.06167
823.693	8890.95855
823.879	8800.79959
824.065	8913.49286
824.25	8897.10448
824.436	8571.14434
824.622	9013.8469
824.808	8837.68702
824.994	9028.17974
825.18	8653.19074
825.366	9095.73736
825.552	8749.5573
825.738	8923.73501
825.923	8470.59642
826.109	8878.6662
826.295	8642.93657
826.481	9073.22025
826.667	8794.65112
826.852	9073.22025
827.038	8702.40428
827.224	8940.12154
827.409	8577.29886
827.595	8560.88643
827.781	8384.37601
827.966	8464.43894
828.152	8372.05604
828.338	8647.03829
828.523	8421.33177
828.709	8659.34301
828.894	8417.22588
829.08	8603.96649
829.266	8560.88643
829.451	8778.25439
829.637	8242.65392
829.822	8425.43758
830.008	8183.06163
830.193	8472.64888
830.378	8166.61943
830.564	8589.60739
830.749	8765.95607
830.935	8704.45462
831.12	8289.90497
831.305	8710.60551
831.491	8240.59929
831.676	8569.09279
831.861	8045.31869
832.047	8452.12347
832.232	8199.50254
832.417	8238.54464
832.602	8094.66981
832.788	8396.69529
832.973	8055.60113
833.158	8552.67976
833.343	7969.21283
833.528	8273.471
833.714	8018.58196
833.899	8347.41399
834.084	8047.37522
834.269	8347.41399
834.454	8199.50254
834.639	8275.52531
834.824	8137.84253
835.009	8059.71397
835.194	7993.89886
835.379	8121.39682
835.564	7829.26942
835.749	8224.16154
835.934	7829.26942
836.119	7899.25304
836.304	7606.80817
836.489	7808.68144
836.674	7868.38087
836.859	7884.84661
837.044	7993.89886
837.228	7794.26861
837.413	7759.26177
837.598	8152.23147
837.783	7691.29
837.968	7932.17825
838.152	7870.43916
838.337	8178.9512
838.522	7853.97226
838.707	8129.61983
838.891	7600.62517
839.076	7763.38054
839.261	7767.49922
839.445	7722.1891
839.63	7641.84155
839.815	7849.85533
839.999	7582.07501
840.184	7909.54274
840.368	7697.4702
840.553	7860.1475
840.737	7534.6612
840.922	7674.80853
841.106	7549.09269
841.291	7753.08346
841.475	7532.59947
841.66	7664.50693
841.844	7330.44533
842.029	7371.71823
842.213	7433.61122
842.397	7487.23603
842.582	7272.64855
842.766	7390.28818
842.951	7045.42192
843.135	7272.64855
843.319	7086.75589
843.504	7289.16367
843.688	6987.53927
843.872	7262.32589
844.056	7264.39046
844.241	7289.16367
844.425	7223.09473
844.609	7285.03503
844.793	7150.80589
844.977	6970.99814
845.161	6836.54774
845.346	7012.34828
845.53	6751.69115
845.714	6906.88758
845.898	6730.9886
846.082	7152.87166
846.266	7107.41952
846.45	6977.20123
846.634	6863.44548
846.818	6882.06475
847.002	6904.81913
847.186	6993.74183
847.37	6581.8624
847.554	6824.13209
847.738	6610.86851
847.922	6755.83139
848.106	6714.42491
848.29	6797.22872
848.473	6697.85974
848.657	6801.36795
848.841	6523.83659
849.025	6592.22224
849.209	6515.5457
849.392	6434.69013
849.576	6295.70174
849.76	6237.58597
849.944	6299.85217
850.127	6656.44041
850.311	6343.42598
850.495	6559.06871
850.678	6644.01282
850.862	6695.789
851.046	6498.96282
851.229	6554.9241
851.413	6492.74386
851.596	6762.04157
851.78	6677.15123
851.964	6664.72501
852.147	6457.49913
852.331	6730.9886
852.514	6552.85176
852.698	6212.67358
852.881	5963.3637
853.065	6484.45159
853.248	6191.91069
853.431	6104.68088
853.615	5925.93797
853.798	6341.35127
853.982	6069.36179
854.165	6135.83914
854.348	6021.56631
854.532	6085.98338
854.715	6100.52605
854.898	6220.97809
855.081	5871.8651
855.265	6142.07016
855.448	6052.73869
855.631	6027.80121
855.814	5803.21118
855.997	5975.83724
856.181	5774.07751
856.364	6127.53079
856.547	5911.38146
856.73	6102.60347
856.913	5884.34487
857.096	6204.36871
857.279	5938.41406
857.462	5888.50461
857.645	5932.17612
857.828	6395.28615
858.011	5803.21118
858.194	5915.54058
858.377	5686.64874
858.56	5767.83398
858.743	5788.64492
858.926	5832.34022
859.109	5584.5959
859.292	5801.13036
859.475	5494.9927
859.658	5715.79629
859.841	5401.17531
860.023	5509.58224
860.206	5319.82844
860.389	5369.89227
860.572	5029.61086
860.755	5419.9426
860.937	5388.66273
861.12	5588.76243
861.303	5267.66426
861.486	5517.9186
861.668	5522.08664
861.851	5501.2455
862.034	5171.64401
862.216	5424.11285
862.399	5081.8414
862.581	5476.23303
862.764	5202.96038
862.947	5382.40612
863.129	5121.52692
863.312	5261.40357
863.494	5079.75245
863.677	5294.79146
863.859	5388.66273
864.042	5419.9426
864.224	5194.60986
864.406	5213.39801
864.589	5017.07338
864.771	5159.11599
864.954	5025.43179
865.136	5238.44593
865.318	5019.16302
865.501	5115.26134
865.683	4858.19358
865.865	5284.35839
866.048	4962.73471
866.23	5094.37457
866.412	5042.14751
866.594	4935.55953
866.777	4868.65027
866.959	5086.01922
867.141	4782.88859
867.323	4801.71761
867.505	4745.22506
867.687	4824.72834
867.869	4833.0952
868.052	4941.83107
868.234	4724.2977
868.416	4881.19755
868.598	4594.49783
868.78	4820.54478
868.962	4741.03976
869.144	5002.44527
869.326	4757.78038
869.508	4801.71761
869.69	4787.07298
869.872	4956.46386
870.054	4747.31767
870.236	4933.46897
870.417	4521.18579
870.599	4812.17737
870.781	4556.79789
870.963	4692.90243
871.145	4665.68909
871.327	4766.15015
871.508	4443.65502
871.69	4699.18189
871.872	4592.40358
872.054	4818.45296
872.235	4378.67369
872.417	4759.87286
872.599	4447.84664
872.78	4870.74154
872.962	4812.17737
873.144	4625.90893
873.325	4782.88859
873.507	4826.82009
873.689	4755.68789
873.87	4900.01691
874.052	4594.49783
874.233	4893.744
874.415	4456.22962
874.596	4741.03976
874.778	4462.51663
874.959	4498.13925
875.141	4414.31121
875.322	4414.31121
875.503	4563.08172
875.685	4774.51955
875.866	4363.99759
876.048	4805.90158
876.229	4454.13391
876.41	4483.47188
876.592	4449.94242
876.773	4439.46331
876.954	4510.71042
877.136	4508.61528
877.317	4319.96291
877.498	4646.84687
877.679	4189.90051
877.86	4229.76706
878.042	4359.80422
878.223	4644.75317
878.404	4573.55431
878.585	4458.32531
878.766	4447.84664
878.947	4514.90063
879.128	4464.61225
879.309	4726.39053
879.49	4502.32973
879.672	4818.45296
879.853	4466.70785
880.034	4483.47188
880.215	4500.2345
880.396	4544.22965
880.576	4309.47706
880.757	4715.92612
880.938	4445.75084
881.119	4671.96943
881.3	4397.5414
881.481	4690.80923
881.662	4391.25236
881.843	4751.50282
882.023	4500.2345
882.204	4428.98365
882.385	4290.60117
882.566	4560.98713
882.747	4477.18554
882.927	4736.85438
883.108	4372.38406
883.289	4523.28079
883.469	4150.02632
883.65	4410.11889
883.831	4408.02269
884.011	4659.40855
884.192	4466.70785
884.373	4807.99354
884.553	4315.76864
884.734	4632.19055
884.914	4233.96309
885.095	4699.18189
885.275	4485.56729
885.456	4807.99354
885.636	4623.81501
885.817	4971.09552
885.997	4680.3429
886.178	4694.9956
886.358	4653.12781
886.538	4816.36112
886.719	4491.85337
886.899	4728.48335
887.08	4481.37646
887.26	4694.9956
887.44	4355.61077
887.621	4751.50282
887.801	4357.7075
887.981	4669.87601
888.161	4529.56568
888.342	4623.81501
888.522	4399.6377
888.702	4661.50209
888.882	4523.28079
889.062	4741.03976
889.242	4508.61528
889.423	4674.06283
889.603	4305.28257
889.783	4525.37578
889.963	4294.79597
890.143	4510.71042
890.323	4540.04005
890.503	4625.90893
890.683	4439.46331
890.863	4565.17628
891.043	4326.25416
891.223	4594.49783
891.403	4422.69559
891.583	4485.56729
891.763	4514.90063
891.943	4584.02635
892.122	4462.51663
892.302	4581.93199
892.482	4525.37578
892.662	4544.22965
892.842	4447.84664
893.022	4715.92612
893.201	4491.85337
893.381	4523.28079
893.561	4426.88765
893.741	4529.56568
893.92	4191.99894
894.1	4431.07963
894.28	4263.33293
894.459	4257.03975
894.639	4154.22396
894.819	4204.58908
894.998	4259.1375
895.178	4493.94868
895.357	4166.81638
895.537	4233.96309
895.716	4171.01368
895.896	4284.30883
896.075	4053.45748
896.255	4217.17845
896.434	4032.45844
896.614	4296.89333
896.793	4137.43289
896.973	3973.65019
897.152	3782.41403
897.331	4061.85652
897.511	3956.84489
897.69	4095.44935
897.87	3795.02808
898.049	3931.63451
898.228	3795.02808
898.407	4078.6536
898.587	3820.25404
898.766	3921.12932
898.945	3752.97853
899.124	4000.95602
899.304	3624.67969
899.483	3843.37535
899.662	3485.7857
899.841	3658.33872
900.02	3418.41454
900.199	3740.36214
900.378	3334.17505
900.557	3612.05631
900.737	3296.25821
900.916	3633.0949
901.095	3447.89168
901.274	3605.74437
901.453	3346.81276
901.632	3597.32818
901.811	3397.3573
901.989	3346.81276
902.168	3327.85597
902.347	3586.80752
902.526	3220.40802
902.705	3494.2058
902.884	3270.97724
903.063	3515.25477
903.242	3431.04803
903.42	3468.94463
903.599	3302.57807
903.778	3401.56889
903.957	3089.72704
904.135	3182.47482
904.314	2935.78326
904.493	3193.01236
904.672	2866.16615
904.85	3093.94352
905.029	2868.27599
905.207	3157.18306
905.386	2996.94872
905.565	3228.8369
905.743	2988.51285
905.922	3165.61391
906.1	2640.33439
906.279	2940.00197
906.457	2674.1132
906.636	2703.66699
906.814	2686.77942
906.993	2574.87891
907.171	2460.83265
907.35	2530.53157
907.528	2429.14734
907.707	2659.33537
907.885	2317.1738
908.063	2718.44293
908.242	2498.85176
908.42	2564.32049
908.598	2260.12008
908.777	2486.17912
908.955	2232.64738
909.133	2448.15881
909.311	2317.1738
909.49	2329.85146
909.668	2061.4395
909.846	2446.04647
910.024	2029.72887
910.202	2384.78389
910.38	2215.74036
910.559	2317.1738
910.737	2232.64738
910.915	2361.54407
911.093	2363.65683
911.271	2625.55515
911.449	2226.30731
911.627	2395.34703
911.805	2158.67513
911.983	2325.62561
912.161	2177.69755
912.339	2741.66097
912.517	2342.52877
912.695	2760.65636
912.872	2401.68479
913.05	2646.66816
913.228	2287.59124
913.406	2608.66385
913.584	2439.70938
913.762	2452.38347
913.939	2312.94783
914.117	2612.88675
914.295	2215.74036
914.473	2403.79736
914.65	2306.60881
914.828	2505.18792
915.006	2076.23725
915.184	2378.44588
915.361	2283.36501
915.539	2454.49578
915.716	2232.64738
915.894	2393.23442
916.072	2245.32728
916.249	2382.67123
916.427	2372.10778
916.604	2454.49578
916.782	2395.34703
916.959	2479.84265
917.137	2481.95482
917.314	2473.50608
917.492	2302.38275
917.669	2207.28664
917.847	2002.24509
918.024	2344.64162
918.201	1907.10077
918.379	2359.4313
918.556	2124.85588
918.733	2374.22049
918.911	2148.10683
919.088	2293.93052
919.265	1894.41398
919.442	2126.96964
919.62	1792.91318
919.797	2095.26241
919.974	1879.61248
920.151	2093.14853
920.328	1826.74798
920.506	2002.24509
920.683	1883.84151
920.86	1928.24498
921.037	1858.46705
921.214	2025.50067
921.391	1805.60136
921.568	1803.48668
921.745	1871.15437
921.922	1936.70251
922.099	1604.69042
922.276	1803.48668
922.453	1780.22485
922.63	1818.28939
922.807	1522.2049
922.984	1670.25381
923.161	1388.95689
923.338	1727.35531
923.514	1547.58528
923.691	1670.25381
923.868	1606.8054
924.045	1769.65113
924.222	1792.91318
924.399	1877.49796
924.575	1642.75976
924.752	1869.03983
924.929	1585.6555
925.105	1790.79847
925.282	1585.6555
925.459	1606.8054
925.635	1475.67391
925.812	1625.84014
925.989	1395.30201
926.165	1627.9551
926.342	1367.80654
926.518	1547.58528
926.695	1446.06318
926.871	1541.2402
927.048	1429.14277
927.224	1513.74475
927.401	1228.21836
927.577	1454.52339
927.754	1312.81621
927.93	1634.29997
928.107	1302.24128
928.283	1365.69151
928.459	1223.98858
928.636	1276.86165
928.812	1141.51062
928.988	1247.25252
929.165	1200.72501
929.341	1183.80631
929.517	1128.82223
929.693	1226.10347
929.87	1033.66492
930.046	1111.90463
930.222	930.06278
930.398	1173.23224
930.574	1027.32149
930.751	1154.19916
930.927	974.46173
931.103	1107.67528
931.279	1050.58099
931.455	1082.29957
931.631	963.89027
931.807	1054.81006
931.983	959.66174
932.159	1166.88784
932.335	803.22777
932.511	875.09723
932.687	807.4551
932.863	1004.06271
933.039	777.86462
933.215	917.37796
933.391	792.65962
933.566	963.89027
933.742	773.63756
933.918	900.46529
934.094	642.61991
934.27	754.61631
934.445	663.74887
934.621	739.82257
934.797	646.84561
934.973	640.50708
935.148	490.52941
935.324	629.94312
935.5	475.74669
935.675	629.94312
935.851	437.73739
936.027	524.32118
936.202	458.85306
936.378	517.98495
936.553	456.74142
936.729	380.73305
936.904	414.51198
937.08	363.84518
937.255	425.06875
937.431	270.98194
937.606	317.40923
937.782	300.52556
937.957	273.09208
938.133	281.53282
938.308	127.53879
938.483	264.65165
938.659	277.31241
938.834	197.13926
939.009	216.12509
939.185	287.86356
939.36	171.82738
939.535	237.22233
939.71	173.93659
939.886	218.23472
940.061	152.84542
940.236	165.49987
940.411	161.28164
940.586	142.30062
940.761	163.39074
940.937	197.13926
941.112	163.39074
941.287	146.51847
941.462	114.88664
941.637	211.90588
941.812	152.84542
941.987	192.92041
942.162	110.66943
942.337	98.01833
942.512	49.5299
942.687	121.21262
942.862	205.57721
943.037	152.84542
943.212	144.40954
943.386	106.45231
943.561	161.28164
943.736	159.17255
943.911	74.82672
944.086	34.77495
944.26	169.71819
944.435	68.5022
944.61	43.20621
944.785	121.21262
944.959	197.13926
945.134	98.01833
945.309	102.23527
945.483	68.5022
945.658	131.75635
945.833	26.34407
946.007	178.15507
946.182	214.01547
946.357	60.06984
946.531	55.85379
946.706	110.66943
946.88	135.97399
947.055	127.53879
947.229	133.86516
947.404	26.34407
947.578	116.99528
947.752	123.32132
947.927	173.93659
948.101	146.51847
948.276	165.49987
948.45	26.34407
948.624	72.71852
948.799	123.32132
948.973	70.61035
949.147	60.06984
949.321	62.17789
949.496	138.08285
949.67	123.32132
949.844	102.23527
950.018	93.80147
950.193	163.39074
950.367	119.10394
950.541	102.23527
950.715	144.40954
950.889	159.17255
951.063	135.97399
951.237	138.08285
951.411	146.51847
951.585	95.90989
951.759	93.80147
951.933	135.97399
952.107	127.53879
952.281	119.10394
952.455	104.34378
952.629	66.39408
952.803	144.40954
952.977	114.88664
953.151	152.84542
953.325	144.40954
953.499	102.23527
953.672	140.19172
953.846	119.10394
954.02	161.28164
954.194	184.48295
954.368	121.21262
954.541	110.66943
954.715	131.75635
954.889	146.51847
955.062	102.23527
955.236	180.26435
955.41	173.93659
955.583	192.92041
955.757	192.92041
955.93	95.90989
956.104	150.73642
956.278	195.02983
956.451	60.06984
956.625	100.12679
956.798	110.66943
956.972	161.28164
957.145	163.39074
957.319	121.21262
957.492	127.53879
957.665	121.21262
957.839	102.23527
958.012	79.04317
958.185	140.19172
958.359	36.88273
958.532	144.40954
958.705	79.04317
958.879	55.85379
959.052	152.84542
959.225	186.59229
959.398	169.71819
959.572	53.7458
959.745	218.23472
959.918	135.97399
960.091	144.40954
960.264	127.53879
960.438	11.59093
960.611	119.10394
960.784	163.39074
960.957	182.37364
961.13	161.28164
961.303	228.7832
961.476	17.91356
961.649	140.19172
961.822	119.10394
961.995	72.71852
962.168	121.21262
962.341	51.63784
962.514	129.64756
962.686	119.10394
962.859	93.80147
963.032	60.06984
963.205	79.04317
963.378	135.97399
963.551	51.63784
963.723	104.34378
963.896	114.88664
964.069	53.7458
964.242	85.36802
964.414	127.53879
964.587	195.02983
964.76	22.12877
964.932	138.08285
965.105	62.17789
965.278	135.97399
965.45	100.12679
965.623	106.45231
965.795	93.80147
965.968	112.77803
966.14	163.39074
966.313	114.88664
966.485	60.06984
966.658	148.62743
966.83	125.43005
967.003	129.64756
967.175	106.45231
967.348	171.82738
967.52	112.77803
967.692	144.40954
967.865	47.42198
968.037	68.5022
968.209	104.34378
968.382	104.34378
968.554	70.61035
968.726	87.47635
968.898	157.06349
969.071	110.66943
969.243	74.82672
969.415	51.63784
969.587	180.26435
969.759	102.23527
969.932	104.34378
970.104	207.68674
970.276	55.85379
970.448	152.84542
970.62	169.71819
970.792	70.61035
970.964	38.99053
971.136	34.77495
971.308	135.97399
971.48	119.10394
971.652	152.84542
971.824	49.5299
971.996	138.08285
972.168	110.66943
972.339	91.69308
972.511	34.77495
972.683	148.62743
972.855	87.47635
973.027	62.17789
973.199	55.85379
973.37	144.40954
973.542	161.28164
973.714	64.28597
973.886	98.01833
974.057	119.10394
974.229	72.71852
974.401	93.80147
974.572	93.80147
974.744	108.56086
974.915	20.02115
975.087	114.88664
975.259	49.5299
975.43	89.5847
975.602	45.31408
975.773	83.25972
975.945	127.53879
976.116	93.80147
976.288	72.71852
976.459	144.40954
976.63	76.93493
976.802	95.90989
976.973	79.04317
977.145	87.47635
977.316	186.59229
977.487	5.26851
977.659	116.99528
977.83	28.45175
978.001	-17.91182
978.172	100.12679
978.344	102.23527
978.515	1.05369
978.686	34.77495
978.857	36.88273
979.028	85.36802
979.2	76.93493
979.371	135.97399
979.542	53.7458
979.713	45.31408
979.884	93.80147
980.055	135.97399
980.226	11.59093
980.397	93.80147
980.568	135.97399
980.739	30.55946
980.91	81.15143
981.081	112.77803
981.252	9.48343
981.423	98.01833
981.594	9.48343
981.765	41.09836
981.936	68.5022
982.106	13.69845
982.277	81.15143
982.448	15.80599
982.619	41.09836
982.79	53.7458
982.96	57.9618
983.131	83.25972
983.302	70.61035
983.472	66.39408
983.643	5.26851
983.814	36.88273
983.984	161.28164
984.155	5.26851
984.326	106.45231
984.496	11.59093
984.667	43.20621
984.837	79.04317
985.008	102.23527
985.178	51.63784
985.349	68.5022
985.519	79.04317
985.69	64.28597
985.86	51.63784
986.031	87.47635
986.201	30.55946
986.371	22.12877
986.542	102.23527
986.712	5.26851
986.882	22.12877
987.053	131.75635
987.223	53.7458
987.393	127.53879
987.563	76.93493
987.734	81.15143
987.904	9.48343
988.074	38.99053
988.244	64.28597
988.414	20.02115
988.585	93.80147
988.755	79.04317
988.925	43.20621
989.095	-17.91182
989.265	49.5299
989.435	36.88273
989.605	93.80147
989.775	-9.48295
989.945	51.63784
990.115	1.05369
990.285	36.88273
990.455	-15.80464
990.625	38.99053
990.795	62.17789
990.965	60.06984
991.134	74.82672
991.304	47.42198
991.474	57.9618
991.644	3.16109
991.814	38.99053
991.984	1.05369
992.153	-13.69743
992.323	-7.37567
992.493	26.34407
992.662	34.77495
992.832	41.09836
993.002	45.31408
993.171	89.5847
993.341	51.63784
993.511	57.9618
993.68	28.45175
993.85	-34.76838
994.019	34.77495
994.189	34.77495
994.358	-15.80464
994.528	47.42198
994.697	26.34407
994.867	28.45175
995.036	51.63784
995.206	66.39408
995.375	28.45175
995.544	24.2364
995.714	22.12877
995.883	110.66943
996.052	-49.51657
996.222	11.59093
996.391	89.5847
996.56	38.99053
996.73	17.91356
996.899	17.91356
997.068	1.05369
997.237	43.20621
997.406	22.12877
997.576	-5.26836
997.745	-24.23321
997.914	1.05369
998.083	-32.6614
998.252	-41.08919
998.421	24.2364
998.59	17.91356
998.759	1.05369
998.928	32.66719
999.097	-22.12611
999.266	-76.90279
999.435	-22.12611
999.604	28.45175
999.773	64.28597
999.942	-22.12611
1000.111	-3.16104
1000.28	34.77495
1000.448	34.77495
1000.617	1.05369
1000.786	41.09836
1000.955	47.42198
1001.124	26.34407
1001.292	-72.68981
1001.461	36.88273
1001.63	-11.5902
1001.798	62.17789
1001.967	-15.80464
1002.136	9.48343
1002.304	60.06984
1002.473	-28.44736
1002.642	43.20621
1002.81	22.12877
1002.979	-49.51657
1003.147	30.55946
1003.316	47.42198
1003.484	-5.26836
1003.653	-20.01897
1003.821	26.34407
1003.99	53.7458
1004.158	32.66719
1004.327	26.34407
1004.495	28.45175
1004.663	20.02115
1004.832	-3.16104
1005	-28.44736
1005.168	93.80147
1005.337	28.45175
1005.505	45.31408
1005.673	51.63784
1005.842	-36.87534
1006.01	9.48343
1006.178	-11.5902
1006.346	-13.69743
1006.514	5.26851
1006.683	85.36802
1006.851	47.42198
1007.019	20.02115
1007.187	5.26851
1007.355	51.63784
1007.523	-49.51657
1007.691	11.59093
1007.859	-11.5902
1008.027	28.45175
1008.195	30.55946
1008.363	62.17789
1008.531	-34.76838
1008.699	-22.12611
1008.867	-15.80464
1009.035	-41.08919
1009.203	20.02115
1009.37	22.12877
1009.538	-3.16104
1009.706	60.06984
1009.874	7.37596
1010.042	-15.80464
1010.209	-24.23321
1010.377	85.36802
1010.545	22.12877
1010.713	-89.54113
1010.88	51.63784
1011.048	17.91356
1011.216	60.06984
1011.383	55.85379
1011.551	26.34407
1011.718	5.26851
1011.886	-3.16104
1012.054	26.34407
1012.221	-9.48295
1012.389	-41.08919
1012.556	17.91356
1012.724	45.31408
1012.891	-45.30293
1013.058	-11.5902
1013.226	-7.37567
1013.393	-32.6614
1013.561	26.34407
1013.728	-3.16104
1013.895	43.20621
1014.063	-36.87534
1014.23	51.63784
1014.397	-3.16104
1014.565	72.71852
1014.732	43.20621
1014.899	-3.16104
1015.066	20.02115
1015.233	-20.01897
1015.401	45.31408
1015.568	60.06984
1015.735	1.05369
1015.902	72.71852
1016.069	-15.80464
1016.236	11.59093
1016.403	-15.80464
1016.57	34.77495
1016.737	30.55946
1016.904	-28.44736
1017.071	-1.05368
1017.238	79.04317
1017.405	36.88273
1017.572	-26.3403
1017.739	34.77495
1017.906	36.88273
1018.073	47.42198
1018.24	36.88273
1018.407	-32.6614
1018.573	15.80599
1018.74	34.77495
1018.907	5.26851
1019.074	1.05369
1019.241	-83.22208
1019.407	3.16109
1019.574	28.45175
1019.741	55.85379
1019.907	89.5847
1020.074	60.06984
1020.241	60.06984
1020.407	20.02115
1020.574	-9.48295
1020.74	-53.73012
1020.907	13.69845
1021.073	68.5022
1021.24	45.31408
1021.406	34.77495
1021.573	-60.05024
1021.739	30.55946
1021.906	17.91356
1022.072	26.34407
1022.239	-64.26353
1022.405	-17.91182
1022.571	-5.26836
1022.738	43.20621
1022.904	9.48343
1023.07	9.48343
1023.237	-15.80464
1023.403	-15.80464
1023.569	-55.83685
1023.735	49.5299
1023.902	79.04317
1024.068	38.99053
1024.234	1.05369
1024.4	20.02115
1024.566	1.05369
1024.732	-24.23321
1024.898	-41.08919
1025.065	70.61035
1025.231	-57.94356
1025.397	-20.01897
1025.563	-36.87534
1025.729	38.99053
1025.895	-3.16104
1026.061	43.20621
1026.227	28.45175
1026.392	55.85379
1026.558	1.05369
1026.724	-24.23321
1026.89	-9.48295
1027.056	70.61035
1027.222	57.9618
1027.388	1.05369
1027.553	28.45175
1027.719	43.20621
1027.885	41.09836
1028.051	-22.12611
1028.216	1.05369
1028.382	17.91356
1028.548	60.06984
1028.713	13.69845
1028.879	49.5299
1029.045	60.06984
1029.21	17.91356
1029.376	-13.69743
1029.541	79.04317
1029.707	-30.55439
1029.873	51.63784
1030.038	-7.37567
1030.204	-24.23321
1030.369	-45.30293
1030.534	-95.85994
1030.7	-20.01897
1030.865	55.85379
1031.031	-36.87534
1031.196	-13.69743
1031.361	49.5299
1031.527	36.88273
1031.692	-53.73012
1031.857	26.34407
1032.023	-43.19607
1032.188	-28.44736
1032.353	-32.6614
1032.518	83.25972
1032.684	45.31408
1032.849	34.77495
1033.014	7.37596
1033.179	-15.80464
1033.344	11.59093
1033.509	9.48343
1033.674	55.85379
1033.839	17.91356
1034.004	-62.1569
1034.17	20.02115
1034.335	5.26851
1034.5	-79.00925
1034.664	9.48343
1034.829	22.12877
1034.994	38.99053
1035.159	-7.37567
1035.324	34.77495
1035.489	22.12877
1035.654	1.05369
1035.819	20.02115
1035.984	34.77495
1036.148	-32.6614
1036.313	-32.6614
1036.478	-15.80464
1036.643	43.20621
1036.807	-47.40976
1036.972	-3.16104
1037.137	-70.58328
1037.301	1.05369
1037.466	-47.40976
1037.631	51.63784
1037.795	1.05369
1037.96	79.04317
1038.124	-24.23321
1038.289	22.12877
1038.454	64.28597
1038.618	85.36802
1038.783	47.42198
1038.947	43.20621
1039.111	-5.26836
1039.276	-22.12611
1039.44	-38.98228
1039.605	22.12877
1039.769	30.55946
1039.933	-32.6614
1040.098	17.91356
1040.262	43.20621
1040.426	11.59093
1040.591	1.05369
1040.755	1.05369
1040.919	-45.30293
1041.083	22.12877
1041.248	-9.48295
1041.412	-11.5902
1041.576	51.63784
1041.74	-38.98228
1041.904	-15.80464
1042.068	11.59093
1042.232	-28.44736
1042.397	-22.12611
1042.561	-55.83685
1042.725	-45.30293
1042.889	-5.26836
1043.053	-91.64742
1043.217	-72.68981
1043.381	-51.62336
1043.544	1.05369
1043.708	53.7458
1043.872	-38.98228
1044.036	-7.37567
1044.2	-32.6614
1044.364	22.12877
1044.528	51.63784
1044.691	-24.23321
1044.855	85.36802
1045.019	-7.37567
1045.183	62.17789
1045.346	-7.37567
1045.51	9.48343
1045.674	11.59093
1045.837	-7.37567
1046.001	28.45175
1046.165	5.26851
1046.328	28.45175
1046.492	22.12877
1046.655	-32.6614
1046.819	30.55946
1046.983	-3.16104
1047.146	-32.6614
1047.31	51.63784
1047.473	-74.79631
1047.636	85.36802
1047.8	104.34378
1047.963	7.37596
1048.127	13.69845
1048.29	30.55946
