Data from mixed_try1_USB4F045381__1__00066.txt Node

Date: Thu Apr 03 19:50:55 EDT 2025
User: mmckonesweet
Spectrometer: USB4F04538
Trigger mode: 4
Integration Time (sec): 2.700000E-3
Scans to average: 1
Electric dark correction enabled: true
Nonlinearity correction enabled: true
Boxcar width: 0
XAxis mode: Wavelengths
Number of Pixels in Spectrum: 3648
>>>>>Begin Spectral Data<<<<<
345.52	-7.20006
345.736	-7.20006
345.952	-7.20006
346.168	-28.27177
346.384	-24.05762
346.6	-76.72725
346.816	11.76656
347.032	1.22931
347.248	-15.62904
347.464	-26.16471
347.68	24.41204
347.896	-7.20006
348.112	-5.09275
348.328	22.3044
348.544	51.8135
348.76	-36.69976
348.975	56.02946
349.191	-51.44779
349.407	-36.69976
349.623	-51.44779
349.839	-55.66129
350.055	-57.768
350.27	79.21886
350.486	-7.20006
350.702	43.38186
350.918	13.87408
351.133	41.27401
351.349	41.27401
351.565	-13.52183
351.781	-5.09275
351.996	-0.87807
352.212	-87.25927
352.428	51.8135
352.644	-45.12736
352.859	-2.98542
353.075	60.24551
353.291	20.19678
353.506	-21.95051
353.722	-40.91361
353.938	-7.20006
354.153	-24.05762
354.369	11.76656
354.584	-47.2342
354.8	56.02946
355.016	1.22931
355.231	-28.27177
355.447	-36.69976
355.662	56.02946
355.878	-40.91361
356.093	-7.20006
356.309	34.9506
356.524	5.44413
356.74	51.8135
356.955	-2.98542
357.171	-24.05762
357.386	-5.09275
357.602	-7.20006
357.817	34.9506
358.033	70.78603
358.248	-30.3788
358.464	13.87408
358.679	-57.768
358.895	32.84284
359.11	-36.69976
359.325	28.62739
359.541	-21.95051
359.756	79.21886
359.972	60.24551
360.187	1.22931
360.402	-11.4146
360.618	1.22931
360.833	11.76656
361.048	37.05838
361.264	-40.91361
361.479	-24.05762
361.694	-15.62904
361.909	49.70556
362.125	-15.62904
362.34	-45.12736
362.555	41.27401
362.77	68.67788
362.986	-87.25927
363.201	68.67788
363.416	45.48974
363.631	32.84284
363.847	37.05838
364.062	-7.20006
364.277	34.9506
364.492	51.8135
364.707	-30.3788
364.922	20.19678
365.138	-24.05762
365.353	-5.09275
365.568	9.65906
365.783	-7.20006
365.998	-17.73622
366.213	-15.62904
366.428	26.51971
366.643	70.78603
366.858	26.51971
367.073	-47.2342
367.288	9.65906
367.503	9.65906
367.718	-32.48582
367.933	34.9506
368.148	85.54372
368.363	-26.16471
368.578	-24.05762
368.793	-70.40773
369.008	34.9506
369.223	9.65906
369.438	-28.27177
369.653	-64.08798
369.868	3.33671
370.083	-30.3788
370.298	-13.52183
370.513	18.08919
370.728	28.62739
370.943	1.22931
371.157	-11.4146
371.372	100.3025
371.587	9.65906
371.802	11.76656
372.017	-15.62904
372.232	20.19678
372.446	32.84284
372.661	-17.73622
372.876	77.11062
373.091	28.62739
373.306	-13.52183
373.52	-0.87807
373.735	20.19678
373.95	-74.62077
374.165	11.76656
374.379	68.67788
374.594	-45.12736
374.809	18.08919
375.023	13.87408
375.238	30.7351
375.453	-83.04654
375.667	60.24551
375.882	53.92147
376.097	26.51971
376.311	-30.3788
376.526	11.76656
376.741	-38.8067
376.955	11.76656
377.17	-30.3788
377.384	18.08919
377.599	34.9506
377.813	-78.83371
378.028	-5.09275
378.242	-32.48582
378.457	68.67788
378.672	18.08919
378.886	34.9506
379.101	62.35357
379.315	7.55158
379.53	-72.51427
379.744	-30.3788
379.958	13.87408
380.173	-43.0205
380.387	-13.52183
380.602	-13.52183
380.816	13.87408
381.031	-15.62904
381.245	22.3044
381.459	39.16618
381.674	28.62739
381.888	9.65906
382.103	-13.52183
382.317	28.62739
382.531	30.7351
382.746	60.24551
382.96	43.38186
383.174	18.08919
383.388	-32.48582
383.603	13.87408
383.817	15.98162
384.031	-9.30734
384.246	72.8942
384.46	7.55158
384.674	-15.62904
384.888	-7.20006
385.103	3.33671
385.317	9.65906
385.531	62.35357
385.745	-83.04654
385.959	11.76656
386.174	77.11062
386.388	53.92147
386.602	30.7351
386.816	37.05838
387.03	22.3044
387.244	1.22931
387.458	-49.34101
387.672	26.51971
387.887	22.3044
388.101	-24.05762
388.315	-15.62904
388.529	-7.20006
388.743	45.48974
388.957	37.05838
389.171	53.92147
389.385	24.41204
389.599	-38.8067
389.813	37.05838
390.027	-32.48582
390.241	-40.91361
390.455	-47.2342
390.669	47.59764
390.883	9.65906
391.097	53.92147
391.311	-5.09275
391.525	-24.05762
391.738	45.48974
391.952	5.44413
392.166	-19.84338
392.38	-13.52183
392.594	51.8135
392.808	-21.95051
393.022	15.98162
393.236	15.98162
393.449	28.62739
393.663	-5.09275
393.877	18.08919
394.091	30.7351
394.305	53.92147
394.518	-9.30734
394.732	13.87408
394.946	-32.48582
395.16	5.44413
395.373	64.46165
395.587	37.05838
395.801	30.7351
396.015	58.13747
396.228	5.44413
396.442	18.08919
396.656	45.48974
396.869	-32.48582
397.083	-21.95051
397.297	-11.4146
397.51	53.92147
397.724	43.38186
397.938	-40.91361
398.151	-57.768
398.365	53.92147
398.578	62.35357
398.792	34.9506
399.005	62.35357
399.219	32.84284
399.433	-40.91361
399.646	-13.52183
399.86	28.62739
400.073	77.11062
400.287	-61.98135
400.5	-32.48582
400.714	-5.09275
400.927	47.59764
401.141	51.8135
401.354	-32.48582
401.567	20.19678
401.781	-15.62904
401.994	18.08919
402.208	102.41098
402.421	-19.84338
402.635	9.65906
402.848	102.41098
403.061	-21.95051
403.275	34.9506
403.488	34.9506
403.701	9.65906
403.915	-24.05762
404.128	9.65906
404.341	20.19678
404.555	-13.52183
404.768	64.46165
404.981	30.7351
405.195	60.24551
405.408	79.21886
405.621	119.27966
405.834	20.19678
406.048	-28.27177
406.261	77.11062
406.474	53.92147
406.687	72.8942
406.9	9.65906
407.114	53.92147
407.327	26.51971
407.54	-19.84338
407.753	18.08919
407.966	15.98162
408.179	26.51971
408.392	53.92147
408.605	9.65906
408.819	41.27401
409.032	13.87408
409.245	37.05838
409.458	121.38835
409.671	89.7604
409.884	37.05838
410.097	26.51971
410.31	37.05838
410.523	60.24551
410.736	-0.87807
410.949	37.05838
411.162	-0.87807
411.375	5.44413
411.588	22.3044
411.801	-15.62904
412.014	9.65906
412.227	-40.91361
412.44	119.27966
412.653	110.84515
412.865	53.92147
413.078	41.27401
413.291	60.24551
413.504	-30.3788
413.717	3.33671
413.93	60.24551
414.143	22.3044
414.356	51.8135
414.568	136.14973
414.781	18.08919
414.994	87.65205
415.207	68.67788
415.42	89.7604
415.632	13.87408
415.845	79.21886
416.058	53.92147
416.271	51.8135
416.483	9.65906
416.696	26.51971
416.909	18.08919
417.121	30.7351
417.334	110.84515
417.547	34.9506
417.759	81.32712
417.972	43.38186
418.185	64.46165
418.397	89.7604
418.61	60.24551
418.823	45.48974
419.035	64.46165
419.248	85.54372
419.46	102.41098
419.673	18.08919
419.885	98.19403
420.098	62.35357
420.311	20.19678
420.523	60.24551
420.736	41.27401
420.948	34.9506
421.161	96.08559
421.373	53.92147
421.586	51.8135
421.798	134.0409
422.01	18.08919
422.223	72.8942
422.435	93.97717
422.648	112.95374
422.86	96.08559
423.073	72.8942
423.285	70.78603
423.497	127.71452
423.71	140.36746
423.922	138.25859
424.134	129.82329
424.347	81.32712
424.559	43.38186
424.771	79.21886
424.984	79.21886
425.196	83.43541
425.408	157.23924
425.621	119.27966
425.833	123.49705
426.045	20.19678
426.257	51.8135
426.47	77.11062
426.682	123.49705
426.894	127.71452
427.106	93.97717
427.318	136.14973
427.531	123.49705
427.743	169.89395
427.955	85.54372
428.167	112.95374
428.379	138.25859
428.591	37.05838
428.804	110.84515
429.016	165.67563
429.228	144.58528
429.44	96.08559
429.652	186.76807
429.864	148.80318
430.076	184.65873
430.288	106.62802
430.5	140.36746
430.712	262.71742
430.924	182.54942
431.136	153.02117
431.348	148.80318
431.56	207.86254
431.772	117.171
431.984	131.93208
432.196	224.73956
432.408	190.9868
432.62	201.53399
432.832	146.69422
433.044	197.31505
433.256	195.20561
433.468	201.53399
433.679	180.44012
433.891	273.26793
434.103	195.20561
434.315	169.89395
434.527	256.38735
434.739	228.95901
434.95	279.59846
435.162	254.27736
435.374	292.26001
435.586	264.82749
435.798	300.70142
436.009	347.1343
436.221	228.95901
436.433	209.9721
436.645	203.64348
436.856	239.50798
437.068	258.49735
437.28	323.91679
437.491	228.95901
437.703	243.72771
437.915	323.91679
438.126	304.92223
438.338	237.39815
438.55	296.48068
438.761	307.03267
438.973	359.79929
439.184	336.58062
439.396	345.02353
439.608	355.57756
439.819	315.47458
440.031	334.46994
440.242	355.57756
440.454	378.79793
440.665	366.13202
440.877	307.03267
441.088	467.47573
441.3	349.24509
441.511	332.35927
441.723	298.59104
441.934	326.02738
442.146	410.46532
442.357	532.94571
442.569	397.79792
442.78	402.02032
442.991	351.3559
443.203	397.79792
443.414	408.35405
443.626	482.25804
443.837	374.57589
444.048	429.46752
444.26	393.57558
444.471	416.79924
444.682	488.59354
444.894	456.91739
445.105	427.3561
445.316	448.471
445.528	389.35331
445.739	478.03445
445.95	501.26494
446.161	480.14624
446.373	450.58257
446.584	482.25804
446.795	581.52897
447.006	532.94571
447.217	501.26494
447.429	473.81092
447.64	459.02903
447.851	532.94571
448.062	526.6093
448.273	585.75393
448.484	577.30405
448.695	516.0489
448.907	545.61891
449.118	539.28225
449.329	535.05787
449.54	657.58613
449.751	568.85439
449.962	564.62963
450.173	634.34474
450.384	676.60289
450.595	594.20402
450.806	735.77199
451.017	638.57033
451.228	761.13276
451.439	668.15088
451.65	809.74492
451.861	651.24742
452.072	636.45753
452.283	727.31874
452.494	714.63918
452.705	723.09218
452.915	832.99598
453.126	820.31344
453.337	904.86958
453.548	845.67884
453.759	940.80986
453.97	978.86656
454.181	997.89573
454.391	871.0455
454.602	1008.46772
454.813	856.24813
455.024	959.83792
455.235	871.0455
455.445	1048.64267
455.656	991.55261
455.867	1010.58214
456.078	1099.39286
456.288	1014.81099
456.499	1057.10082
456.71	1228.3946
456.921	955.60942
457.131	1150.14586
457.342	1133.2279
457.553	1196.67155
457.763	1116.31023
457.974	1353.17761
458.184	1162.8345
458.395	1342.60252
458.606	1211.47555
458.816	1562.56667
459.027	1344.71753
459.237	1378.55795
459.448	1486.42541
459.659	1477.96521
459.869	1573.14173
460.08	1558.33664
460.29	1577.37175
460.501	1843.84117
460.711	1626.01639
460.922	1568.91171
461.132	1786.74526
461.343	1651.39576
461.553	1600.6367
461.764	1862.87239
461.974	1716.95736
462.184	1683.11946
462.395	1818.46561
462.605	2070.07157
462.816	1826.9242
463.026	1953.79348
463.236	1955.9078
463.447	2148.28297
463.657	1886.13222
463.867	2304.67187
464.078	2330.02754
464.288	2213.80306
464.498	2450.44717
464.709	2473.6821
464.919	2439.88541
465.129	2456.7841
465.339	2384.95994
465.55	2511.69999
465.76	2446.2225
465.97	2359.60737
466.18	2384.95994
466.391	3020.32183
466.601	2822.0321
466.811	3035.08282
467.021	2781.93693
467.231	3073.03619
467.441	2689.06633
467.651	3119.41673
467.862	2978.14344
468.072	3376.4738
468.282	3195.29543
468.492	3115.20064
468.702	3288.00705
468.912	3570.14887
469.122	3454.3832
469.332	3730.02319
469.542	3477.54074
469.752	3793.10098
469.962	3427.0124
470.172	3893.98859
470.382	3877.17717
470.592	3965.42276
470.802	3826.73525
471.012	4053.63246
471.222	4007.43189
471.432	4263.50774
471.642	4131.31081
471.852	4391.42705
472.062	4418.67812
472.272	4477.36016
472.482	4519.26534
472.691	4837.4528
472.901	4531.83518
473.111	4632.36503
473.321	4891.82723
473.531	5059.03584
473.741	4818.62728
473.95	5144.67293
474.16	5017.24752
474.37	5451.39091
474.58	5551.4339
474.79	5584.76951
474.999	5203.13435
475.209	5322.08855
475.419	5718.05156
475.628	5844.99605
475.838	5961.45794
476.048	6044.59975
476.258	6061.22358
476.467	6227.37922
476.677	6327.00055
476.886	6635.89991
477.096	6642.11408
477.306	6443.15744
477.515	6459.74532
477.725	6758.07398
477.935	6691.82
478.144	6762.21408
478.354	6693.89079
478.563	7281.07832
478.773	7070.3956
478.982	7264.56251
479.192	7384.27033
479.401	7326.48955
479.611	7314.10572
479.82	7804.73517
480.03	7821.20604
480.239	7922.06117
480.449	7771.78942
480.658	7907.65633
480.868	8290.07615
481.077	8341.42418
481.287	8020.81015
481.496	8310.61682
481.705	8600.03492
481.915	8653.36164
482.124	8575.41833
482.333	8841.95602
482.543	8727.17791
482.752	9042.68234
482.961	8940.29222
483.171	9196.1861
483.38	8917.76048
483.589	9300.51406
483.799	9474.29834
484.008	9529.47591
484.217	9339.37024
484.426	9829.68722
484.636	9619.37015
484.845	9803.15123
485.054	9886.83311
485.263	10131.61493
485.472	10058.202
485.682	10207.04829
485.891	10266.1586
486.1	10245.77703
486.309	10661.302
486.518	10899.38485
486.727	10693.86997
486.936	11011.2494
487.146	10787.48571
487.355	10826.14575
487.564	11196.26137
487.773	11340.55089
487.982	11053.95243
488.191	11257.23508
488.4	11397.43979
488.609	11381.18661
488.818	11693.95319
489.027	11553.84498
489.236	11807.63298
489.445	12142.43089
489.654	11775.15582
489.863	12322.93219
490.072	11988.24802
490.281	12391.87294
490.49	12418.23056
490.698	12298.59825
490.907	12201.25225
491.116	12667.56007
491.325	12610.81046
491.534	12724.30501
491.743	12821.57154
491.952	13003.91246
492.16	13026.1957
492.369	13153.80657
492.578	13315.82593
492.787	13242.92069
492.996	13236.845
493.204	13129.50119
493.413	13475.79379
493.622	13489.96698
493.831	13487.94225
494.039	13834.12135
494.248	13475.79379
494.457	13923.18213
494.665	14002.11807
494.874	14060.81157
495.083	14085.09797
495.291	14376.51151
495.5	14224.73863
495.709	14293.54358
495.917	14360.32287
496.126	14447.33565
496.335	14516.13454
496.543	14767.03666
496.752	14554.58031
496.96	14963.29814
497.169	14663.84494
497.377	14858.08648
497.586	14779.17672
497.794	15072.55531
498.003	14926.87886
498.211	15137.30002
498.42	14902.59927
498.628	15416.51255
498.837	15297.13857
499.045	15268.81269
499.254	15270.83597
499.462	15604.68183
499.671	15604.68183
499.879	15944.6194
500.087	15991.16104
500.296	16100.43567
500.504	15974.97256
500.713	16229.95225
500.921	16076.15204
501.129	15802.97507
501.338	15869.74952
501.546	16353.40435
501.754	16144.95624
501.962	16205.66737
502.171	16345.30892
502.379	16717.73286
502.587	16462.69572
502.795	16478.88753
503.004	16547.70423
503.212	16829.07009
503.42	16557.82454
503.628	16942.4394
503.837	16715.70862
504.045	17045.6936
504.253	16968.75844
504.461	17144.90531
504.669	17088.21209
504.877	17341.32431
505.085	17387.902
505.294	17831.48698
505.502	17553.97495
505.71	17809.20267
505.918	17290.6982
506.126	17695.76161
506.334	17553.97495
506.542	17645.12168
506.75	17477.01169
506.958	17782.86719
507.166	17989.51506
507.374	18070.56343
507.582	17867.95312
507.79	17995.59349
507.998	18078.66858
508.206	18329.9573
508.414	18127.30071
508.622	18411.03038
508.83	18030.03853
509.037	18147.56471
509.245	18271.18307
509.453	18753.63194
509.661	18510.35318
509.869	18644.14954
510.077	18788.10101
510.285	18704.97168
510.492	18773.90772
510.7	19086.20522
510.908	18421.16494
511.116	18711.05409
511.324	18883.4038
511.531	18976.68744
511.739	19082.14879
511.947	19134.88359
512.155	18948.29587
512.362	19238.33295
512.57	18855.01481
512.778	19088.23344
512.985	19057.81059
513.193	19088.23344
513.401	19475.69842
513.608	19611.65124
513.816	19218.04792
514.024	19836.92781
514.231	19402.65685
514.439	19512.22122
514.646	19686.73769
514.854	19875.49384
515.061	19599.4756
515.269	19796.33362
515.477	20027.74301
515.684	19983.0808
515.892	19459.46649
516.099	20031.80331
516.307	19871.43419
516.514	20326.22
516.722	20230.7787
516.929	20320.12772
517.136	20454.1665
517.344	20318.09697
517.551	20202.35117
517.759	20218.59537
517.966	20411.51581
518.173	20448.07343
518.381	20746.67796
518.588	20594.31744
518.796	20760.89947
519.003	20825.91466
519.21	20722.29871
519.418	20852.3283
519.625	20677.60496
519.832	20957.9898
520.039	21136.82688
520.247	21246.58344
520.454	21153.08636
520.661	21687.76012
520.868	21214.06174
521.076	21579.99005
521.283	21218.1269
521.49	21287.23701
521.697	21484.42963
521.904	21535.25855
522.112	21714.19597
522.319	21992.8289
522.526	21598.28985
522.733	22133.18938
522.94	21878.92643
523.147	22100.64042
523.354	22011.13577
523.561	22243.04914
523.768	21889.0958
523.975	22377.3368
524.183	21838.24988
524.39	22436.34701
524.597	22310.19097
524.804	22650.02991
525.011	22271.53306
525.218	22377.3368
525.425	22554.37652
525.632	22167.77369
525.838	22882.0723
526.045	22723.30159
526.252	22880.03665
526.459	23122.3031
526.666	22859.6803
526.873	23160.98865
527.08	23165.06088
527.287	23468.47826
527.494	23187.45839
527.701	23749.55728
527.907	23321.85164
528.114	23478.66127
528.321	23409.41836
528.528	23731.22429
528.735	23478.66127
528.941	23737.33526
529.148	23230.21835
529.355	23598.82657
529.562	23372.76181
529.768	23796.40934
529.975	23499.02752
530.182	23765.85347
530.388	23183.38608
530.595	23666.04229
530.802	23611.04736
531.008	23957.34769
531.215	24421.92568
531.422	24381.16763
531.628	24313.91916
531.835	24073.47883
532.042	24228.33438
532.248	24436.19124
532.455	24603.31142
532.661	24625.73127
532.868	24436.19124
533.074	24703.18397
533.281	24762.29499
533.487	24764.33333
533.694	24662.41895
533.9	25220.98185
534.107	24770.44839
534.313	25021.18401
534.52	25163.89458
534.726	25453.42592
534.933	25167.97219
535.139	25714.4475
535.345	25361.66841
535.552	25457.50413
535.758	25641.0319
535.965	25367.78544
536.171	25170.01099
536.377	25551.30518
536.584	25761.35322
536.79	25549.26598
536.996	25849.04922
537.203	26071.36364
537.409	25798.06275
537.615	25600.24655
537.821	25651.22836
538.028	26356.93564
538.234	26361.01548
538.44	26124.3959
538.646	25847.00974
538.853	26122.35618
539.059	26320.2174
539.265	26269.22072
539.471	26387.53459
539.677	26208.02609
539.883	26697.62407
540.09	26259.02151
540.296	26501.77387
540.502	26817.99725
540.708	26460.97355
540.914	27150.57962
541.12	27030.19276
541.326	27330.14833
541.532	26948.57729
541.738	27138.33667
541.944	27071.00133
542.15	27303.62049
542.356	27048.55655
542.562	27319.94529
542.768	27191.38979
542.974	27821.97181
543.18	27383.20465
543.386	27936.26439
543.592	27662.78468
543.798	27636.2542
544.004	27632.17261
544.21	27779.11303
544.415	27438.30252
544.621	28238.34045
544.827	27872.99483
545.033	28579.22526
545.239	28383.26387
545.445	28773.15496
545.651	28148.5315
545.856	28152.61368
546.062	28230.17591
546.268	28113.83317
546.474	28403.67606
546.679	27721.9688
546.885	27521.9714
547.091	27811.76729
547.297	27919.93666
547.502	28348.5634
547.708	28185.27127
547.914	28491.44968
548.119	28364.89299
548.325	28650.67195
548.531	28426.12959
548.736	28726.2027
548.942	28942.59599
549.147	28554.72955
549.353	28599.63847
549.559	29230.45798
549.764	28705.78884
549.97	28697.62333
550.175	28999.75843
550.381	29207.99992
550.586	28999.75843
550.792	29563.26048
550.997	29014.04917
551.203	29412.16876
551.408	29459.12908
551.614	29493.83924
551.819	29348.8753
552.025	30347.4007
552.23	29663.31091
552.435	29898.13339
552.641	29722.52565
552.846	29889.96541
553.052	29477.50501
553.257	30000.2347
553.462	30312.68256
553.668	30194.23504
553.873	30120.71789
554.078	30414.79575
554.283	30228.952
554.489	30343.31619
554.694	30286.13363
554.899	30580.2257
555.105	30471.98047
555.31	30619.03146
555.515	30504.6579
555.72	30641.49817
555.925	30390.2883
556.131	30535.29328
556.336	30375.99237
556.541	30911.11128
556.746	30819.19506
556.951	30737.49409
557.156	30970.34768
557.361	31346.22123
557.567	31409.55289
557.772	31019.37181
557.977	30710.94173
558.182	31203.21982
558.387	31370.73653
558.592	31195.04854
558.797	31485.14434
559.002	31258.3766
559.207	31385.03722
559.412	31297.19131
559.617	31037.75607
559.822	31540.30711
560.027	31456.54191
560.232	31305.3629
560.437	31640.42046
560.642	31239.99088
560.847	31485.14434
561.051	31587.29858
561.256	31391.16612
561.461	31372.77948
561.666	31319.66324
561.871	31750.75432
562.076	31906.04794
562.281	31376.86539
562.485	31464.714
562.69	31628.16146
562.895	31742.58126
563.1	31889.70074
563.305	31803.87989
563.509	32024.56883
563.714	31666.98185
563.919	31885.61396
564.123	31981.65534
564.328	31863.13679
564.533	32200.31893
564.737	31497.40263
564.942	31932.61241
565.147	32171.70742
565.351	31918.30843
565.556	31777.31695
565.761	32633.63074
565.965	32367.90888
566.17	32451.70933
566.374	32239.14948
566.579	32513.02912
566.784	32012.30775
566.988	32880.99249
567.193	32233.01829
567.397	32167.6201
567.602	32580.48326
567.806	32130.83454
568.011	32979.1297
568.215	33097.72031
568.42	32627.49826
568.624	32858.50355
568.828	32870.7702
569.033	32891.21484
569.237	32913.70423
569.442	33171.33288
569.646	33077.273
569.85	33351.29015
570.055	33404.46366
570.259	33396.28299
570.463	33525.13419
570.668	33545.58789
570.872	33375.83152
571.076	33406.50884
571.281	33486.27303
571.485	33183.60199
571.689	33420.82515
571.893	33132.48135
572.098	32831.92611
572.302	33173.37773
572.506	33631.49683
572.71	33437.18683
572.914	33731.73107
573.119	33703.09192
573.323	33670.36224
573.527	33711.27447
573.731	33995.65144
573.935	34558.47469
574.139	34429.51113
574.343	34050.89791
574.547	34337.40399
574.751	34580.99379
574.955	34327.17036
575.159	34290.33006
575.364	33907.67164
575.568	33782.87402
575.772	33435.14161
575.976	33701.04629
576.18	33989.5131
576.383	34392.66732
576.587	34202.3277
576.791	34100.00808
576.995	33870.8448
577.199	33664.22552
577.403	34012.02049
577.607	34638.31741
577.811	35154.38386
578.015	34126.61029
578.219	34251.44444
578.422	34458.16831
578.626	34636.27008
578.83	34296.47003
579.034	34689.502
579.238	35115.46401
579.442	35314.17828
579.645	34892.21937
579.849	34486.82628
580.053	35330.56914
580.257	35133.89951
580.46	35543.67955
580.664	35283.44629
580.868	34996.66649
581.071	35336.71579
581.275	34865.59747
581.479	35256.81278
581.682	35168.72319
581.886	35590.81724
582.09	35951.61737
582.293	35387.93963
582.497	35437.11747
582.7	35322.37367
582.904	35596.96584
583.107	35312.12945
583.311	35328.52026
583.515	35640.00737
583.718	35504.74179
583.922	35121.60913
584.125	35297.78775
584.329	35703.54916
584.532	35881.90403
584.735	36525.98623
584.939	36341.31571
585.142	35875.75316
585.346	35555.97607
585.549	35699.44953
585.753	35994.67889
585.956	36359.78049
586.159	35855.25064
586.363	36525.98623
586.566	35970.072
586.769	36113.62393
586.973	36396.71154
587.176	36936.55313
587.379	36335.16089
587.582	36343.36733
587.786	36409.02234
587.989	36714.81404
588.192	36402.86692
588.395	36837.99268
588.599	36803.08962
588.802	36575.24037
589.005	36242.84528
589.208	36973.51739
589.411	36965.30291
589.615	36585.50211
589.818	36950.92785
590.021	36478.78781
590.224	36866.73786
590.427	37072.09976
590.63	37020.75276
590.833	36645.02343
591.036	36827.72687
591.239	36994.05405
591.442	36636.81327
591.645	36887.27094
591.848	37238.49461
592.051	37226.16744
592.254	36965.30291
592.457	37729.74563
592.66	36977.62466
592.863	37291.91535
593.066	38034.17519
593.269	38336.72731
593.472	37655.72167
593.675	38221.44774
593.878	37768.81795
594.081	37727.68927
594.284	37809.9498
594.486	38108.25273
594.689	38394.37725
594.892	37890.16614
595.095	38161.75992
595.298	38233.79784
595.5	38145.29556
595.703	38050.63593
595.906	37949.82217
596.109	37600.21034
596.311	38122.65795
596.514	37958.05112
596.717	38180.28296
596.92	38695.09268
597.122	38847.58369
597.325	38526.17434
597.528	37793.49668
597.73	38660.06804
597.933	38279.08416
598.136	38594.1464
598.338	38384.08212
598.541	39163.0316
598.743	39113.53483
598.946	38369.6693
599.148	38561.18904
599.351	38384.08212
599.554	39119.72163
599.756	39047.54775
599.959	39311.55546
600.161	39276.48276
600.363	39043.42388
600.566	39307.42911
600.768	39259.97894
600.971	39202.22049
601.173	38676.5499
601.376	39119.72163
601.578	39134.15781
601.78	39773.96018
601.983	39346.63101
602.185	39210.47123
602.388	38921.78683
602.59	39266.1678
602.792	39305.36595
602.995	38781.63545
603.197	38967.13918
603.399	39499.34626
603.601	39123.8462
603.804	38546.77091
604.006	39408.53601
604.208	38927.97098
604.41	39303.3028
604.613	39233.16157
604.815	39687.22042
605.017	39555.08036
605.219	39486.9619
605.421	39429.173
605.623	39583.98243
605.826	39707.87109
606.028	39266.1678
606.23	39548.88732
606.432	39505.53857
606.634	40133.5077
606.836	39495.2181
607.038	39695.48056
607.24	39342.50433
607.442	39571.59558
607.644	39392.02714
607.846	40178.99074
608.048	40305.13029
608.25	40311.33492
608.452	39978.49099
608.654	40023.95633
608.856	39458.06647
609.058	40085.96284
609.26	40054.95838
609.462	40342.35957
609.664	40652.74356
609.866	40071.49379
610.067	40249.29302
610.269	40468.55209
610.471	39885.50968
610.673	39995.02324
610.875	39995.02324
611.077	39986.75703
611.278	39709.93621
611.48	40150.04638
611.682	39786.35307
611.884	40311.33492
612.085	39458.06647
612.287	40174.8557
612.489	40282.38081
612.69	40522.35164
612.892	39714.06649
613.094	39889.64173
613.295	39767.76388
613.497	40104.56667
613.699	40108.70098
613.9	40315.4714
614.102	40023.95633
614.304	39778.09111
614.505	39780.15658
614.707	40017.75621
614.908	39982.62399
615.11	39953.69388
615.311	40193.46371
615.513	39738.84903
615.714	40017.75621
615.916	40524.421
616.117	40158.31598
616.319	39639.72777
616.52	39363.13814
616.722	40009.48953
616.923	40119.03692
617.124	40176.92321
617.326	40114.90251
617.527	40663.09405
617.729	40284.44889
617.93	40294.78945
618.131	40276.17664
618.333	40512.00498
618.534	40228.61457
618.735	40876.37753
618.937	40137.64231
619.138	39550.95165
619.339	39819.4026
619.54	39850.38896
619.742	39947.49484
619.943	39997.08982
620.144	40418.89765
620.345	39809.07434
620.546	39548.88732
620.748	40065.29293
620.949	39561.27349
621.15	39866.91598
621.351	39792.54965
621.552	40408.55378
621.753	40065.29293
621.954	40315.4714
622.155	39798.74633
622.356	40152.11377
622.558	40321.6762
622.759	40288.58508
622.96	39472.51394
623.161	39957.82663
623.362	39920.63344
623.563	40764.54385
623.764	40447.86196
623.965	40365.11256
624.166	40423.03528
624.366	40228.61457
624.567	39941.2959
624.768	40139.70963
624.969	39949.56118
625.17	40176.92321
625.371	40644.46338
625.572	40150.04638
625.773	40503.72786
625.973	40565.81065
626.174	40874.30623
626.375	40739.69647
626.576	40816.31453
626.777	40926.09219
626.977	39949.56118
627.178	40913.6629
627.379	40505.79713
627.58	40199.66658
627.78	40019.8229
627.981	40702.42848
628.182	40509.93569
628.382	40342.35957
628.583	40706.56918
628.784	40414.76007
628.984	39916.50108
629.185	40315.4714
629.386	40284.44889
629.586	40884.66284
629.787	40342.35957
629.987	40656.88372
630.188	40890.87695
630.388	39961.95941
630.589	39829.73112
630.79	40582.36776
630.99	41004.82075
631.191	40911.59139
631.391	40878.44884
631.591	40818.38551
631.792	40300.99392
631.992	40406.48504
632.193	40741.76702
632.393	40758.33185
632.594	40975.81353
632.794	40940.59356
632.994	40971.66983
633.195	41222.44826
633.395	40737.62593
633.595	40592.71633
633.796	40640.32335
633.996	40955.09549
634.196	41203.78937
634.397	41040.04688
634.597	40356.83859
634.797	41440.20689
634.997	40646.5334
635.198	40776.96816
635.398	40433.37954
635.598	41431.90889
635.798	40752.11996
635.998	40969.598
636.199	41552.24881
636.399	41460.95272
636.599	41386.27337
636.799	41874.04903
636.999	40899.16259
637.199	40853.59387
637.399	41187.2045
637.599	41017.25312
637.799	40445.79301
637.999	41011.03688
638.199	40723.13246
638.399	40503.72786
638.599	40718.99157
638.799	41120.87258
638.999	41158.18279
639.199	41324.0525
639.399	41234.88806
639.599	41643.56849
639.799	40770.75596
639.999	41110.50931
640.199	41367.60597
640.399	41409.0904
640.599	39891.70777
640.799	41608.28308
640.998	41589.604
641.198	41189.27756
641.398	41195.49684
641.598	41112.58194
641.798	40731.41437
641.997	40683.79587
642.197	40582.36776
642.397	40979.95728
642.597	40681.72563
642.796	41214.1553
642.996	41033.83026
643.196	41452.65424
643.395	41674.70562
643.595	41554.32399
643.795	41332.34799
643.994	41525.27251
644.194	41670.55385
644.394	41909.36136
644.593	41006.89278
644.793	41066.98679
644.992	40863.94991
645.192	40814.24357
645.392	41125.01797
645.591	41463.02737
645.791	41286.72516
645.99	41734.91193
646.19	41210.00889
646.389	41122.94527
646.589	41901.05225
646.788	41543.94819
646.987	41394.5703
647.187	41570.92591
647.386	41755.67513
647.586	42100.52616
647.785	41732.83568
647.984	42071.429
648.184	41712.07384
648.383	41793.05201
648.582	42433.24222
648.782	42603.88665
648.981	42246.04925
649.18	42067.27246
649.38	42100.52616
649.579	41871.97195
649.778	42462.37048
649.977	42764.2055
650.177	42479.01634
650.376	42427.00078
650.575	41292.94612
650.774	41539.79795
650.973	41593.75482
651.173	41498.29828
651.372	41537.72286
651.571	41915.59332
651.77	41716.22611
651.969	41680.93338
652.168	41743.21706
652.367	41606.20758
652.566	41834.58658
652.765	42067.27246
652.964	41957.1426
653.163	42042.3343
653.362	42187.83255
653.561	41944.67729
653.76	41979.99684
653.959	42171.20104
654.158	42308.43538
654.357	41909.36136
654.556	42108.8401
654.755	42410.35751
654.954	42470.69331
655.153	42556.01418
655.352	42237.73197
655.551	42526.87778
655.749	42167.04328
655.948	42662.17546
656.147	42258.52556
656.346	42753.79283
656.545	42599.72356
656.743	42298.03689
656.942	42329.23331
657.141	42722.55679
657.34	42383.31394
657.538	42225.25642
657.737	41672.62973
657.936	42678.83129
658.135	41847.04793
658.333	41857.43272
658.532	41984.15232
658.731	41813.81868
658.929	42088.05565
659.128	42065.19421
659.326	42046.49054
659.525	42551.85169
659.724	41855.35573
659.922	42202.38579
660.121	41745.29338
660.319	41730.75944
660.518	41753.59876
660.716	41905.20678
660.915	41788.89882
661.113	41998.69689
661.312	42252.28734
661.51	42739.21565
661.709	42308.43538
661.907	42302.19625
662.105	42889.18309
662.304	42751.71034
662.502	42248.1286
662.701	42273.08183
662.899	41774.36307
663.097	41749.44604
663.296	42285.55913
663.494	42658.01164
663.692	42146.25529
663.891	41863.66374
664.089	41774.36307
664.287	41726.607
664.485	41932.21243
664.684	42522.71564
664.882	42506.06762
665.08	42445.72546
665.278	42903.7669
665.476	42832.93732
665.675	41925.98017
665.873	42027.78788
666.071	42320.91398
666.269	42112.99714
666.467	41712.07384
666.665	42308.43538
666.863	42133.7831
667.061	41936.36733
667.259	41840.8172
667.457	42219.01882
667.655	41510.74767
667.853	41815.89541
668.051	41626.96315
668.249	41741.14076
668.447	41577.15183
668.645	41189.27756
668.843	41245.25488
669.041	41419.46226
669.239	40646.5334
669.437	41048.33587
669.635	41483.77454
669.833	41290.87246
670.031	41317.83101
670.229	41452.65424
670.426	41361.38373
670.624	41066.98679
670.822	41326.12636
671.02	41782.66914
671.218	41863.66374
671.415	41915.59332
671.613	41842.8941
671.811	41936.36733
672.009	42002.85259
672.206	41388.34759
672.404	41307.4621
672.602	41127.09068
672.799	41460.95272
672.997	41624.88754
673.195	41992.46343
673.392	42291.79795
673.59	41830.4329
673.788	41705.84552
673.985	40967.52618
674.183	41313.68341
674.38	41585.45323
674.578	41498.29828
674.775	41761.90433
674.973	41508.67274
675.17	41203.78937
675.368	41033.83026
675.565	41496.22342
675.763	41583.37786
675.96	40681.72563
676.158	40743.83759
676.355	40547.18475
676.553	41826.27927
676.75	41187.2045
676.947	41091.85617
677.145	41149.8913
677.342	41326.12636
677.539	40973.74168
677.737	41286.72516
677.934	40518.21294
678.131	40868.0924
678.329	41013.10895
678.526	40644.46338
678.723	41234.88806
678.92	41716.22611
679.118	41471.32609
679.315	41212.08209
679.512	41508.67274
679.709	41639.41708
679.906	40919.87749
680.104	41220.37501
680.301	41348.93955
680.498	41058.69738
680.695	40797.67626
680.892	40785.25126
681.089	40845.30925
681.286	40652.74356
681.483	39941.2959
681.68	40061.15908
681.877	39674.83051
682.075	40663.09405
682.272	40590.64659
682.469	41243.1815
682.665	40222.41125
682.862	40609.27461
683.059	40389.93552
683.256	40108.70098
683.453	39858.65239
683.65	39468.38604
683.847	40307.19849
684.044	40019.8229
684.241	40449.93092
684.438	40805.95982
684.635	39844.1915
684.831	40238.95366
685.028	39548.88732
685.225	39697.54563
685.422	39379.6459
685.619	39705.80598
685.815	39619.08048
686.012	40379.59242
686.209	39840.05991
686.405	39652.11663
686.602	39493.15403
686.799	39313.61865
686.996	39780.15658
687.192	39536.50151
687.389	39059.91958
687.586	38631.22619
687.782	39441.55568
687.979	39348.69437
688.175	39346.63101
688.372	39259.97894
688.568	39435.3643
688.765	39429.173
688.962	39394.09071
689.158	39614.95114
689.355	39466.32211
689.551	39474.5779
689.748	39222.84763
689.944	39125.90851
690.14	39121.78391
690.337	39243.47574
690.533	39691.35047
690.73	39495.2181
690.926	39687.22042
691.123	39183.6569
691.319	39175.40666
691.515	38998.06384
691.712	38419.08646
691.908	39047.54775
692.104	38798.12162
692.301	38734.24098
692.497	38287.31848
692.693	38804.30409
692.889	38495.28115
693.086	38194.69025
693.282	38476.7462
693.478	38264.67443
693.674	38110.31059
693.87	38143.23755
694.067	38394.37725
694.263	38798.12162
694.459	38645.6469
694.655	38789.87846
694.851	38198.80669
695.047	38392.31821
695.243	38104.13703
695.439	38155.58572
695.635	38209.09795
695.831	38186.45746
696.027	38046.5207
696.224	37846.97121
696.42	38369.6693
696.615	38678.61017
696.811	38186.45746
697.007	37966.28021
697.203	38427.32315
697.399	38445.8562
697.595	38396.43631
697.791	37993.02565
697.987	37988.91087
698.183	38114.42635
698.379	37610.48979
698.575	38431.44154
698.77	38237.91461
698.966	38534.41286
699.162	38806.36493
699.358	38196.74847
699.554	37986.8535
699.749	38046.5207
699.945	38431.44154
700.141	38227.62275
700.337	38460.27128
700.532	38382.02312
700.728	38190.57384
700.924	37719.46391
701.119	37563.20593
701.315	37596.09862
701.511	37259.04046
701.706	37853.1417
701.902	37713.29498
702.097	37760.59196
702.293	37764.70494
702.489	37143.993
702.684	37312.46311
702.88	37573.48468
703.075	37361.78075
703.271	37090.58576
703.466	37000.21519
703.662	37026.91417
703.857	37065.93789
704.053	37392.60645
704.248	37254.93123
704.443	37263.14972
704.639	37803.77982
704.834	37943.65054
705.03	37532.37082
705.225	37546.76032
705.42	37137.83038
705.616	36969.41014
705.811	36780.50632
706.006	37464.53963
706.202	37372.0558
706.397	37240.54916
706.592	37606.37799
706.787	37201.5139
706.983	37090.58576
707.178	37433.70999
707.373	36798.9835
707.568	36835.93951
707.763	36246.94794
707.959	36872.89771
708.154	37178.91573
708.349	36992.00035
708.544	36833.88634
708.739	36942.71369
708.934	36544.4561
709.129	36314.64525
709.324	35822.44777
709.519	36550.61284
709.714	36392.60799
709.909	36819.51435
710.104	36185.41065
710.299	35955.71836
710.494	35592.86677
710.689	36039.79367
710.884	35986.4765
711.079	36571.13572
711.274	36255.15332
711.469	36642.97088
711.664	36066.45373
711.859	36017.23593
712.054	36164.89941
712.249	36004.93201
712.443	36107.47112
712.638	36111.57298
712.833	35496.5446
713.028	36263.3588
713.223	35707.64881
713.417	35892.15558
713.612	36226.43491
713.807	36840.04587
714.002	36091.06388
714.196	36216.17862
714.391	35861.40134
714.586	35779.39615
714.78	35488.3475
714.975	35416.62635
715.17	35480.15048
715.364	36285.92437
715.559	36236.69135
715.754	36511.62114
715.948	36000.83074
716.143	36195.66649
716.337	35890.10526
716.532	36006.98265
716.726	36068.50454
716.921	35586.7182
717.115	35912.65911
717.31	35859.3511
717.504	35756.84627
717.699	36187.4618
717.893	35871.65261
718.088	35740.44676
718.282	35555.97607
718.476	34773.45048
718.671	34415.18283
718.865	34972.08964
719.059	34929.08172
719.254	35142.09319
719.448	34593.27715
719.642	34558.47469
719.837	34376.2927
720.031	34613.74975
720.225	34228.93233
720.419	34378.33952
720.614	34237.1185
720.808	34378.33952
721.002	34568.71058
721.196	34503.20262
721.39	34568.71058
721.585	34896.31512
721.779	34695.64432
721.973	35072.4493
722.167	33962.91401
722.361	34153.21313
722.555	34435.65189
722.749	33776.73676
722.943	34202.3277
723.137	33735.82243
723.331	33911.76358
723.525	34216.65319
723.719	34400.85472
723.913	34509.34382
724.107	34157.30593
724.301	34370.15229
724.495	34067.26773
724.689	34421.3235
724.883	33735.82243
725.077	33905.62568
725.271	33774.69101
725.465	33514.90746
725.659	33408.55401
725.853	34061.12902
726.046	33969.05221
726.24	33715.36576
726.434	33279.71357
726.628	33954.7298
726.822	33392.19267
727.015	34122.5176
727.209	33226.54468
727.403	33594.67803
727.596	33613.0873
727.79	33905.62568
727.984	34159.35233
728.177	34699.73923
728.371	34687.45456
728.565	34009.97435
728.758	33997.69756
728.952	33829.92738
729.146	33754.23372
729.339	34294.42337
729.533	33692.86381
729.726	34415.18283
729.92	34085.68406
730.113	34116.3786
730.307	34030.43595
730.5	33791.05709
730.694	33678.54459
730.887	33709.22883
731.081	33823.78988
731.274	34050.89791
731.468	33324.70414
731.661	33535.361
731.854	33341.0647
732.048	33445.36774
732.241	33318.56898
732.435	33713.32012
732.628	33341.0647
732.821	33398.32815
733.014	33694.90942
733.208	33320.61403
733.401	33805.37758
733.594	33343.10979
733.788	33909.71761
733.981	33246.99402
734.174	33083.40717
734.367	33116.12312
734.56	33408.55401
734.754	33199.96097
734.947	33426.96075
735.14	33377.87665
735.333	33120.21266
735.526	32337.25111
735.719	32329.07578
735.912	32173.75109
736.105	32435.35773
736.298	32633.63074
736.491	32488.50096
736.684	32905.52623
736.877	33126.34699
737.07	32925.9713
737.263	32962.77308
737.456	32694.95675
737.649	33257.2188
737.842	33784.91978
738.035	33547.63327
738.228	32880.99249
738.421	33418.77995
738.614	32862.59242
738.807	33202.00585
739	32729.70912
739.192	32744.01913
739.385	33373.78639
739.578	33210.18542
739.771	33588.54166
739.964	33341.0647
740.156	33449.45821
740.349	33355.38035
740.542	33455.59395
740.735	33298.11863
740.927	32903.48174
741.12	32782.86118
741.313	32602.96854
741.505	33040.46854
741.698	32637.71907
741.891	32883.03695
742.083	33208.14052
742.276	32592.74792
742.468	33017.97736
742.661	32547.77791
742.854	32241.19321
743.046	31908.09135
743.239	32216.66854
743.431	31901.96113
743.624	31961.22065
743.816	32314.76905
744.009	32987.30808
744.201	32662.24928
744.393	32271.84947
744.586	32183.96945
744.778	32555.95419
744.971	32302.50622
745.163	32108.3548
745.355	31558.69497
745.548	31444.28382
745.74	31695.58674
745.932	32053.1783
746.125	32502.80901
746.317	32277.98079
746.509	31740.538
746.702	32024.56883
746.894	31812.05316
747.086	31485.14434
747.278	31781.40353
747.471	31889.70074
747.663	31515.79017
747.855	31783.44683
748.047	31881.52719
748.239	32038.87352
748.431	31830.44313
748.623	32196.23154
748.815	31805.9232
749.008	31509.66098
749.2	31630.20462
749.392	31634.29095
749.584	31250.20515
749.776	31248.1623
749.968	31133.76471
750.16	31272.67669
750.352	30929.49486
750.544	30917.23913
750.736	30443.38799
750.928	30890.68521
751.12	30917.23913
751.311	31378.90834
751.503	31364.60768
751.695	30978.51831
751.887	30796.72708
752.079	30958.09177
752.271	30943.79328
752.463	30733.40909
752.654	30998.94499
752.846	31546.43638
753.038	30778.3443
753.23	30759.96164
753.421	30741.57908
753.613	30371.90783
753.805	30608.81937
753.997	30694.60193
754.188	30666.00749
754.38	30606.77696
754.572	30606.77696
754.763	30314.72479
754.955	29965.51994
755.146	30412.75345
755.338	30402.542
755.53	30406.62658
755.721	30435.21875
755.913	30137.05491
756.104	30608.81937
756.296	30792.64201
756.487	30496.48851
756.679	30463.81117
756.87	29973.68809
757.062	29924.67946
757.253	30092.1283
757.445	29665.35278
757.636	30237.12075
757.827	30153.39199
758.019	30273.88034
758.21	29853.20971
758.401	29642.89225
758.593	29663.31091
758.784	29485.67211
758.975	30184.02424
759.167	30167.68701
759.358	29679.64592
759.549	29702.10667
759.74	29506.08996
759.932	29377.45932
760.123	29236.58293
760.314	29334.58337
760.505	29026.29841
760.696	28916.05656
760.888	28871.14408
761.079	28795.61059
761.27	28724.16131
761.461	28985.46774
761.652	29226.37469
761.843	28956.88652
762.034	29250.87451
762.225	28764.98931
762.416	29032.42305
762.607	28918.09805
762.798	28638.42385
762.989	28558.81216
763.18	28793.56917
763.371	28697.62333
763.562	28609.84511
763.753	28946.67899
763.944	28838.48078
764.135	28711.91299
764.326	29336.62507
764.517	28865.01969
764.708	28820.10778
764.899	28097.50465
765.089	27721.9688
765.28	27907.6909
765.471	28075.05305
765.662	27511.76777
765.853	27866.87203
766.043	27213.83561
766.234	27305.66109
766.425	27111.81045
766.615	27728.09135
766.806	27662.78468
766.997	28236.29931
767.187	27858.70831
767.378	27919.93666
767.569	27581.15309
767.759	28046.47849
767.95	27968.92007
768.141	27260.7683
768.331	27240.3627
768.522	27350.55451
768.712	27387.28595
768.903	27466.87214
769.093	27085.28446
769.284	26685.38302
769.474	27046.51612
769.665	27007.74829
769.855	26909.81073
770.046	27605.64236
770.236	26789.43366
770.426	26481.37363
770.617	26734.34754
770.807	26699.66425
770.998	27095.48674
771.188	26993.46552
771.378	27056.71827
771.569	26569.09577
771.759	27011.82909
771.949	26869.00438
772.139	26840.44028
772.33	26154.99198
772.52	26199.86692
772.71	26318.17751
772.9	26230.46394
773.09	25838.85183
773.281	26358.97556
773.471	26367.13525
773.661	26059.12559
773.851	25700.17205
774.041	25518.67824
774.231	25567.61884
774.421	25579.85417
774.611	25751.15624
774.802	25278.07082
774.992	25569.65806
775.182	25789.90502
775.372	25965.3027
775.562	26022.41184
775.752	25704.25074
775.942	25549.26598
776.131	25278.07082
776.321	25059.91865
776.511	25541.10921
776.701	25414.68334
776.891	25445.26952
777.081	25284.18759
777.271	25290.30439
777.461	25512.56075
777.651	25186.32152
777.84	25559.46199
778.03	25202.63218
778.22	24998.75907
778.41	24957.98716
778.599	24786.75531
778.789	24878.48459
778.979	24892.75402
779.169	24874.40764
779.358	24772.48675
779.548	25494.20837
779.738	25282.14867
779.927	24644.07501
780.117	24766.37168
780.307	24644.07501
780.496	24531.97754
780.686	24564.58693
780.875	24315.95695
781.065	24397.47073
781.254	23981.79559
781.444	24295.57917
781.633	24613.50222
781.823	24617.57856
782.012	24277.23939
782.202	24501.40683
782.391	24150.90462
782.581	24055.14173
782.77	24057.17917
782.96	23902.34142
783.149	22987.93098
783.338	23272.97975
783.528	23482.73449
783.717	23749.55728
783.906	23873.82047
784.096	23499.02752
784.285	23753.63131
784.474	24053.10429
784.663	23529.57746
784.853	23596.78978
785.042	23708.81764
785.231	23741.40926
785.42	23792.33518
785.61	23778.07574
785.799	23511.24741
785.988	23224.1097
786.177	22955.35811
786.366	22902.42903
786.555	22584.90334
786.744	22670.38269
786.933	22702.94789
787.122	23091.76271
787.312	23146.73594
787.501	23114.15892
787.69	22896.32198
787.879	23049.00742
788.068	22572.69252
788.257	22880.03665
788.445	22566.58715
788.634	22680.55922
788.823	22222.70392
789.012	22066.05821
789.201	22302.05236
789.39	21980.62449
789.579	22116.91478
789.768	22413.96347
789.957	22377.3368
790.145	22625.60702
790.334	22875.96535
790.523	22898.35766
790.712	22894.2863
790.9	22102.6747
791.089	21874.8587
791.278	22029.44295
791.467	22090.46907
791.655	22271.53306
791.844	21740.63248
792.033	21640.99062
792.221	21592.18988
792.41	21817.91219
792.599	21073.82384
792.787	21933.8422
792.976	21946.04608
793.164	21968.42022
793.353	21626.75684
793.541	21645.05746
793.73	21604.38986
793.918	21657.25804
794.107	21287.23701
794.295	21765.03599
794.484	21577.95676
794.672	21577.95676
794.861	21342.12189
795.049	21712.16242
795.238	21527.12576
795.426	21655.2246
795.614	21417.33926
795.803	21423.4382
795.991	21388.87799
796.179	21429.53718
796.368	21665.39184
796.556	21163.24867
796.744	21295.36792
796.932	21413.27331
797.121	21307.5644
797.309	21273.00807
797.497	21262.84467
797.685	20941.73346
797.874	21000.66395
798.062	20559.78565
798.25	20659.32173
798.438	21083.98536
798.626	21092.11464
798.814	20888.90217
799.002	20312.00475
799.19	21000.66395
799.378	20860.45571
799.566	20752.77287
799.755	20636.97603
799.943	20846.23278
800.131	21283.17158
800.318	21041.30768
800.506	20758.86781
800.694	20876.71073
800.882	20634.94463
801.07	20677.60496
801.258	20474.47699
801.446	20515.09924
801.634	20236.87042
801.822	20218.59537
802.01	20537.4422
802.197	20856.39199
802.385	20496.81902
802.573	20665.41611
802.761	20634.94463
802.949	20890.93409
803.136	20549.62947
803.324	20498.85014
803.512	20925.47738
803.699	20608.53677
803.887	20604.47408
804.075	20827.94646
804.262	20454.1665
804.45	20555.72317
804.638	20348.55866
804.825	20200.32066
805.013	20307.94329
805.201	20356.68194
805.388	20133.31632
805.576	20498.85014
805.763	20370.89783
805.951	20604.47408
806.138	20202.35117
806.326	20334.34309
806.513	20322.15848
806.701	20624.78767
806.888	20427.76347
807.075	20630.88183
807.263	20348.55866
807.45	20439.9494
807.638	20336.37387
807.825	20874.67884
808.012	20994.56754
808.2	20630.88183
808.387	20645.10168
808.574	20953.92569
808.761	20734.48826
808.949	20748.70959
809.136	20535.411
809.323	20411.51581
809.51	20448.07343
809.698	20401.36116
809.885	20318.09697
810.072	20429.79445
810.259	20655.25884
810.446	20657.29029
810.633	20590.25482
810.82	20626.81906
811.008	20322.15848
811.195	20458.22856
811.382	20405.42301
811.569	20943.76549
811.756	20665.41611
811.943	21098.21165
812.13	20665.41611
812.317	20474.47699
812.504	20689.79396
812.691	20716.20399
812.878	20787.31138
813.064	20529.31743
813.251	20427.76347
813.438	20592.28613
813.625	20318.09697
813.812	20196.25966
813.999	20153.62018
814.186	19847.07662
814.372	20117.07353
814.559	20301.85112
814.746	19989.17098
814.933	19995.2612
815.12	20159.71142
815.306	20283.57487
815.493	20155.65059
815.68	20212.50376
815.866	20005.41165
816.053	20271.39088
816.24	20247.02337
816.426	20206.4122
816.613	20196.25966
816.799	20226.71757
816.986	20596.34876
817.173	20679.63645
817.359	20559.78565
817.546	20561.8169
817.732	20141.43781
817.919	20492.7568
818.105	20218.59537
818.292	20253.11519
818.478	19731.38641
818.665	20216.56483
818.851	20084.58876
819.037	19719.20929
819.224	19761.82988
819.41	19733.41595
819.597	19666.44349
819.783	19625.85634
819.969	19571.06635
820.156	19579.18319
820.342	19698.91442
820.528	19849.10639
820.714	19528.45401
820.901	20017.59233
821.087	19562.94957
821.273	19847.07662
821.459	20013.53209
821.646	20064.28633
821.832	19936.39067
822.018	20009.47186
822.204	19400.628
822.39	19806.48201
822.576	19859.25533
822.762	19836.92781
822.948	19422.94564
823.134	19615.70982
823.32	19061.86691
823.507	18994.93958
823.693	19329.62066
823.879	19199.79174
824.065	19136.91191
824.25	18980.74344
824.436	19439.17696
824.622	19358.02299
824.808	18869.20921
824.994	19169.36553
825.18	18936.12829
825.366	19138.94023
825.552	18956.40766
825.738	19189.64957
825.923	18915.84932
826.109	19339.76426
826.295	18702.94422
826.481	18670.50537
826.667	18644.14954
826.852	18481.9743
827.038	18494.13659
827.224	18579.27647
827.409	18640.09486
827.595	18769.85254
827.781	18287.39634
827.966	18909.76571
828.152	18402.9228
828.338	18640.09486
828.523	18617.79438
828.709	18840.82061
828.894	18538.73282
829.08	18441.43434
829.266	18546.84143
829.451	18660.36844
829.637	18163.77618
829.822	18163.77618
830.008	18234.70409
830.193	18421.16494
830.378	18384.68096
830.564	18492.10953
830.749	18636.04019
830.935	18603.60341
831.12	18400.89591
831.305	18490.08248
831.491	18084.74748
831.676	17981.41054
831.861	17529.67027
832.047	17634.99394
832.232	17795.02195
832.417	18007.75045
832.602	17920.62841
832.788	18380.62726
832.973	18184.04084
833.158	18111.08977
833.343	17863.90127
833.528	18050.3008
833.714	18145.53829
833.899	18003.69811
834.084	18216.46506
834.269	17649.1728
834.454	17495.23941
834.639	17391.95231
834.824	17339.29923
835.009	17637.01948
835.194	17343.34939
835.379	17185.40183
835.564	17059.86629
835.749	17454.7337
835.934	17063.91566
836.119	16940.41488
836.304	16966.73388
836.489	17009.25015
836.674	17201.60076
836.859	17098.33571
837.044	17163.1286
837.228	17582.33101
837.413	17084.16265
837.598	17529.67027
837.783	16770.36409
837.968	17590.43285
838.152	17122.63271
838.337	17225.8995
838.522	16881.70485
838.707	16883.72929
838.891	16432.33642
839.076	16687.36942
839.261	16553.77641
839.445	16634.7407
839.63	16559.84861
839.815	16628.66825
839.999	16812.87513
840.184	16883.72929
840.368	17148.95491
840.553	17317.02354
840.737	17217.79987
840.922	16995.07793
841.106	16733.92691
841.291	16594.25811
841.475	16600.33044
841.66	16430.31248
841.844	16155.07466
842.029	15979.01967
842.213	16246.14231
842.397	16080.1993
842.582	16102.45932
842.766	15902.12547
842.951	15509.58486
843.135	15647.17251
843.319	15689.66355
843.504	15742.27208
843.688	15910.21951
843.872	15944.6194
844.056	15896.05495
844.241	15985.09035
844.425	15798.92818
844.609	15689.66355
844.793	15509.58486
844.977	15788.81096
845.161	15428.65236
845.346	15525.77147
845.53	15525.77147
845.714	15568.26153
845.898	15266.78942
846.082	15525.77147
846.266	15461.02526
846.45	15210.13777
846.634	14882.36622
846.818	15214.18431
847.002	15220.25413
847.186	15412.46596
847.37	15179.7887
847.554	15602.65848
847.738	15657.28939
847.922	15752.38918
848.106	15643.12576
848.29	15436.74557
848.473	15404.37277
848.657	15034.11306
848.841	14924.85557
849.025	15242.51012
849.209	14866.17973
849.392	15082.67168
849.576	14947.11181
849.76	15052.32256
849.944	15208.1145
850.127	14985.5543
850.311	14607.18961
850.495	14835.82998
850.678	14645.63439
850.862	14742.75646
851.046	14465.54728
851.229	14514.11107
851.413	14317.82717
851.596	14752.87322
851.78	14603.14277
851.964	15254.64977
852.147	14653.72798
852.331	14754.89657
852.514	14376.51151
852.698	14463.52377
852.881	14024.38136
853.065	14127.59837
853.248	14101.28871
853.431	13890.79701
853.615	13809.83111
853.798	13959.61458
853.982	13765.29789
854.165	14032.47703
854.348	14062.83545
854.532	14218.6675
854.715	13583.10068
854.898	13947.47053
855.081	13870.55596
855.265	14038.54876
855.448	13787.56468
855.631	14244.97561
855.814	14000.09412
855.997	14149.8601
856.181	13878.65241
856.364	13821.97628
856.547	13763.27362
856.73	13603.34614
856.913	13327.97627
857.096	13647.88495
857.279	13348.2265
857.462	13489.96698
857.645	13376.57615
857.828	13216.59242
858.011	13196.3394
858.194	13336.07641
858.377	12983.65444
858.56	13182.16201
858.743	13413.02453
858.926	13336.07641
859.109	13018.09277
859.292	12963.39591
859.475	12614.86416
859.658	12813.46649
859.841	12578.37996
860.023	12558.11009
860.206	12231.67466
860.389	12324.95998
860.572	12414.17562
860.755	12440.53228
860.937	12304.68183
861.12	12594.5954
861.303	12418.23056
861.486	12410.12065
861.668	12491.21503
861.851	12264.12343
862.034	12874.25222
862.216	12578.37996
862.399	12505.40547
862.581	12144.45932
862.764	11986.219
862.947	12375.6523
863.129	12087.66051
863.312	12304.68183
863.494	11799.5139
863.677	12270.20737
863.859	12197.1958
864.042	12071.43117
864.224	11789.36485
864.406	12120.1177
864.589	11718.31545
864.771	12134.31711
864.954	11769.06611
865.136	11773.12593
865.318	11460.41496
865.501	11574.15322
865.683	11578.21476
865.865	11738.61637
866.048	11580.24551
866.23	11434.00715
866.412	11484.78994
866.594	11606.64448
866.777	11446.19557
866.959	11576.18399
867.141	11631.01138
867.323	11470.57137
867.505	11411.66081
867.687	11425.88135
867.869	11240.97633
868.052	11462.44626
868.234	11108.84924
868.416	11511.19463
868.598	11641.16387
868.78	11718.31545
868.962	11669.58964
869.144	11511.19463
869.326	11204.39174
869.508	11568.06085
869.69	11419.78689
869.872	11566.03004
870.054	11338.519
870.236	11257.23508
870.417	11434.00715
870.599	11515.25675
870.781	11019.38369
870.963	10807.83363
871.145	11125.11345
871.327	10921.76049
871.508	10655.19516
871.69	11180.00013
871.872	10877.00782
872.054	11425.88135
872.235	10974.64292
872.417	11082.41843
872.599	10860.73275
872.78	11013.28299
872.962	11141.37698
873.144	11086.48483
873.325	11043.78548
873.507	11165.77099
873.689	10901.41905
873.87	11328.35939
874.052	10948.20266
874.233	11031.58478
874.415	11070.21898
874.596	11157.63983
874.778	10496.37813
874.959	10958.37222
875.141	10748.8214
875.322	10970.57531
875.503	11100.71688
875.685	11218.61948
875.866	11137.31116
876.048	11031.58478
876.229	10846.49145
876.41	10866.83599
876.592	10791.55538
876.773	10960.40609
876.954	10815.97247
877.136	10893.28216
877.317	10547.28932
877.498	10661.302
877.679	10484.15826
877.86	10832.24958
878.042	10610.40829
878.223	10771.20652
878.404	11064.1191
878.585	11013.28299
878.766	10581.90443
878.947	10844.45693
879.128	10583.9405
879.309	10767.1366
879.49	10803.76414
879.672	11198.29398
879.853	10872.93912
880.034	11180.00013
880.215	11125.11345
880.396	11080.38521
880.576	11007.18219
880.757	11074.2855
880.938	11123.08047
881.119	11222.68446
881.3	10935.99882
881.481	11200.32658
881.662	11143.40987
881.843	11053.95243
882.023	11377.12322
882.204	11080.38521
882.385	10492.30489
882.566	10783.41598
882.747	10980.74425
882.927	11163.73822
883.108	10860.73275
883.289	11173.90199
883.469	10872.93912
883.65	11055.98578
883.831	10822.07647
884.011	11112.91536
884.192	10856.66386
884.373	11080.38521
884.553	11157.63983
884.734	11055.98578
884.914	11023.45076
885.095	11218.61948
885.275	11007.18219
885.456	11360.86925
885.636	11072.25224
885.817	11202.35916
885.997	11151.54134
886.178	11198.29398
886.358	10632.80247
886.538	10881.07648
886.719	10874.97348
886.899	11251.13813
887.08	11409.62927
887.26	11454.32099
887.44	11214.55446
887.621	11362.90103
887.801	10899.38485
887.981	11210.48941
888.161	11287.71845
888.342	11399.4714
888.522	11100.71688
888.702	11112.91536
888.882	11013.28299
889.062	11027.51779
889.242	11196.26137
889.423	10913.62405
889.603	10858.69831
889.783	11035.65172
889.963	10728.47004
890.143	11230.81428
890.323	10879.04215
890.503	10966.50766
890.683	10795.62502
890.863	10885.14508
891.043	10954.30443
891.223	11141.37698
891.403	11003.11494
891.583	10956.33833
891.763	10836.31875
891.943	10913.62405
892.122	10756.96161
892.302	11123.08047
892.482	10807.83363
892.662	11084.45163
892.842	10907.5216
893.022	11043.78548
893.201	11051.91906
893.381	11214.55446
893.561	10952.27052
893.741	10933.96481
893.92	10704.04682
894.1	11177.96743
894.28	10624.6593
894.459	10968.54149
894.639	10653.15952
894.819	10620.58765
894.998	10822.07647
895.178	10913.62405
895.357	10465.8276
895.537	10815.97247
895.716	10809.86835
895.896	11110.88231
896.075	10695.90536
896.255	10746.78632
896.434	10551.36188
896.614	10767.1366
896.793	10421.01491
896.973	10508.59754
897.152	10571.72389
897.331	10636.87398
897.511	10657.23079
897.69	10640.94544
897.87	10600.22862
898.049	10567.65159
898.228	10278.3869
898.407	10184.62413
898.587	9974.57041
898.766	10363.97148
898.945	10066.35989
899.124	10276.34888
899.304	10372.12117
899.483	10384.34531
899.662	10086.75364
899.841	10050.04387
900.02	9817.44015
900.199	10180.54683
900.378	9678.60207
900.557	10041.88553
900.737	10164.23709
900.916	10408.79218
901.095	9954.16879
901.274	9911.32066
901.453	10021.48865
901.632	9968.45007
901.811	10131.61493
901.989	9984.77067
902.168	10001.09035
902.347	10298.76632
902.526	10019.44889
902.705	10052.08343
902.884	10035.76661
903.063	10396.56898
903.242	10239.66229
903.42	10276.34888
903.599	10211.12523
903.778	10086.75364
903.957	9819.48137
904.135	10180.54683
904.314	9609.15643
904.493	9682.68656
904.672	9498.82314
904.85	9600.98517
905.029	9453.85923
905.207	9652.05145
905.386	9468.16677
905.565	9774.57117
905.743	9921.52318
905.922	9310.73995
906.1	9175.7245
906.279	9325.0555
906.457	8987.39713
906.636	9457.94718
906.814	9204.37027
906.993	9134.79619
907.171	9255.51519
907.35	9142.9824
907.528	8936.1957
907.707	9052.91894
907.885	8671.81795
908.063	8962.82182
908.242	8739.4783
908.42	8844.00511
908.598	8708.72609
908.777	8825.56263
908.955	8864.49504
909.133	9016.06513
909.311	8620.54669
909.49	8813.26683
909.668	8456.39976
909.846	8696.42404
910.024	8526.177
910.202	8673.86856
910.38	8433.82004
910.559	8782.52448
910.737	8470.76746
910.915	8515.91702
911.093	8474.87235
911.271	8604.13743
911.449	8458.45234
911.627	8417.39696
911.805	8160.62457
911.983	8285.96778
912.161	7880.90181
912.339	8390.70684
912.517	8160.62457
912.695	8322.94029
912.872	8092.78508
913.05	8429.71438
913.228	8076.33585
913.406	8080.44828
913.584	8158.56915
913.762	8026.98041
913.939	7936.465
914.117	8066.05443
914.295	7672.91995
914.473	8026.98041
914.65	8055.7725
914.828	8220.22314
915.006	7975.55605
915.184	7936.465
915.361	7716.18131
915.539	7790.32207
915.716	7386.33362
915.894	7827.38228
916.072	7631.70997
916.249	7755.31454
916.427	7600.79692
916.604	7773.84869
916.782	7557.51058
916.959	7722.36075
917.137	7637.89201
917.314	7845.90986
917.492	7477.09656
917.669	7454.40976
917.847	7111.72417
918.024	7285.20705
918.201	7153.04381
918.379	7219.13675
918.556	6896.71751
918.733	7099.32653
918.911	6327.00055
919.088	6664.8976
919.265	6501.20851
919.442	6712.52689
919.62	6343.59887
919.797	6892.58037
919.974	6409.97721
920.151	6656.61301
920.328	6532.29981
920.506	6623.47095
920.683	6333.2251
920.86	6200.38915
921.037	6183.77791
921.214	6221.15109
921.391	6210.77042
921.568	6248.13811
921.745	6285.49822
921.922	6521.93663
922.099	6275.12117
922.276	6499.13557
922.453	5942.74584
922.63	6310.40074
922.807	6019.66116
922.984	6175.47173
923.161	6121.47238
923.338	6208.69421
923.514	5861.63799
923.691	5930.27004
923.868	5803.38458
924.045	5936.50805
924.222	5678.49354
924.399	5911.55476
924.575	5801.30376
924.752	6027.9744
924.929	5709.72426
925.105	5782.57531
925.282	5545.18281
925.459	5668.08211
925.635	5459.7299
925.812	5724.29678
925.989	5422.2015
926.165	5522.2603
926.342	5330.43336
926.518	5336.69172
926.695	5282.44559
926.871	5522.2603
927.048	5109.16961
927.224	5117.52393
927.401	4720.28636
927.577	5123.78944
927.754	4711.91461
927.93	4714.00758
928.107	4753.76974
928.283	4877.18948
928.459	4755.86226
928.636	4952.45737
928.812	4707.7286
928.988	4617.70763
929.165	4642.83394
929.341	4824.90266
929.517	4628.17731
929.693	4592.5781
929.87	4376.75188
930.046	4584.20088
930.222	4326.42892
930.398	4324.33186
930.574	4192.17381
930.751	4387.23426
930.927	4248.82336
931.103	4506.69472
931.279	4273.99595
931.455	4364.17231
931.631	3952.81843
931.807	4305.45734
931.983	3889.78586
932.159	4125.01363
932.335	3551.20919
932.511	3854.05938
932.687	3774.17948
932.863	3889.78586
933.039	3742.64015
933.215	4080.9281
933.391	3816.22508
933.566	4032.63344
933.742	3944.41513
933.918	3902.39382
934.094	3492.27622
934.27	3713.1995
934.445	3186.86551
934.621	3448.06713
934.797	2891.65909
934.973	3309.07332
935.148	3212.15449
935.324	3110.98448
935.5	2889.54941
935.675	2891.65909
935.851	2727.06194
936.027	2851.5727
936.202	2511.69999
936.378	2676.40019
936.553	2480.01867
936.729	2562.38475
936.904	2291.99353
937.08	2422.98602
937.255	2086.98301
937.431	2234.93683
937.606	1991.8503
937.782	2040.47543
937.957	1807.89227
938.133	1955.9078
938.308	1526.61123
938.483	1723.30188
938.659	1505.46083
938.834	1598.52171
939.009	1234.73929
939.185	1503.34579
939.36	1357.40765
939.535	1372.21285
939.71	1213.59042
939.886	1329.91245
940.061	1141.68685
940.236	1152.26062
940.411	1033.84112
940.586	1158.60493
940.761	1099.39286
940.937	1126.88374
941.112	974.63792
941.287	1040.18461
941.462	909.09773
941.637	1046.52815
941.812	790.72215
941.987	1059.21537
942.162	818.19972
942.337	841.45119
942.512	752.679
942.687	782.26784
942.862	778.04075
943.037	661.812
943.212	551.95569
943.386	661.812
943.561	659.69906
943.736	714.63918
943.911	761.13276
944.086	714.63918
944.26	668.15088
944.435	697.73371
944.61	642.79598
944.785	718.86566
944.959	797.06299
945.134	786.49498
945.309	718.86566
945.483	685.05508
945.658	636.45753
945.833	636.45753
946.007	678.71592
946.182	634.34474
946.357	545.61891
946.531	752.679
946.706	617.44283
946.88	704.07318
947.055	484.36986
947.229	820.31344
947.404	651.24742
947.578	617.44283
947.752	587.86644
947.927	790.72215
948.101	744.22541
948.276	720.97891
948.45	592.09148
948.624	704.07318
948.799	644.90883
948.973	661.812
949.147	668.15088
949.321	763.24622
949.496	712.52596
949.67	735.77199
949.844	744.22541
950.018	761.13276
950.193	587.86644
950.367	598.42915
950.541	575.19162
950.715	775.92721
950.889	573.07919
951.063	782.26784
951.237	539.28225
951.411	769.58667
951.585	797.06299
951.759	1048.64267
951.933	801.29026
952.107	900.64146
952.281	739.99868
952.455	813.9723
952.629	596.31658
952.803	761.13276
952.977	773.81369
953.151	775.92721
953.325	723.09218
953.499	794.94937
953.672	693.50746
953.846	803.40391
954.02	729.43204
954.194	748.45219
954.368	685.05508
954.541	847.79268
954.715	647.02168
954.889	892.18531
955.062	803.40391
955.236	731.54534
955.41	761.13276
955.583	1016.92543
955.757	832.99598
955.93	896.41337
956.104	858.36202
956.278	930.23896
956.451	879.50133
956.625	712.52596
956.798	693.50746
956.972	756.90586
957.145	718.86566
957.319	813.9723
957.492	710.41275
957.665	773.81369
957.839	672.37686
958.012	794.94937
958.185	592.09148
958.359	792.83576
958.532	659.69906
958.705	811.8586
958.879	693.50746
959.052	598.42915
959.225	651.24742
959.398	949.2667
959.572	708.29955
959.745	794.94937
959.918	682.94202
960.091	778.04075
960.264	566.742
960.438	695.62058
960.611	587.86644
960.784	752.679
960.957	568.85439
961.13	735.77199
961.303	600.54173
961.476	813.9723
961.649	723.09218
961.822	704.07318
961.995	689.28125
962.168	727.31874
962.341	668.15088
962.514	788.60856
962.686	577.30405
962.859	558.2926
963.032	518.16095
963.205	532.94571
963.378	564.62963
963.551	691.39435
963.723	583.64144
963.896	625.89368
964.069	518.16095
964.242	685.05508
964.414	541.39445
964.587	568.85439
964.76	486.48169
964.932	632.23195
965.105	592.09148
965.278	596.31658
965.45	549.84342
965.623	644.90883
965.795	587.86644
965.968	640.68315
966.14	581.52897
966.313	668.15088
966.485	490.7054
966.658	638.57033
966.83	482.25804
967.003	604.76693
967.175	509.71283
967.348	625.89368
967.52	488.59354
967.692	786.49498
967.865	486.48169
968.037	440.02485
968.209	440.02485
968.382	596.31658
968.554	484.36986
968.726	611.10482
968.898	473.81092
969.071	539.28225
969.243	499.153
969.415	397.79792
969.587	351.3559
969.759	503.37689
969.932	456.91739
970.104	520.27302
970.276	484.36986
970.448	448.471
970.62	473.81092
970.792	459.02903
970.964	425.2447
971.136	625.89368
971.308	558.2926
971.48	583.64144
971.652	410.46532
971.824	461.14068
971.996	366.13202
972.168	402.02032
972.339	435.80187
972.511	577.30405
972.683	418.91058
972.855	395.68674
973.027	364.02109
973.199	338.69132
973.37	292.26001
973.542	330.24862
973.714	389.35331
973.886	397.79792
974.057	315.47458
974.229	330.24862
974.401	266.93757
974.572	296.48068
974.744	317.58511
974.915	433.6904
975.087	245.8376
975.259	338.69132
975.43	332.35927
975.602	307.03267
975.773	283.8189
975.945	387.2422
976.116	321.80621
976.288	452.69416
976.459	290.14971
976.63	323.91679
976.802	323.91679
976.973	351.3559
977.145	285.92915
977.316	326.02738
977.487	296.48068
977.659	281.70867
977.83	245.8376
978.001	262.71742
978.172	313.36408
978.344	326.02738
978.515	288.03942
978.686	279.59846
978.857	178.33085
979.028	247.94751
979.2	201.53399
979.371	264.82749
979.542	180.44012
979.713	311.25359
979.884	231.06877
980.055	226.84928
980.226	178.33085
980.397	313.36408
980.568	222.62986
980.739	296.48068
980.91	241.61784
981.081	313.36408
981.252	157.23924
981.423	290.14971
981.594	169.89395
981.765	266.93757
981.936	203.64348
982.106	180.44012
982.277	237.39815
982.448	205.753
982.619	205.753
982.79	279.59846
982.96	195.20561
983.131	218.41053
983.302	309.14312
983.472	226.84928
983.643	222.62986
983.814	184.65873
983.984	220.52019
984.155	190.9868
984.326	205.753
984.496	195.20561
984.667	165.67563
984.837	182.54942
985.008	180.44012
985.178	247.94751
985.349	161.45739
985.519	190.9868
985.69	96.08559
985.86	197.31505
986.031	119.27966
986.201	144.58528
986.371	138.25859
986.542	153.02117
986.712	123.49705
986.882	136.14973
987.053	134.0409
987.223	119.27966
987.393	134.0409
987.563	70.78603
987.734	140.36746
987.904	205.753
988.074	110.84515
988.244	26.51971
988.414	70.78603
988.585	169.89395
988.755	148.80318
988.925	91.86877
989.095	199.42451
989.265	199.42451
989.435	110.84515
989.605	96.08559
989.775	169.89395
989.945	70.78603
990.115	108.73657
990.285	98.19403
990.455	56.02946
990.625	93.97717
990.795	142.47636
990.965	102.41098
991.134	96.08559
991.304	102.41098
991.474	123.49705
991.644	161.45739
991.814	172.00315
991.984	85.54372
992.153	87.65205
992.323	119.27966
992.493	26.51971
992.662	43.38186
992.832	60.24551
993.002	199.42451
993.171	68.67788
993.341	72.8942
993.511	199.42451
993.68	47.59764
993.85	112.95374
994.019	146.69422
994.189	62.35357
994.358	68.67788
994.528	62.35357
994.697	98.19403
994.867	28.62739
995.036	37.05838
995.206	68.67788
995.375	81.32712
995.544	45.48974
995.714	104.51949
995.883	-32.48582
996.052	98.19403
996.222	64.46165
996.391	43.38186
996.56	68.67788
996.73	53.92147
996.899	119.27966
997.068	98.19403
997.237	70.78603
997.406	51.8135
997.576	64.46165
997.745	77.11062
997.914	180.44012
998.083	28.62739
998.252	70.78603
998.421	60.24551
998.59	98.19403
998.759	102.41098
998.928	60.24551
999.097	58.13747
999.266	56.02946
999.435	9.65906
999.604	62.35357
999.773	47.59764
999.942	20.19678
1000.111	102.41098
1000.28	96.08559
1000.448	79.21886
1000.617	45.48974
1000.786	37.05838
1000.955	93.97717
1001.124	70.78603
1001.292	60.24551
1001.461	11.76656
1001.63	96.08559
1001.798	85.54372
1001.967	26.51971
1002.136	-17.73622
1002.304	129.82329
1002.473	96.08559
1002.642	32.84284
1002.81	47.59764
1002.979	34.9506
1003.147	47.59764
1003.316	87.65205
1003.484	70.78603
1003.653	39.16618
1003.821	9.65906
1003.99	87.65205
1004.158	62.35357
1004.327	9.65906
1004.495	1.22931
1004.663	85.54372
1004.832	30.7351
1005	9.65906
1005.168	-53.55456
1005.337	26.51971
1005.505	24.41204
1005.673	11.76656
1005.842	85.54372
1006.01	20.19678
1006.178	47.59764
1006.346	37.05838
1006.514	62.35357
1006.683	22.3044
1006.851	-55.66129
1007.019	45.48974
1007.187	18.08919
1007.355	60.24551
1007.523	93.97717
1007.691	15.98162
1007.859	98.19403
1008.027	72.8942
1008.195	20.19678
1008.363	20.19678
1008.531	37.05838
1008.699	98.19403
1008.867	-19.84338
1009.035	9.65906
1009.203	30.7351
1009.37	58.13747
1009.538	58.13747
1009.706	-15.62904
1009.874	-17.73622
1010.042	37.05838
1010.209	26.51971
1010.377	13.87408
1010.545	39.16618
1010.713	-32.48582
1010.88	58.13747
1011.048	5.44413
1011.216	104.51949
1011.383	72.8942
1011.551	127.71452
1011.718	43.38186
1011.886	70.78603
1012.054	60.24551
1012.221	22.3044
1012.389	32.84284
1012.556	5.44413
1012.724	34.9506
1012.891	26.51971
1013.058	-30.3788
1013.226	56.02946
1013.393	30.7351
1013.561	26.51971
1013.728	13.87408
1013.895	1.22931
1014.063	51.8135
1014.23	93.97717
1014.397	-7.20006
1014.565	41.27401
1014.732	-5.09275
1014.899	56.02946
1015.066	43.38186
1015.233	32.84284
1015.401	51.8135
1015.568	56.02946
1015.735	43.38186
1015.902	-32.48582
1016.069	39.16618
1016.236	-7.20006
1016.403	68.67788
1016.57	-24.05762
1016.737	28.62739
1016.904	47.59764
1017.071	3.33671
1017.238	18.08919
1017.405	9.65906
1017.572	-40.91361
1017.739	51.8135
1017.906	49.70556
1018.073	7.55158
1018.24	18.08919
1018.407	26.51971
1018.573	-40.91361
1018.74	53.92147
1018.907	45.48974
1019.074	-28.27177
1019.241	28.62739
1019.407	13.87408
1019.574	-5.09275
1019.741	70.78603
1019.907	22.3044
1020.074	26.51971
1020.241	-47.2342
1020.407	11.76656
1020.574	-40.91361
1020.74	87.65205
1020.907	-15.62904
1021.073	11.76656
1021.24	-7.20006
1021.406	26.51971
1021.573	77.11062
1021.739	77.11062
1021.906	30.7351
1022.072	-49.34101
1022.239	-40.91361
1022.405	11.76656
1022.571	18.08919
1022.738	28.62739
1022.904	37.05838
1023.07	30.7351
1023.237	22.3044
1023.403	-7.20006
1023.569	47.59764
1023.735	-24.05762
1023.902	1.22931
1024.068	45.48974
1024.234	70.78603
1024.4	-47.2342
1024.566	1.22931
1024.732	62.35357
1024.898	18.08919
1025.065	5.44413
1025.231	60.24551
1025.397	1.22931
1025.563	110.84515
1025.729	1.22931
1025.895	15.98162
1026.061	-17.73622
1026.227	18.08919
1026.392	34.9506
1026.558	-7.20006
1026.724	-19.84338
1026.89	28.62739
1027.056	37.05838
1027.222	45.48974
1027.388	39.16618
1027.553	-40.91361
1027.719	-30.3788
1027.885	-32.48582
1028.051	-13.52183
1028.216	-15.62904
1028.382	58.13747
1028.548	-13.52183
1028.713	13.87408
1028.879	68.67788
1029.045	-38.8067
1029.21	18.08919
1029.376	22.3044
1029.541	34.9506
1029.707	136.14973
1029.873	28.62739
1030.038	-5.09275
1030.204	-40.91361
1030.369	-7.20006
1030.534	-15.62904
1030.7	3.33671
1030.865	-55.66129
1031.031	79.21886
1031.196	-26.16471
1031.361	-2.98542
1031.527	51.8135
1031.692	77.11062
1031.857	28.62739
1032.023	15.98162
1032.188	34.9506
1032.353	-7.20006
1032.518	9.65906
1032.684	115.06236
1032.849	-5.09275
1033.014	-38.8067
1033.179	32.84284
1033.344	34.9506
1033.509	-45.12736
1033.674	96.08559
1033.839	41.27401
1034.004	56.02946
1034.17	47.59764
1034.335	-24.05762
1034.5	-2.98542
1034.664	-11.4146
1034.829	51.8135
1034.994	79.21886
1035.159	-66.19459
1035.324	45.48974
1035.489	20.19678
1035.654	-83.04654
1035.819	11.76656
1035.984	43.38186
1036.148	5.44413
1036.313	32.84284
1036.478	3.33671
1036.643	-32.48582
1036.807	-13.52183
1036.972	64.46165
1037.137	9.65906
1037.301	-55.66129
1037.466	70.78603
1037.631	-13.52183
1037.795	-15.62904
1037.96	11.76656
1038.124	-43.0205
1038.289	53.92147
1038.454	-15.62904
1038.618	5.44413
1038.783	22.3044
1038.947	3.33671
1039.111	121.38835
1039.276	47.59764
1039.44	41.27401
1039.605	-51.44779
1039.769	13.87408
1039.933	43.38186
1040.098	-15.62904
1040.262	60.24551
1040.426	22.3044
1040.591	49.70556
1040.755	49.70556
1040.919	24.41204
1041.083	-7.20006
1041.248	24.41204
1041.412	-13.52183
1041.576	87.65205
1041.74	-2.98542
1041.904	-7.20006
1042.068	41.27401
1042.232	30.7351
1042.397	3.33671
1042.561	-24.05762
1042.725	-9.30734
1042.889	-45.12736
1043.053	9.65906
1043.217	-26.16471
1043.381	24.41204
1043.544	-30.3788
1043.708	9.65906
1043.872	-74.62077
1044.036	-7.20006
1044.2	-2.98542
1044.364	30.7351
1044.528	24.41204
1044.691	-40.91361
1044.855	41.27401
1045.019	1.22931
1045.183	-49.34101
1045.346	1.22931
1045.51	-15.62904
1045.674	-15.62904
1045.837	-21.95051
1046.001	26.51971
1046.165	56.02946
1046.328	22.3044
1046.492	34.9506
1046.655	5.44413
1046.819	-19.84338
1046.983	-38.8067
1047.146	-5.09275
1047.31	1.22931
1047.473	68.67788
1047.636	-40.91361
1047.8	-24.05762
1047.963	13.87408
1048.127	-36.69976
1048.29	7.55158
