Data from mixed_try1_USB4F045381__25__00090.txt Node

Date: Thu Apr 03 19:53:32 EDT 2025
User: mmckonesweet
Spectrometer: USB4F04538
Trigger mode: 4
Integration Time (sec): 2.700000E-3
Scans to average: 1
Electric dark correction enabled: true
Nonlinearity correction enabled: true
Boxcar width: 0
XAxis mode: Wavelengths
Number of Pixels in Spectrum: 3648
>>>>>Begin Spectral Data<<<<<
345.52	-104.63569
345.736	-104.63569
345.952	-104.63569
346.168	-62.50801
346.384	-100.42339
346.6	32.3159
346.816	-1.40491
347.032	-24.5844
347.248	49.17857
347.464	82.90833
347.68	21.7775
347.896	4.91728
348.112	-3.51226
348.328	-41.44034
348.544	-79.36032
348.76	38.63923
348.975	-79.36032
349.191	21.7775
349.407	15.45473
349.623	-75.1474
349.839	-33.01256
350.055	-41.44034
350.27	-54.08124
350.486	-64.61464
350.702	-1.40491
350.918	-73.04089
351.133	-54.08124
351.349	-47.7609
351.565	-37.2265
351.781	-70.93437
351.996	-26.69148
352.212	-7.72688
352.428	-37.2265
352.644	47.07066
352.859	2.80986
353.075	-33.01256
353.291	9.13219
353.506	-94.10474
353.722	-39.33343
353.938	-96.21098
354.153	15.45473
354.369	-7.72688
354.584	-60.40135
354.8	15.45473
355.016	-49.86771
355.231	-60.40135
355.447	-125.6956
355.662	-9.83416
355.878	-28.79853
356.093	-28.79853
356.309	-85.67951
356.524	2.80986
356.74	0.70246
356.955	7.02472
357.171	-39.33343
357.386	-54.08124
357.602	-35.11954
357.817	-20.37016
358.033	-7.72688
358.248	57.61047
358.464	53.39447
358.679	-37.2265
358.895	13.34719
359.11	-1.40491
359.325	4.91728
359.541	-45.65407
359.756	-45.65407
359.972	44.96277
360.187	-64.61464
360.402	-58.29468
360.618	-18.26301
360.833	38.63923
361.048	-18.26301
361.264	-39.33343
361.479	38.63923
361.694	15.45473
361.909	17.5623
362.125	-30.90556
362.34	-70.93437
362.555	-37.2265
362.77	-60.40135
362.986	-20.37016
363.201	-87.78586
363.416	55.50246
363.631	-3.51226
363.847	-41.44034
364.062	-20.37016
364.277	-35.11954
364.492	0.70246
364.707	30.20817
364.922	-37.2265
365.138	-1.40491
365.353	-14.04863
365.568	9.13219
365.783	-37.2265
365.998	-60.40135
366.213	-26.69148
366.428	-51.97449
366.643	-18.26301
366.858	-104.63569
367.073	-35.11954
367.288	-11.94141
367.503	-60.40135
367.718	-24.5844
367.933	9.13219
368.148	-39.33343
368.363	-11.94141
368.578	-20.37016
368.793	59.7185
369.008	-1.40491
369.223	7.02472
369.438	-70.93437
369.653	-100.42339
369.868	-28.79853
370.083	-16.15583
370.298	-20.37016
370.513	0.70246
370.728	21.7775
370.943	-49.86771
371.157	-1.40491
371.372	-45.65407
371.587	-102.52955
371.802	-49.86771
372.017	-54.08124
372.232	-39.33343
372.446	-37.2265
372.661	-18.26301
372.876	-7.72688
373.091	4.91728
373.306	-33.01256
373.52	-58.29468
373.735	-60.40135
373.95	21.7775
374.165	-18.26301
374.379	-20.37016
374.594	0.70246
374.809	-35.11954
375.023	-18.26301
375.238	-35.11954
375.453	-20.37016
375.667	-58.29468
375.882	-96.21098
376.097	-62.50801
376.311	23.88513
376.526	9.13219
376.741	-24.5844
376.955	-68.82782
377.17	51.28651
377.384	-79.36032
377.599	-54.08124
377.813	-9.83416
378.028	-26.69148
378.242	-75.1474
378.457	-33.01256
378.672	-49.86771
378.886	-89.89218
379.101	21.7775
379.315	-30.90556
379.53	-28.79853
379.744	-41.44034
379.958	-26.69148
380.173	49.17857
380.387	-47.7609
380.602	-68.82782
380.816	-24.5844
381.031	-22.47729
381.245	7.02472
381.459	-18.26301
381.674	38.63923
381.888	-37.2265
382.103	-62.50801
382.317	-66.72124
382.531	-16.15583
382.746	-79.36032
382.96	-56.18797
383.174	-85.67951
383.388	-62.50801
383.603	-30.90556
383.817	-28.79853
384.031	-16.15583
384.246	13.34719
384.46	17.5623
384.674	-49.86771
384.888	2.80986
385.103	74.47535
385.317	-28.79853
385.531	-24.5844
385.745	-20.37016
385.959	-37.2265
386.174	-41.44034
386.388	15.45473
386.602	7.02472
386.816	-33.01256
387.03	-18.26301
387.244	-16.15583
387.458	-7.72688
387.672	-18.26301
387.887	-18.26301
388.101	-33.01256
388.315	-3.51226
388.529	-102.52955
388.743	25.99279
388.957	63.93463
389.171	-110.95394
389.385	-3.51226
389.599	-3.51226
389.813	15.45473
390.027	-37.2265
390.241	-24.5844
390.455	-79.36032
390.669	-70.93437
390.883	23.88513
391.097	-49.86771
391.311	-22.47729
391.525	-14.04863
391.738	-18.26301
391.952	15.45473
392.166	-43.54722
392.38	-26.69148
392.594	-49.86771
392.808	-96.21098
393.022	25.99279
393.236	13.34719
393.449	-41.44034
393.663	13.34719
393.877	-20.37016
394.091	-123.58973
394.305	-117.27196
394.518	-7.72688
394.732	-26.69148
394.946	-16.15583
395.16	-73.04089
395.373	-35.11954
395.587	-26.69148
395.801	72.36716
396.015	-117.27196
396.228	-3.51226
396.442	-49.86771
396.656	34.42366
396.869	4.91728
397.083	-87.78586
397.297	-37.2265
397.51	13.34719
397.724	-54.08124
397.938	-64.61464
398.151	-100.42339
398.365	-41.44034
398.578	-28.79853
398.792	-11.94141
399.005	-14.04863
399.219	74.47535
399.433	-18.26301
399.646	-11.94141
399.86	-11.94141
400.073	-1.40491
400.287	-7.72688
400.5	-87.78586
400.714	-28.79853
400.927	7.02472
401.141	-33.01256
401.354	-64.61464
401.567	-9.83416
401.781	-62.50801
401.994	-54.08124
402.208	21.7775
402.421	-33.01256
402.635	21.7775
402.848	-28.79853
403.061	-3.51226
403.275	7.02472
403.488	-75.1474
403.701	-54.08124
403.915	0.70246
404.128	0.70246
404.341	-18.26301
404.555	-94.10474
404.768	30.20817
404.981	0.70246
405.195	4.91728
405.408	13.34719
405.621	-37.2265
405.834	4.91728
406.048	23.88513
406.261	9.13219
406.474	13.34719
406.687	-20.37016
406.9	0.70246
407.114	-41.44034
407.327	-45.65407
407.54	-104.63569
407.753	59.7185
407.966	-24.5844
408.179	4.91728
408.392	-28.79853
408.605	17.5623
408.819	-1.40491
409.032	40.74705
409.245	-7.72688
409.458	-26.69148
409.671	38.63923
409.884	21.7775
410.097	47.07066
410.31	-9.83416
410.523	-58.29468
410.736	17.5623
410.949	38.63923
411.162	-58.29468
411.375	0.70246
411.588	-7.72688
411.801	15.45473
412.014	21.7775
412.227	-104.63569
412.44	-18.26301
412.653	47.07066
412.865	-20.37016
413.078	-11.94141
413.291	36.53143
413.504	-49.86771
413.717	9.13219
413.93	-68.82782
414.143	2.80986
414.356	-41.44034
414.568	-37.2265
414.781	-22.47729
414.994	-70.93437
415.207	4.91728
415.42	-33.01256
415.632	-37.2265
415.845	21.7775
416.058	38.63923
416.271	13.34719
416.483	-51.97449
416.696	23.88513
416.909	-49.86771
417.121	-77.25387
417.334	-24.5844
417.547	51.28651
417.759	-20.37016
417.972	-28.79853
418.185	4.91728
418.397	-20.37016
418.61	-37.2265
418.823	-51.97449
419.035	-20.37016
419.248	21.7775
419.46	-45.65407
419.673	47.07066
419.885	13.34719
420.098	23.88513
420.311	15.45473
420.523	-18.26301
420.736	4.91728
420.948	23.88513
421.161	-11.94141
421.373	-11.94141
421.586	-49.86771
421.798	-24.5844
422.01	-37.2265
422.223	-11.94141
422.435	55.50246
422.648	-73.04089
422.86	42.8549
423.073	-60.40135
423.285	-68.82782
423.497	-16.15583
423.71	-35.11954
423.922	63.93463
424.134	-37.2265
424.347	-60.40135
424.559	-24.5844
424.771	0.70246
424.984	-45.65407
425.196	7.02472
425.408	-35.11954
425.621	-7.72688
425.833	-1.40491
426.045	-5.61958
426.257	15.45473
426.47	-26.69148
426.682	-1.40491
426.894	32.3159
427.106	-41.44034
427.318	0.70246
427.531	-70.93437
427.743	0.70246
427.955	13.34719
428.167	-14.04863
428.379	-51.97449
428.591	57.61047
428.804	-83.57314
429.016	-66.72124
429.228	-14.04863
429.44	-26.69148
429.652	-39.33343
429.864	-11.94141
430.076	-49.86771
430.288	-1.40491
430.5	-3.51226
430.712	38.63923
430.924	32.3159
431.136	-43.54722
431.348	21.7775
431.56	30.20817
431.772	15.45473
431.984	19.66988
432.196	-7.72688
432.408	-1.40491
432.62	-49.86771
432.832	-43.54722
433.044	-37.2265
433.256	-43.54722
433.468	36.53143
433.679	21.7775
433.891	-41.44034
434.103	23.88513
434.315	-7.72688
434.527	-9.83416
434.739	-43.54722
434.95	23.88513
435.162	4.91728
435.374	-49.86771
435.586	40.74705
435.798	-18.26301
436.009	-16.15583
436.221	-1.40491
436.433	7.02472
436.645	-26.69148
436.856	38.63923
437.068	28.10047
437.28	-83.57314
437.491	74.47535
437.703	-18.26301
437.915	-9.83416
438.126	-54.08124
438.338	-85.67951
438.55	-3.51226
438.761	13.34719
438.973	-58.29468
439.184	-24.5844
439.396	30.20817
439.608	4.91728
439.819	38.63923
440.031	-20.37016
440.242	-64.61464
440.454	23.88513
440.665	-5.61958
440.877	-9.83416
441.088	34.42366
441.3	-3.51226
441.511	-35.11954
441.723	23.88513
441.934	-9.83416
442.146	-9.83416
442.357	-58.29468
442.569	4.91728
442.78	-16.15583
442.991	47.07066
443.203	38.63923
443.414	-20.37016
443.626	-62.50801
443.837	80.80005
444.048	-7.72688
444.26	-60.40135
444.471	-51.97449
444.682	-7.72688
444.894	-51.97449
445.105	-1.40491
445.316	-30.90556
445.528	-54.08124
445.739	47.07066
445.95	32.3159
446.161	-1.40491
446.373	-18.26301
446.584	51.28651
446.795	55.50246
447.006	-3.51226
447.217	32.3159
447.429	-14.04863
447.64	-9.83416
447.851	-45.65407
448.062	7.02472
448.273	-106.7418
448.484	-45.65407
448.695	9.13219
448.907	9.13219
449.118	40.74705
449.329	-51.97449
449.54	9.13219
449.751	-11.94141
449.962	-33.01256
450.173	13.34719
450.384	-66.72124
450.595	49.17857
450.806	40.74705
451.017	4.91728
451.228	-5.61958
451.439	55.50246
451.65	-49.86771
451.861	15.45473
452.072	-26.69148
452.283	-3.51226
452.494	23.88513
452.705	-3.51226
452.915	-9.83416
453.126	13.34719
453.337	-64.61464
453.548	-41.44034
453.759	4.91728
453.97	-11.94141
454.181	-41.44034
454.391	13.34719
454.602	38.63923
454.813	-79.36032
455.024	21.7775
455.235	21.7775
455.445	42.8549
455.656	-62.50801
455.867	-11.94141
456.078	34.42366
456.288	23.88513
456.499	-16.15583
456.71	-1.40491
456.921	40.74705
457.131	-43.54722
457.342	17.5623
457.553	-26.69148
457.763	91.34168
457.974	42.8549
458.184	11.23968
458.395	-77.25387
458.606	38.63923
458.816	21.7775
459.027	4.91728
459.237	53.39447
459.448	32.3159
459.659	4.91728
459.869	55.50246
460.08	9.13219
460.29	49.17857
460.501	-49.86771
460.711	51.28651
460.922	38.63923
461.132	68.15085
461.343	30.20817
461.553	21.7775
461.764	51.28651
461.974	-20.37016
462.184	47.07066
462.395	32.3159
462.605	32.3159
462.816	-3.51226
463.026	-28.79853
463.236	15.45473
463.447	9.13219
463.657	25.99279
463.867	15.45473
464.078	89.23331
464.288	13.34719
464.498	30.20817
464.709	66.04272
464.919	47.07066
465.129	91.34168
465.339	7.02472
465.55	-28.79853
465.76	47.07066
465.97	114.5352
466.18	66.04272
466.391	47.07066
466.601	2.80986
466.811	66.04272
467.021	80.80005
467.231	-20.37016
467.441	49.17857
467.651	47.07066
467.862	66.04272
468.072	59.7185
468.282	95.55848
468.492	34.42366
468.702	125.07859
468.912	4.91728
469.122	108.20943
469.332	175.69428
469.542	85.01664
469.752	156.71198
469.962	68.15085
470.172	89.23331
470.382	38.63923
470.592	144.05805
470.802	93.45007
471.012	114.5352
471.222	152.49392
471.432	144.05805
471.642	146.16698
471.852	139.84024
472.062	131.40488
472.272	82.90833
472.482	72.36716
472.691	207.33515
472.901	167.25749
473.111	131.40488
473.321	190.45945
473.531	217.88312
473.741	184.1314
473.95	219.99277
474.16	215.77348
474.37	173.58505
474.58	192.56884
474.79	266.41005
474.999	266.41005
475.209	211.55428
475.419	287.51185
475.628	325.49973
475.838	266.41005
476.048	376.15915
476.258	266.41005
476.467	310.72597
476.677	323.38914
476.886	395.15895
477.096	327.61034
477.306	283.29134
477.515	310.72597
477.725	355.04985
477.935	243.20024
478.144	445.83155
478.354	403.60374
478.563	485.95373
478.773	422.60547
478.982	437.38548
479.192	447.94311
479.401	462.72443
479.611	462.72443
479.82	496.5131
480.03	631.70376
480.239	680.3007
480.449	511.29683
480.658	612.68931
480.868	654.94499
481.077	703.54489
481.287	578.88839
481.496	722.56386
481.705	638.04213
481.915	760.60439
482.124	716.2241
482.333	853.60579
482.543	807.10282
482.752	785.96659
482.961	832.46754
483.171	978.33798
483.38	870.51702
483.589	893.77083
483.799	995.25276
484.008	1060.80129
484.217	1029.08355
484.426	1001.59591
484.636	933.93875
484.845	1172.87977
485.054	1052.3431
485.263	1041.77049
485.472	1098.86419
485.682	1183.45384
485.891	1221.52121
486.1	1185.56866
486.309	1318.8087
486.518	1325.1537
486.727	1306.11875
486.936	1378.0292
487.146	1308.23374
487.355	1403.40968
487.564	1289.19893
487.773	1500.70198
487.982	1403.40968
488.191	1519.73736
488.4	1509.16216
488.609	1661.44167
488.818	1492.24179
489.027	1678.36095
489.236	1720.65834
489.445	1750.26573
489.654	1593.76299
489.863	1864.45831
490.072	1754.4953
490.281	1784.10186
490.49	1627.60261
490.698	1796.79014
490.907	1993.43595
491.116	1942.6932
491.325	1868.6874
491.534	1902.51945
491.743	2101.25168
491.952	2135.07233
492.16	2206.9344
492.369	2160.43649
492.578	2097.02396
492.787	2266.10752
492.996	2215.38813
493.204	2409.78291
493.413	2314.70866
493.622	2263.99431
493.831	2249.20163
494.039	2509.05998
494.248	2219.61494
494.457	2236.52183
494.665	2454.14373
494.874	2631.53729
495.083	2464.70513
495.291	2540.73895
495.5	2534.40336
495.709	2701.20427
495.917	2582.9735
496.126	2789.85085
496.335	2601.97749
496.543	2745.53049
496.752	2532.29148
496.96	2694.87148
497.169	2707.53694
497.377	2916.44676
497.586	2819.39441
497.794	2931.21293
498.003	2806.73321
498.211	2899.57027
498.42	2891.13167
498.628	3034.55566
498.837	2956.52468
499.045	3053.533
499.254	3040.88158
499.462	3116.78168
499.671	2948.08766
499.879	3135.7535
500.087	3072.50909
500.296	3331.71765
500.504	3201.09086
500.713	3321.18565
500.921	3161.04723
501.129	3236.91432
501.338	3150.50846
501.546	3502.27478
501.754	3348.56794
501.962	3397.00633
502.171	3409.6409
502.379	3681.12593
502.587	3451.75152
502.795	3645.36654
503.004	3344.35547
503.212	3649.57382
503.42	3502.27478
503.628	3519.11355
503.837	3485.43485
504.045	3657.98813
504.253	3554.89202
504.461	3670.60903
504.669	3544.36949
504.877	3939.68814
505.085	4015.30769
505.294	3901.8685
505.502	3966.99825
505.71	4006.90683
505.918	3803.08668
506.126	4088.80119
506.334	3788.37075
506.542	4141.28096
506.75	4004.80656
506.958	4111.8939
507.166	4130.78605
507.374	4388.80657
507.582	4048.90786
507.79	4340.58351
507.998	4038.40837
508.206	4292.34902
508.414	4069.90528
508.622	4193.74761
508.83	4191.6492
509.037	4428.63432
509.245	4034.20844
509.453	4374.1312
509.661	4300.73844
509.869	4583.67729
510.077	4288.15417
510.285	4489.4088
510.492	4344.77728
510.7	4621.37208
510.908	4539.69092
511.116	4671.62053
511.324	4539.69092
511.531	4457.97603
511.739	4367.84143
511.947	4723.94889
512.155	4623.46603
512.362	4627.65384
512.57	4627.65384
512.778	4905.94114
512.985	4638.123
513.193	4673.71393
513.401	4853.66218
513.608	4845.29621
513.816	4845.29621
514.024	4853.66218
514.231	4583.67729
514.439	4960.29607
514.646	4778.35541
514.854	5079.40429
515.061	5012.54575
515.269	5035.53105
515.477	4862.02777
515.684	5071.04827
515.892	5114.91325
516.099	5271.49013
516.307	5202.61245
516.514	5162.94409
516.722	5089.8488
516.929	5357.02994
517.136	5231.83639
517.344	5336.1702
517.551	5131.62102
517.759	5373.71604
517.966	5183.82322
518.173	5271.49013
518.381	5400.82775
518.588	5402.9131
518.796	5575.91533
519.003	5513.40312
519.21	5246.44664
519.418	5365.37318
519.625	5367.45893
519.832	5590.49846
520.039	5523.82329
520.247	5746.67376
520.454	5650.90198
520.661	5813.26816
520.868	5484.2235
521.076	5904.79599
521.283	5459.20872
521.49	5740.4293
521.697	5796.62183
521.904	5888.15797
522.112	5600.91427
522.319	6039.92402
522.526	5740.4293
522.733	6021.21992
522.94	5859.03779
523.147	5898.55691
523.354	5848.6366
523.561	6096.02487
523.768	6316.1071
523.975	6218.55598
524.183	6023.29825
524.39	6247.61917
524.597	6145.8779
524.804	6118.87585
525.011	6284.97938
525.218	6255.92209
525.425	6143.80096
525.632	6056.54828
525.838	6054.47033
526.045	6423.97585
526.252	6253.8464
526.459	6444.71261
526.666	6537.99932
526.873	6537.99932
527.08	6660.23757
527.287	6705.7974
527.494	6457.15356
527.701	6602.23621
527.907	6490.32532
528.114	6701.65606
528.321	6660.23757
528.528	6722.36186
528.735	6492.39836
528.941	6829.99514
529.148	6436.41819
529.355	6780.32592
529.562	6527.63645
529.768	6801.02302
529.975	6714.07981
530.182	7061.61212
530.388	6842.41039
530.595	7173.18391
530.802	6747.20579
531.008	7181.4459
531.215	7001.66702
531.422	7123.60448
531.628	7084.34499
531.835	6900.33743
532.042	7014.07101
532.248	7499.26523
532.455	7173.18391
532.661	7160.79025
532.868	7404.38641
533.074	7328.03747
533.281	7121.53839
533.487	7321.84571
533.694	7301.20506
533.9	7680.64587
534.107	7222.75056
534.313	7631.1948
534.52	7307.39749
534.726	7643.55871
534.933	7540.50264
535.139	7662.10315
535.345	7524.00871
535.552	7791.86638
535.758	7678.58566
535.965	7816.57375
536.171	7431.20464
536.377	7863.92117
536.584	7540.50264
536.79	7826.8676
536.996	7800.1025
537.203	7594.09846
537.409	7629.13407
537.615	7767.156
537.821	7894.79402
538.028	8236.14752
538.234	7695.06681
538.44	8026.46623
538.646	7886.56171
538.853	7956.5258
539.059	7800.1025
539.265	8322.42683
539.471	8051.14547
539.677	8075.82179
539.883	8084.04659
540.09	8363.50009
540.296	8129.27721
540.502	8453.834
540.708	8295.72503
540.914	8301.88728
541.12	8145.72231
541.326	8384.0338
541.532	8484.62115
541.738	8423.04253
541.944	8221.76426
542.15	8501.03921
542.356	8585.16272
542.562	8620.03392
542.768	8558.49285
542.974	8741.0158
543.18	8579.00842
543.386	8697.96183
543.592	8652.84894
543.798	8576.95694
544.004	8574.90545
544.21	8708.21351
544.415	8630.28913
544.621	9050.35983
544.827	8675.40651
545.033	9050.35983
545.239	8931.58703
545.445	9040.12312
545.651	8634.39108
545.856	9136.33112
546.062	8933.63534
546.268	9156.796
546.474	9248.86695
546.679	8909.05445
546.885	8933.63534
547.091	9070.83195
547.297	9097.44312
547.502	9205.90477
547.708	9101.53689
547.914	9257.04938
548.119	9154.74959
548.325	9048.31252
548.531	8941.8284
548.736	9220.22632
548.942	9164.98148
549.147	9079.02031
549.353	9140.42424
549.559	9359.30728
549.764	9302.04797
549.97	9543.26849
550.175	9608.64573
550.381	9539.18188
550.586	9484.00635
550.792	9578.00216
550.997	9524.87822
551.203	9839.38243
551.408	9714.84969
551.614	9596.38873
551.819	9725.05941
552.025	9810.8061
552.23	9692.38695
552.435	9802.6409
552.641	9639.28579
552.846	9841.42349
553.052	9823.05346
553.257	9955.69896
553.462	10000.58037
553.668	10104.59701
553.873	9912.85106
554.078	10094.40093
554.283	9986.30068
554.489	10165.76616
554.694	9941.41704
554.899	10375.68659
555.105	10322.71042
555.31	10228.96121
555.515	10069.9289
555.72	10296.21896
555.925	10122.94908
556.131	10371.61182
556.336	10300.29472
556.541	10534.56227
556.746	10098.47941
556.951	10379.76132
557.156	10043.41523
557.361	10367.537
557.567	10664.86428
557.772	10571.21486
557.977	10440.87585
558.182	10477.53898
558.387	10546.78025
558.592	10579.35933
558.797	10434.76493
559.002	10636.36504
559.207	10455.13423
559.412	10469.39198
559.617	10442.9128
559.822	10697.4319
560.027	10499.94217
560.232	10870.39616
560.437	10593.61167
560.642	10607.8634
560.847	10603.79154
561.051	10766.62786
561.256	10644.50793
561.461	10831.74094
561.666	10634.32929
561.871	10909.04723
562.076	10772.73273
562.281	10817.49848
562.485	10389.94789
562.69	10766.62786
562.895	10607.8634
563.1	10837.84467
563.305	10707.60865
563.509	10862.25857
563.714	10575.28712
563.919	11126.63819
564.123	11161.19723
564.328	10915.14965
564.533	10878.53357
564.737	11055.47745
564.942	10927.35419
565.147	11275.01733
565.351	11110.37404
565.556	11260.79159
565.761	11065.64408
565.965	11222.17634
566.17	11136.80293
566.374	11181.52465
566.579	11209.98127
566.784	11177.45925
566.988	11303.4673
567.193	11348.17039
567.397	10929.38824
567.602	11528.96611
567.806	11388.80537
568.011	11413.18446
568.215	11258.7593
568.42	11614.25928
568.624	11474.12606
568.828	11691.41538
569.033	11378.647
569.237	11855.83725
569.442	11567.55314
569.646	11403.02668
569.85	11325.81945
570.055	11577.70707
570.259	11549.2755
570.463	11827.42268
570.668	11303.4673
570.872	11713.74763
571.076	11518.81107
571.281	11819.30393
571.485	11841.63017
571.689	11689.38512
571.893	11945.12955
572.098	12162.20773
572.302	11713.74763
572.506	12008.03058
572.71	11880.19128
572.914	11754.34898
573.119	11764.49877
573.323	11874.10289
573.527	12028.3196
573.731	12030.34846
573.935	12091.21061
574.139	12289.97974
574.343	11908.60281
574.547	12156.12263
574.751	12265.64442
574.955	12304.17487
575.159	12180.46265
575.364	12318.36966
575.568	12077.01006
575.772	12127.72457
575.976	11910.63214
576.18	12074.98138
576.383	12143.95221
576.587	12281.86808
576.791	12235.22383
576.995	12464.35368
577.199	12208.858
577.403	12253.47638
577.607	12492.73545
577.811	12733.93093
578.015	12247.39226
578.219	12517.06167
578.422	12308.23056
578.626	12778.51244
578.83	12523.14308
579.034	12590.03485
579.238	12717.71878
579.442	12754.1956
579.645	12569.76534
579.849	12859.56278
580.053	12652.86643
580.257	12604.22314
580.46	12630.57202
580.664	12796.74955
580.868	12750.14271
581.071	12956.81178
581.275	12924.3968
581.479	13078.35641
581.682	12912.24083
581.886	12930.47471
582.09	12979.09631
582.293	13088.48433
582.497	12999.35445
582.7	12989.22544
582.904	13035.81782
583.107	12962.88944
583.311	12938.57851
583.515	13126.96934
583.718	12841.32723
583.922	12928.44874
584.125	13153.30022
584.329	13191.7824
584.532	13165.45266
584.735	13293.04364
584.939	12924.3968
585.142	13157.35105
585.346	13114.81637
585.549	13080.382
585.753	13157.35105
585.956	13473.26284
586.159	13112.79085
586.363	13165.45266
586.566	13286.96827
586.769	13608.91358
586.973	13309.24443
587.176	13685.84289
587.379	13436.81654
587.582	13505.65852
587.786	13386.1946
587.989	13691.91606
588.192	13714.18408
588.395	13736.45173
588.599	13564.37331
588.802	13770.86462
589.005	13335.57016
589.208	13940.89246
589.411	13801.22821
589.615	13612.96261
589.818	13627.13412
590.021	13977.3245
590.224	13697.9892
590.427	13882.19459
590.63	13938.86843
590.833	14017.8036
591.036	13849.80859
591.239	14044.11449
591.442	13643.32992
591.645	14098.75892
591.848	14044.11449
592.051	14181.73441
592.254	13835.63948
592.457	14076.49657
592.66	14161.49682
592.863	14373.98204
593.066	14226.25641
593.269	14309.22676
593.472	14094.71124
593.675	14481.22942
593.878	14430.64156
594.081	14507.53477
594.284	14284.94308
594.486	14343.62822
594.689	14436.71215
594.892	14042.09059
595.095	14420.52387
595.298	14519.67562
595.5	14384.0999
595.703	14602.63691
595.906	14088.6397
596.109	14218.16157
596.311	14432.66509
596.514	14465.0414
596.717	14669.40926
596.92	15189.39924
597.122	14772.60086
597.325	14598.59007
597.528	14709.87683
597.73	15157.02691
597.933	14622.87108
598.136	14719.99366
598.338	14637.03493
598.541	14628.94131
598.743	14752.36738
598.946	15005.28132
599.148	14821.16089
599.351	14914.23325
599.554	14908.16335
599.756	14970.88547
599.959	15163.09672
600.161	15082.16586
600.363	14809.02092
600.566	14972.90876
600.768	14962.79232
600.971	14952.67586
601.173	15080.14259
601.376	15059.90984
601.578	14825.20754
601.78	15051.81674
601.983	15100.37532
602.185	15405.89024
602.388	15326.98196
602.59	15096.32877
602.792	15209.63195
602.995	15051.81674
603.197	15114.53822
603.399	15242.00431
603.601	14796.88092
603.804	14950.65257
604.006	15009.32788
604.208	15146.91056
604.41	15183.32943
604.613	15343.16823
604.815	15070.02622
605.017	15399.82035
605.219	15252.12067
605.421	15442.30966
605.623	15292.58619
605.826	15484.79919
606.028	15195.46905
606.23	15262.23705
606.432	15343.16823
606.634	15820.6803
606.836	15503.00906
607.038	15606.19935
607.24	15438.26305
607.442	15638.57317
607.644	15513.12568
607.846	15519.19566
608.048	15456.47281
608.25	15751.88332
608.452	15559.66233
608.654	15670.94721
608.856	15430.16984
609.058	15735.69598
609.26	15444.33296
609.462	15559.66233
609.664	15424.09993
609.866	15284.49308
610.067	15312.81899
610.269	15687.13431
610.471	15250.0974
610.673	15652.73679
610.875	15505.03238
611.077	15840.91494
611.278	15561.68567
611.48	15662.85368
611.682	15606.19935
611.884	15818.65684
612.085	15911.73714
612.287	15893.52558
612.489	15766.04731
612.69	15849.00883
612.892	15869.24364
613.094	16063.50441
613.295	15683.08753
613.497	15794.37542
613.699	15646.66666
613.9	15498.96242
614.102	15610.24607
614.304	15668.92383
614.505	15980.53734
614.707	15917.80769
614.908	15622.38624
615.11	15812.58647
615.311	15741.76623
615.513	15652.73679
615.714	16059.45718
615.916	16172.78199
616.117	15755.93017
616.319	15954.2312
616.52	15662.85368
616.722	15956.25474
616.923	15812.58647
617.124	16160.6398
617.326	15919.8312
617.527	16039.22111
617.729	16122.18994
617.93	16381.23263
618.131	16170.75829
618.333	16298.25483
618.534	15956.25474
618.735	16158.61611
618.937	15921.85472
619.138	15948.16058
619.339	15654.76016
619.54	16120.16628
619.742	15836.86801
619.943	16172.78199
620.144	15806.51611
620.345	15938.04292
620.546	15814.60993
620.748	16397.42379
620.949	16073.62251
621.15	16371.11321
621.351	16043.26831
621.552	16443.9741
621.753	16051.36273
621.954	16460.16576
622.155	16233.49381
622.356	16308.3739
622.558	16247.66013
622.759	16464.21369
622.96	15942.08998
623.161	16233.49381
623.362	16225.39882
623.563	16399.4477
623.764	16237.54132
623.965	16338.7314
624.166	16328.61219
624.366	16031.12673
624.567	16120.16628
624.768	16630.18636
624.969	16156.59242
625.17	16120.16628
625.371	16164.68719
625.572	16154.56874
625.773	16251.70766
625.973	16526.95776
626.174	16166.71089
626.375	16156.59242
626.576	16350.87452
626.777	16682.81495
626.977	16336.70756
627.178	16514.81359
627.379	16160.6398
627.58	16721.2753
627.78	16522.90969
627.981	16591.72798
628.182	16686.86337
628.382	16433.85438
628.583	16205.16144
628.784	16448.022
628.984	16122.18994
629.185	16466.23766
629.386	16233.49381
629.586	16802.24727
629.787	16273.96923
629.987	16522.90969
630.188	16435.87832
630.388	16395.39989
630.589	16312.42154
630.79	16233.49381
630.99	16460.16576
631.191	16881.19873
631.391	16854.88115
631.591	16788.07689
631.792	16696.98445
631.992	16820.4665
632.193	16482.42951
632.393	16705.08136
632.594	16559.34259
632.794	16524.93372
632.994	16452.06991
633.195	17213.24385
633.395	16626.13807
633.595	16798.19858
633.796	16715.20255
633.996	16948.00685
634.196	16581.60748
634.397	17053.2861
634.597	16794.14989
634.797	16794.14989
634.997	16854.88115
635.198	16956.105
635.398	16567.43888
635.598	17087.70591
635.798	16883.22318
635.998	16865.00325
636.199	16909.54123
636.399	17162.6224
636.599	16767.83371
636.799	16869.05211
636.999	16684.83916
637.199	16682.81495
637.399	16840.71032
637.599	17099.85427
637.799	16767.83371
637.999	16976.35055
638.199	16875.12541
638.399	16838.68593
638.599	16745.56648
638.799	17083.65648
638.999	16877.14985
639.199	17249.69242
639.399	16962.17864
639.599	16996.59637
639.799	17071.50825
639.999	16986.47343
640.199	17099.85427
640.399	17114.02748
640.599	16273.96923
640.799	17332.71774
640.998	17085.68119
641.198	16881.19873
641.398	17071.50825
641.598	17225.39327
641.798	17186.92047
641.997	17170.72171
642.197	17128.20083
642.397	17114.02748
642.597	17061.3848
642.796	17340.81804
642.996	17237.54279
643.196	17561.57026
643.395	17512.96106
643.595	17648.6664
643.795	17276.01698
643.994	17462.32842
644.194	17257.79223
644.394	17470.42951
644.593	17188.94533
644.793	17707.40909
644.992	17612.20682
645.192	17245.64253
645.392	17142.37432
645.591	17431.94979
645.791	17472.45479
645.99	17492.70777
646.19	17245.64253
646.389	17403.59702
646.589	17140.34952
646.788	17626.38542
646.987	17415.74813
647.187	17670.94779
647.386	17462.32842
647.586	17822.87708
647.785	17409.67256
647.984	17573.72285
648.184	17731.71723
648.383	17695.2552
648.582	17618.28334
648.782	17980.90401
648.981	17300.31702
649.18	17721.58878
649.38	17782.36074
649.579	17523.08783
649.778	17555.49401
649.977	17912.01787
650.177	17646.64084
650.376	17705.38344
650.575	17243.61759
650.774	17359.04389
650.973	17569.67198
651.173	17492.70777
651.372	17689.1783
651.571	17642.58973
651.77	17762.10309
651.969	17674.99899
652.168	17747.92293
652.367	17782.36074
652.566	17853.26523
652.765	17851.23933
652.964	17958.61687
653.163	18047.768
653.362	17636.51309
653.561	17845.16165
653.76	17766.15459
653.959	17741.84577
654.158	18025.47957
654.357	17885.68012
654.556	17666.8966
654.755	17863.39479
654.954	17354.99368
655.153	17934.30412
655.352	18234.19745
655.551	18213.93188
655.749	17545.36699
655.948	17786.41232
656.147	18205.82575
656.346	17903.91388
656.545	17982.93013
656.743	17719.5631
656.942	17940.38226
657.141	18207.85228
657.34	17818.82539
657.538	17859.34296
657.737	18015.34861
657.936	18481.46754
658.135	17924.17395
658.333	18096.3988
658.532	18051.82049
658.731	18195.69318
658.929	17762.10309
659.128	17970.77344
659.326	17656.76868
659.525	17999.13926
659.724	17887.70608
659.922	17958.61687
660.121	17859.34296
660.319	17672.97339
660.518	17788.43811
660.716	17853.26523
660.915	17721.58878
661.113	18076.13572
661.312	17648.6664
661.51	18092.34616
661.709	18074.10943
661.907	18100.45146
662.105	17786.41232
662.304	18357.82549
662.502	18357.82549
662.701	18580.79689
662.899	18319.3169
663.097	18315.26344
663.296	18290.94302
663.494	17966.72123
663.692	18106.53048
663.891	18199.7462
664.089	18270.67641
664.287	17930.25204
664.485	17887.70608
664.684	18406.46985
664.882	18179.48126
665.08	18378.09371
665.278	18088.29352
665.476	17916.06988
665.675	17964.69514
665.873	18070.05686
666.071	17986.98239
666.269	18270.67641
666.467	18473.35943
666.665	18260.54325
666.863	18187.58719
667.061	17976.85177
667.259	18193.66668
667.457	18617.28755
667.655	18329.45061
667.853	18311.21
668.051	18147.05811
668.249	18074.10943
668.447	17912.01787
668.645	17851.23933
668.843	17879.60226
669.041	17948.48649
669.239	17780.33496
669.437	17956.59079
669.635	18165.29601
669.833	18177.45478
670.031	18037.63684
670.229	17960.64296
670.426	17952.53863
670.624	17999.13926
670.822	17717.53743
671.02	18124.76773
671.218	18019.40098
671.415	18191.64018
671.613	18126.79411
671.811	18290.94302
672.009	18021.42718
672.206	18136.92606
672.404	18126.79411
672.602	18339.58441
672.799	17942.40831
672.997	18230.14431
673.195	18258.51662
673.392	18501.73809
673.59	18331.47736
673.788	18053.84674
673.985	18088.29352
674.183	18250.41017
674.38	17989.00853
674.578	18329.45061
674.775	18025.47957
674.973	17828.95465
675.17	17989.00853
675.368	17922.14793
675.565	17980.90401
675.763	18189.61368
675.96	17950.51256
676.158	17934.30412
676.355	17824.90293
676.553	18274.7297
676.75	18110.58318
676.947	18278.78301
677.145	17976.85177
677.342	18414.57746
677.539	18023.45337
677.737	18078.16201
677.934	17968.74733
678.131	17997.1131
678.329	17863.39479
678.526	18094.37248
678.723	17926.19998
678.92	18027.50577
679.118	17940.38226
679.315	18130.84688
679.512	18126.79411
679.709	18313.23672
679.906	17820.85123
680.104	17853.26523
680.301	17774.25764
680.498	17632.46201
680.695	17681.07582
680.892	17664.87101
681.089	17835.03225
681.286	18092.34616
681.483	17853.26523
681.68	17790.4639
681.877	17760.07734
682.075	17999.13926
682.272	17681.07582
682.469	17916.06988
682.665	17549.41779
682.862	17930.25204
683.059	17808.69621
683.256	18102.4778
683.453	17782.36074
683.65	17735.76864
683.847	17359.04389
684.044	17533.21467
684.241	17646.64084
684.438	17756.02585
684.635	17478.53065
684.831	17796.54131
685.028	17419.79853
685.225	17610.18132
685.422	17338.79296
685.619	17687.15268
685.815	17701.33213
686.012	17808.69621
686.209	17642.58973
686.405	17679.05021
686.602	17486.63184
686.799	17302.34204
686.996	17188.94533
687.192	17308.41713
687.389	17024.94097
687.586	17176.79622
687.782	17363.09412
687.979	17561.57026
688.175	17346.8933
688.372	17679.05021
688.568	17221.34345
688.765	17267.91706
688.962	17474.48008
689.158	17241.59266
689.355	17221.34345
689.551	17403.59702
689.748	17026.9656
689.944	17010.7686
690.14	16893.34546
690.337	17320.56738
690.533	17182.87076
690.73	17085.68119
690.926	17103.90374
691.123	16897.39438
691.319	16970.27686
691.515	17464.35369
691.712	17304.36707
691.908	17549.41779
692.104	17496.7584
692.301	17409.67256
692.497	17294.24197
692.693	17581.82464
692.889	17571.69741
693.086	17484.60654
693.282	17085.68119
693.478	17112.00272
693.674	17156.54794
693.87	17099.85427
694.067	17166.67205
694.263	17207.16918
694.459	17255.76728
694.655	17103.90374
694.851	17112.00272
695.047	17168.69688
695.243	16966.22774
695.439	17235.51787
695.635	16719.25105
695.831	16800.22292
696.027	16856.90557
696.224	16852.85674
696.42	16711.15407
696.615	16577.5593
696.811	16601.84853
697.007	16731.39658
697.203	16686.86337
697.399	17122.12652
697.595	16804.27162
697.791	16856.90557
697.987	16824.51524
698.183	17278.04197
698.379	17107.95323
698.575	17263.86712
698.77	16875.12541
698.966	17049.23676
699.162	16992.54719
699.358	16958.12954
699.554	17055.31077
699.749	16767.83371
699.945	16757.7122
700.141	17081.63176
700.337	16696.98445
700.532	16923.71267
700.728	16605.89676
700.924	17010.7686
701.119	16583.63158
701.315	16751.63933
701.511	16290.1596
701.706	16996.59637
701.902	16676.74234
702.097	16753.66362
702.293	16784.02823
702.489	16869.05211
702.684	16435.87832
702.88	16751.63933
703.075	16419.68685
703.271	16583.63158
703.466	16575.53521
703.662	16533.02987
703.857	16769.85801
704.053	16954.08046
704.248	16721.2753
704.443	17342.84312
704.639	16798.19858
704.834	16852.85674
705.03	16818.44213
705.225	16559.34259
705.42	16737.46938
705.616	16759.7365
705.811	16599.82441
706.006	16603.87264
706.202	16549.22227
706.397	16694.96023
706.592	16816.41776
706.787	17182.87076
706.983	17192.99505
707.178	17105.92848
707.373	16537.07796
707.568	16731.39658
707.763	16646.37961
707.959	16824.51524
708.154	16747.59076
708.349	16668.64556
708.544	16644.35544
708.739	16640.30712
708.934	16227.42256
709.129	16391.35209
709.324	16142.42664
709.519	16753.66362
709.714	16261.82653
709.909	16652.45211
710.104	16290.1596
710.299	16259.80275
710.494	16458.14179
710.689	16533.02987
710.884	16306.35008
711.079	16306.35008
711.274	16403.49551
711.469	16707.1056
711.664	16476.35755
711.859	16454.09387
712.054	16251.70766
712.249	16296.23102
712.443	16164.68719
712.638	16332.65987
712.833	16008.86729
713.028	16249.6839
713.223	16140.40296
713.417	16243.6126
713.612	16140.40296
713.807	16618.04152
714.002	16146.474
714.196	16409.56725
714.391	16037.19751
714.586	16300.27864
714.78	15936.01939
714.975	16112.07165
715.17	15679.04075
715.364	16373.13709
715.559	16063.50441
715.754	15962.32537
715.948	15927.92529
716.143	16160.6398
716.337	15992.67871
716.532	16320.51685
716.726	16124.21361
716.921	16130.2846
717.115	16209.2089
717.31	16112.07165
717.504	16298.25483
717.699	16494.57347
717.893	15946.13705
718.088	16199.09026
718.282	16057.43356
718.476	15933.99586
718.671	15881.38459
718.865	16116.11897
719.059	15893.52558
719.254	15697.25128
719.448	15545.49896
719.642	15683.08753
719.837	15250.0974
720.031	15992.67871
720.225	15521.21899
720.419	15887.45508
720.614	15796.39887
720.808	15885.43158
721.002	15383.634
721.196	15699.27468
721.39	15646.66666
721.585	15869.24364
721.779	15496.9391
721.973	15764.02388
722.167	15306.74915
722.361	15745.81306
722.555	15590.01252
722.749	15420.05333
722.943	15355.30794
723.137	15450.40288
723.331	15318.88883
723.525	15432.19314
723.719	15462.54274
723.913	15377.56412
724.107	15039.67707
724.301	15507.05571
724.495	15233.91121
724.689	15314.84227
724.883	15124.65458
725.077	15585.96582
725.271	15242.00431
725.465	15422.07663
725.659	15096.32877
725.853	15503.00906
726.046	15148.93383
726.24	14942.5594
726.434	14987.07176
726.628	15424.09993
726.822	15207.60868
727.015	15527.28897
727.209	15480.75256
727.403	15314.84227
727.596	15250.0974
727.79	15397.79706
727.984	15699.27468
728.177	15800.44576
728.371	15383.634
728.565	15468.61267
728.758	15349.23808
728.952	15434.21644
729.146	15353.28466
729.339	15571.80239
729.533	15590.01252
729.726	15731.64915
729.92	15768.07074
730.113	15693.20449
730.307	15685.11092
730.5	15594.05922
730.694	15092.28223
730.887	15494.91578
731.081	15387.68058
731.274	15324.95867
731.468	15326.98196
731.661	15399.82035
731.854	15201.53886
732.048	15440.28635
732.241	15128.70112
732.435	15201.53886
732.628	15029.56068
732.821	15221.77158
733.014	15326.98196
733.208	15134.77093
733.401	15169.16653
733.594	14932.44293
733.788	15363.40109
733.981	15452.42619
734.174	15488.84582
734.367	15650.71341
734.56	15440.28635
734.754	15766.04731
734.947	15440.28635
735.14	15181.30616
735.333	15462.54274
735.526	15401.84365
735.719	15211.65522
735.912	15001.23475
736.105	15205.58541
736.298	15035.63052
736.491	15324.95867
736.684	15072.04949
736.877	14754.39074
737.07	14873.76715
737.263	15102.39859
737.456	15331.02852
737.649	15110.49168
737.842	15282.46981
738.035	15148.93383
738.228	15132.74766
738.421	15134.77093
738.614	15209.63195
738.807	15031.58396
739	15013.37444
739.192	15110.49168
739.385	14920.30315
739.578	15025.51412
739.771	15181.30616
739.964	14831.27751
740.156	14873.76715
740.349	14776.64754
740.542	14894.00023
740.735	14950.65257
740.927	14784.7409
741.12	14792.83425
741.313	14930.41963
741.505	14861.62728
741.698	14647.15194
741.891	14618.82426
742.083	15037.6538
742.276	14624.89449
742.468	14958.74574
742.661	14877.81377
742.854	14841.39411
743.046	14883.8837
743.239	14373.98204
743.431	14776.64754
743.624	14948.62928
743.816	14766.53082
744.009	14934.46622
744.201	14825.20754
744.393	15017.421
744.586	14675.47942
744.778	14738.20391
744.971	14857.58065
745.163	14780.69422
745.355	14685.59633
745.548	14201.9718
745.74	14503.4878
745.932	14703.80672
746.125	14746.29733
746.317	14736.18055
746.509	14299.10859
746.702	14624.89449
746.894	14558.12135
747.086	14359.81697
747.278	14337.55741
747.471	14452.90033
747.663	14382.07633
747.855	14649.17534
748.047	14602.63691
748.239	14821.16089
748.431	14724.04039
748.623	14875.79046
748.815	14732.13383
749.008	14819.13756
749.2	14469.08841
749.392	14726.06375
749.584	14060.3056
749.776	14639.05834
749.968	14426.59449
750.16	14495.39386
750.352	14620.84767
750.544	14582.40264
750.736	14469.08841
750.928	14541.93373
751.12	14537.88681
751.311	14495.39386
751.503	14572.28545
751.695	14153.40172
751.887	14266.73014
752.079	14187.80565
752.271	14412.4297
752.463	14319.34489
752.654	13938.86843
752.846	14191.85313
753.038	13922.67612
753.23	14127.09242
753.421	14007.68392
753.613	13912.55584
753.805	14288.99038
753.997	14394.21772
754.188	14353.7462
754.38	14167.56812
754.572	13981.37246
754.763	14121.02099
754.955	14088.6397
755.146	14394.21772
755.338	14036.01887
755.53	13890.29099
755.721	13985.4204
755.913	14159.47304
756.104	13870.04993
756.296	13981.37246
756.487	13953.03656
756.679	13752.64614
756.87	13894.33917
757.062	14333.51019
757.253	14036.01887
757.445	13985.4204
757.636	13847.78444
757.827	14214.11414
758.019	13906.48364
758.21	14177.68691
758.401	13785.03438
758.593	13787.05862
758.784	13728.35445
758.975	13645.35438
759.167	13361.89518
759.358	13538.05327
759.549	13564.37331
759.74	13367.97009
759.932	13238.36393
760.123	13171.52883
760.314	13171.52883
760.505	13576.52083
760.696	13349.74525
760.888	13505.65852
761.079	13392.26936
761.27	13230.26296
761.461	13045.94625
761.652	13278.86772
761.843	13175.57958
762.034	13244.43961
762.225	13305.19426
762.416	13418.59292
762.607	12916.29284
762.798	13416.56806
762.989	13234.31346
763.18	13422.64264
763.371	13323.41991
763.562	13076.33081
763.753	13270.7671
763.944	13428.71719
764.135	13100.63768
764.326	13363.92015
764.517	13252.54045
764.708	13367.97009
764.899	13003.40601
765.089	13084.43318
765.28	13074.30521
765.471	13120.89288
765.662	12825.11747
765.853	13011.50908
766.043	12541.38697
766.234	12910.21482
766.425	12683.26672
766.615	12863.61507
766.806	12916.29284
766.997	13052.02325
767.187	12800.80217
767.378	12898.05864
767.569	12835.24861
767.759	12744.06334
767.95	12910.21482
768.141	12833.22239
768.331	12456.24437
768.522	12663.00001
768.712	12583.95406
768.903	13027.71499
769.093	12772.43331
769.284	12419.75116
769.474	12354.86897
769.665	12594.08868
769.855	12427.86095
770.046	12991.25125
770.236	12403.53126
770.426	12504.89868
770.617	12543.41404
770.807	12510.9802
770.998	12565.71136
771.188	12624.4916
771.378	12184.51922
771.569	12332.5641
771.759	12210.88619
771.949	12241.30808
772.139	12332.5641
772.33	12156.12263
772.52	12022.23298
772.71	12332.5641
772.9	11981.65367
773.09	12046.57905
773.281	12107.43934
773.471	12251.44835
773.661	11965.42105
773.851	12123.66759
774.041	11973.53742
774.231	12172.34943
774.421	11841.63017
774.611	11764.49877
774.802	11894.39725
774.992	11778.70812
775.182	11872.0734
775.372	11652.83896
775.562	11652.83896
775.752	11794.94685
775.942	11652.83896
776.131	11595.98355
776.321	11427.40495
776.511	11819.30393
776.701	11790.88722
776.891	11819.30393
777.081	11770.58854
777.271	11926.86651
777.461	11705.62693
777.651	11675.17307
777.84	11732.01867
778.03	11581.76857
778.22	11685.32458
778.41	11768.55863
778.599	11354.26589
778.789	11333.94721
778.979	11356.2977
779.169	11348.17039
779.358	11201.85102
779.548	11567.55314
779.738	11376.61529
779.927	11530.99709
780.117	11417.24751
780.307	11857.8668
780.496	11352.23407
780.686	11571.61474
780.875	11209.98127
781.065	11230.30617
781.254	10994.47188
781.444	11224.20881
781.633	11437.56215
781.823	11132.73707
782.012	11335.97912
782.202	11260.79159
782.391	11179.49196
782.581	11595.98355
782.77	11173.39381
782.96	11340.04292
783.149	10965.9992
783.338	11181.52465
783.528	11122.57222
783.717	11305.49936
783.906	10888.70508
784.096	10935.49032
784.285	10797.15111
784.474	11004.64016
784.663	10968.03304
784.853	10782.90726
785.042	10870.39616
785.231	10797.15111
785.42	10736.10194
785.61	10994.47188
785.799	10968.03304
785.988	10864.29298
786.177	10607.8634
786.366	10593.61167
786.555	10575.28712
786.744	10976.16827
786.933	10697.4319
787.122	10782.90726
787.312	10624.15035
787.501	10593.61167
787.69	10664.86428
787.879	10575.28712
788.068	10506.05187
788.257	10522.34383
788.445	10271.7633
788.634	10332.89884
788.823	10371.61182
789.012	10626.18616
789.201	10398.09691
789.39	10540.67131
789.579	10408.28289
789.768	10656.72188
789.957	10656.72188
790.145	10782.90726
790.334	10648.57929
790.523	10265.64908
790.712	10186.1531
790.9	10267.68717
791.089	10124.98812
791.278	10359.38719
791.467	9998.54046
791.655	10300.29472
791.844	10151.49448
792.033	10092.36167
792.221	9963.85974
792.41	10410.32005
792.599	10043.41523
792.787	10387.9106
792.976	9929.17483
793.164	10033.21703
793.353	9904.68882
793.541	10025.05821
793.73	9598.4316
793.918	9947.53795
794.107	9761.81126
794.295	10196.34606
794.484	9998.54046
794.672	10031.17735
794.861	10065.85003
795.049	10247.30569
795.238	9963.85974
795.426	9943.45736
795.614	10110.71449
795.803	10161.68861
795.991	9567.78685
796.179	9671.96466
796.368	9702.59752
796.556	9686.26043
796.744	9714.84969
796.932	9706.68163
797.121	9584.13116
797.309	9690.34479
797.497	9596.38873
797.685	9663.79532
797.874	9782.22683
798.062	9408.37642
798.25	9443.12805
798.438	9747.51946
798.626	9551.44153
798.814	9604.56013
799.002	9661.75294
799.19	9533.05183
799.378	9516.70436
799.566	9598.4316
799.755	9377.70931
799.943	9565.74374
800.131	9755.6863
800.318	9696.47122
800.506	9383.84303
800.694	9457.43619
800.882	9434.95162
801.07	9590.26001
801.258	9383.84303
801.446	9720.97557
801.634	9259.09494
801.822	9271.36799
802.01	9140.42424
802.197	9490.13754
802.385	9187.49013
802.573	9359.30728
802.761	9275.45887
802.949	9400.19888
803.136	9306.13835
803.324	9324.54424
803.512	9355.21775
803.699	9561.65747
803.887	9326.58926
804.075	9551.44153
804.262	9377.70931
804.45	9492.18123
804.638	9310.22866
804.825	9434.95162
805.013	9212.04268
805.201	9410.42076
805.388	9124.05137
805.576	9373.62008
805.763	9359.30728
805.951	9351.12817
806.138	9449.26021
806.326	9383.84303
806.513	9203.85877
806.701	9465.61191
806.888	9289.77643
807.075	9394.06556
807.263	9228.4097
807.45	9600.47446
807.638	9590.26001
807.825	9682.176
808.012	9361.35201
808.2	9533.05183
808.387	9320.45416
808.574	9549.39829
808.761	9430.86331
808.949	9951.61849
809.136	9849.58755
809.323	9865.91498
809.51	9702.59752
809.698	9810.8061
809.885	9531.00846
810.072	9729.1432
810.259	9610.68851
810.446	9604.56013
810.633	9490.13754
810.82	9539.18188
811.008	9835.30028
811.195	9351.12817
811.382	9216.13454
811.569	9449.26021
811.756	9064.6905
811.943	9696.47122
812.13	9500.35587
812.317	9520.79132
812.504	9543.26849
812.691	9416.5537
812.878	9586.17412
813.064	9461.52408
813.251	9543.26849
813.438	9531.00846
813.625	9029.88597
813.812	9209.99673
813.999	9400.19888
814.186	9571.87302
814.372	9471.74354
814.559	9627.03019
814.746	9514.66085
814.933	9598.4316
815.12	9162.93514
815.306	9342.94879
815.493	9255.0038
815.68	9357.26252
815.866	9124.05137
816.053	9224.31804
816.24	9263.18603
816.426	9551.44153
816.613	9285.68578
816.799	9563.70061
816.986	9373.62008
817.173	9635.20065
817.359	9394.06556
817.546	9414.5094
817.732	9140.42424
817.919	9322.49921
818.105	9081.06736
818.292	9007.36271
818.478	9036.02831
818.665	9169.07411
818.851	8978.69367
819.037	9240.68425
819.224	9175.21294
819.41	9113.81777
819.597	8997.12416
819.783	9320.45416
819.969	9214.08862
820.156	9473.78738
820.342	9377.70931
820.528	9537.13854
820.714	9146.56378
820.901	9539.18188
821.087	9412.46509
821.273	9698.51334
821.459	9461.52408
821.646	9330.67924
821.832	9093.34928
822.018	9146.56378
822.204	8736.91578
822.39	9093.34928
822.576	9111.771
822.762	9293.86701
822.948	8982.78946
823.134	9220.22632
823.32	8835.29635
823.507	9244.77563
823.693	8835.29635
823.879	8999.17191
824.065	8763.56466
824.25	8775.8631
824.436	8560.54449
824.622	8743.06579
824.808	8718.46473
824.994	9156.796
825.18	8937.73191
825.366	8886.51972
825.552	8663.10266
825.738	8894.71442
825.923	8521.56007
826.109	8950.02118
826.295	8833.24718
826.481	8968.45389
826.667	8868.0806
826.852	8902.90883
827.038	8673.35591
827.224	8810.70513
827.409	8710.26379
827.595	8583.1113
827.781	8689.76015
827.966	8656.95048
828.152	8203.27008
828.338	8451.78137
828.523	8283.4
828.709	8601.57337
828.894	8533.87168
829.08	8492.83033
829.266	8369.6604
829.451	8574.90545
829.637	8285.45422
829.822	8441.51793
830.008	8225.87387
830.193	8537.97539
830.378	8398.40625
830.564	8386.08707
830.749	8556.44119
830.935	8650.79814
831.12	8273.12861
831.305	8535.92354
831.491	8260.80229
831.676	8576.95694
831.861	8359.39311
832.047	8195.04992
832.232	8049.08897
832.417	8219.70943
832.602	8359.39311
832.788	8287.50842
832.973	8192.99483
833.158	8215.59971
833.343	7999.72708
833.528	8211.48991
833.714	7880.38727
833.899	8158.05529
834.084	8219.70943
834.269	8180.66389
834.454	7894.79402
834.639	8236.14752
834.824	8075.82179
835.009	7909.19976
835.194	7847.45375
835.379	8131.33292
835.564	8079.93423
835.749	7911.25764
835.934	7717.72619
836.119	7888.61982
836.304	7637.37685
836.489	7627.07332
836.674	7849.51225
836.859	7816.57375
837.044	7657.98231
837.228	8020.29596
837.413	7662.10315
837.598	8102.5512
837.783	7931.83531
837.968	8129.27721
838.152	7964.75531
838.337	8217.65458
838.522	7812.45606
838.707	7972.9845
838.891	7625.01255
839.076	7919.48895
839.261	7420.89037
839.445	7865.9795
839.63	7783.62992
839.815	7750.68074
839.999	7948.29597
840.184	7534.31758
840.368	7793.92544
840.553	7989.44188
840.737	7610.58657
840.922	7579.67024
841.106	7511.63736
841.291	7647.67985
841.475	7433.26743
841.66	7608.52563
841.844	7315.65375
842.029	7375.50114
842.213	7348.67527
842.397	7583.79269
842.582	7290.88392
842.766	7276.43339
842.951	7003.73441
843.135	7305.33337
843.319	6861.03174
843.504	6937.56684
843.688	7152.52737
843.872	7309.46159
844.056	7173.18391
844.241	7264.04637
844.425	7105.00888
844.609	7131.86861
844.793	7123.60448
844.977	7129.80261
845.161	6958.24669
845.346	6842.41039
845.53	6753.41626
845.714	7040.94353
845.898	6778.25608
846.082	7049.21124
846.266	7065.74557
846.45	7069.87893
846.634	6720.29138
846.818	6842.41039
847.002	6753.41626
847.186	7034.74252
847.37	6714.07981
847.554	6933.4306
847.738	6486.17917
847.922	6743.06537
848.106	6753.41626
848.29	6782.39573
848.473	6745.13559
848.657	6726.50274
848.841	6567.01228
849.025	6598.09257
849.209	6170.79934
849.392	6349.3042
849.576	6423.97585
849.76	6255.92209
849.944	6262.14904
850.127	6492.39836
850.311	6197.79375
850.495	6531.78167
850.678	6678.87702
850.862	6736.85456
851.046	6421.90204
851.229	6610.52323
851.413	6450.93319
851.596	6858.96279
851.78	6322.33201
851.964	6840.34124
852.147	6397.01457
852.331	6689.23147
852.514	6401.16271
852.698	6291.20534
852.881	5869.43838
853.065	6141.72399
853.248	6179.10573
853.431	6216.47986
853.615	6050.31436
853.798	6031.61132
853.982	5929.7502
854.165	6170.79934
854.348	6091.86984
854.532	6349.3042
854.715	6174.95258
854.898	6179.10573
855.081	6147.95481
855.265	6303.65664
855.448	5890.2378
855.631	6170.79934
855.814	5967.17515
855.997	5994.19953
856.181	5725.85806
856.364	5890.2378
856.547	5888.15797
856.73	5963.0172
856.913	5838.23483
857.096	6085.63712
857.279	5817.42951
857.462	6071.09328
857.645	5673.80847
857.828	6120.95307
858.011	5682.13739
858.194	5950.54278
858.377	5300.70327
858.56	5719.61289
858.743	5600.91427
858.926	5788.29809
859.109	5686.30172
859.292	5863.19809
859.475	5555.08028
859.658	5667.56153
859.841	5563.41458
860.023	5523.82329
860.206	4937.30165
860.389	5448.7849
860.572	5165.03211
860.755	5196.34959
860.937	5217.22499
861.12	5467.54736
861.303	5367.45893
861.486	5363.2874
861.668	5286.09727
861.851	5505.06655
862.034	5100.29273
862.216	5480.0546
862.399	5154.59178
862.581	5571.74851
862.764	5167.1201
862.947	5413.33951
863.129	5221.3998
863.312	5250.62079
863.494	5313.22178
863.677	5363.2874
863.859	5246.44664
864.042	5284.01061
864.224	4997.91729
864.406	5121.17884
864.589	4966.56679
864.771	5068.95921
864.954	5008.36631
865.136	5100.29273
865.318	4853.66218
865.501	5054.33512
865.683	4908.032
865.865	4899.66842
866.048	4839.02151
866.23	4995.82742
866.412	4719.76314
866.594	5062.69188
866.777	4958.20578
866.959	4849.47924
867.141	4874.57548
867.323	4899.66842
867.505	4564.82719
867.687	4928.93935
867.869	4705.1123
868.052	5035.53105
868.234	4652.77887
868.416	4765.80142
868.598	4579.48854
868.78	4847.38774
868.962	4715.5773
869.144	4916.39522
869.326	4947.754
869.508	4830.65491
869.69	4510.36123
869.872	5037.62048
870.054	4788.81645
870.236	4755.33913
870.417	4606.71386
870.599	4746.9689
870.781	4719.76314
870.963	4744.87628
871.145	4531.31145
871.327	4774.17084
871.508	4564.82719
871.69	4723.94889
871.872	4506.17092
872.054	4778.35541
872.235	4413.96185
872.417	4550.16475
872.599	4696.7399
872.78	4862.02777
872.962	4629.74772
873.144	4583.67729
873.325	4439.11399
873.507	4851.57072
873.689	4776.26313
873.87	5029.26261
874.052	4663.24668
874.233	4732.32012
874.415	4447.49734
874.596	4506.17092
874.778	4271.37395
874.959	4422.34625
875.141	4351.06776
875.322	4675.80731
875.503	4300.73844
875.685	4786.72428
875.866	4460.0717
876.048	4644.40422
876.229	4055.20731
876.41	4407.67333
876.592	4288.15417
876.773	4451.68888
876.954	4399.28832
877.136	4677.90067
877.317	4338.4866
877.498	4485.21805
877.679	4250.39673
877.86	4338.4866
878.042	4242.00525
878.223	4462.16735
878.404	4292.34902
878.585	4424.44229
878.766	4501.98053
878.947	4627.65384
879.128	4493.59947
879.309	4767.89381
879.49	4386.71015
879.672	4581.58293
879.853	4451.68888
880.034	4439.11399
880.215	4401.3846
880.396	4558.54342
880.576	4418.1541
880.757	4627.65384
880.938	4426.53832
881.119	4686.27389
881.3	4267.17867
881.481	4640.21676
881.662	4539.69092
881.843	4560.63803
882.023	4422.34625
882.204	4286.05672
882.385	4464.26298
882.566	4648.59159
882.747	4401.3846
882.927	4772.07852
883.108	4235.71141
883.289	4468.45417
883.469	4330.09872
883.65	4432.82625
883.831	4330.09872
884.011	4537.59608
884.192	4422.34625
884.373	4569.01626
884.553	4434.92219
884.734	4556.44879
884.914	4275.56913
885.095	4728.13455
885.275	4395.09568
885.456	4772.07852
885.636	4573.20523
885.817	4945.66358
885.997	4688.36713
886.178	4696.7399
886.358	4594.14879
886.538	4560.63803
886.719	4577.39412
886.899	4694.64674
887.08	4623.46603
887.26	4610.90203
887.44	4309.12752
887.621	4857.84502
887.801	4388.80657
887.981	4671.62053
888.161	4416.05798
888.342	4619.27812
888.522	4474.74079
888.702	4529.21653
888.882	4569.01626
889.062	4711.39137
889.242	4644.40422
889.423	4545.97528
889.603	4409.76952
889.783	4571.11076
889.963	4309.12752
890.143	4548.07003
890.323	4420.25018
890.503	4552.25945
890.683	4338.4866
890.863	4543.88052
891.043	4434.92219
891.223	4545.97528
891.403	4439.11399
891.583	4625.55995
891.763	4200.04272
891.943	4631.84157
892.122	4418.1541
892.302	4556.44879
892.482	4615.09012
892.662	4719.76314
892.842	4353.16454
893.022	4644.40422
893.201	4269.27632
893.381	4579.48854
893.561	4265.08101
893.741	4342.6804
893.92	4130.78605
894.1	4405.57711
894.28	4072.00491
894.459	4185.35384
894.639	4124.48886
894.819	4455.88034
894.998	4342.6804
895.178	4330.09872
895.357	4244.10315
895.537	4269.27632
895.716	4164.36791
895.896	4443.30571
896.075	4126.58794
896.255	4313.32194
896.434	4065.70596
896.614	4365.7448
896.793	4048.90786
896.973	4292.34902
897.152	3983.80276
897.331	4002.70627
897.511	3815.69956
897.69	4053.10751
897.87	3807.29105
898.049	3948.09161
898.228	3758.93602
898.407	3872.44873
898.587	3723.18872
898.766	3924.98128
898.945	3731.60035
899.124	3779.96122
899.304	3691.64235
899.483	3805.18887
899.662	3535.95114
899.841	3822.00574
900.02	3506.48458
900.199	3529.63718
900.378	3538.05575
900.557	3573.83141
900.737	3312.75974
900.916	3512.79915
901.095	3369.62925
901.274	3773.65386
901.453	3437.01362
901.632	3474.90931
901.811	3308.54669
901.989	3460.17279
902.168	3281.16015
902.347	3451.75152
902.526	3335.93033
902.705	3401.21793
902.884	3302.22697
903.063	3262.19856
903.242	3308.54669
903.42	3384.37112
903.599	3102.02493
903.778	3323.29208
903.957	2971.28888
904.135	3257.98469
904.314	2979.72524
904.493	3106.24122
904.672	2872.14399
904.85	2969.17975
905.029	2973.39799
905.207	2760.3046
905.386	2844.71531
905.565	3040.88158
905.743	2791.96119
905.922	3038.77295
906.1	2794.07152
906.279	2870.03418
906.457	2540.73895
906.636	2855.26508
906.814	2654.76115
906.993	2568.19195
907.171	2464.70513
907.35	2756.0835
907.528	2433.02012
907.707	2532.29148
907.885	2363.30471
908.063	2420.34543
908.242	2312.59567
908.42	2500.61181
908.598	2261.8811
908.777	2618.8691
908.955	2295.69141
909.133	2390.7697
909.311	2340.06377
909.49	2367.5302
909.668	2194.25356
909.846	2439.35731
910.024	2160.43649
910.202	2219.61494
910.38	2164.66374
910.559	2399.22012
910.737	2299.91753
910.915	2340.06377
911.093	2211.16128
911.271	2595.64294
911.449	2369.64294
911.627	2416.12046
911.805	2232.29516
911.983	2401.3327
912.161	2190.02654
912.339	2591.41984
912.517	2263.99431
912.695	2359.07917
912.872	2257.65464
913.05	2430.9077
913.228	2323.16052
913.406	2352.74079
913.584	2447.80676
913.762	2335.83801
913.939	2255.5414
914.117	2471.04183
914.295	2223.84171
914.473	2422.45791
914.65	2236.52183
914.828	2221.72833
915.006	2194.25356
915.184	2557.63334
915.361	2209.04784
915.539	2420.34543
915.716	2181.57241
915.894	2352.74079
916.072	2151.9819
916.249	2297.80448
916.427	2101.25168
916.604	2323.16052
916.782	2126.61735
916.959	2293.57834
917.137	2221.72833
917.314	2236.52183
917.492	2010.3494
917.669	2228.06845
917.847	1915.20612
918.024	2206.9344
918.201	2185.79949
918.379	2202.70749
918.556	2132.95859
918.733	2356.96639
918.911	1875.03101
919.088	2158.32286
919.265	1906.74836
919.442	2094.91009
919.62	1891.94708
919.797	2116.04846
919.974	1703.73953
920.151	1875.03101
920.328	1798.90484
920.506	1889.83259
920.683	1860.22919
920.86	1915.20612
921.037	1746.03614
921.214	1951.15057
921.391	1788.3313
921.568	2001.89273
921.745	1589.533
921.922	2071.65703
922.099	1720.65834
922.276	1839.0833
922.453	1564.15294
922.63	1781.98713
922.807	1597.99297
922.984	1667.78642
923.161	1568.38296
923.338	1853.88547
923.514	1621.25772
923.691	1796.79014
923.868	1475.3214
924.045	1614.91281
924.222	1657.21182
924.399	1724.888
924.575	1665.6715
924.752	1798.90484
924.929	1587.418
925.105	1712.19896
925.282	1678.36095
925.459	1576.843
925.635	1555.69287
925.812	1678.36095
925.989	1449.94078
926.165	1483.7816
926.342	1464.74614
926.518	1416.09996
926.695	1452.05583
926.871	1481.66655
927.048	1255.35973
927.224	1460.51604
927.401	1246.90003
927.577	1494.35684
927.754	1314.57871
927.93	1521.8524
928.107	1284.969
928.283	1246.90003
928.459	1316.6937
928.636	1350.53383
928.812	1166.53538
928.988	1210.94683
929.165	1200.37253
929.341	1280.73908
929.517	917.0256
929.693	1179.2242
929.87	1018.51126
930.046	1249.01495
930.222	1043.885
930.398	1086.17637
930.574	1001.59591
930.751	1141.15816
930.927	1012.16795
931.103	1130.5845
931.279	993.13839
931.455	1016.39682
931.631	891.6568
931.807	1062.91585
931.983	862.06134
932.159	1060.80129
932.335	709.88445
932.511	995.25276
932.687	792.30735
932.863	864.17524
933.039	758.49094
933.215	976.22366
933.391	809.21649
933.566	919.13972
933.742	673.96162
933.918	917.0256
934.094	682.41375
934.27	705.65806
934.445	671.84861
934.621	714.11087
934.797	608.46402
934.973	545.09085
935.148	545.09085
935.324	528.19339
935.5	414.16009
935.675	557.76452
935.851	504.96086
936.027	585.22581
936.202	407.82623
936.378	511.29683
936.553	390.93666
936.729	481.73009
936.904	352.93901
937.08	321.27857
937.255	274.85054
937.431	329.72097
937.606	232.6511
937.782	276.96072
937.957	283.29134
938.133	312.83645
938.308	184.1314
938.483	243.20024
938.659	230.54133
938.834	224.21213
939.009	186.24073
939.185	148.27594
939.36	219.99277
939.535	184.1314
939.71	91.34168
939.886	209.44471
940.061	236.87069
940.236	171.47585
940.411	198.89714
940.586	182.02209
940.761	165.14835
940.937	173.58505
941.112	215.77348
941.287	55.50246
941.462	55.50246
941.637	108.20943
941.812	106.10089
941.987	106.10089
942.162	127.18734
942.337	72.36716
942.512	40.74705
942.687	80.80005
942.862	114.5352
943.037	25.99279
943.212	34.42366
943.386	131.40488
943.561	108.20943
943.736	101.88386
943.911	30.20817
944.086	184.1314
944.26	135.62252
944.435	93.45007
944.61	66.04272
944.785	49.17857
944.959	85.01664
945.134	80.80005
945.309	101.88386
945.483	51.28651
945.658	4.91728
945.833	93.45007
946.007	97.66692
946.182	148.27594
946.357	93.45007
946.531	122.96987
946.706	63.93463
946.88	-18.26301
947.055	40.74705
947.229	114.5352
947.404	70.25899
947.578	40.74705
947.752	68.15085
947.927	139.84024
948.101	38.63923
948.276	148.27594
948.45	95.55848
948.624	163.03922
948.799	55.50246
948.973	74.47535
949.147	127.18734
949.321	61.82655
949.496	47.07066
949.67	114.5352
949.844	89.23331
950.018	131.40488
950.193	87.12496
950.367	99.77538
950.541	133.51369
950.715	127.18734
950.889	122.96987
951.063	82.90833
951.237	184.1314
951.411	63.93463
951.585	106.10089
951.759	135.62252
951.933	59.7185
952.107	152.49392
952.281	85.01664
952.455	85.01664
952.629	49.17857
952.803	116.64384
952.977	82.90833
953.151	125.07859
953.325	127.18734
953.499	82.90833
953.672	112.42659
953.846	72.36716
954.02	74.47535
954.194	110.318
954.368	97.66692
954.541	63.93463
954.715	131.40488
954.889	112.42659
955.062	135.62252
955.236	167.25749
955.41	152.49392
955.583	118.75249
955.757	47.07066
955.93	108.20943
956.104	76.58356
956.278	87.12496
956.451	59.7185
956.625	49.17857
956.798	59.7185
956.972	106.10089
957.145	80.80005
957.319	175.69428
957.492	72.36716
957.665	59.7185
957.839	156.71198
958.012	80.80005
958.185	141.94913
958.359	122.96987
958.532	72.36716
958.705	51.28651
958.879	139.84024
959.052	122.96987
959.225	95.55848
959.398	156.71198
959.572	89.23331
959.745	68.15085
959.918	144.05805
960.091	198.89714
960.264	106.10089
960.438	150.38492
960.611	152.49392
960.784	95.55848
960.957	49.17857
961.13	93.45007
961.303	103.99236
961.476	80.80005
961.649	78.6918
961.822	97.66692
961.995	66.04272
962.168	93.45007
962.341	125.07859
962.514	85.01664
962.686	133.51369
962.859	68.15085
963.032	-3.51226
963.205	120.86117
963.378	57.61047
963.551	82.90833
963.723	106.10089
963.896	122.96987
964.069	57.61047
964.242	103.99236
964.414	55.50246
964.587	127.18734
964.76	42.8549
964.932	32.3159
965.105	30.20817
965.278	127.18734
965.45	70.25899
965.623	72.36716
965.795	101.88386
965.968	99.77538
966.14	63.93463
966.313	15.45473
966.485	34.42366
966.658	89.23331
966.83	74.47535
967.003	34.42366
967.175	-20.37016
967.348	108.20943
967.52	108.20943
967.692	106.10089
967.865	116.64384
968.037	116.64384
968.209	32.3159
968.382	34.42366
968.554	68.15085
968.726	57.61047
968.898	23.88513
969.071	34.42366
969.243	76.58356
969.415	21.7775
969.587	99.77538
969.759	74.47535
969.932	127.18734
970.104	49.17857
970.276	66.04272
970.448	93.45007
970.62	95.55848
970.792	80.80005
970.964	72.36716
971.136	72.36716
971.308	89.23331
971.48	38.63923
971.652	49.17857
971.824	38.63923
971.996	55.50246
972.168	59.7185
972.339	42.8549
972.511	25.99279
972.683	7.02472
972.855	55.50246
973.027	80.80005
973.199	93.45007
973.37	106.10089
973.542	25.99279
973.714	4.91728
973.886	55.50246
974.057	68.15085
974.229	-1.40491
974.401	0.70246
974.572	42.8549
974.744	7.02472
974.915	131.40488
975.087	13.34719
975.259	2.80986
975.43	34.42366
975.602	11.23968
975.773	23.88513
975.945	49.17857
976.116	40.74705
976.288	-3.51226
976.459	89.23331
976.63	32.3159
976.802	82.90833
976.973	9.13219
977.145	55.50246
977.316	89.23331
977.487	97.66692
977.659	-3.51226
977.83	7.02472
978.001	122.96987
978.172	-14.04863
978.344	-20.37016
978.515	47.07066
978.686	-11.94141
978.857	-11.94141
979.028	97.66692
979.2	-18.26301
979.371	44.96277
979.542	34.42366
979.713	15.45473
979.884	38.63923
980.055	47.07066
980.226	-16.15583
980.397	72.36716
980.568	4.91728
980.739	-26.69148
980.91	15.45473
981.081	38.63923
981.252	-9.83416
981.423	51.28651
981.594	30.20817
981.765	21.7775
981.936	-20.37016
982.106	51.28651
982.277	-22.47729
982.448	55.50246
982.619	-3.51226
982.79	-20.37016
982.96	59.7185
983.131	-1.40491
983.302	30.20817
983.472	34.42366
983.643	40.74705
983.814	42.8549
983.984	114.5352
984.155	44.96277
984.326	-5.61958
984.496	30.20817
984.667	28.10047
984.837	-5.61958
985.008	13.34719
985.178	13.34719
985.349	-28.79853
985.519	30.20817
985.69	-16.15583
985.86	4.91728
986.031	49.17857
986.201	-1.40491
986.371	38.63923
986.542	-24.5844
986.712	4.91728
986.882	-3.51226
987.053	11.23968
987.223	7.02472
987.393	-14.04863
987.563	0.70246
987.734	-20.37016
987.904	70.25899
988.074	-62.50801
988.244	-26.69148
988.414	4.91728
988.585	-26.69148
988.755	-5.61958
988.925	11.23968
989.095	15.45473
989.265	2.80986
989.435	-49.86771
989.605	-18.26301
989.775	-11.94141
989.945	25.99279
990.115	-1.40491
990.285	-11.94141
990.455	4.91728
990.625	-54.08124
990.795	72.36716
990.965	49.17857
991.134	30.20817
991.304	38.63923
991.474	-87.78586
991.644	51.28651
991.814	40.74705
991.984	-49.86771
992.153	28.10047
992.323	17.5623
992.493	-20.37016
992.662	-11.94141
992.832	-28.79853
993.002	47.07066
993.171	7.02472
993.341	74.47535
993.511	15.45473
993.68	-28.79853
993.85	160.93012
994.019	-24.5844
994.189	-39.33343
994.358	-28.79853
994.528	-45.65407
994.697	15.45473
994.867	-16.15583
995.036	32.3159
995.206	-81.46674
995.375	0.70246
995.544	-11.94141
995.714	-3.51226
995.883	-5.61958
996.052	13.34719
996.222	47.07066
996.391	13.34719
996.56	-33.01256
996.73	-26.69148
996.899	30.20817
997.068	91.34168
997.237	-35.11954
997.406	-51.97449
997.576	-11.94141
997.745	-9.83416
997.914	61.82655
998.083	-73.04089
998.252	-11.94141
998.421	-20.37016
998.59	15.45473
998.759	-54.08124
998.928	40.74705
999.097	9.13219
999.266	-41.44034
999.435	-22.47729
999.604	-43.54722
999.773	2.80986
999.942	23.88513
1000.111	-18.26301
1000.28	47.07066
1000.448	-81.46674
1000.617	23.88513
1000.786	-20.37016
1000.955	21.7775
1001.124	-30.90556
1001.292	7.02472
1001.461	57.61047
1001.63	-75.1474
1001.798	-64.61464
1001.967	34.42366
1002.136	-3.51226
1002.304	2.80986
1002.473	59.7185
1002.642	-37.2265
1002.81	-45.65407
1002.979	-33.01256
1003.147	-18.26301
1003.316	-1.40491
1003.484	-33.01256
1003.653	-14.04863
1003.821	55.50246
1003.99	-3.51226
1004.158	-11.94141
1004.327	11.23968
1004.495	-37.2265
1004.663	-18.26301
1004.832	13.34719
1005	-5.61958
1005.168	4.91728
1005.337	21.7775
1005.505	9.13219
1005.673	-11.94141
1005.842	-3.51226
1006.01	-7.72688
1006.178	21.7775
1006.346	-16.15583
1006.514	-45.65407
1006.683	-22.47729
1006.851	-62.50801
1007.019	28.10047
1007.187	-104.63569
1007.355	-58.29468
1007.523	-18.26301
1007.691	9.13219
1007.859	9.13219
1008.027	0.70246
1008.195	-54.08124
1008.363	-35.11954
1008.531	9.13219
1008.699	38.63923
1008.867	-30.90556
1009.035	7.02472
1009.203	34.42366
1009.37	4.91728
1009.538	15.45473
1009.706	116.64384
1009.874	-41.44034
1010.042	-58.29468
1010.209	-43.54722
1010.377	15.45473
1010.545	-37.2265
1010.713	49.17857
1010.88	15.45473
1011.048	-14.04863
1011.216	-62.50801
1011.383	-28.79853
1011.551	38.63923
1011.718	49.17857
1011.886	-45.65407
1012.054	-33.01256
1012.221	-37.2265
1012.389	34.42366
1012.556	-58.29468
1012.724	40.74705
1012.891	-7.72688
1013.058	-20.37016
1013.226	-37.2265
1013.393	-51.97449
1013.561	7.02472
1013.728	-9.83416
1013.895	4.91728
1014.063	-3.51226
1014.23	30.20817
1014.397	-14.04863
1014.565	32.3159
1014.732	-3.51226
1014.899	-37.2265
1015.066	-16.15583
1015.233	-43.54722
1015.401	-39.33343
1015.568	-37.2265
1015.735	-7.72688
1015.902	-49.86771
1016.069	-20.37016
1016.236	-35.11954
1016.403	38.63923
1016.57	-60.40135
1016.737	-37.2265
1016.904	-28.79853
1017.071	-20.37016
1017.238	-24.5844
1017.405	13.34719
1017.572	42.8549
1017.739	11.23968
1017.906	-16.15583
1018.073	-16.15583
1018.24	-33.01256
1018.407	-45.65407
1018.573	-37.2265
1018.74	36.53143
1018.907	-9.83416
1019.074	-60.40135
1019.241	9.13219
1019.407	-3.51226
1019.574	9.13219
1019.741	7.02472
1019.907	-58.29468
1020.074	-70.93437
1020.241	9.13219
1020.407	30.20817
1020.574	38.63923
1020.74	-3.51226
1020.907	-16.15583
1021.073	0.70246
1021.24	19.66988
1021.406	11.23968
1021.573	9.13219
1021.739	7.02472
1021.906	0.70246
1022.072	-54.08124
1022.239	-62.50801
1022.405	-16.15583
1022.571	17.5623
1022.738	-7.72688
1022.904	9.13219
1023.07	15.45473
1023.237	-11.94141
1023.403	-64.61464
1023.569	-11.94141
1023.735	-22.47729
1023.902	-28.79853
1024.068	-7.72688
1024.234	47.07066
1024.4	-89.89218
1024.566	-70.93437
1024.732	-58.29468
1024.898	-62.50801
1025.065	-22.47729
1025.231	-11.94141
1025.397	-43.54722
1025.563	-100.42339
1025.729	-33.01256
1025.895	21.7775
1026.061	23.88513
1026.227	40.74705
1026.392	-51.97449
1026.558	-56.18797
1026.724	-98.3172
1026.89	30.20817
1027.056	-62.50801
1027.222	-1.40491
1027.388	-54.08124
1027.553	25.99279
1027.719	-47.7609
1027.885	30.20817
1028.051	7.02472
1028.216	9.13219
1028.382	-3.51226
1028.548	-28.79853
1028.713	-39.33343
1028.879	-3.51226
1029.045	-3.51226
1029.21	13.34719
1029.376	-3.51226
1029.541	-3.51226
1029.707	38.63923
1029.873	13.34719
1030.038	-70.93437
1030.204	4.91728
1030.369	7.02472
1030.534	-89.89218
1030.7	-125.6956
1030.865	-62.50801
1031.031	-18.26301
1031.196	-3.51226
1031.361	-7.72688
1031.527	0.70246
1031.692	-45.65407
1031.857	-51.97449
1032.023	-58.29468
1032.188	-28.79853
1032.353	-20.37016
1032.518	-1.40491
1032.684	-54.08124
1032.849	-26.69148
1033.014	4.91728
1033.179	-68.82782
1033.344	32.3159
1033.509	-62.50801
1033.674	-96.21098
1033.839	-62.50801
1034.004	9.13219
1034.17	-75.1474
1034.335	-62.50801
1034.5	-108.84788
1034.664	-33.01256
1034.829	-35.11954
1034.994	30.20817
1035.159	-33.01256
1035.324	49.17857
1035.489	-16.15583
1035.654	-62.50801
1035.819	-39.33343
1035.984	4.91728
1036.148	15.45473
1036.313	76.58356
1036.478	40.74705
1036.643	-58.29468
1036.807	-49.86771
1036.972	-16.15583
1037.137	7.02472
1037.301	-3.51226
1037.466	-37.2265
1037.631	-68.82782
1037.795	13.34719
1037.96	23.88513
1038.124	-47.7609
1038.289	-11.94141
1038.454	-3.51226
1038.618	-37.2265
1038.783	-79.36032
1038.947	-11.94141
1039.111	4.91728
1039.276	-3.51226
1039.44	-41.44034
1039.605	-28.79853
1039.769	-51.97449
1039.933	-16.15583
1040.098	-54.08124
1040.262	66.04272
1040.426	-60.40135
1040.591	7.02472
1040.755	-3.51226
1040.919	32.3159
1041.083	28.10047
1041.248	-51.97449
1041.412	-79.36032
1041.576	-45.65407
1041.74	-39.33343
1041.904	-3.51226
1042.068	4.91728
1042.232	0.70246
1042.397	17.5623
1042.561	-70.93437
1042.725	-37.2265
1042.889	-106.7418
1043.053	63.93463
1043.217	7.02472
1043.381	-54.08124
1043.544	-7.72688
1043.708	-79.36032
1043.872	-62.50801
1044.036	-18.26301
1044.2	-70.93437
1044.364	-24.5844
1044.528	-35.11954
1044.691	25.99279
1044.855	23.88513
1045.019	-81.46674
1045.183	-37.2265
1045.346	-54.08124
1045.51	-16.15583
1045.674	-79.36032
1045.837	32.3159
1046.001	-1.40491
1046.165	-35.11954
1046.328	30.20817
1046.492	30.20817
1046.655	-51.97449
1046.819	-66.72124
1046.983	-75.1474
1047.146	30.20817
1047.31	-54.08124
1047.473	-54.08124
1047.636	76.58356
1047.8	-51.97449
1047.963	-28.79853
1048.127	-24.5844
1048.29	-7.72688
