Data from mixed_try1_USB4F045381__7__00072.txt Node

Date: Thu Apr 03 19:51:26 EDT 2025
User: mmckonesweet
Spectrometer: USB4F04538
Trigger mode: 4
Integration Time (sec): 2.700000E-3
Scans to average: 1
Electric dark correction enabled: true
Nonlinearity correction enabled: true
Boxcar width: 0
XAxis mode: Wavelengths
Number of Pixels in Spectrum: 3648
>>>>>Begin Spectral Data<<<<<
345.52	-30.90556
345.736	-30.90556
345.952	-30.90556
346.168	-54.08124
346.384	-45.65407
346.6	42.8549
346.816	-18.26301
347.032	2.80986
347.248	23.88513
347.464	-37.2265
347.68	-9.83416
347.896	-41.44034
348.112	30.20817
348.328	-18.26301
348.544	-7.72688
348.76	-7.72688
348.975	40.74705
349.191	-1.40491
349.407	-35.11954
349.623	17.5623
349.839	9.13219
350.055	-33.01256
350.27	-51.97449
350.486	-58.29468
350.702	-68.82782
350.918	-35.11954
351.133	72.36716
351.349	-43.54722
351.565	-14.04863
351.781	-9.83416
351.996	4.91728
352.212	32.3159
352.428	-58.29468
352.644	-94.10474
352.859	11.23968
353.075	15.45473
353.291	-18.26301
353.506	21.7775
353.722	-68.82782
353.938	32.3159
354.153	-33.01256
354.369	-73.04089
354.584	-18.26301
354.8	11.23968
355.016	-18.26301
355.231	7.02472
355.447	-11.94141
355.662	-14.04863
355.878	0.70246
356.093	-64.61464
356.309	-56.18797
356.524	-75.1474
356.74	0.70246
356.955	-54.08124
357.171	-9.83416
357.386	7.02472
357.602	-7.72688
357.817	19.66988
358.033	74.47535
358.248	2.80986
358.464	-1.40491
358.679	40.74705
358.895	-43.54722
359.11	-26.69148
359.325	15.45473
359.541	32.3159
359.756	23.88513
359.972	-14.04863
360.187	-89.89218
360.402	34.42366
360.618	15.45473
360.833	-37.2265
361.048	-28.79853
361.264	-7.72688
361.479	-73.04089
361.694	-18.26301
361.909	-49.86771
362.125	-110.95394
362.34	-39.33343
362.555	30.20817
362.77	0.70246
362.986	-16.15583
363.201	2.80986
363.416	-5.61958
363.631	-58.29468
363.847	-22.47729
364.062	-24.5844
364.277	-58.29468
364.492	19.66988
364.707	2.80986
364.922	-22.47729
365.138	-30.90556
365.353	25.99279
365.568	-45.65407
365.783	-51.97449
365.998	15.45473
366.213	51.28651
366.428	-49.86771
366.643	-41.44034
366.858	32.3159
367.073	23.88513
367.288	-22.47729
367.503	-39.33343
367.718	25.99279
367.933	-35.11954
368.148	-1.40491
368.363	-30.90556
368.578	-14.04863
368.793	0.70246
369.008	-7.72688
369.223	-5.61958
369.438	15.45473
369.653	-26.69148
369.868	0.70246
370.083	-9.83416
370.298	-68.82782
370.513	72.36716
370.728	-41.44034
370.943	49.17857
371.157	-16.15583
371.372	-16.15583
371.587	-1.40491
371.802	4.91728
372.017	-16.15583
372.232	-16.15583
372.446	-18.26301
372.661	-26.69148
372.876	-62.50801
373.091	-60.40135
373.306	-30.90556
373.52	32.3159
373.735	7.02472
373.95	40.74705
374.165	-7.72688
374.379	-1.40491
374.594	-9.83416
374.809	40.74705
375.023	-56.18797
375.238	25.99279
375.453	-22.47729
375.667	-83.57314
375.882	-43.54722
376.097	-35.11954
376.311	13.34719
376.526	4.91728
376.741	-49.86771
376.955	-1.40491
377.17	-14.04863
377.384	-18.26301
377.599	32.3159
377.813	-26.69148
378.028	-33.01256
378.242	-47.7609
378.457	23.88513
378.672	-85.67951
378.886	-9.83416
379.101	23.88513
379.315	-43.54722
379.53	-5.61958
379.744	-37.2265
379.958	30.20817
380.173	32.3159
380.387	-49.86771
380.602	53.39447
380.816	-26.69148
381.031	57.61047
381.245	42.8549
381.459	-3.51226
381.674	19.66988
381.888	0.70246
382.103	-22.47729
382.317	-26.69148
382.531	40.74705
382.746	-94.10474
382.96	30.20817
383.174	-11.94141
383.388	40.74705
383.603	21.7775
383.817	7.02472
384.031	7.02472
384.246	23.88513
384.46	2.80986
384.674	-9.83416
384.888	-47.7609
385.103	-56.18797
385.317	-22.47729
385.531	-9.83416
385.745	28.10047
385.959	19.66988
386.174	-83.57314
386.388	32.3159
386.602	-3.51226
386.816	-11.94141
387.03	-70.93437
387.244	28.10047
387.458	59.7185
387.672	49.17857
387.887	-43.54722
388.101	-77.25387
388.315	-56.18797
388.529	-30.90556
388.743	53.39447
388.957	-64.61464
389.171	-60.40135
389.385	44.96277
389.599	-60.40135
389.813	4.91728
390.027	68.15085
390.241	9.13219
390.455	-127.80145
390.669	-3.51226
390.883	28.10047
391.097	40.74705
391.311	17.5623
391.525	-26.69148
391.738	21.7775
391.952	-9.83416
392.166	2.80986
392.38	-68.82782
392.594	-26.69148
392.808	68.15085
393.022	-43.54722
393.236	15.45473
393.449	-77.25387
393.663	-18.26301
393.877	19.66988
394.091	-35.11954
394.305	-18.26301
394.518	2.80986
394.732	-70.93437
394.946	15.45473
395.16	-83.57314
395.373	-16.15583
395.587	-35.11954
395.801	13.34719
396.015	-24.5844
396.228	-24.5844
396.442	-1.40491
396.656	57.61047
396.869	-41.44034
397.083	7.02472
397.297	7.02472
397.51	-7.72688
397.724	-16.15583
397.938	-26.69148
398.151	32.3159
398.365	-60.40135
398.578	7.02472
398.792	11.23968
399.005	-26.69148
399.219	-26.69148
399.433	-47.7609
399.646	-9.83416
399.86	-60.40135
400.073	-14.04863
400.287	-5.61958
400.5	7.02472
400.714	42.8549
400.927	66.04272
401.141	-60.40135
401.354	-56.18797
401.567	23.88513
401.781	-26.69148
401.994	-18.26301
402.208	42.8549
402.421	-24.5844
402.635	-3.51226
402.848	25.99279
403.061	-41.44034
403.275	17.5623
403.488	-43.54722
403.701	44.96277
403.915	-7.72688
404.128	17.5623
404.341	-18.26301
404.555	-1.40491
404.768	38.63923
404.981	51.28651
405.195	-49.86771
405.408	-5.61958
405.621	25.99279
405.834	-5.61958
406.048	-39.33343
406.261	13.34719
406.474	-26.69148
406.687	-54.08124
406.9	36.53143
407.114	-24.5844
407.327	-64.61464
407.54	-5.61958
407.753	19.66988
407.966	-56.18797
408.179	-5.61958
408.392	-47.7609
408.605	32.3159
408.819	-39.33343
409.032	-35.11954
409.245	7.02472
409.458	-1.40491
409.671	15.45473
409.884	-35.11954
410.097	17.5623
410.31	-68.82782
410.523	-28.79853
410.736	-51.97449
410.949	-5.61958
411.162	66.04272
411.375	15.45473
411.588	-33.01256
411.801	-9.83416
412.014	47.07066
412.227	-14.04863
412.44	-35.11954
412.653	-47.7609
412.865	36.53143
413.078	-16.15583
413.291	9.13219
413.504	17.5623
413.717	9.13219
413.93	42.8549
414.143	-18.26301
414.356	74.47535
414.568	25.99279
414.781	-30.90556
414.994	-26.69148
415.207	-24.5844
415.42	-77.25387
415.632	0.70246
415.845	11.23968
416.058	101.88386
416.271	-35.11954
416.483	-5.61958
416.696	-47.7609
416.909	42.8549
417.121	74.47535
417.334	-51.97449
417.547	-70.93437
417.759	-39.33343
417.972	-5.61958
418.185	-26.69148
418.397	34.42366
418.61	66.04272
418.823	-9.83416
419.035	-70.93437
419.248	-68.82782
419.46	2.80986
419.673	42.8549
419.885	-9.83416
420.098	-18.26301
420.311	-5.61958
420.523	-22.47729
420.736	34.42366
420.948	-85.67951
421.161	25.99279
421.373	15.45473
421.586	-33.01256
421.798	23.88513
422.01	19.66988
422.223	11.23968
422.435	-14.04863
422.648	-1.40491
422.86	7.02472
423.073	0.70246
423.285	25.99279
423.497	59.7185
423.71	42.8549
423.922	7.02472
424.134	-79.36032
424.347	-58.29468
424.559	4.91728
424.771	-24.5844
424.984	2.80986
425.196	23.88513
425.408	36.53143
425.621	-33.01256
425.833	-28.79853
426.045	-1.40491
426.257	-9.83416
426.47	19.66988
426.682	23.88513
426.894	-14.04863
427.106	-9.83416
427.318	99.77538
427.531	-11.94141
427.743	-45.65407
427.955	-9.83416
428.167	11.23968
428.379	0.70246
428.591	4.91728
428.804	-5.61958
429.016	25.99279
429.228	-62.50801
429.44	-26.69148
429.652	-7.72688
429.864	42.8549
430.076	-66.72124
430.288	25.99279
430.5	25.99279
430.712	13.34719
430.924	19.66988
431.136	-51.97449
431.348	2.80986
431.56	21.7775
431.772	-51.97449
431.984	-14.04863
432.196	42.8549
432.408	-43.54722
432.62	-18.26301
432.832	66.04272
433.044	15.45473
433.256	-51.97449
433.468	-39.33343
433.679	-5.61958
433.891	25.99279
434.103	15.45473
434.315	25.99279
434.527	-81.46674
434.739	34.42366
434.95	23.88513
435.162	-33.01256
435.374	36.53143
435.586	-79.36032
435.798	-20.37016
436.009	-37.2265
436.221	28.10047
436.433	25.99279
436.645	-24.5844
436.856	28.10047
437.068	-26.69148
437.28	-47.7609
437.491	-33.01256
437.703	-18.26301
437.915	-1.40491
438.126	-26.69148
438.338	93.45007
438.55	-81.46674
438.761	-9.83416
438.973	66.04272
439.184	-22.47729
439.396	-43.54722
439.608	-5.61958
439.819	25.99279
440.031	-77.25387
440.242	-22.47729
440.454	-58.29468
440.665	-56.18797
440.877	21.7775
441.088	28.10047
441.3	32.3159
441.511	-26.69148
441.723	2.80986
441.934	-33.01256
442.146	19.66988
442.357	34.42366
442.569	-9.83416
442.78	-47.7609
442.991	-56.18797
443.203	-14.04863
443.414	68.15085
443.626	-30.90556
443.837	-41.44034
444.048	-24.5844
444.26	-98.3172
444.471	0.70246
444.682	-30.90556
444.894	32.3159
445.105	82.90833
445.316	15.45473
445.528	11.23968
445.739	-30.90556
445.95	-5.61958
446.161	-24.5844
446.373	17.5623
446.584	-54.08124
446.795	-7.72688
447.006	7.02472
447.217	-22.47729
447.429	-77.25387
447.64	17.5623
447.851	-73.04089
448.062	23.88513
448.273	-11.94141
448.484	25.99279
448.695	-30.90556
448.907	32.3159
449.118	-1.40491
449.329	-83.57314
449.54	-51.97449
449.751	74.47535
449.962	-35.11954
450.173	-9.83416
450.384	-35.11954
450.595	-73.04089
450.806	-1.40491
451.017	-5.61958
451.228	-7.72688
451.439	-3.51226
451.65	-60.40135
451.861	-16.15583
452.072	4.91728
452.283	11.23968
452.494	-9.83416
452.705	-73.04089
452.915	-33.01256
453.126	40.74705
453.337	-41.44034
453.548	-24.5844
453.759	19.66988
453.97	-43.54722
454.181	-7.72688
454.391	-35.11954
454.602	-35.11954
454.813	-26.69148
455.024	7.02472
455.235	87.12496
455.445	-26.69148
455.656	-9.83416
455.867	25.99279
456.078	40.74705
456.288	4.91728
456.499	-68.82782
456.71	-16.15583
456.921	9.13219
457.131	-22.47729
457.342	-30.90556
457.553	0.70246
457.763	-18.26301
457.974	-14.04863
458.184	-9.83416
458.395	-39.33343
458.606	-47.7609
458.816	-1.40491
459.027	19.66988
459.237	-56.18797
459.448	-14.04863
459.659	-22.47729
459.869	-28.79853
460.08	51.28651
460.29	-16.15583
460.501	19.66988
460.711	-54.08124
460.922	25.99279
461.132	-68.82782
461.343	9.13219
461.553	-22.47729
461.764	7.02472
461.974	19.66988
462.184	-121.48383
462.395	-1.40491
462.605	-24.5844
462.816	-18.26301
463.026	32.3159
463.236	23.88513
463.447	51.28651
463.657	-51.97449
463.867	7.02472
464.078	-73.04089
464.288	49.17857
464.498	-56.18797
464.709	-39.33343
464.919	32.3159
465.129	-77.25387
465.339	-24.5844
465.55	-1.40491
465.76	-35.11954
465.97	49.17857
466.18	40.74705
466.391	2.80986
466.601	53.39447
466.811	-60.40135
467.021	40.74705
467.231	-5.61958
467.441	-14.04863
467.651	11.23968
467.862	23.88513
468.072	11.23968
468.282	19.66988
468.492	-64.61464
468.702	32.3159
468.912	7.02472
469.122	-41.44034
469.332	-45.65407
469.542	137.73137
469.752	15.45473
469.962	7.02472
470.172	-39.33343
470.382	-5.61958
470.592	7.02472
470.802	44.96277
471.012	-11.94141
471.222	-26.69148
471.432	28.10047
471.642	-24.5844
471.852	-5.61958
472.062	66.04272
472.272	15.45473
472.482	-30.90556
472.691	-5.61958
472.901	15.45473
473.111	-60.40135
473.321	-9.83416
473.531	-16.15583
473.741	-100.42339
473.95	11.23968
474.16	-18.26301
474.37	44.96277
474.58	-30.90556
474.79	-51.97449
474.999	23.88513
475.209	-64.61464
475.419	-1.40491
475.628	49.17857
475.838	-3.51226
476.048	-77.25387
476.258	-9.83416
476.467	-85.67951
476.677	49.17857
476.886	66.04272
477.096	42.8549
477.306	-39.33343
477.515	-1.40491
477.725	19.66988
477.935	7.02472
478.144	-94.10474
478.354	59.7185
478.563	-14.04863
478.773	36.53143
478.982	-43.54722
479.192	63.93463
479.401	-26.69148
479.611	63.93463
479.82	-18.26301
480.03	23.88513
480.239	-9.83416
480.449	7.02472
480.658	-33.01256
480.868	-14.04863
481.077	11.23968
481.287	-68.82782
481.496	49.17857
481.705	13.34719
481.915	-41.44034
482.124	59.7185
482.333	-5.61958
482.543	23.88513
482.752	-35.11954
482.961	34.42366
483.171	28.10047
483.38	-24.5844
483.589	-45.65407
483.799	32.3159
484.008	7.02472
484.217	-66.72124
484.426	2.80986
484.636	-60.40135
484.845	-39.33343
485.054	-18.26301
485.263	-26.69148
485.472	11.23968
485.682	-39.33343
485.891	4.91728
486.1	-49.86771
486.309	-68.82782
486.518	23.88513
486.727	51.28651
486.936	7.02472
487.146	28.10047
487.355	99.77538
487.564	-56.18797
487.773	59.7185
487.982	-1.40491
488.191	-47.7609
488.4	9.13219
488.609	11.23968
488.818	-22.47729
489.027	23.88513
489.236	-7.72688
489.445	42.8549
489.654	2.80986
489.863	-47.7609
490.072	40.74705
490.281	-41.44034
490.49	-79.36032
490.698	-30.90556
490.907	-66.72124
491.116	-3.51226
491.325	7.02472
491.534	7.02472
491.743	-26.69148
491.952	-24.5844
492.16	-26.69148
492.369	23.88513
492.578	66.04272
492.787	70.25899
492.996	38.63923
493.204	-14.04863
493.413	-20.37016
493.622	68.15085
493.831	-51.97449
494.039	-39.33343
494.248	-26.69148
494.457	68.15085
494.665	-35.11954
494.874	11.23968
495.083	-33.01256
495.291	-24.5844
495.5	32.3159
495.709	76.58356
495.917	-5.61958
496.126	34.42366
496.335	42.8549
496.543	15.45473
496.752	40.74705
496.96	-66.72124
497.169	7.02472
497.377	101.88386
497.586	-5.61958
497.794	59.7185
498.003	0.70246
498.211	2.80986
498.42	-39.33343
498.628	-98.3172
498.837	57.61047
499.045	-18.26301
499.254	44.96277
499.462	-30.90556
499.671	51.28651
499.879	-51.97449
500.087	49.17857
500.296	9.13219
500.504	63.93463
500.713	4.91728
500.921	11.23968
501.129	-56.18797
501.338	23.88513
501.546	25.99279
501.754	-73.04089
501.962	53.39447
502.171	7.02472
502.379	19.66988
502.587	40.74705
502.795	19.66988
503.004	42.8549
503.212	68.15085
503.42	-14.04863
503.628	2.80986
503.837	34.42366
504.045	36.53143
504.253	53.39447
504.461	-22.47729
504.669	82.90833
504.877	25.99279
505.085	93.45007
505.294	51.28651
505.502	76.58356
505.71	-62.50801
505.918	23.88513
506.126	-9.83416
506.334	51.28651
506.542	32.3159
506.75	32.3159
506.958	-51.97449
507.166	51.28651
507.374	-30.90556
507.582	13.34719
507.79	19.66988
507.998	-9.83416
508.206	-39.33343
508.414	49.17857
508.622	17.5623
508.83	-5.61958
509.037	11.23968
509.245	42.8549
509.453	15.45473
509.661	15.45473
509.869	32.3159
510.077	19.66988
510.285	7.02472
510.492	7.02472
510.7	28.10047
510.908	17.5623
511.116	17.5623
511.324	4.91728
511.531	-41.44034
511.739	-18.26301
511.947	-16.15583
512.155	7.02472
512.362	7.02472
512.57	49.17857
512.778	-24.5844
512.985	-1.40491
513.193	74.47535
513.401	-60.40135
513.608	42.8549
513.816	53.39447
514.024	4.91728
514.231	-1.40491
514.439	-7.72688
514.646	-28.79853
514.854	32.3159
515.061	82.90833
515.269	103.99236
515.477	9.13219
515.684	-35.11954
515.892	66.04272
516.099	40.74705
516.307	76.58356
516.514	17.5623
516.722	68.15085
516.929	-16.15583
517.136	59.7185
517.344	15.45473
517.551	-7.72688
517.759	11.23968
517.966	-49.86771
518.173	74.47535
518.381	42.8549
518.588	25.99279
518.796	68.15085
519.003	-22.47729
519.21	42.8549
519.418	-3.51226
519.625	34.42366
519.832	-3.51226
520.039	32.3159
520.247	4.91728
520.454	11.23968
520.661	-56.18797
520.868	51.28651
521.076	-5.61958
521.283	15.45473
521.49	7.02472
521.697	-7.72688
521.904	49.17857
522.112	47.07066
522.319	7.02472
522.526	42.8549
522.733	0.70246
522.94	57.61047
523.147	9.13219
523.354	42.8549
523.561	34.42366
523.768	17.5623
523.975	-30.90556
524.183	-14.04863
524.39	-16.15583
524.597	97.66692
524.804	-43.54722
525.011	47.07066
525.218	11.23968
525.425	91.34168
525.632	25.99279
525.838	36.53143
526.045	63.93463
526.252	32.3159
526.459	34.42366
526.666	4.91728
526.873	15.45473
527.08	95.55848
527.287	28.10047
527.494	40.74705
527.701	32.3159
527.907	38.63923
528.114	61.82655
528.321	-11.94141
528.528	66.04272
528.735	49.17857
528.941	53.39447
529.148	-9.83416
529.355	-51.97449
529.562	32.3159
529.768	78.6918
529.975	-54.08124
530.182	-5.61958
530.388	59.7185
530.595	-16.15583
530.802	76.58356
531.008	-9.83416
531.215	87.12496
531.422	0.70246
531.628	38.63923
531.835	-20.37016
532.042	66.04272
532.248	61.82655
532.455	42.8549
532.661	42.8549
532.868	87.12496
533.074	70.25899
533.281	-26.69148
533.487	91.34168
533.694	25.99279
533.9	53.39447
534.107	61.82655
534.313	-1.40491
534.52	53.39447
534.726	15.45473
534.933	57.61047
535.139	93.45007
535.345	99.77538
535.552	-1.40491
535.758	91.34168
535.965	89.23331
536.171	34.42366
536.377	36.53143
536.584	-11.94141
536.79	-26.69148
536.996	23.88513
537.203	-35.11954
537.409	15.45473
537.615	-9.83416
537.821	135.62252
538.028	49.17857
538.234	66.04272
538.44	42.8549
538.646	28.10047
538.853	108.20943
539.059	101.88386
539.265	112.42659
539.471	97.66692
539.677	25.99279
539.883	95.55848
540.09	66.04272
540.296	-26.69148
540.502	74.47535
540.708	91.34168
540.914	72.36716
541.12	76.58356
541.326	82.90833
541.532	91.34168
541.738	-37.2265
541.944	7.02472
542.15	87.12496
542.356	-35.11954
542.562	93.45007
542.768	-9.83416
542.974	53.39447
543.18	9.13219
543.386	106.10089
543.592	57.61047
543.798	120.86117
544.004	122.96987
544.21	70.25899
544.415	59.7185
544.621	23.88513
544.827	-18.26301
545.033	57.61047
545.239	44.96277
545.445	89.23331
545.651	135.62252
545.856	36.53143
546.062	89.23331
546.268	78.6918
546.474	87.12496
546.679	23.88513
546.885	38.63923
547.091	133.51369
547.297	17.5623
547.502	66.04272
547.708	19.66988
547.914	32.3159
548.119	23.88513
548.325	51.28651
548.531	146.16698
548.736	-7.72688
548.942	108.20943
549.147	169.36666
549.353	76.58356
549.559	93.45007
549.764	114.5352
549.97	82.90833
550.175	59.7185
550.381	85.01664
550.586	85.01664
550.792	78.6918
550.997	127.18734
551.203	116.64384
551.408	82.90833
551.614	133.51369
551.819	154.60294
552.025	51.28651
552.23	85.01664
552.435	137.73137
552.641	192.56884
552.846	141.94913
553.052	125.07859
553.257	125.07859
553.462	108.20943
553.668	78.6918
553.873	148.27594
554.078	118.75249
554.283	74.47535
554.489	53.39447
554.694	158.82104
554.899	127.18734
555.105	116.64384
555.31	101.88386
555.515	133.51369
555.72	137.73137
555.925	85.01664
556.131	150.38492
556.336	135.62252
556.541	146.16698
556.746	167.25749
556.951	125.07859
557.156	66.04272
557.361	99.77538
557.567	156.71198
557.772	116.64384
557.977	186.24073
558.182	101.88386
558.387	17.5623
558.592	139.84024
558.797	127.18734
559.002	101.88386
559.207	125.07859
559.412	188.35008
559.617	196.78769
559.822	163.03922
560.027	201.00661
560.232	129.2961
560.437	150.38492
560.642	152.49392
560.847	160.93012
561.051	160.93012
561.256	148.27594
561.461	238.98052
561.666	152.49392
561.871	139.84024
562.076	144.05805
562.281	160.93012
562.485	135.62252
562.69	163.03922
562.895	251.6399
563.1	141.94913
563.305	192.56884
563.509	196.78769
563.714	171.47585
563.919	165.14835
564.123	150.38492
564.328	135.62252
564.533	238.98052
564.737	154.60294
564.942	154.60294
565.147	203.11611
565.351	129.2961
565.556	118.75249
565.761	154.60294
565.965	192.56884
566.17	167.25749
566.374	137.73137
566.579	116.64384
566.784	184.1314
566.988	158.82104
567.193	228.43158
567.397	114.5352
567.602	150.38492
567.806	177.80353
568.011	209.44471
568.215	135.62252
568.42	291.73244
568.624	224.21213
568.828	184.1314
569.033	120.86117
569.237	228.43158
569.442	177.80353
569.646	186.24073
569.85	152.49392
570.055	232.6511
570.259	224.21213
570.463	230.54133
570.668	251.6399
570.872	224.21213
571.076	198.89714
571.281	207.33515
571.485	198.89714
571.689	253.74986
571.893	160.93012
572.098	165.14835
572.302	175.69428
572.506	213.66387
572.71	154.60294
572.914	236.87069
573.119	279.07091
573.323	211.55428
573.527	203.11611
573.731	179.9128
573.935	169.36666
574.139	194.67826
574.343	190.45945
574.547	190.45945
574.751	310.72597
574.955	209.44471
575.159	268.52014
575.364	342.38509
575.568	209.44471
575.772	245.31013
575.976	276.96072
576.18	344.49584
576.383	262.18991
576.587	312.83645
576.791	289.62213
576.995	281.18111
577.199	175.69428
577.403	302.28422
577.607	257.96985
577.811	321.27857
578.015	289.62213
578.219	253.74986
578.422	293.84276
578.626	260.07987
578.83	224.21213
579.034	336.05295
579.238	262.18991
579.442	260.07987
579.645	234.76089
579.849	365.60428
580.053	310.72597
580.257	314.94696
580.46	336.05295
580.664	302.28422
580.868	317.05747
581.071	327.61034
581.275	302.28422
581.479	374.04814
581.682	298.06345
581.886	407.82623
582.09	270.63026
582.293	352.93901
582.497	333.94227
582.7	378.27017
582.904	416.27141
583.107	293.84276
583.311	272.74039
583.515	255.85985
583.718	295.95309
583.922	344.49584
584.125	317.05747
584.329	395.15895
584.532	414.16009
584.735	395.15895
584.939	369.82618
585.142	285.40159
585.346	365.60428
585.549	405.71498
585.753	346.60661
585.956	363.49336
586.159	397.27012
586.363	352.93901
586.566	272.74039
586.769	426.82825
586.973	395.15895
587.176	399.38131
587.379	437.38548
587.582	422.60547
587.786	414.16009
587.989	420.4941
588.192	374.04814
588.395	445.83155
588.599	426.82825
588.802	498.62502
589.005	386.71443
589.208	464.83611
589.411	462.72443
589.615	540.8664
589.818	454.27787
590.021	445.83155
590.224	443.72001
590.427	471.17124
590.63	439.49697
590.833	538.7542
591.036	435.274
591.239	540.8664
591.442	462.72443
591.645	530.30552
591.848	496.5131
592.051	534.52983
592.254	382.49226
592.457	538.7542
592.66	473.28298
592.863	496.5131
593.066	488.06558
593.269	574.66351
593.472	600.01358
593.675	492.28931
593.878	496.5131
594.081	547.20309
594.284	519.745
594.486	625.3655
594.689	540.8664
594.892	559.87685
595.095	521.85708
595.298	597.901
595.5	589.45082
595.703	545.09085
595.906	545.09085
596.109	557.76452
596.311	509.18483
596.514	585.22581
596.717	496.5131
596.92	669.73562
597.122	513.40885
597.325	659.17083
597.528	530.30552
597.73	667.62264
597.933	521.85708
598.136	625.3655
598.338	606.35139
598.541	542.97862
598.743	631.70376
598.946	564.10154
599.148	578.88839
599.351	644.38061
599.554	549.31535
599.756	640.15495
599.959	633.81654
600.161	690.86607
600.363	581.00085
600.566	741.5837
600.768	642.26777
600.971	695.0923
601.173	627.47824
601.376	741.5837
601.578	602.12617
601.78	701.43172
601.983	657.0579
602.185	794.42096
602.388	648.60633
602.59	743.69707
602.792	671.84861
602.995	843.03655
603.197	657.0579
603.399	707.77125
603.601	688.75297
603.804	690.86607
604.006	733.13033
604.208	709.88445
604.41	709.88445
604.613	682.41375
604.815	790.19376
605.017	796.53458
605.219	724.67713
605.421	673.96162
605.623	692.97918
605.826	758.49094
606.028	667.62264
606.23	809.21649
606.432	724.67713
606.634	809.21649
606.836	650.7192
607.038	885.31478
607.24	760.60439
607.442	720.4506
607.644	796.53458
607.846	864.17524
608.048	796.53458
608.25	862.06134
608.452	802.8755
608.654	804.98915
608.856	864.17524
609.058	832.46754
609.26	804.98915
609.462	853.60579
609.664	661.28376
609.866	902.227
610.067	855.71966
610.269	878.97283
610.471	830.35376
610.673	891.6568
610.875	876.85887
611.077	955.08085
611.278	800.76185
611.48	804.98915
611.682	838.80892
611.884	1056.57218
612.085	779.6259
612.287	904.34106
612.489	733.13033
612.69	919.13972
612.892	885.31478
613.094	997.36714
613.295	771.1718
613.497	1007.93912
613.699	796.53458
613.9	1020.6257
614.102	872.63096
614.304	986.79532
614.505	927.59627
614.707	952.96661
614.908	923.36798
615.11	944.50971
615.311	936.05293
615.513	938.16712
615.714	771.1718
615.916	955.08085
616.117	743.69707
616.319	1073.48874
616.52	866.28916
616.722	900.11294
616.923	851.49193
617.124	974.10935
617.326	811.33018
617.527	1050.22857
617.729	881.08681
617.93	995.25276
618.131	944.50971
618.333	978.33798
618.534	961.42362
618.735	997.36714
618.937	957.1951
619.138	885.31478
619.339	1062.91585
619.54	1124.24035
619.742	866.28916
619.943	1166.53538
620.144	910.6833
620.345	1126.35506
620.546	991.02402
620.748	1130.5845
620.949	1039.65598
621.15	1035.42699
621.351	1010.05353
621.552	1007.93912
621.753	982.56663
621.954	1079.83253
622.155	1069.25957
622.356	1005.82471
622.558	969.88074
622.759	1122.12565
622.96	986.79532
623.161	1202.48739
623.362	1033.3125
623.563	1117.89625
623.764	995.25276
623.965	1081.94714
624.166	1020.6257
624.366	1198.25768
624.567	1153.84669
624.768	1122.12565
624.969	1060.80129
625.17	1139.04342
625.371	1100.97885
625.572	1098.86419
625.773	1041.77049
625.973	1174.99458
626.174	1126.35506
626.375	1107.32284
626.576	1181.33902
626.777	1215.17657
626.977	1187.68349
627.178	1409.75482
627.379	1016.39682
627.58	1187.68349
627.78	1088.291
627.981	1215.17657
628.182	1204.60224
628.382	1181.33902
628.583	1183.45384
628.784	1369.56906
628.984	980.4523
629.185	1388.60438
629.386	995.25276
629.586	1318.8087
629.787	1134.81395
629.987	1333.61372
630.188	1185.56866
630.388	1350.53383
630.589	1147.50241
630.79	1253.2448
630.99	1147.50241
631.191	1257.47466
631.391	1187.68349
631.591	1244.78512
631.792	1149.61717
631.992	1316.6937
632.193	1147.50241
632.393	1342.07376
632.594	1310.34873
632.794	1392.83446
632.994	1166.53538
633.195	1272.27926
633.395	1147.50241
633.595	1394.94951
633.796	1240.55529
633.996	1297.65883
634.196	1249.01495
634.397	1456.28593
634.597	1177.10939
634.797	1304.00377
634.997	1217.29145
635.198	1337.84374
635.398	1316.6937
635.598	1418.21501
635.798	1124.24035
635.998	1413.98491
636.199	1348.41881
636.399	1456.28593
636.599	1217.29145
636.799	1301.88878
636.999	1217.29145
637.199	1481.66655
637.399	1479.5515
637.599	1473.20635
637.799	1253.2448
637.999	1397.06455
638.199	1249.01495
638.399	1401.29464
638.599	1384.37431
638.799	1498.58693
638.999	1316.6937
639.199	1655.09689
639.399	1468.97625
639.599	1570.49797
639.799	1337.84374
639.999	1519.73736
640.199	1325.1537
640.399	1638.17738
640.599	1354.76387
640.799	1705.85439
640.998	1388.60438
641.198	1511.2772
641.398	1405.52473
641.598	1600.10795
641.798	1422.44511
641.997	1538.77267
642.197	1348.41881
642.397	1570.49797
642.597	1445.71067
642.796	1604.33792
642.996	1424.56016
643.196	1672.01624
643.395	1549.3478
643.595	1754.4953
643.795	1672.01624
643.994	1682.59074
644.194	1494.35684
644.394	1606.4529
644.593	1479.5515
644.793	1655.09689
644.992	1418.21501
645.192	1547.23278
645.392	1695.28005
645.591	1705.85439
645.791	1481.66655
645.99	1760.83962
646.19	1578.958
646.389	1665.6715
646.589	1549.3478
646.788	1574.72799
646.987	1562.03792
647.187	1646.63715
647.386	1540.8877
647.586	1722.77317
647.785	1578.958
647.984	1748.15094
648.184	1612.79784
648.383	1883.48909
648.582	1543.00272
648.782	1748.15094
648.981	1617.02778
649.18	1758.72485
649.38	1731.23248
649.579	1750.26573
649.778	1697.39492
649.977	1724.888
650.177	1722.77317
650.376	1824.2809
650.575	1521.8524
650.774	1684.70563
650.973	1758.72485
651.173	1845.42712
651.372	1724.888
651.571	1758.72485
651.77	1739.69174
651.969	1917.32054
652.168	1718.5435
652.367	1832.73944
652.566	1765.06916
652.765	1834.85407
652.964	1629.71757
653.163	2014.5777
653.362	1775.64292
653.561	1894.06157
653.76	1786.21658
653.959	1771.41342
654.158	1815.82228
654.357	1809.47828
654.556	1511.2772
654.755	1955.37922
654.954	1733.3473
655.153	2008.23524
655.352	1674.13114
655.551	1845.42712
655.749	1913.09169
655.948	1875.03101
656.147	1781.98713
656.346	1900.40499
656.545	1908.86281
656.743	1942.6932
656.942	1612.79784
657.141	2171.00455
657.34	1906.74836
657.538	2012.46355
657.737	1849.6563
657.936	2067.42911
658.135	1739.69174
658.333	2132.95859
658.532	1934.23574
658.731	2027.26243
658.929	1836.96869
659.128	2073.77098
659.326	1858.11462
659.525	2056.85918
659.724	1875.03101
659.922	2014.5777
660.121	1904.63391
660.319	2052.63115
660.518	1841.19791
660.716	1889.83259
660.915	1917.32054
661.113	2042.06097
661.312	1944.80755
661.51	2107.5932
661.709	2039.94691
661.907	2299.91753
662.105	2162.55012
662.304	2145.64087
662.502	1908.86281
662.701	2196.36705
662.899	1885.6036
663.097	2082.22672
663.296	2001.89273
663.494	2242.86177
663.692	2086.45454
663.891	2350.62798
664.089	2001.89273
664.287	2120.27604
664.485	2086.45454
664.684	2206.9344
664.882	2056.85918
665.08	2158.32286
665.278	1959.60784
665.476	2185.79949
665.675	1955.37922
665.873	2323.16052
666.071	2094.91009
666.269	2171.00455
666.467	1921.54938
666.665	2103.36553
666.863	2120.27604
667.061	2128.73111
667.259	2149.86823
667.457	2198.48054
667.655	2046.28906
667.853	2101.25168
668.051	2103.36553
668.249	2109.70703
668.447	2027.26243
668.645	2240.74846
668.843	2027.26243
669.041	2392.88232
669.239	1980.7506
669.437	2348.51516
669.635	2031.49062
669.833	2329.49931
670.031	1919.43496
670.229	2192.14005
670.426	1951.15057
670.624	2145.64087
670.822	1972.29357
671.02	2321.04757
671.218	2187.91302
671.415	2287.23906
671.613	2071.65703
671.811	2181.57241
672.009	2067.42911
672.206	2293.57834
672.404	2094.91009
672.602	2221.72833
672.799	2158.32286
672.997	2399.22012
673.195	2160.43649
673.392	2215.38813
673.59	2130.84485
673.788	2120.27604
673.985	2094.91009
674.183	2312.59567
674.38	2124.50359
674.578	2314.70866
674.775	2044.17502
674.973	2257.65464
675.17	1938.46448
675.368	2162.55012
675.565	2113.93465
675.763	2361.19195
675.96	2192.14005
676.158	2369.64294
676.355	2132.95859
676.553	2433.02012
676.75	2263.99431
676.947	2274.56024
677.145	2137.18605
677.342	2323.16052
677.539	2063.20116
677.737	2348.51516
677.934	2132.95859
678.131	2314.70866
678.329	2154.09556
678.526	2604.08899
678.723	2128.73111
678.92	2403.44527
679.118	2200.59402
679.315	2356.96639
679.512	2181.57241
679.709	2426.68282
679.906	2130.84485
680.104	2251.31489
680.301	2063.20116
680.498	2228.06845
680.695	2213.27471
680.892	2314.70866
681.089	2063.20116
681.286	2333.72512
681.483	1997.66436
681.68	2420.34543
681.877	2116.04846
682.075	2289.35216
682.272	2232.29516
682.469	2473.15405
682.665	2198.48054
682.862	2297.80448
683.059	2054.74517
683.256	2342.17663
683.453	2094.91009
683.65	2175.23172
683.847	2232.29516
684.044	2314.70866
684.241	2088.56844
684.438	2380.20645
684.635	2105.47937
684.831	2458.36832
685.028	2333.72512
685.225	2356.96639
685.422	2149.86823
685.619	2335.83801
685.815	2137.18605
686.012	2394.99493
686.209	2054.74517
686.405	2443.58206
686.602	2356.96639
686.799	2323.16052
686.996	2287.23906
687.192	2356.96639
687.389	2270.3339
687.586	2126.61735
687.782	2048.4031
687.979	2380.20645
688.175	2116.04846
688.372	2238.63515
688.568	2213.27471
688.765	2418.23295
688.962	2204.82095
689.158	2356.96639
689.355	2318.93461
689.551	2382.31912
689.748	2122.38982
689.944	2348.51516
690.14	2238.63515
690.337	2190.02654
690.533	2293.57834
690.73	2310.48267
690.926	2141.41348
691.123	2187.91302
691.319	2029.37653
691.515	2166.77735
691.712	2268.22071
691.908	2247.08835
692.104	2094.91009
692.301	2409.78291
692.497	2232.29516
692.693	2492.16347
692.889	2232.29516
693.086	2416.12046
693.282	2211.16128
693.478	2367.5302
693.674	2086.45454
693.87	2278.78655
694.067	2027.26243
694.263	2559.74508
694.459	2289.35216
694.655	2407.67037
694.851	2147.75455
695.047	2130.84485
695.243	2130.84485
695.439	2297.80448
695.635	2266.10752
695.831	2452.03142
696.027	2221.72833
696.224	2329.49931
696.42	2097.02396
696.615	2407.67037
696.811	2278.78655
697.007	2285.12595
697.203	2088.56844
697.399	2460.4806
697.595	2194.25356
697.791	2365.41746
697.987	2323.16052
698.183	2251.31489
698.379	2209.04784
698.575	2597.75447
698.77	2266.10752
698.966	2257.65464
699.162	2190.02654
699.358	2352.74079
699.554	2204.82095
699.749	2132.95859
699.945	2289.35216
700.141	2452.03142
700.337	2259.76788
700.532	2511.17199
700.728	2221.72833
700.924	2496.38767
701.119	2369.64294
701.315	2333.72512
701.511	2206.9344
701.706	2416.12046
701.902	2190.02654
702.097	2308.36966
702.293	2164.66374
702.489	2375.98107
702.684	2327.38639
702.88	2458.36832
703.075	2291.46525
703.271	2310.48267
703.466	2287.23906
703.662	2141.41348
703.857	2120.27604
704.053	2352.74079
704.248	2052.63115
704.443	2325.27346
704.639	2314.70866
704.834	2367.5302
705.03	2147.75455
705.225	2365.41746
705.42	2118.16225
705.616	2384.43178
705.811	2052.63115
706.006	2426.68282
706.202	2217.50153
706.397	2350.62798
706.592	2204.82095
706.787	2213.27471
706.983	2230.18181
707.178	2485.8271
707.373	2111.82084
707.568	2314.70866
707.763	2132.95859
707.959	2310.48267
708.154	2196.36705
708.349	2416.12046
708.544	2266.10752
708.739	2200.59402
708.934	2392.88232
709.129	2485.8271
709.324	2209.04784
709.519	2392.88232
709.714	2234.4085
709.909	2399.22012
710.104	2209.04784
710.299	2272.44708
710.494	2183.68595
710.689	2350.62798
710.884	2249.20163
711.079	2297.80448
711.274	2219.61494
711.469	2401.3327
711.664	2272.44708
711.859	2272.44708
712.054	2107.5932
712.249	2433.02012
712.443	1989.20753
712.638	2371.75566
712.833	2075.88493
713.028	2433.02012
713.223	2331.61222
713.417	2219.61494
713.612	2299.91753
713.807	2369.64294
714.002	2270.3339
714.196	2490.05136
714.391	2179.45885
714.586	2378.09376
714.78	2373.86837
714.975	2382.31912
715.17	2356.96639
715.364	2424.57037
715.559	2215.38813
715.754	2356.96639
715.948	2382.31912
716.143	2449.91909
716.337	2179.45885
716.532	2477.37844
716.726	2272.44708
716.921	2363.30471
717.115	2173.11814
717.31	2492.16347
717.504	2289.35216
717.699	2380.20645
717.893	2145.64087
718.088	2280.89969
718.282	2238.63515
718.476	2247.08835
718.671	2035.71878
718.865	2223.84171
719.059	1978.63635
719.254	2403.44527
719.448	2077.99887
719.642	2445.69441
719.837	2086.45454
720.031	2206.9344
720.225	2054.74517
720.419	2335.83801
720.614	2052.63115
720.808	2308.36966
721.002	2141.41348
721.196	2344.28948
721.39	2261.8811
721.585	2382.31912
721.779	2289.35216
721.973	2409.78291
722.167	2088.56844
722.361	2392.88232
722.555	2291.46525
722.749	2314.70866
722.943	2154.09556
723.137	2382.31912
723.331	2014.5777
723.525	2496.38767
723.719	2046.28906
723.913	2369.64294
724.107	2173.11814
724.301	2263.99431
724.495	2211.16128
724.689	2441.46969
724.883	2094.91009
725.077	2158.32286
725.271	2213.27471
725.465	2323.16052
725.659	2247.08835
725.853	2496.38767
726.046	2289.35216
726.24	2323.16052
726.434	2046.28906
726.628	2500.61181
726.822	2190.02654
727.015	2333.72512
727.209	2128.73111
727.403	2325.27346
727.596	2071.65703
727.79	2213.27471
727.984	2196.36705
728.177	2276.6734
728.371	2274.56024
728.565	2289.35216
728.758	2325.27346
728.952	2454.14373
729.146	2223.84171
729.339	2433.02012
729.533	2168.89096
729.726	2447.80676
729.92	2289.35216
730.113	2435.13253
730.307	2263.99431
730.5	2401.3327
730.694	2342.17663
730.887	2325.27346
731.081	2259.76788
731.274	2369.64294
731.468	2018.80597
731.661	2272.44708
731.854	2164.66374
732.048	2329.49931
732.241	2179.45885
732.435	2238.63515
732.628	2272.44708
732.821	2308.36966
733.014	2350.62798
733.208	2280.89969
733.401	2367.5302
733.594	2511.17199
733.788	2240.74846
733.981	2458.36832
734.174	2348.51516
734.367	2238.63515
734.56	2401.3327
734.754	2356.96639
734.947	2378.09376
735.14	2192.14005
735.333	2141.41348
735.526	2285.12595
735.719	2097.02396
735.912	2111.82084
736.105	2141.41348
736.298	2342.17663
736.491	2424.57037
736.684	2274.56024
736.877	2069.54308
737.07	2228.06845
737.263	2293.57834
737.456	2304.14362
737.649	2103.36553
737.842	2502.72387
738.035	2352.74079
738.228	2534.40336
738.421	2249.20163
738.614	2289.35216
738.807	2147.75455
739	2485.8271
739.192	2314.70866
739.385	2356.96639
739.578	2187.91302
739.771	2342.17663
739.964	2225.95509
740.156	2340.06377
740.349	2128.73111
740.542	2213.27471
740.735	2194.25356
740.927	2373.86837
741.12	2302.03058
741.313	2437.24492
741.505	2232.29516
741.698	2335.83801
741.891	2266.10752
742.083	2394.99493
742.276	2204.82095
742.468	2433.02012
742.661	2299.91753
742.854	2261.8811
743.046	2118.16225
743.239	2285.12595
743.431	2388.65707
743.624	2056.85918
743.816	2217.50153
744.009	2348.51516
744.201	2272.44708
744.393	2433.02012
744.586	2120.27604
744.778	2274.56024
744.971	2196.36705
745.163	2297.80448
745.355	2120.27604
745.548	2113.93465
745.74	2145.64087
745.932	2118.16225
746.125	2261.8811
746.317	2211.16128
746.509	2316.82164
746.702	2289.35216
746.894	2323.16052
747.086	2261.8811
747.278	1961.72215
747.471	2206.9344
747.663	2029.37653
747.855	2327.38639
748.047	2145.64087
748.239	2175.23172
748.431	2335.83801
748.623	2154.09556
748.815	2135.07233
749.008	2359.07917
749.2	2137.18605
749.392	2299.91753
749.584	2316.82164
749.776	2352.74079
749.968	2113.93465
750.16	2350.62798
750.352	2181.57241
750.544	2249.20163
750.736	2390.7697
750.928	2344.28948
751.12	2179.45885
751.311	2433.02012
751.503	2251.31489
751.695	2259.76788
751.887	2200.59402
752.079	2373.86837
752.271	2099.13783
752.463	2238.63515
752.654	2086.45454
752.846	2141.41348
753.038	1995.55016
753.23	2107.5932
753.421	2183.68595
753.613	2255.5414
753.805	2356.96639
753.997	2350.62798
754.188	2202.70749
754.38	2171.00455
754.572	1987.09331
754.763	2111.82084
754.955	2240.74846
755.146	2137.18605
755.338	2025.14832
755.53	2164.66374
755.721	2008.23524
755.913	2082.22672
756.104	2238.63515
756.296	2276.6734
756.487	1972.29357
756.679	2027.26243
756.87	2113.93465
757.062	2067.42911
757.253	2206.9344
757.445	2145.64087
757.636	2139.29977
757.827	2215.38813
758.019	2190.02654
758.21	2071.65703
758.401	2018.80597
758.593	2128.73111
758.784	2035.71878
758.975	1972.29357
759.167	2069.54308
759.358	2090.68233
759.549	2001.89273
759.74	2107.5932
759.932	2037.83285
760.123	2071.65703
760.314	2035.71878
760.505	2323.16052
760.696	1940.57885
760.888	2014.5777
761.079	2052.63115
761.27	2080.11279
761.461	2122.38982
761.652	2251.31489
761.843	2033.6047
762.034	2149.86823
762.225	1953.2649
762.416	2124.50359
762.607	1828.51018
762.798	1995.55016
762.989	1908.86281
763.18	1900.40499
763.371	1807.3636
763.562	1910.97725
763.753	1862.34375
763.944	2080.11279
764.135	1870.80195
764.326	2035.71878
764.517	1849.6563
764.708	2107.5932
764.899	1965.95074
765.089	2035.71878
765.28	1921.54938
765.471	1913.09169
765.662	1688.93541
765.853	1875.03101
766.043	1733.3473
766.234	1849.6563
766.425	1659.32674
766.615	2046.28906
766.806	1875.03101
766.997	2039.94691
767.187	1722.77317
767.378	2103.36553
767.569	1781.98713
767.759	1970.1793
767.95	1887.7181
768.141	1932.12136
768.331	1883.48909
768.522	1908.86281
768.712	1752.38051
768.903	1866.57286
769.093	1707.96925
769.284	1877.14554
769.474	1959.60784
769.665	1807.3636
769.855	1798.90484
770.046	1887.7181
770.236	1748.15094
770.426	1891.94708
770.617	1781.98713
770.807	1902.51945
770.998	1832.73944
771.188	2056.85918
771.378	1904.63391
771.569	1805.24892
771.759	1727.00283
771.949	1748.15094
772.139	1836.96869
772.33	1748.15094
772.52	1697.39492
772.71	1674.13114
772.9	1625.48765
773.09	1775.64292
773.281	1714.31381
773.471	1781.98713
773.661	1748.15094
773.851	1815.82228
774.041	1617.02778
774.231	1684.70563
774.421	1674.13114
774.611	1680.47585
774.802	1517.62232
774.992	1773.52817
775.182	1587.418
775.372	1693.16517
775.562	1665.6715
775.752	1758.72485
775.942	1528.19751
776.131	1739.69174
776.321	1608.56788
776.511	1697.39492
776.701	1648.75209
776.891	1691.05029
777.081	1644.52221
777.271	1707.96925
777.461	1574.72799
777.651	1661.44167
777.84	1553.57785
778.03	1655.09689
778.22	1468.97625
778.41	1574.72799
778.599	1557.80789
778.789	1568.38296
778.979	1553.57785
779.169	1798.90484
779.358	1460.51604
779.548	1775.64292
779.738	1403.40968
779.927	1693.16517
780.117	1530.31254
780.307	1581.073
780.496	1354.76387
780.686	1638.17738
780.875	1380.14423
781.065	1597.99297
781.254	1485.89665
781.444	1392.83446
781.633	1397.06455
781.823	1688.93541
782.012	1443.59562
782.202	1608.56788
782.391	1447.82572
782.581	1492.24179
782.77	1445.71067
782.96	1646.63715
783.149	1331.49871
783.338	1591.64799
783.528	1452.05583
783.717	1473.20635
783.906	1473.20635
784.096	1409.75482
784.285	1409.75482
784.474	1509.16216
784.663	1284.969
784.853	1528.19751
785.042	1382.25927
785.231	1532.42757
785.42	1348.41881
785.61	1718.5435
785.799	1392.83446
785.988	1418.21501
786.177	1358.99392
786.366	1261.70453
786.555	1361.10895
786.744	1507.04711
786.933	1316.6937
787.122	1428.79026
787.312	1333.61372
787.501	1507.04711
787.69	1242.6702
787.879	1464.74614
788.068	1304.00377
788.257	1327.2687
788.445	1229.98077
788.634	1507.04711
788.823	1278.62412
789.012	1344.18878
789.201	1191.91316
789.39	1263.81947
789.579	1282.85404
789.768	1413.98491
789.957	1272.27926
790.145	1460.51604
790.334	1392.83446
790.523	1445.71067
790.712	1206.7171
790.9	1272.27926
791.089	1117.89625
791.278	1215.17657
791.467	1418.21501
791.655	1189.79832
791.844	1329.3837
792.033	1257.47466
792.221	1217.29145
792.41	1263.81947
792.599	1225.75098
792.787	1204.60224
792.976	1265.93442
793.164	1177.10939
793.353	1240.55529
793.541	1443.59562
793.73	1141.15816
793.918	1223.6361
794.107	1122.12565
794.295	1335.72873
794.484	1158.07624
794.672	1335.72873
794.861	1261.70453
795.049	1278.62412
795.238	1105.20817
795.426	1452.05583
795.614	1147.50241
795.803	1268.04936
795.991	1155.96146
796.179	1172.87977
796.368	1172.87977
796.556	1289.19893
796.744	1174.99458
796.932	1122.12565
797.121	1168.65017
797.309	1299.7738
797.497	1105.20817
797.685	1223.6361
797.874	1177.10939
798.062	1223.6361
798.25	1012.16795
798.438	1219.40633
798.626	1158.07624
798.814	1293.42888
799.002	1143.2729
799.19	1232.09567
799.378	1109.43751
799.566	1166.53538
799.755	1098.86419
799.943	1194.028
800.131	1113.66687
800.318	1242.6702
800.506	1187.68349
800.694	1284.969
800.882	1075.60333
801.07	1299.7738
801.258	1194.028
801.446	1232.09567
801.634	1014.28238
801.822	1225.75098
802.01	1026.96908
802.197	1291.3139
802.385	1062.91585
802.573	1067.14499
802.761	1048.11404
802.949	1113.66687
803.136	1031.19802
803.324	1141.15816
803.512	1164.42059
803.699	1086.17637
803.887	1039.65598
804.075	1206.7171
804.262	1026.96908
804.45	1215.17657
804.638	1172.87977
804.825	1392.83446
805.013	1113.66687
805.201	1244.78512
805.388	1005.82471
805.576	1219.40633
805.763	1031.19802
805.951	1229.98077
806.138	1134.81395
806.326	1274.39421
806.513	1172.87977
806.701	1189.79832
806.888	1007.93912
807.075	1208.83197
807.263	940.28131
807.45	1284.969
807.638	1109.43751
807.825	1185.56866
808.012	1185.56866
808.2	1234.21057
808.387	1333.61372
808.574	1308.23374
808.761	1160.19102
808.949	1282.85404
809.136	1162.3058
809.323	1227.86588
809.51	1183.45384
809.698	1213.0617
809.885	1151.73193
810.072	1225.75098
810.259	1166.53538
810.446	1363.22397
810.633	1151.73193
810.82	1223.6361
811.008	1113.66687
811.195	1284.969
811.382	1092.52026
811.569	1295.54385
811.756	1020.6257
811.943	1200.37253
812.13	1077.71793
812.317	1219.40633
812.504	1217.29145
812.691	1346.30379
812.878	1325.1537
813.064	1386.48934
813.251	1194.028
813.438	1278.62412
813.625	1166.53538
813.812	1236.32547
813.999	974.10935
814.186	1265.93442
814.372	1105.20817
814.559	1392.83446
814.746	1172.87977
814.933	1200.37253
815.12	1100.97885
815.306	1213.0617
815.493	1003.71031
815.68	1153.84669
815.866	1071.37415
816.053	1299.7738
816.24	1189.79832
816.426	1259.5896
816.613	1181.33902
816.799	1265.93442
816.986	1158.07624
817.173	1316.6937
817.359	1018.51126
817.546	1098.86419
817.732	1048.11404
817.919	1234.21057
818.105	1105.20817
818.292	1204.60224
818.478	1054.45764
818.665	1274.39421
818.851	1149.61717
819.037	1210.94683
819.224	1160.19102
819.41	1181.33902
819.597	1130.5845
819.783	1238.44038
819.969	1041.77049
820.156	1153.84669
820.342	1223.6361
820.528	1278.62412
820.714	1079.83253
820.901	1342.07376
821.087	1109.43751
821.273	1405.52473
821.459	1189.79832
821.646	1333.61372
821.832	1234.21057
822.018	1215.17657
822.204	1139.04342
822.39	1172.87977
822.576	1098.86419
822.762	1268.04936
822.948	1073.48874
823.134	1126.35506
823.32	1048.11404
823.507	1136.92868
823.693	1067.14499
823.879	1132.69922
824.065	1217.29145
824.25	1126.35506
824.436	925.48212
824.622	1185.56866
824.808	1183.45384
824.994	1130.5845
825.18	1012.16795
825.366	1151.73193
825.552	1007.93912
825.738	1062.91585
825.923	1079.83253
826.109	1139.04342
826.295	1075.60333
826.481	1139.04342
826.667	1050.22857
826.852	1105.20817
827.038	1088.291
827.224	1274.39421
827.409	1060.80129
827.595	1166.53538
827.781	1098.86419
827.966	1065.03042
828.152	982.56663
828.338	1194.028
828.523	936.05293
828.709	1073.48874
828.894	999.48152
829.08	1130.5845
829.266	938.16712
829.451	1007.93912
829.637	923.36798
829.822	1007.93912
830.008	927.59627
830.193	946.62393
830.378	889.54279
830.564	991.02402
830.749	969.88074
830.935	1115.78156
831.12	800.76185
831.305	1098.86419
831.491	927.59627
831.676	1096.74954
831.861	961.42362
832.047	1054.45764
832.232	940.28131
832.417	1037.54148
832.602	961.42362
832.788	1139.04342
832.973	950.85238
833.158	1045.99952
833.343	961.42362
833.528	1069.25957
833.714	980.4523
833.899	999.48152
834.084	961.42362
834.269	1141.15816
834.454	986.79532
834.639	991.02402
834.824	885.31478
835.009	1001.59591
835.194	974.10935
835.379	1048.11404
835.564	936.05293
835.749	940.28131
835.934	910.6833
836.119	889.54279
836.304	925.48212
836.489	919.13972
836.674	927.59627
836.859	959.30936
837.044	792.30735
837.228	1026.96908
837.413	859.94744
837.598	1096.74954
837.783	925.48212
837.968	1020.6257
838.152	785.96659
838.337	868.40308
838.522	834.58132
838.707	1071.37415
838.891	804.98915
839.076	817.67129
839.261	862.06134
839.445	895.88486
839.63	809.21649
839.815	891.6568
839.999	836.69512
840.184	957.1951
840.368	775.39883
840.553	902.227
840.737	783.85301
840.922	834.58132
841.106	718.33734
841.291	800.76185
841.475	758.49094
841.66	775.39883
841.844	714.11087
842.029	902.227
842.213	769.0583
842.397	957.1951
842.582	783.85301
842.766	809.21649
842.951	625.3655
843.135	777.51236
843.319	644.38061
843.504	766.94481
843.688	692.97918
843.872	897.9989
844.056	859.94744
844.241	836.69512
844.425	659.17083
844.609	750.03724
844.793	682.41375
844.977	716.2241
845.161	574.66351
845.346	692.97918
845.53	874.74491
845.714	711.99765
845.898	709.88445
846.082	741.5837
846.266	699.31857
846.45	754.26407
846.634	669.73562
846.818	716.2241
847.002	646.49347
847.186	678.18766
847.37	769.0583
847.554	716.2241
847.738	669.73562
847.922	792.30735
848.106	650.7192
848.29	659.17083
848.473	699.31857
848.657	574.66351
848.841	682.41375
849.025	680.3007
849.209	479.61829
849.392	720.4506
849.576	593.67589
849.76	707.77125
849.944	669.73562
850.127	722.56386
850.311	614.80198
850.495	750.03724
850.678	678.18766
850.862	750.03724
851.046	646.49347
851.229	650.7192
851.413	625.3655
851.596	714.11087
851.78	606.35139
851.964	682.41375
852.147	644.38061
852.331	722.56386
852.514	521.85708
852.698	661.28376
852.881	538.7542
853.065	690.86607
853.248	566.21391
853.431	572.55109
853.615	566.21391
853.798	631.70376
853.982	530.30552
854.165	600.01358
854.348	600.01358
854.532	644.38061
854.715	523.96917
854.898	530.30552
855.081	483.8419
855.265	667.62264
855.448	564.10154
855.631	629.59099
855.814	534.52983
855.997	600.01358
856.181	504.96086
856.364	604.23877
856.547	547.20309
856.73	479.61829
856.913	555.65221
857.096	608.46402
857.279	443.72001
857.462	627.47824
857.645	471.17124
857.828	614.80198
858.011	405.71498
858.194	509.18483
858.377	488.06558
858.56	481.73009
858.743	428.93966
858.926	496.5131
859.109	439.49697
859.292	553.53991
859.475	414.16009
859.658	471.17124
859.841	416.27141
860.023	441.60848
860.206	454.27787
860.389	559.87685
860.572	420.4941
860.755	500.73695
860.937	420.4941
861.12	526.08127
861.303	481.73009
861.486	420.4941
861.668	367.71522
861.851	488.06558
862.034	380.38121
862.216	441.60848
862.399	365.60428
862.581	428.93966
862.764	355.04985
862.947	416.27141
863.129	361.38246
863.312	538.7542
863.494	431.05109
863.677	435.274
863.859	390.93666
864.042	403.60374
864.224	426.82825
864.406	462.72443
864.589	441.60848
864.771	523.96917
864.954	412.04879
865.136	355.04985
865.318	403.60374
865.501	405.71498
865.683	361.38246
865.865	380.38121
866.048	445.83155
866.23	399.38131
866.412	471.17124
866.594	399.38131
866.777	331.83161
866.959	397.27012
867.141	346.60661
867.323	445.83155
867.505	293.84276
867.687	490.17744
867.869	471.17124
868.052	369.82618
868.234	397.27012
868.416	363.49336
868.598	397.27012
868.78	412.04879
868.962	369.82618
869.144	378.27017
869.326	412.04879
869.508	382.49226
869.69	295.95309
869.872	371.93715
870.054	346.60661
870.236	310.72597
870.417	304.39463
870.599	401.49252
870.781	386.71443
870.963	407.82623
871.145	319.16801
871.327	319.16801
871.508	422.60547
871.69	376.15915
871.872	376.15915
872.054	439.49697
872.235	374.04814
872.417	304.39463
872.599	287.51185
872.78	314.94696
872.962	302.28422
873.144	291.73244
873.325	295.95309
873.507	327.61034
873.689	395.15895
873.87	302.28422
874.052	232.6511
874.233	293.84276
874.415	346.60661
874.596	359.27157
874.778	276.96072
874.959	209.44471
875.141	291.73244
875.322	336.05295
875.503	331.83161
875.685	325.49973
875.866	346.60661
876.048	327.61034
876.229	281.18111
876.41	317.05747
876.592	310.72597
876.773	412.04879
876.954	363.49336
877.136	333.94227
877.317	304.39463
877.498	386.71443
877.679	276.96072
877.86	405.71498
878.042	262.18991
878.223	314.94696
878.404	243.20024
878.585	363.49336
878.766	344.49584
878.947	361.38246
879.128	304.39463
879.309	422.60547
879.49	340.27436
879.672	473.28298
879.853	376.15915
880.034	409.9375
880.215	352.93901
880.396	298.06345
880.576	329.72097
880.757	416.27141
880.938	253.74986
881.119	344.49584
881.3	323.38914
881.481	405.71498
881.662	279.07091
881.843	401.49252
882.023	329.72097
882.204	352.93901
882.385	355.04985
882.566	407.82623
882.747	319.16801
882.927	399.38131
883.108	247.42003
883.289	266.41005
883.469	268.52014
883.65	386.71443
883.831	287.51185
884.011	365.60428
884.192	412.04879
884.373	327.61034
884.553	287.51185
884.734	401.49252
884.914	276.96072
885.095	382.49226
885.275	285.40159
885.456	428.93966
885.636	331.83161
885.817	344.49584
885.997	378.27017
886.178	302.28422
886.358	407.82623
886.538	352.93901
886.719	357.1607
886.899	386.71443
887.08	336.05295
887.26	388.82553
887.44	359.27157
887.621	386.71443
887.801	295.95309
887.981	327.61034
888.161	342.38509
888.342	314.94696
888.522	302.28422
888.702	319.16801
888.882	302.28422
889.062	344.49584
889.242	306.50506
889.423	378.27017
889.603	395.15895
889.783	397.27012
889.963	310.72597
890.143	412.04879
890.323	312.83645
890.503	355.04985
890.683	302.28422
890.863	289.62213
891.043	496.5131
891.223	378.27017
891.403	253.74986
891.583	424.71685
891.763	437.38548
891.943	428.93966
892.122	300.17382
892.302	264.29997
892.482	295.95309
892.662	304.39463
892.842	289.62213
893.022	338.16365
893.201	310.72597
893.381	342.38509
893.561	365.60428
893.741	304.39463
893.92	238.98052
894.1	279.07091
894.28	352.93901
894.459	283.29134
894.639	312.83645
894.819	388.82553
894.998	331.83161
895.178	405.71498
895.357	255.85985
895.537	361.38246
895.716	361.38246
895.896	281.18111
896.075	331.83161
896.255	395.15895
896.434	264.29997
896.614	317.05747
896.793	198.89714
896.973	289.62213
897.152	260.07987
897.331	395.15895
897.511	234.76089
897.69	350.82819
897.87	281.18111
898.049	205.22562
898.228	236.87069
898.407	270.63026
898.587	272.74039
898.766	312.83645
898.945	272.74039
899.124	283.29134
899.304	243.20024
899.483	293.84276
899.662	287.51185
899.841	289.62213
900.02	217.88312
900.199	226.32184
900.378	310.72597
900.557	333.94227
900.737	260.07987
900.916	243.20024
901.095	238.98052
901.274	386.71443
901.453	219.99277
901.632	289.62213
901.811	243.20024
901.989	266.41005
902.168	222.10244
902.347	236.87069
902.526	163.03922
902.705	217.88312
902.884	201.00661
903.063	236.87069
903.242	217.88312
903.42	167.25749
903.599	209.44471
903.778	268.52014
903.957	146.16698
904.135	222.10244
904.314	163.03922
904.493	196.78769
904.672	293.84276
904.85	173.58505
905.029	144.05805
905.207	234.76089
905.386	201.00661
905.565	118.75249
905.743	179.9128
905.922	89.23331
906.1	179.9128
906.279	201.00661
906.457	192.56884
906.636	177.80353
906.814	213.66387
906.993	201.00661
907.171	219.99277
907.35	74.47535
907.528	118.75249
907.707	175.69428
907.885	99.77538
908.063	144.05805
908.242	40.74705
908.42	179.9128
908.598	175.69428
908.777	122.96987
908.955	173.58505
909.133	167.25749
909.311	101.88386
909.49	61.82655
909.668	127.18734
909.846	133.51369
910.024	175.69428
910.202	135.62252
910.38	68.15085
910.559	167.25749
910.737	99.77538
910.915	53.39447
911.093	152.49392
911.271	152.49392
911.449	154.60294
911.627	118.75249
911.805	190.45945
911.983	163.03922
912.161	163.03922
912.339	133.51369
912.517	131.40488
912.695	135.62252
912.872	160.93012
913.05	154.60294
913.228	203.11611
913.406	236.87069
913.584	34.42366
913.762	158.82104
913.939	125.07859
914.117	196.78769
914.295	201.00661
914.473	135.62252
914.65	150.38492
914.828	133.51369
915.006	205.22562
915.184	163.03922
915.361	101.88386
915.539	196.78769
915.716	188.35008
915.894	213.66387
916.072	85.01664
916.249	150.38492
916.427	186.24073
916.604	116.64384
916.782	217.88312
916.959	146.16698
917.137	160.93012
917.314	177.80353
917.492	196.78769
917.669	135.62252
917.847	9.13219
918.024	156.71198
918.201	228.43158
918.379	150.38492
918.556	127.18734
918.733	201.00661
918.911	150.38492
919.088	167.25749
919.265	120.86117
919.442	95.55848
919.62	76.58356
919.797	156.71198
919.974	110.318
920.151	194.67826
920.328	150.38492
920.506	99.77538
920.683	103.99236
920.86	133.51369
921.037	207.33515
921.214	141.94913
921.391	49.17857
921.568	122.96987
921.745	158.82104
921.922	177.80353
922.099	154.60294
922.276	120.86117
922.453	139.84024
922.63	74.47535
922.807	146.16698
922.984	179.9128
923.161	120.86117
923.338	108.20943
923.514	201.00661
923.691	61.82655
923.868	217.88312
924.045	66.04272
924.222	160.93012
924.399	131.40488
924.575	76.58356
924.752	118.75249
924.929	40.74705
925.105	91.34168
925.282	95.55848
925.459	150.38492
925.635	99.77538
925.812	49.17857
925.989	68.15085
926.165	108.20943
926.342	120.86117
926.518	82.90833
926.695	15.45473
926.871	57.61047
927.048	110.318
927.224	95.55848
927.401	91.34168
927.577	125.07859
927.754	93.45007
927.93	101.88386
928.107	91.34168
928.283	129.2961
928.459	99.77538
928.636	40.74705
928.812	74.47535
928.988	135.62252
929.165	118.75249
929.341	129.2961
929.517	85.01664
929.693	44.96277
929.87	108.20943
930.046	87.12496
930.222	74.47535
930.398	93.45007
930.574	91.34168
930.751	49.17857
930.927	99.77538
931.103	57.61047
931.279	57.61047
931.455	108.20943
931.631	59.7185
931.807	-18.26301
931.983	23.88513
932.159	-7.72688
932.335	108.20943
932.511	74.47535
932.687	-110.95394
932.863	95.55848
933.039	57.61047
933.215	0.70246
933.391	91.34168
933.566	34.42366
933.742	108.20943
933.918	23.88513
934.094	66.04272
934.27	57.61047
934.445	55.50246
934.621	11.23968
934.797	61.82655
934.973	0.70246
935.148	82.90833
935.324	78.6918
935.5	30.20817
935.675	-1.40491
935.851	44.96277
936.027	-1.40491
936.202	17.5623
936.378	66.04272
936.553	44.96277
936.729	28.10047
936.904	0.70246
937.08	-3.51226
937.255	127.18734
937.431	-85.67951
937.606	28.10047
937.782	-18.26301
937.957	15.45473
938.133	23.88513
938.308	74.47535
938.483	15.45473
938.659	17.5623
938.834	49.17857
939.009	74.47535
939.185	7.02472
939.36	44.96277
939.535	-24.5844
939.71	-43.54722
939.886	21.7775
940.061	32.3159
940.236	-39.33343
940.411	40.74705
940.586	7.02472
940.761	-14.04863
940.937	23.88513
941.112	61.82655
941.287	42.8549
941.462	-7.72688
941.637	34.42366
941.812	32.3159
941.987	21.7775
942.162	-41.44034
942.337	68.15085
942.512	-83.57314
942.687	40.74705
942.862	23.88513
943.037	-1.40491
943.212	51.28651
943.386	-35.11954
943.561	-28.79853
943.736	15.45473
943.911	-1.40491
944.086	-30.90556
944.26	2.80986
944.435	-22.47729
944.61	0.70246
944.785	95.55848
944.959	19.66988
945.134	32.3159
945.309	15.45473
945.483	53.39447
945.658	-1.40491
945.833	-43.54722
946.007	23.88513
946.182	76.58356
946.357	-7.72688
946.531	0.70246
946.706	-47.7609
946.88	-47.7609
947.055	99.77538
947.229	25.99279
947.404	-9.83416
947.578	40.74705
947.752	-43.54722
947.927	-26.69148
948.101	2.80986
948.276	-1.40491
948.45	7.02472
948.624	7.02472
948.799	9.13219
948.973	49.17857
949.147	-14.04863
949.321	49.17857
949.496	28.10047
949.67	-24.5844
949.844	28.10047
950.018	42.8549
950.193	44.96277
950.367	49.17857
950.541	7.02472
950.715	-7.72688
950.889	55.50246
951.063	13.34719
951.237	17.5623
951.411	-1.40491
951.585	-20.37016
951.759	40.74705
951.933	49.17857
952.107	-39.33343
952.281	57.61047
952.455	25.99279
952.629	-26.69148
952.803	59.7185
952.977	11.23968
953.151	-16.15583
953.325	87.12496
953.499	66.04272
953.672	118.75249
953.846	-9.83416
954.02	49.17857
954.194	-30.90556
954.368	74.47535
954.541	-18.26301
954.715	40.74705
954.889	57.61047
955.062	0.70246
955.236	-9.83416
955.41	7.02472
955.583	-45.65407
955.757	9.13219
955.93	36.53143
956.104	32.3159
956.278	17.5623
956.451	-18.26301
956.625	-77.25387
956.798	44.96277
956.972	-1.40491
957.145	7.02472
957.319	-49.86771
957.492	-18.26301
957.665	-22.47729
957.839	-35.11954
958.012	17.5623
958.185	-26.69148
958.359	-26.69148
958.532	-5.61958
958.705	38.63923
958.879	15.45473
959.052	32.3159
959.225	99.77538
959.398	-5.61958
959.572	7.02472
959.745	-14.04863
959.918	-41.44034
960.091	-39.33343
960.264	13.34719
960.438	15.45473
960.611	-3.51226
960.784	91.34168
960.957	-1.40491
961.13	-22.47729
961.303	-9.83416
961.476	15.45473
961.649	-16.15583
961.822	-33.01256
961.995	21.7775
962.168	70.25899
962.341	-1.40491
962.514	7.02472
962.686	61.82655
962.859	32.3159
963.032	-1.40491
963.205	23.88513
963.378	51.28651
963.551	32.3159
963.723	-5.61958
963.896	61.82655
964.069	44.96277
964.242	49.17857
964.414	7.02472
964.587	23.88513
964.76	7.02472
964.932	40.74705
965.105	-9.83416
965.278	-14.04863
965.45	99.77538
965.623	38.63923
965.795	17.5623
965.968	21.7775
966.14	23.88513
966.313	99.77538
966.485	-20.37016
966.658	-18.26301
966.83	44.96277
967.003	-14.04863
967.175	23.88513
967.348	36.53143
967.52	23.88513
967.692	9.13219
967.865	17.5623
968.037	-49.86771
968.209	-20.37016
968.382	15.45473
968.554	-39.33343
968.726	-18.26301
968.898	23.88513
969.071	-35.11954
969.243	42.8549
969.415	-16.15583
969.587	0.70246
969.759	-14.04863
969.932	15.45473
970.104	49.17857
970.276	23.88513
970.448	-28.79853
970.62	44.96277
970.792	36.53143
970.964	-1.40491
971.136	7.02472
971.308	51.28651
971.48	-35.11954
971.652	40.74705
971.824	40.74705
971.996	-9.83416
972.168	-5.61958
972.339	-3.51226
972.511	-41.44034
972.683	-9.83416
972.855	66.04272
973.027	-18.26301
973.199	-51.97449
973.37	57.61047
973.542	49.17857
973.714	-33.01256
973.886	13.34719
974.057	-1.40491
974.229	-45.65407
974.401	36.53143
974.572	42.8549
974.744	28.10047
974.915	-9.83416
975.087	-3.51226
975.259	32.3159
975.43	-43.54722
975.602	32.3159
975.773	30.20817
975.945	89.23331
976.116	25.99279
976.288	0.70246
976.459	-3.51226
976.63	-30.90556
976.802	-5.61958
976.973	25.99279
977.145	0.70246
977.316	32.3159
977.487	32.3159
977.659	-18.26301
977.83	-73.04089
978.001	28.10047
978.172	15.45473
978.344	66.04272
978.515	2.80986
978.686	15.45473
978.857	-20.37016
979.028	51.28651
979.2	-26.69148
979.371	-1.40491
979.542	15.45473
979.713	15.45473
979.884	-9.83416
980.055	-54.08124
980.226	9.13219
980.397	-18.26301
980.568	-51.97449
980.739	-33.01256
980.91	-9.83416
981.081	17.5623
981.252	23.88513
981.423	57.61047
981.594	59.7185
981.765	40.74705
981.936	23.88513
982.106	23.88513
982.277	21.7775
982.448	15.45473
982.619	82.90833
982.79	-9.83416
982.96	38.63923
983.131	-22.47729
983.302	40.74705
983.472	42.8549
983.643	59.7185
983.814	61.82655
983.984	32.3159
984.155	-18.26301
984.326	-28.79853
984.496	-26.69148
984.667	-26.69148
984.837	-22.47729
985.008	11.23968
985.178	49.17857
985.349	25.99279
985.519	-60.40135
985.69	-28.79853
985.86	-16.15583
986.031	-18.26301
986.201	40.74705
986.371	11.23968
986.542	-26.69148
986.712	23.88513
986.882	-43.54722
987.053	-22.47729
987.223	57.61047
987.393	17.5623
987.563	32.3159
987.734	44.96277
987.904	-56.18797
988.074	-35.11954
988.244	-18.26301
988.414	-1.40491
988.585	-33.01256
988.755	61.82655
988.925	0.70246
989.095	-22.47729
989.265	9.13219
989.435	82.90833
989.605	70.25899
989.775	9.13219
989.945	38.63923
990.115	-56.18797
990.285	28.10047
990.455	-5.61958
990.625	-43.54722
990.795	0.70246
990.965	99.77538
991.134	-18.26301
991.304	-9.83416
991.474	49.17857
991.644	-35.11954
991.814	15.45473
991.984	-94.10474
992.153	57.61047
992.323	-16.15583
992.493	15.45473
992.662	82.90833
992.832	-68.82782
993.002	66.04272
993.171	47.07066
993.341	-41.44034
993.511	7.02472
993.68	13.34719
993.85	-18.26301
994.019	-22.47729
994.189	40.74705
994.358	19.66988
994.528	-14.04863
994.697	15.45473
994.867	-7.72688
995.036	30.20817
995.206	32.3159
995.375	49.17857
995.544	-75.1474
995.714	-30.90556
995.883	-1.40491
996.052	-7.72688
996.222	-9.83416
996.391	57.61047
996.56	21.7775
996.73	28.10047
996.899	7.02472
997.068	-9.83416
997.237	-1.40491
997.406	19.66988
997.576	40.74705
997.745	7.02472
997.914	-3.51226
998.083	32.3159
998.252	-66.72124
998.421	-5.61958
998.59	11.23968
998.759	25.99279
998.928	-14.04863
999.097	-9.83416
999.266	70.25899
999.435	-7.72688
999.604	-16.15583
999.773	17.5623
999.942	49.17857
1000.111	-1.40491
1000.28	-41.44034
1000.448	-49.86771
1000.617	-5.61958
1000.786	4.91728
1000.955	-43.54722
1001.124	-26.69148
1001.292	40.74705
1001.461	9.13219
1001.63	-41.44034
1001.798	-3.51226
1001.967	36.53143
1002.136	13.34719
1002.304	-43.54722
1002.473	-41.44034
1002.642	-26.69148
1002.81	40.74705
1002.979	-7.72688
1003.147	17.5623
1003.316	17.5623
1003.484	15.45473
1003.653	47.07066
1003.821	7.02472
1003.99	-24.5844
1004.158	2.80986
1004.327	17.5623
1004.495	28.10047
1004.663	13.34719
1004.832	-41.44034
1005	-18.26301
1005.168	-75.1474
1005.337	4.91728
1005.505	49.17857
1005.673	-43.54722
1005.842	-26.69148
1006.01	21.7775
1006.178	49.17857
1006.346	-9.83416
1006.514	-94.10474
1006.683	42.8549
1006.851	-56.18797
1007.019	23.88513
1007.187	-1.40491
1007.355	15.45473
1007.523	7.02472
1007.691	-30.90556
1007.859	-14.04863
1008.027	19.66988
1008.195	-39.33343
1008.363	19.66988
1008.531	57.61047
1008.699	-1.40491
1008.867	-39.33343
1009.035	11.23968
1009.203	40.74705
1009.37	-3.51226
1009.538	19.66988
1009.706	-22.47729
1009.874	-9.83416
1010.042	23.88513
1010.209	-37.2265
1010.377	0.70246
1010.545	-7.72688
1010.713	21.7775
1010.88	25.99279
1011.048	34.42366
1011.216	-39.33343
1011.383	-16.15583
1011.551	-14.04863
1011.718	-1.40491
1011.886	23.88513
1012.054	-1.40491
1012.221	15.45473
1012.389	9.13219
1012.556	63.93463
1012.724	-41.44034
1012.891	-16.15583
1013.058	23.88513
1013.226	0.70246
1013.393	-60.40135
1013.561	55.50246
1013.728	-20.37016
1013.895	-24.5844
1014.063	2.80986
1014.23	-64.61464
1014.397	-43.54722
1014.565	57.61047
1014.732	-7.72688
1014.899	-66.72124
1015.066	-77.25387
1015.233	40.74705
1015.401	17.5623
1015.568	-1.40491
1015.735	36.53143
1015.902	51.28651
1016.069	32.3159
1016.236	-83.57314
1016.403	97.66692
1016.57	-1.40491
1016.737	-24.5844
1016.904	25.99279
1017.071	2.80986
1017.238	-20.37016
1017.405	-11.94141
1017.572	40.74705
1017.739	53.39447
1017.906	-39.33343
1018.073	15.45473
1018.24	0.70246
1018.407	-14.04863
1018.573	-39.33343
1018.74	42.8549
1018.907	-20.37016
1019.074	-14.04863
1019.241	70.25899
1019.407	-49.86771
1019.574	-7.72688
1019.741	99.77538
1019.907	-68.82782
1020.074	59.7185
1020.241	19.66988
1020.407	-24.5844
1020.574	-9.83416
1020.74	-49.86771
1020.907	-41.44034
1021.073	9.13219
1021.24	-16.15583
1021.406	-24.5844
1021.573	4.91728
1021.739	-39.33343
1021.906	-41.44034
1022.072	7.02472
1022.239	-26.69148
1022.405	-33.01256
1022.571	-37.2265
1022.738	7.02472
1022.904	-33.01256
1023.07	-20.37016
1023.237	2.80986
1023.403	-26.69148
1023.569	-35.11954
1023.735	-41.44034
1023.902	-43.54722
1024.068	0.70246
1024.234	-56.18797
1024.4	-45.65407
1024.566	-9.83416
1024.732	-22.47729
1024.898	36.53143
1025.065	-41.44034
1025.231	-14.04863
1025.397	-30.90556
1025.563	-47.7609
1025.729	32.3159
1025.895	25.99279
1026.061	-26.69148
1026.227	-58.29468
1026.392	-35.11954
1026.558	-43.54722
1026.724	21.7775
1026.89	-9.83416
1027.056	-20.37016
1027.222	66.04272
1027.388	-9.83416
1027.553	-66.72124
1027.719	-7.72688
1027.885	-9.83416
1028.051	-24.5844
1028.216	-58.29468
1028.382	-75.1474
1028.548	40.74705
1028.713	2.80986
1028.879	-22.47729
1029.045	-49.86771
1029.21	-41.44034
1029.376	2.80986
1029.541	-43.54722
1029.707	0.70246
1029.873	-43.54722
1030.038	7.02472
1030.204	-16.15583
1030.369	-30.90556
1030.534	-7.72688
1030.7	-24.5844
1030.865	-1.40491
1031.031	-35.11954
1031.196	-66.72124
1031.361	-26.69148
1031.527	-115.16598
1031.692	2.80986
1031.857	-49.86771
1032.023	-16.15583
1032.188	15.45473
1032.353	-5.61958
1032.518	-11.94141
1032.684	11.23968
1032.849	49.17857
1033.014	-24.5844
1033.179	-18.26301
1033.344	-43.54722
1033.509	7.02472
1033.674	-39.33343
1033.839	-22.47729
1034.004	-41.44034
1034.17	7.02472
1034.335	9.13219
1034.5	-39.33343
1034.664	51.28651
1034.829	-39.33343
1034.994	-30.90556
1035.159	-1.40491
1035.324	-7.72688
1035.489	11.23968
1035.654	-58.29468
1035.819	28.10047
1035.984	-14.04863
1036.148	25.99279
1036.313	15.45473
1036.478	-68.82782
1036.643	15.45473
1036.807	7.02472
1036.972	15.45473
1037.137	15.45473
1037.301	-56.18797
1037.466	-35.11954
1037.631	-39.33343
1037.795	32.3159
1037.96	-30.90556
1038.124	-26.69148
1038.289	-81.46674
1038.454	-22.47729
1038.618	34.42366
1038.783	-18.26301
1038.947	13.34719
1039.111	-18.26301
1039.276	19.66988
1039.44	-39.33343
1039.605	61.82655
1039.769	32.3159
1039.933	-41.44034
1040.098	-16.15583
1040.262	-1.40491
1040.426	-60.40135
1040.591	-35.11954
1040.755	-26.69148
1040.919	-89.89218
1041.083	40.74705
1041.248	-1.40491
1041.412	-75.1474
1041.576	-35.11954
1041.74	-9.83416
1041.904	91.34168
1042.068	11.23968
1042.232	32.3159
1042.397	-100.42339
1042.561	19.66988
1042.725	68.15085
1042.889	15.45473
1043.053	23.88513
1043.217	13.34719
1043.381	-35.11954
1043.544	19.66988
1043.708	-39.33343
1043.872	-49.86771
1044.036	-47.7609
1044.2	32.3159
1044.364	23.88513
1044.528	-24.5844
1044.691	-33.01256
1044.855	-9.83416
1045.019	28.10047
1045.183	-11.94141
1045.346	63.93463
1045.51	80.80005
1045.674	-5.61958
1045.837	53.39447
1046.001	19.66988
1046.165	23.88513
1046.328	36.53143
1046.492	-24.5844
1046.655	-56.18797
1046.819	15.45473
1046.983	-16.15583
1047.146	-24.5844
1047.31	-5.61958
1047.473	-16.15583
1047.636	21.7775
1047.8	-49.86771
1047.963	23.88513
1048.127	-14.04863
1048.29	40.74705
