Data from mixed_try1_USB4F045381__20__00042.txt Node

Date: Thu Apr 03 19:33:49 EDT 2025
User: mmckonesweet
Spectrometer: USB4F04538
Trigger mode: 4
Integration Time (sec): 2.700000E-3
Scans to average: 1
Electric dark correction enabled: true
Nonlinearity correction enabled: true
Boxcar width: 0
XAxis mode: Wavelengths
Number of Pixels in Spectrum: 3648
>>>>>Begin Spectral Data<<<<<
345.52	-22.12611
345.736	-22.12611
345.952	-22.12611
346.168	22.12877
346.384	7.37596
346.6	-70.58328
346.816	-28.44736
347.032	-3.16104
347.248	-55.83685
347.464	-34.76838
347.68	17.91356
347.896	81.15143
348.112	15.80599
348.328	11.59093
348.544	24.2364
348.76	-5.26836
348.975	47.42198
349.191	-26.3403
349.407	55.85379
349.623	13.69845
349.839	7.37596
350.055	-55.83685
350.27	-24.23321
350.486	55.85379
350.702	68.5022
350.918	-3.16104
351.133	15.80599
351.349	53.7458
351.565	-64.26353
351.781	81.15143
351.996	-11.5902
352.212	-26.3403
352.428	-85.32845
352.644	-17.91182
352.859	11.59093
353.075	-13.69743
353.291	62.17789
353.506	-17.91182
353.722	20.02115
353.938	26.34407
354.153	45.31408
354.369	20.02115
354.584	93.80147
354.8	-5.26836
355.016	-11.5902
355.231	30.55946
355.447	-28.44736
355.662	-1.05368
355.878	-20.01897
356.093	-5.26836
356.309	-26.3403
356.524	-13.69743
356.74	-28.44736
356.955	-24.23321
357.171	22.12877
357.386	-7.37567
357.602	28.45175
357.817	15.80599
358.033	45.31408
358.248	-3.16104
358.464	28.45175
358.679	20.02115
358.895	-57.94356
359.11	-32.6614
359.325	-47.40976
359.541	-28.44736
359.756	28.45175
359.972	-13.69743
360.187	5.26851
360.402	11.59093
360.618	15.80599
360.833	20.02115
361.048	-3.16104
361.264	87.47635
361.479	-47.40976
361.694	11.59093
361.909	-9.48295
362.125	57.9618
362.34	-62.1569
362.555	-22.12611
362.77	5.26851
362.986	-17.91182
363.201	5.26851
363.416	15.80599
363.631	13.69845
363.847	-1.05368
364.062	104.34378
364.277	-17.91182
364.492	-93.7537
364.707	-66.37014
364.922	30.55946
365.138	-45.30293
365.353	32.66719
365.568	43.20621
365.783	5.26851
365.998	-1.05368
366.213	45.31408
366.428	-17.91182
366.643	7.37596
366.858	15.80599
367.073	20.02115
367.288	62.17789
367.503	-38.98228
367.718	-30.55439
367.933	-53.73012
368.148	-28.44736
368.363	36.88273
368.578	-66.37014
368.793	22.12877
369.008	-47.40976
369.223	45.31408
369.438	-5.26836
369.653	38.99053
369.868	45.31408
370.083	20.02115
370.298	-11.5902
370.513	49.5299
370.728	30.55946
370.943	-13.69743
371.157	-5.26836
371.372	51.63784
371.587	1.05369
371.802	62.17789
372.017	-13.69743
372.232	28.45175
372.446	-53.73012
372.661	17.91356
372.876	-22.12611
373.091	-17.91182
373.306	-47.40976
373.52	-3.16104
373.735	-3.16104
373.95	20.02115
374.165	22.12877
374.379	32.66719
374.594	1.05369
374.809	-13.69743
375.023	11.59093
375.238	43.20621
375.453	20.02115
375.667	-13.69743
375.882	-76.90279
376.097	-5.26836
376.311	-20.01897
376.526	-51.62336
376.741	20.02115
376.955	20.02115
377.17	28.45175
377.384	-17.91182
377.599	-20.01897
377.813	30.55946
378.028	28.45175
378.242	-5.26836
378.457	41.09836
378.672	-55.83685
378.886	-51.62336
379.101	30.55946
379.315	-9.48295
379.53	47.42198
379.744	-17.91182
379.958	22.12877
380.173	-17.91182
380.387	11.59093
380.602	-5.26836
380.816	30.55946
381.031	43.20621
381.245	-15.80464
381.459	-47.40976
381.674	-36.87534
381.888	-121.13285
382.103	20.02115
382.317	-72.68981
382.531	26.34407
382.746	-28.44736
382.96	3.16109
383.174	-22.12611
383.388	20.02115
383.603	24.2364
383.817	28.45175
384.031	-3.16104
384.246	-34.76838
384.46	-22.12611
384.674	5.26851
384.888	5.26851
385.103	11.59093
385.317	32.66719
385.531	83.25972
385.745	-20.01897
385.959	62.17789
386.174	91.69308
386.388	-17.91182
386.602	32.66719
386.816	-70.58328
387.03	36.88273
387.244	-11.5902
387.458	24.2364
387.672	-51.62336
387.887	49.5299
388.101	-55.83685
388.315	49.5299
388.529	64.28597
388.743	-28.44736
388.957	-1.05368
389.171	17.91356
389.385	53.7458
389.599	-13.69743
389.813	45.31408
390.027	-30.55439
390.241	-28.44736
390.455	3.16109
390.669	-22.12611
390.883	-34.76838
391.097	-20.01897
391.311	-41.08919
391.525	-20.01897
391.738	-62.1569
391.952	47.42198
392.166	-20.01897
392.38	20.02115
392.594	-55.83685
392.808	-28.44736
393.022	-17.91182
393.236	-13.69743
393.449	49.5299
393.663	62.17789
393.877	-13.69743
394.091	5.26851
394.305	104.34378
394.518	-13.69743
394.732	3.16109
394.946	-41.08919
395.16	-51.62336
395.373	49.5299
395.587	55.85379
395.801	32.66719
396.015	-22.12611
396.228	-17.91182
396.442	43.20621
396.656	36.88273
396.869	64.28597
397.083	15.80599
397.297	-20.01897
397.51	47.42198
397.724	11.59093
397.938	32.66719
398.151	30.55946
398.365	-51.62336
398.578	15.80599
398.792	53.7458
399.005	-32.6614
399.219	43.20621
399.433	-62.1569
399.646	49.5299
399.86	-43.19607
400.073	-81.11567
400.287	36.88273
400.5	49.5299
400.714	-9.48295
400.927	-15.80464
401.141	22.12877
401.354	47.42198
401.567	47.42198
401.781	62.17789
401.994	-66.37014
402.208	62.17789
402.421	32.66719
402.635	-30.55439
402.848	13.69845
403.061	-34.76838
403.275	-3.16104
403.488	-28.44736
403.701	41.09836
403.915	-1.05368
404.128	11.59093
404.341	30.55946
404.555	-62.1569
404.768	-38.98228
404.981	9.48343
405.195	24.2364
405.408	-1.05368
405.621	22.12877
405.834	3.16109
406.048	38.99053
406.261	3.16109
406.474	79.04317
406.687	-13.69743
406.9	36.88273
407.114	30.55946
407.327	38.99053
407.54	-30.55439
407.753	70.61035
407.966	36.88273
408.179	-15.80464
408.392	68.5022
408.605	11.59093
408.819	5.26851
409.032	79.04317
409.245	-34.76838
409.458	26.34407
409.671	28.45175
409.884	-11.5902
410.097	-95.85994
410.31	60.06984
410.523	-24.23321
410.736	-15.80464
410.949	34.77495
411.162	112.77803
411.375	-17.91182
411.588	20.02115
411.801	-36.87534
412.014	-28.44736
412.227	-45.30293
412.44	-38.98228
412.653	28.45175
412.865	-97.96616
413.078	-1.05368
413.291	13.69845
413.504	-22.12611
413.717	11.59093
413.93	28.45175
414.143	38.99053
414.356	7.37596
414.568	-11.5902
414.781	-13.69743
414.994	20.02115
415.207	45.31408
415.42	53.7458
415.632	41.09836
415.845	51.63784
416.058	22.12877
416.271	-66.37014
416.483	-13.69743
416.696	-22.12611
416.909	-53.73012
417.121	30.55946
417.334	-5.26836
417.547	20.02115
417.759	20.02115
417.972	-11.5902
418.185	-62.1569
418.397	28.45175
418.61	-11.5902
418.823	-5.26836
419.035	28.45175
419.248	62.17789
419.46	41.09836
419.673	64.28597
419.885	45.31408
420.098	62.17789
420.311	-7.37567
420.523	36.88273
420.736	-11.5902
420.948	72.71852
421.161	7.37596
421.373	47.42198
421.586	38.99053
421.798	-3.16104
422.01	47.42198
422.223	-5.26836
422.435	38.99053
422.648	11.59093
422.86	20.02115
423.073	-34.76838
423.285	11.59093
423.497	70.61035
423.71	45.31408
423.922	47.42198
424.134	-1.05368
424.347	60.06984
424.559	89.5847
424.771	-20.01897
424.984	5.26851
425.196	49.5299
425.408	28.45175
425.621	5.26851
425.833	15.80599
426.045	-28.44736
426.257	45.31408
426.47	-9.48295
426.682	9.48343
426.894	24.2364
427.106	24.2364
427.318	-72.68981
427.531	28.45175
427.743	15.80599
427.955	-1.05368
428.167	53.7458
428.379	66.39408
428.591	24.2364
428.804	11.59093
429.016	41.09836
429.228	36.88273
429.44	32.66719
429.652	-30.55439
429.864	32.66719
430.076	32.66719
430.288	22.12877
430.5	-51.62336
430.712	28.45175
430.924	-15.80464
431.136	22.12877
431.348	51.63784
431.56	55.85379
431.772	36.88273
431.984	7.37596
432.196	79.04317
432.408	-5.26836
432.62	45.31408
432.832	24.2364
433.044	24.2364
433.256	-5.26836
433.468	38.99053
433.679	81.15143
433.891	20.02115
434.103	-24.23321
434.315	24.2364
434.527	11.59093
434.739	-5.26836
434.95	70.61035
435.162	-3.16104
435.374	38.99053
435.586	83.25972
435.798	26.34407
436.009	45.31408
436.221	36.88273
436.433	30.55946
436.645	20.02115
436.856	-17.91182
437.068	-17.91182
437.28	15.80599
437.491	45.31408
437.703	-9.48295
437.915	7.37596
438.126	30.55946
438.338	49.5299
438.55	17.91356
438.761	36.88273
438.973	36.88273
439.184	-68.47672
439.396	36.88273
439.608	28.45175
439.819	-22.12611
440.031	-32.6614
440.242	47.42198
440.454	13.69845
440.665	3.16109
440.877	106.45231
441.088	41.09836
441.3	60.06984
441.511	36.88273
441.723	-5.26836
441.934	95.90989
442.146	36.88273
442.357	-11.5902
442.569	-60.05024
442.78	28.45175
442.991	53.7458
443.203	11.59093
443.414	49.5299
443.626	17.91356
443.837	36.88273
444.048	66.39408
444.26	3.16109
444.471	-9.48295
444.682	76.93493
444.894	112.77803
445.105	-17.91182
445.316	-17.91182
445.528	104.34378
445.739	17.91356
445.95	81.15143
446.161	11.59093
446.373	133.86516
446.584	24.2364
446.795	13.69845
447.006	22.12877
447.217	30.55946
447.429	20.02115
447.64	57.9618
447.851	-28.44736
448.062	60.06984
448.273	53.7458
448.484	53.7458
448.695	47.42198
448.907	28.45175
449.118	20.02115
449.329	20.02115
449.54	66.39408
449.751	30.55946
449.962	17.91356
450.173	47.42198
450.384	53.7458
450.595	24.2364
450.806	79.04317
451.017	24.2364
451.228	11.59093
451.439	148.62743
451.65	38.99053
451.861	91.69308
452.072	20.02115
452.283	-1.05368
452.494	20.02115
452.705	72.71852
452.915	32.66719
453.126	-9.48295
453.337	79.04317
453.548	20.02115
453.759	24.2364
453.97	22.12877
454.181	49.5299
454.391	17.91356
454.602	30.55946
454.813	85.36802
455.024	62.17789
455.235	9.48343
455.445	95.90989
455.656	20.02115
455.867	66.39408
456.078	87.47635
456.288	20.02115
456.499	45.31408
456.71	140.19172
456.921	28.45175
457.131	53.7458
457.342	62.17789
457.553	47.42198
457.763	20.02115
457.974	72.71852
458.184	57.9618
458.395	32.66719
458.606	72.71852
458.816	45.31408
459.027	87.47635
459.237	1.05369
459.448	-1.05368
459.659	-13.69743
459.869	57.9618
460.08	81.15143
460.29	-22.12611
460.501	95.90989
460.711	20.02115
460.922	28.45175
461.132	-5.26836
461.343	53.7458
461.553	79.04317
461.764	66.39408
461.974	79.04317
462.184	89.5847
462.395	121.21262
462.605	60.06984
462.816	41.09836
463.026	91.69308
463.236	53.7458
463.447	72.71852
463.657	79.04317
463.867	100.12679
464.078	62.17789
464.288	66.39408
464.498	89.5847
464.709	70.61035
464.919	98.01833
465.129	55.85379
465.339	76.93493
465.55	72.71852
465.76	108.56086
465.97	85.36802
466.18	55.85379
466.391	62.17789
466.601	3.16109
466.811	112.77803
467.021	30.55946
467.231	123.32132
467.441	87.47635
467.651	129.64756
467.862	146.51847
468.072	83.25972
468.282	157.06349
468.492	64.28597
468.702	-1.05368
468.912	95.90989
469.122	138.08285
469.332	190.81102
469.542	45.31408
469.752	72.71852
469.962	79.04317
470.172	163.39074
470.382	100.12679
470.592	104.34378
470.802	216.12509
471.012	116.99528
471.222	112.77803
471.432	55.85379
471.642	85.36802
471.852	112.77803
472.062	154.95444
472.272	108.56086
472.482	171.82738
472.691	230.89295
472.901	197.13926
473.111	184.48295
473.321	224.56375
473.531	173.93659
473.741	184.48295
473.95	161.28164
474.16	133.86516
474.37	222.45405
474.58	277.31241
474.79	256.21151
474.999	241.44201
475.209	159.17255
475.419	178.15507
475.628	216.12509
475.838	264.65165
476.048	214.01547
476.258	289.97385
476.467	332.18339
476.677	239.33216
476.886	399.73318
477.096	311.07772
477.306	300.52556
477.515	359.62338
477.725	281.53282
477.935	357.51251
478.144	349.06919
478.354	334.29405
478.563	361.73427
478.773	351.18
478.982	460.96471
479.192	441.9604
479.401	433.51445
479.611	332.18339
479.82	475.74669
480.03	469.41147
480.239	570.79075
480.449	406.06685
480.658	479.97025
480.868	526.43329
481.077	589.80291
481.287	505.31286
481.496	661.63592
481.705	598.2531
481.915	754.61631
482.124	695.44449
482.333	722.91607
482.543	661.63592
482.752	735.59588
482.961	818.02358
483.171	792.65962
483.38	760.95663
483.589	862.41365
483.799	803.22777
484.008	796.88685
484.217	725.02935
484.426	885.66711
484.636	801.11412
484.845	1016.74922
485.054	955.43323
485.263	1033.66492
485.472	919.49208
485.682	1073.84117
485.891	919.49208
486.1	1084.41419
486.309	1101.33129
486.518	1109.78996
486.727	1105.56061
486.936	1283.20653
487.146	1139.39587
487.355	1145.74011
487.564	1253.59729
487.773	1323.39119
487.982	1101.33129
488.191	1372.0366
488.4	1177.46186
488.609	1350.88633
488.818	1287.43646
489.027	1581.4255
489.236	1429.14277
489.445	1579.3105
489.654	1304.35626
489.863	1592.00049
490.072	1526.43498
490.281	1727.35531
490.49	1545.47026
490.698	1735.81459
490.907	1570.85047
491.116	1871.15437
491.325	1600.46045
491.534	1795.02789
491.743	1666.02399
491.952	1803.48668
492.16	1917.67295
492.369	2076.23725
492.578	1991.67411
492.787	1940.93124
492.996	1871.15437
493.204	2133.31088
493.413	1951.50296
493.622	2074.12331
493.831	2061.4395
494.039	2287.59124
494.248	2124.85588
494.457	2082.57904
494.665	2175.58398
494.874	2277.0256
495.083	2219.96717
495.291	2405.90992
495.5	2224.19394
495.709	2422.80999
495.917	2270.6861
496.126	2492.51549
496.335	2367.88233
496.543	2296.04359
496.752	2369.99506
496.96	2538.97908
497.169	2663.55767
497.377	2507.29996
497.586	2549.53821
497.794	2644.55692
498.003	2606.55238
498.211	2935.78326
498.42	2530.53157
498.628	2861.94643
498.837	2792.31291
499.045	2927.34567
499.254	2775.4298
499.462	2868.27599
499.671	2811.30537
499.879	3091.83529
500.087	2977.96768
500.296	3053.88442
500.504	3024.3636
500.713	3224.62249
500.921	3041.23301
501.129	3034.9071
501.338	2889.3736
501.546	3146.64414
501.754	3041.23301
501.962	3138.21272
502.171	3159.2908
502.379	3332.06871
502.587	3273.08409
502.795	3367.87421
503.004	3112.91689
503.212	3380.51024
503.42	3418.41454
503.628	3471.04983
503.837	3399.4631
504.045	3614.16026
504.253	3454.20776
504.461	3433.15355
504.669	3485.7857
504.877	3731.95083
505.085	3525.77857
505.294	3721.43626
505.502	3698.3025
505.71	3813.94782
505.918	3776.10675
506.126	3860.18933
506.334	3691.99288
506.542	3982.05235
506.75	3652.02802
506.958	3895.91482
507.166	3761.38906
507.374	3992.55459
507.582	4000.95602
507.79	4000.95602
507.998	3927.43249
508.206	4164.71769
508.414	3870.69743
508.622	4219.2766
508.83	3870.69743
509.037	4108.04529
509.245	3898.01614
509.453	4280.11382
509.661	4286.4063
509.869	4324.1571
510.077	4231.86509
510.285	4248.64854
510.492	4231.86509
510.7	4544.22965
510.908	4137.43289
511.116	4361.90091
511.324	4449.94242
511.531	4290.60117
511.739	4349.32042
511.947	4403.83024
512.155	4630.0967
512.362	4449.94242
512.57	4525.37578
512.778	4617.53313
512.985	4519.09076
513.193	4567.27082
513.401	4584.02635
513.608	4674.06283
513.816	4462.51663
514.024	4814.26926
514.231	4734.76166
514.439	4797.53354
514.646	4676.15621
514.854	5008.7146
515.061	4560.98713
515.269	5083.93032
515.477	4795.44147
515.684	4822.63657
515.892	4868.65027
516.099	4914.65291
516.307	4887.47087
516.514	5125.70385
516.722	4812.17737
516.929	5054.68332
517.136	4778.70412
517.344	5088.10809
517.551	5127.79229
517.759	5311.48315
517.966	5121.52692
518.173	5169.55607
518.381	5190.43446
518.588	5357.37758
518.796	5182.08338
519.003	5357.37758
519.21	5242.62026
519.418	5319.82844
519.625	5545.00916
519.832	5511.66636
520.039	5555.42755
520.247	5557.51116
520.454	5494.9927
520.661	5778.23974
520.868	5505.41392
521.076	5905.1426
521.283	5709.55077
521.49	5551.26027
521.697	5399.08994
521.904	5732.44995
522.112	5551.26027
522.319	5774.07751
522.526	5486.65531
522.733	6015.3312
522.94	5932.17612
523.147	5830.25973
523.354	5713.71447
523.561	5905.1426
523.768	5994.54597
523.975	6019.48797
524.183	5851.0636
524.39	6285.32527
524.597	6029.87946
524.804	6102.60347
525.011	6115.06755
525.218	6135.83914
525.425	6121.29928
525.632	6218.902
525.838	6243.81353
526.045	6293.62649
526.252	6169.06879
526.459	6550.7794
526.666	6455.4257
526.873	6544.56217
527.08	6193.98708
527.287	6702.00117
527.494	6085.98338
527.701	6492.74386
527.907	6200.21613
528.114	6666.79611
528.321	6536.27222
528.528	6641.94147
528.735	6339.27654
528.941	6724.77739
529.148	6440.91105
529.355	6565.28545
529.562	6807.57663
529.768	6764.11159
529.975	6604.6533
530.182	6848.96256
530.388	6782.7407
530.595	6733.05896
530.802	6828.27073
531.008	7072.29002
531.215	7144.60844
531.422	7223.09473
531.628	6977.20123
531.835	6995.8093
532.042	6975.13356
532.248	7373.78164
532.455	7144.60844
532.661	7379.97176
532.868	7369.65479
533.074	7373.78164
533.281	7485.17381
533.487	7594.44197
533.694	7295.35648
533.9	7303.61325
534.107	7041.28803
534.313	7592.38087
534.52	7379.97176
534.726	7594.44197
534.933	7559.40026
535.139	7672.74826
535.345	7664.50693
535.552	7660.38614
535.758	7596.50306
535.965	7732.48774
536.171	7711.88992
536.377	7847.79683
536.584	7781.91395
536.79	7800.44566
536.996	7856.03069
537.203	7884.84661
537.409	7639.78093
537.615	7794.26861
537.821	7666.5673
538.028	7839.56264
538.234	7823.09325
538.44	8067.93939
538.646	8028.86572
538.853	8178.9512
539.059	7934.2359
539.265	8092.61374
539.471	8074.10825
539.677	8238.54464
539.883	8242.65392
540.09	8333.03817
540.296	8113.17349
540.502	8427.49046
540.708	8269.36231
540.914	8554.73146
541.12	8390.53574
541.326	8616.27356
541.532	8550.62805
541.738	8573.19586
541.944	8353.57476
542.15	8683.95045
542.356	8634.7329
542.562	8690.1019
542.768	8406.96083
542.974	8587.55601
543.18	8702.40428
543.386	8901.20168
543.592	8698.30356
543.798	9015.8945
544.004	8858.17751
544.21	9001.56092
544.415	8845.88343
544.621	9044.55908
544.827	8817.19473
545.033	9026.13224
545.239	8677.79884
545.445	9026.13224
545.651	9048.65374
545.856	9161.22984
546.062	9081.40854
546.268	8933.97672
546.474	8987.22648
546.679	9011.79928
546.885	8958.55502
547.091	9007.70399
547.297	9060.93731
547.502	9253.29913
547.708	9011.79928
547.914	9427.11563
548.119	9150.99779
548.325	9398.4952
548.531	9155.09066
548.736	9175.55398
548.942	9097.78427
549.147	9382.13923
549.353	9429.15982
549.559	9631.45589
549.764	9492.52185
549.97	9504.78368
550.175	9590.6005
550.381	9796.85707
550.586	9328.97509
550.792	9651.88124
550.997	9376.00547
551.203	9645.7538
551.408	9858.09154
551.614	9913.19114
551.819	9896.86646
552.025	10029.4776
552.23	9966.23992
552.435	9949.91827
552.641	10255.79814
552.846	10182.4156
553.052	9947.878
553.257	10162.02841
553.462	10094.74081
553.668	10190.57009
553.873	10294.52071
554.078	10221.14748
554.283	10035.59664
554.489	10435.10443
554.694	10406.58525
554.899	10263.95066
555.105	10518.61033
555.31	10524.71967
555.515	10170.18345
555.72	10473.80496
555.925	10102.89769
556.131	10400.47367
556.336	10353.61428
556.541	10483.98854
556.746	10343.42653
556.951	10504.35474
557.156	10280.25507
557.361	10455.47371
557.567	10565.44574
557.772	10734.40598
557.977	10612.27453
558.182	10632.63282
558.387	10679.45224
558.592	10781.21153
558.797	10789.35098
559.002	10705.91255
559.207	10683.52319
559.412	10756.79202
559.617	10606.1668
559.822	10980.57477
560.027	10982.60853
560.232	11185.92879
560.437	10988.70973
560.642	10923.62507
560.847	10746.61673
561.051	10976.50723
561.256	10933.7953
561.461	10980.57477
561.666	11185.92879
561.871	11179.83074
562.076	11094.44806
562.281	11397.27049
562.485	10844.28739
562.69	11122.91105
562.895	11135.10883
563.1	11155.43761
563.305	11061.91635
563.509	11358.66814
563.714	11281.45261
563.919	11511.02537
564.123	11289.58125
564.328	11381.0173
564.533	11112.74594
564.737	11364.76349
564.942	11468.37083
565.147	11541.49034
565.351	11417.58609
565.556	11525.24262
565.761	11565.8608
565.965	11655.20778
566.17	11326.15811
566.374	11537.42847
566.579	11573.98399
566.784	11630.84217
566.988	11584.13777
567.193	11927.20472
567.397	11502.90102
567.602	11880.52953
567.806	11630.84217
568.011	11750.62733
568.215	11679.57208
568.42	11614.59771
568.624	11738.4472
568.828	11915.02901
569.033	11732.35702
569.237	11754.68731
569.442	12069.23341
569.646	11915.02901
569.85	11992.13696
570.055	12308.56853
570.259	12020.54224
570.463	12124.00567
570.668	11957.64274
570.872	12101.69172
571.076	11981.99184
571.281	12284.23399
571.485	12304.51284
571.689	12306.54069
571.893	12134.14807
572.098	12523.48094
572.302	12148.34712
572.506	12314.65201
572.71	12430.22628
572.914	12505.23654
573.119	12377.51094
573.323	12414.00666
573.527	12298.42926
573.731	12624.8294
573.935	12604.56095
574.139	12377.51094
574.343	12288.28982
574.547	12610.64155
574.751	12568.07618
574.955	12786.9556
575.159	12752.5069
575.364	12685.63113
575.568	12934.86428
575.772	12791.00829
575.976	12667.39118
576.18	12649.15074
576.383	12630.90982
576.587	12679.5512
576.791	12805.19249
576.995	12977.40811
577.199	12861.92662
577.403	12825.45518
577.607	12782.9029
577.811	13137.43427
578.015	13321.73236
578.219	13066.54035
578.422	13001.71786
578.626	13244.77715
578.83	12975.38227
579.034	13005.76942
579.238	13153.63779
579.442	13111.10292
579.645	12981.45979
579.849	13131.35788
580.053	13040.20682
580.257	13204.27188
580.46	13139.45973
580.664	13376.4074
580.868	13054.38652
581.071	13455.37731
581.275	13427.02982
581.479	13299.45648
581.682	12961.2012
581.886	12963.22709
582.09	13327.80752
582.293	13414.88066
582.497	13408.80603
582.7	13325.78247
582.904	13730.71616
583.107	13497.89715
583.311	13534.34142
583.515	13536.36606
583.718	13706.42406
583.922	14064.69067
584.125	13570.78452
584.329	13578.88283
584.532	13534.34142
584.735	13971.58988
584.939	13593.05474
585.142	13755.00781
585.346	13674.03388
585.549	13759.05637
585.753	13815.73502
585.956	13937.18174
586.159	14271.11475
586.363	14208.38027
586.566	14117.31066
586.769	14406.69631
586.973	14076.83388
587.176	14358.13065
587.379	14078.85774
587.582	14248.85434
587.786	14350.03628
587.989	14556.43514
588.192	14129.45352
588.395	14283.2567
588.599	14293.37494
588.802	14740.56449
589.005	14171.95293
589.208	14362.17782
589.411	14226.5937
589.615	14220.52257
589.818	14412.76696
590.021	14596.90388
590.224	14617.13808
590.427	14675.81665
590.63	14501.80157
590.833	14471.44917
591.036	14637.37217
591.239	14833.63805
591.442	14404.67276
591.645	14704.14394
591.848	14734.49442
592.051	14910.52387
592.254	14732.47106
592.457	14965.15282
592.66	14637.37217
592.863	15029.8979
593.066	14910.52387
593.269	15189.73645
593.472	15027.87462
593.675	15329.34245
593.878	15082.50307
594.081	15448.7168
594.284	15131.0616
594.486	15458.83334
594.689	15317.20276
594.892	15197.82953
595.095	15294.94668
595.298	15060.24705
595.5	15157.36412
595.703	15679.37799
595.906	15402.18086
596.109	15290.90013
596.311	15432.53036
596.514	15604.51322
596.717	15292.92341
596.92	15653.07402
597.122	15335.4123
597.325	15228.17861
597.528	15074.40998
597.73	15325.29589
597.933	15266.62081
598.136	15671.28444
598.338	15286.85357
598.541	15604.51322
598.743	15416.34395
598.946	15600.46651
599.148	15357.66845
599.351	15460.85665
599.554	15333.38902
599.756	15647.00389
599.959	16061.81806
600.161	15891.83933
600.363	16118.4799
600.566	15910.05088
600.768	15711.75231
600.971	16053.72361
601.173	15754.24398
601.376	16237.87862
601.578	16114.43259
601.78	16039.55838
601.983	16001.11025
602.185	16165.02448
602.388	15756.26741
602.59	15847.32261
602.792	15948.49784
602.995	15918.14494
603.197	15887.79233
603.399	16132.64555
603.601	16082.05429
603.804	16306.68738
604.006	16031.46399
604.208	15889.81583
604.41	15986.94528
604.613	16215.61739
604.815	16098.24339
605.017	16215.61739
605.219	16092.17247
605.421	16298.59213
605.623	15885.76883
605.826	16193.35638
606.028	16045.62918
606.23	15910.05088
606.432	16035.51118
606.634	16462.52705
606.836	15910.05088
607.038	16610.28236
607.24	16282.4017
607.442	16450.38328
607.644	16468.59897
607.846	16764.12248
608.048	16302.63975
608.25	16612.30648
608.452	16199.42755
608.654	16608.25824
608.856	16397.76111
609.058	16610.28236
609.26	16683.15232
609.462	16648.74114
609.664	16841.04772
609.866	16758.04959
610.067	16707.44297
610.269	16709.46721
610.471	16434.1917
610.673	16681.12811
610.875	16610.28236
611.077	16905.82968
611.278	16434.1917
611.48	16907.85416
611.682	16454.4312
611.884	17195.3574
612.085	16606.23411
612.287	16903.80521
612.489	16626.47543
612.69	16758.04959
612.892	16436.21564
613.094	16922.02558
613.295	16592.06533
613.497	16836.99894
613.699	16618.37888
613.9	16715.53993
614.102	16772.21971
614.304	16747.92814
614.505	16490.86281
614.707	16810.68207
614.908	16770.1954
615.11	17073.8704
615.311	16845.09652
615.513	16703.3945
615.714	17130.56307
615.916	16956.44243
616.117	16697.32182
616.319	16928.09909
616.52	16784.36562
616.722	16988.83544
616.923	16952.39335
617.124	16705.41874
617.326	16711.49144
617.527	17063.74694
617.729	17053.62354
617.93	17057.67289
618.131	16917.97659
618.333	17071.8457
618.534	16942.27069
618.735	17243.95508
618.937	16792.46295
619.138	17009.08143
619.339	16826.87702
619.54	17009.08143
619.742	17077.9198
619.943	17118.41445
620.144	17021.22915
620.345	17333.05525
620.546	17144.73658
620.748	17470.76706
620.949	17146.76138
621.15	17237.88028
621.351	16986.81086
621.552	17039.45091
621.753	16766.14678
621.954	17424.18647
622.155	17205.48178
622.356	17533.55223
622.558	17393.80871
622.759	17450.51443
622.96	17329.00512
623.161	17505.19726
623.362	17017.1799
623.563	17357.3563
623.764	17225.73075
623.965	17349.2559
624.166	17252.05486
624.366	17288.50445
624.567	17458.61544
624.768	17594.31501
624.969	17326.98006
625.17	17243.95508
625.371	17464.69124
625.572	17701.66974
625.773	17262.17965
625.973	17491.02001
626.174	17426.21168
626.375	17699.64409
626.576	17410.01009
626.777	17527.47612
626.977	17025.27841
627.178	17612.54441
627.379	17320.90489
627.58	17195.3574
627.78	17513.29862
627.981	17596.34048
628.182	17308.75463
628.382	17811.05968
628.583	17294.57947
628.784	17361.40652
628.984	17553.80617
629.185	17845.4993
629.386	17215.60623
629.586	17711.79803
629.787	17693.56717
629.987	17758.38922
630.188	17395.83387
630.388	17482.91879
630.589	17478.8682
630.79	17501.1466
630.99	17705.72105
631.191	17908.30353
631.391	18125.10546
631.591	17728.00346
631.792	17843.47341
631.992	18046.07947
632.193	17906.27754
632.393	17594.31501
632.594	17780.67259
632.794	17762.44071
632.994	17322.92994
633.195	17608.4934
633.395	17616.59542
633.595	17863.73244
633.796	17559.88241
633.996	17952.87631
634.196	17689.51591
634.397	17839.42165
634.597	17669.25979
634.797	18250.74794
634.997	17873.86209
635.198	17839.42165
635.398	18013.66012
635.598	18339.9222
635.798	18169.68666
635.998	18098.76285
636.199	17809.03385
636.399	17922.4856
636.599	17869.81022
636.799	17932.61575
636.999	17973.13723
637.199	17914.38154
637.399	18021.76487
637.599	18376.40468
637.799	18175.76606
637.999	18279.12079
638.199	18348.02931
638.399	18307.49436
638.599	18236.56179
638.799	18491.94061
638.999	18380.45836
639.199	18573.02589
639.399	18289.25412
639.599	18187.92494
639.799	18149.42226
639.999	18143.34301
640.199	18299.38755
640.399	18346.00253
640.599	17616.59542
640.799	18684.52829
640.998	18564.91709
641.198	18568.97148
641.398	18001.50311
641.598	18676.41863
641.798	18735.21512
641.997	18479.77835
642.197	18583.16199
642.397	18587.21645
642.597	18114.97362
642.796	18240.61496
642.996	18412.88837
643.196	18727.10506
643.395	18226.42894
643.595	18996.79862
643.795	18593.29818
643.994	18771.71116
644.194	18591.27093
644.394	18500.04886
644.593	18629.78928
644.793	18998.82666
644.992	18998.82666
645.192	18869.04023
645.392	18682.50087
645.591	18650.06265
645.791	18605.46174
645.99	18694.66546
646.19	18556.80834
646.389	18854.84583
646.589	18869.04023
646.788	18905.541
646.987	18735.21512
647.187	19301.05009
647.386	18729.13257
647.586	19033.30395
647.785	19019.10728
647.984	19181.36687
648.184	19339.5952
648.383	18852.81808
648.582	18840.65164
648.782	18806.18082
648.981	18696.69291
649.18	18759.54567
649.38	18747.38033
649.579	19197.59426
649.778	19181.36687
649.977	19002.88275
650.177	18682.50087
650.376	18826.45763
650.575	18933.93138
650.774	19163.11136
650.973	18804.15317
651.173	19065.75424
651.372	19183.39528
651.571	19075.89517
651.77	19079.95157
651.969	19260.4779
652.168	18950.15482
652.367	19205.70806
652.566	19019.10728
652.765	19262.50647
652.964	19086.0362
653.163	19296.9928
653.362	19426.83437
653.561	19126.60134
653.76	19110.37509
653.959	19187.45211
654.158	19495.81961
654.357	19067.78242
654.556	18905.541
654.755	19183.39528
654.954	18779.82157
655.153	18994.77058
655.352	19136.74288
655.551	19325.39419
655.749	19473.50033
655.948	19497.84866
656.147	19457.26844
656.346	19522.19759
656.545	19278.73518
656.743	19181.36687
656.942	19384.22823
657.141	19850.96702
657.34	19163.11136
657.538	19272.64939
657.737	19213.82192
657.936	19871.26504
658.135	19254.39222
658.333	20114.87401
658.532	19704.83371
658.731	19712.95166
658.929	19572.92645
659.128	19656.12743
659.326	19434.95003
659.525	19443.06576
659.724	19394.37239
659.922	19449.1526
660.121	19645.9806
660.319	19181.36687
660.518	19572.92645
660.716	19313.22207
660.915	19676.42142
661.113	19664.24498
661.312	19305.1074
661.51	19609.45285
661.709	19613.51142
661.907	19451.18155
662.105	19643.95124
662.304	19751.51282
662.502	19483.64539
662.701	19611.48213
662.899	19710.92216
663.097	19627.71655
663.296	19822.55051
663.494	19859.08618
663.692	19566.83885
663.891	19859.08618
664.089	19505.9649
664.287	19725.1287
664.485	19550.60543
664.684	19883.44405
664.882	19686.56857
665.08	19972.76142
665.278	20165.6335
665.476	20133.14712
665.675	19954.49129
665.873	20192.02947
666.071	19968.70136
666.269	19978.85153
666.467	19656.12743
666.665	20179.84663
666.863	19717.01066
667.061	19747.45368
667.259	19562.78047
667.457	19940.28143
667.655	19548.57627
667.853	19564.80966
668.051	19514.08121
668.249	19406.54551
668.447	19540.45968
668.645	19788.04585
668.843	19390.31471
669.041	19550.60543
669.239	19475.52933
669.437	19518.13939
669.635	19566.83885
669.833	19550.60543
670.031	19526.2558
670.229	19428.86328
670.426	19426.83437
670.624	19727.15823
670.822	19292.93552
671.02	19660.1862
671.218	19136.74288
671.415	19264.53505
671.613	19692.65692
671.811	19974.79145
672.009	19611.48213
672.206	19871.26504
672.404	19595.24798
672.602	19522.19759
672.799	20027.57383
672.997	20049.90569
673.195	19708.89268
673.392	19816.46136
673.59	19938.25147
673.788	19479.58735
673.985	19469.44233
674.183	19719.04016
674.38	19660.1862
674.578	19755.57198
674.775	19491.76152
674.973	19832.69917
675.17	19816.46136
675.368	19668.30378
675.565	19530.31403
675.763	19704.83371
675.96	19278.73518
676.158	19708.89268
676.355	19654.09806
676.553	19901.71285
676.75	19576.98487
676.947	19643.95124
677.145	19453.21051
677.342	19597.27723
677.539	19562.78047
677.737	19396.40123
677.934	19441.03682
678.131	19808.34256
678.329	19824.58023
678.526	20080.35905
678.723	19469.44233
678.92	19938.25147
679.118	19453.21051
679.315	19700.77476
679.512	19822.55051
679.709	19727.15823
679.906	19625.68724
680.104	19794.13482
680.301	19489.73248
680.498	19459.29741
680.695	19254.39222
680.892	19392.34355
681.089	19213.82192
681.286	19313.22207
681.483	18796.04257
681.68	19108.34683
681.877	19296.9928
682.075	19047.50083
682.272	19240.19243
682.469	19491.76152
682.665	19473.50033
682.862	19301.05009
683.059	19175.28166
683.256	19400.45893
683.453	19453.21051
683.65	19376.11299
683.847	19382.19942
684.044	19157.02627
684.241	18867.01245
684.438	19333.50903
684.635	18899.45745
684.831	19441.03682
685.028	19240.19243
685.225	19278.73518
685.422	18848.76258
685.619	19084.00799
685.815	18978.54644
686.012	19629.74587
686.209	19278.73518
686.405	19136.74288
686.602	19161.08299
686.799	19108.34683
686.996	19215.8504
687.192	19359.88269
687.389	19355.82516
687.586	19514.08121
687.782	19144.85619
687.979	19380.1706
688.175	18933.93138
688.372	19165.13974
688.568	19104.29031
688.765	18714.94009
688.962	19045.47269
689.158	19262.50647
689.355	18641.95326
689.551	18783.87679
689.748	18785.90441
689.944	18678.44604
690.14	18796.04257
690.337	19035.33207
690.533	19246.27803
690.73	19138.7712
690.926	19274.67798
691.123	19051.55711
691.319	18794.01493
691.515	19051.55711
691.712	18753.46298
691.908	18976.51844
692.104	18613.57085
692.301	18942.04307
692.497	18763.60082
692.693	19126.60134
692.889	18812.26383
693.086	18929.87557
693.282	18834.56847
693.478	19152.96956
693.674	18631.8166
693.87	18585.18922
694.067	18741.2977
694.263	18581.13476
694.459	18459.50822
694.655	18617.62544
694.851	18850.79033
695.047	18783.87679
695.243	18806.18082
695.439	18779.82157
695.635	18222.37582
695.831	18798.07021
696.027	18741.2977
696.224	18834.56847
696.42	18364.24372
696.615	18810.23615
696.811	18447.34633
697.007	18500.04886
697.203	18459.50822
697.399	18777.79396
697.595	18721.02256
697.791	18875.1236
697.987	18696.69291
698.183	18954.21071
698.379	18362.2169
698.575	18852.81808
698.77	18804.15317
698.966	18743.32524
699.162	18895.40176
699.358	18877.1514
699.554	18504.10301
699.749	18700.74781
699.945	18522.34687
700.141	18467.61622
700.337	18643.9806
700.532	18915.68033
700.728	18781.84918
700.924	18883.23482
701.119	18534.50961
701.315	18202.11047
701.511	17849.55109
701.706	18477.75132
701.902	18248.72134
702.097	18358.16329
702.293	18333.84191
702.489	18358.16329
702.684	18443.29239
702.88	18639.92592
703.075	18518.29265
703.271	18542.61819
703.466	18372.35101
703.662	18374.37784
703.857	18058.23695
704.053	18236.56179
704.248	18767.65598
704.443	18674.39122
704.639	18769.68357
704.834	18418.96911
705.03	17954.90239
705.225	18256.82778
705.42	18325.7349
705.616	18641.95326
705.811	18147.39584
706.006	18493.96767
706.202	18603.43447
706.397	18489.91356
706.592	18716.96758
706.787	18506.13009
706.983	18623.70734
707.178	18307.49436
707.373	18350.0561
707.568	18031.89589
707.763	17788.77574
707.959	17932.61575
708.154	18264.93427
708.349	18281.14745
708.544	18445.31936
708.739	18214.26964
708.934	18072.42086
709.129	18374.37784
709.324	17626.72301
709.519	18125.10546
709.714	17825.24058
709.909	18050.13195
710.104	17711.79803
710.299	17879.93992
710.494	17825.24058
710.689	18098.76285
710.884	18149.42226
711.079	18198.05744
711.274	17752.31201
711.469	18560.86271
711.664	17786.74995
711.859	18094.7102
712.054	17693.56717
712.249	17776.62104
712.443	17896.14762
712.638	17977.18946
712.833	17369.50699
713.028	17713.82369
713.223	17468.74178
713.417	17728.00346
713.612	17802.95638
713.807	18161.58086
714.002	18163.6073
714.196	18477.75132
714.391	18238.58837
714.586	18473.69727
714.78	18313.57451
714.975	18350.0561
715.17	17701.66974
715.364	17991.37236
715.559	18220.34927
715.754	17938.69388
715.948	17813.08551
716.143	17598.36596
716.337	17462.66597
716.532	18104.84186
716.726	17936.66783
716.921	18252.77455
717.115	18380.45836
717.31	18337.89543
717.504	17979.21557
717.699	18311.54779
717.893	17701.66974
718.088	18013.66012
718.282	17553.80617
718.476	17715.84936
718.671	17379.63265
718.865	17513.29862
719.059	17430.2621
719.254	17742.18339
719.448	17314.82975
719.642	17563.93326
719.837	17594.31501
720.031	17537.603
720.225	17233.83043
720.419	17766.49222
720.614	17470.76706
720.808	17705.72105
721.002	17171.05918
721.196	17333.05525
721.39	17484.94409
721.585	17559.88241
721.779	17416.08566
721.973	17403.93455
722.167	16952.39335
722.361	17059.69757
722.555	17011.10604
722.749	16834.97455
722.943	16786.38995
723.137	16788.41428
723.331	16739.83103
723.525	17011.10604
723.719	17189.2828
723.913	17426.21168
724.107	17088.04336
724.301	17274.32949
724.495	17272.30451
724.689	17146.76138
724.883	16830.92578
725.077	16747.92814
725.271	16760.07388
725.465	17102.21646
725.659	17399.8842
725.853	17393.80871
726.046	17124.48875
726.24	16887.60949
726.434	16762.09818
726.628	17493.04532
726.822	17258.12973
727.015	16843.07212
727.209	16636.59617
727.403	17175.10885
727.596	16836.99894
727.79	17175.10885
727.984	17033.37696
728.177	17359.38141
728.371	17260.15469
728.565	16974.66341
728.758	16816.75516
728.952	17233.83043
729.146	17110.31543
729.339	17401.90937
729.533	17407.98491
729.726	17296.60448
729.92	17310.77967
730.113	17525.45075
730.307	17160.93504
730.5	17426.21168
730.694	17379.63265
730.887	17464.69124
731.081	17296.60448
731.274	16960.49152
731.468	16816.75516
731.661	16806.63336
731.854	16762.09818
732.048	16638.62033
732.241	16498.95881
732.435	16816.75516
732.628	17205.48178
732.821	16727.68544
733.014	16922.02558
733.208	17359.38141
733.401	17316.85479
733.594	16932.14811
733.788	17000.983
733.981	16970.61429
734.174	17343.18064
734.367	17385.70809
734.56	17555.83158
734.754	17493.04532
734.947	17389.75839
735.14	17189.2828
735.333	17189.2828
735.526	17035.40161
735.719	16553.60773
735.912	16581.94483
736.105	16571.82439
736.298	16717.56417
736.491	16705.41874
736.684	16994.90921
736.877	16776.26834
737.07	16824.85264
737.263	16725.66118
737.456	16739.83103
737.649	16709.46721
737.842	16636.59617
738.035	16420.02417
738.228	16500.98282
738.421	16998.9584
738.614	16812.70643
738.807	16810.68207
739	16513.1269
739.192	16527.2951
739.385	17029.32768
739.578	16996.9338
739.771	17005.03221
739.964	16683.15232
740.156	16905.82968
740.349	16733.75822
740.542	16638.62033
740.735	16387.64161
740.927	16859.26739
741.12	16434.1917
741.313	16413.9524
741.505	16652.78948
741.698	16531.34317
741.891	16430.14382
742.083	16802.58466
742.276	16699.34605
742.468	16296.56832
742.661	16523.24703
742.854	16213.59366
743.046	16328.9495
743.239	16503.00683
743.431	16671.00712
743.624	16494.91081
743.816	16486.81482
744.009	16563.72808
744.201	16579.92074
744.393	16547.53555
744.586	16557.65586
744.778	16725.66118
744.971	16339.06871
745.163	16640.64448
745.355	16361.33115
745.548	16677.07971
745.74	16438.23958
745.932	16106.33798
746.125	16150.85864
746.317	16264.18761
746.509	16023.36963
746.702	16328.9495
746.894	16337.04487
747.086	16199.42755
747.278	16345.14026
747.471	16602.18588
747.663	16664.93455
747.855	16796.51162
748.047	16596.11354
748.239	16646.71697
748.431	16272.28274
748.623	16106.33798
748.815	16124.55088
749.008	16215.61739
749.2	16241.92613
749.392	16227.75985
749.584	16142.76392
749.776	16442.28747
749.968	16359.30729
750.16	16264.18761
750.352	16243.9499
750.544	16165.02448
750.736	16069.91254
750.928	16082.05429
751.12	15997.06311
751.311	15806.85335
751.503	15829.11139
751.695	15908.02737
751.887	16005.1574
752.079	16418.00025
752.271	16090.14883
752.463	16073.95978
752.654	16003.13382
752.846	15972.78038
753.038	16088.12519
753.23	15738.05663
753.421	15863.51044
753.613	15705.68211
753.805	15827.08792
753.997	16160.97709
754.188	15622.72346
754.38	15713.77571
754.572	15740.08004
754.763	15541.78952
754.955	15908.02737
755.146	16025.39322
755.338	15630.81693
755.53	15464.90327
755.721	15673.30783
755.913	15640.93377
756.104	15794.71267
756.296	15893.86283
756.487	15608.55994
756.679	15620.7001
756.87	15523.57954
757.062	15388.0178
757.253	15586.30304
757.445	15483.11309
757.636	15416.34395
757.827	15472.99652
758.019	15357.66845
758.21	15450.7401
758.401	15551.9062
758.593	15543.81285
758.784	15033.94445
758.975	15489.18304
759.167	15377.90134
759.358	15139.15469
759.549	14930.75685
759.74	14920.64036
759.932	15303.0398
760.123	15179.6201
760.314	15131.0616
760.505	14973.24597
760.696	14704.14394
760.888	15232.22515
761.079	15007.64181
761.27	15199.85281
761.461	15066.31688
761.652	15531.67285
761.843	14993.47883
762.034	14857.91787
762.225	14779.00811
762.416	14900.40736
762.607	14993.47883
762.798	15165.4572
762.989	15337.43559
763.18	15147.24777
763.371	14754.72796
763.562	15019.7815
763.753	14758.77466
763.944	15124.99179
764.135	14859.94119
764.326	15197.82953
764.517	14817.45145
764.708	14855.89456
764.899	14578.69301
765.089	14604.99757
765.28	14665.69972
765.471	14414.7905
765.662	14540.24751
765.853	14621.1849
766.043	14420.86113
766.234	14493.70762
766.425	14117.31066
766.615	14210.40399
766.806	14661.65294
766.997	14546.31788
767.187	14499.77808
767.378	14787.10146
767.569	14607.02099
767.759	14752.70461
767.95	14459.30812
768.141	14416.81405
768.331	14285.28035
768.522	14299.44586
768.712	14560.48204
768.903	14645.46577
769.093	14455.26109
769.284	14317.65854
769.474	13720.5945
769.665	14062.6668
769.855	14236.7122
770.046	14086.95316
770.236	13882.53195
770.426	13864.31491
770.617	13975.63785
770.807	13916.9413
770.998	13864.31491
771.188	14008.02124
771.378	13872.4114
771.569	14137.54872
771.759	13829.90433
771.949	13724.64318
772.139	13803.58979
772.33	13771.202
772.52	13795.49292
772.71	14058.61904
772.9	13669.98505
773.09	13912.89318
773.281	14038.3801
773.471	14050.52349
773.661	13945.27784
773.851	13692.25346
774.041	13459.42689
774.231	13767.15347
774.421	13499.92186
774.611	13483.72405
774.802	13258.95357
774.992	13402.73137
775.182	13319.7073
775.372	13633.54498
775.562	13325.78247
775.752	13661.88735
775.942	13552.56311
776.131	13603.17743
776.321	13147.5615
776.511	13451.32771
776.701	13224.52474
776.891	13263.00394
777.081	13196.17062
777.271	13224.52474
777.461	13356.15773
777.651	13402.73137
777.84	13131.35788
778.03	13050.3352
778.22	12843.69112
778.41	12979.43395
778.599	13165.79023
778.789	13303.50668
778.979	13179.96787
779.169	13038.18113
779.358	12953.09763
779.548	13230.6005
779.738	13240.7267
779.927	13159.71403
780.117	12910.55249
780.307	13021.97543
780.496	12918.6565
780.686	13096.92417
780.875	12620.77576
781.065	12754.53334
781.254	12938.91617
781.444	12965.25296
781.633	12707.92376
781.823	12876.10948
782.012	12495.10054
782.202	12868.00502
782.391	12424.14397
782.581	12517.39953
782.77	12268.0104
782.96	12268.0104
783.149	12292.34562
783.338	12559.96818
783.528	12411.97918
783.717	12527.53518
783.906	12347.09615
784.096	12401.84166
784.285	12458.6096
784.474	12709.95033
784.663	12545.77894
784.853	12375.48333
785.042	12361.28991
785.231	12523.48094
785.42	12316.67982
785.61	12263.95443
785.799	12468.74618
785.988	12566.04919
786.177	12241.64609
786.366	12304.51284
786.555	12474.82806
786.744	12456.58226
786.933	12440.36333
787.122	12393.73153
787.312	12338.98528
787.501	11959.67188
787.69	12036.77313
787.879	11829.79062
788.068	11833.84993
788.257	11852.11639
788.445	11848.05723
788.634	12053.00352
788.823	12004.31084
789.012	11884.58841
789.201	11799.34475
789.39	11764.8371
789.579	11730.32694
789.768	11811.52333
789.957	12128.06265
790.145	12000.25291
790.334	11979.9628
790.523	11961.701
790.712	12032.71546
790.9	11738.4472
791.089	11543.52127
791.278	11837.9092
791.467	11596.32199
791.655	11606.47526
791.844	11594.29131
792.033	11569.92241
792.221	11301.7739
792.41	11659.26859
792.599	11177.79804
792.787	11342.41345
792.976	11411.49151
793.164	11699.87469
793.353	11578.04553
793.541	11614.59771
793.73	11399.3021
793.918	11494.77652
794.107	11175.76532
794.295	11419.6176
794.484	11685.66296
794.672	11358.66814
794.861	11230.64491
795.049	11346.47718
795.238	10874.80395
795.426	11277.38823
795.614	11106.64674
795.803	11161.53603
795.991	11183.89611
796.179	11395.23888
796.368	11057.84968
796.556	11118.84504
796.744	11049.71623
796.932	10948.03316
797.121	10819.87226
797.309	11023.2813
797.497	10787.31613
797.685	10952.10102
797.874	11120.87805
798.062	11129.00999
798.25	10899.21533
798.438	11230.64491
798.626	10929.72724
798.814	11378.98561
799.002	11031.41532
799.19	11019.21422
799.378	10931.76128
799.566	10909.38625
799.755	11047.68284
799.943	10986.67601
800.131	10986.67601
800.318	10980.57477
800.506	10791.38582
800.694	10860.56321
800.882	10915.48867
801.07	11204.22236
801.258	10895.14688
801.446	11102.58056
801.634	10807.66407
801.822	10882.94126
802.01	10807.66407
802.197	11171.69986
802.385	10785.28128
802.573	10842.25286
802.761	10923.62507
802.949	10988.70973
803.136	10891.07839
803.324	11043.61603
803.512	11063.94966
803.699	11009.04634
803.887	11202.18978
804.075	11303.80597
804.262	11200.15719
804.45	11147.30622
804.638	10801.55981
804.825	11161.53603
805.013	11033.4488
805.201	11122.91105
805.388	11102.58056
805.576	10685.55865
805.763	10903.28373
805.951	10960.23661
806.138	10862.59764
806.326	10901.24954
806.513	10695.73575
806.701	10903.28373
806.888	10620.41799
807.075	10771.03694
807.263	10783.24641
807.45	11098.51433
807.638	10396.39921
807.825	10821.90692
808.012	10722.19479
808.2	10882.94126
808.387	11049.71623
808.574	11181.86343
808.761	10785.28128
808.949	11031.41532
809.136	10960.23661
809.323	10939.89731
809.51	10657.06115
809.698	11027.34833
809.885	10642.81151
810.072	11102.58056
810.259	11110.71288
810.446	10868.70084
810.633	11183.89611
810.82	10952.10102
811.008	10887.00985
811.195	10907.35209
811.382	10882.94126
811.569	11173.7326
811.756	10862.59764
811.943	11340.38156
812.13	11151.37193
812.317	11118.84504
812.504	11122.91105
812.691	11204.22236
812.878	11120.87805
813.064	11082.249
813.251	10939.89731
813.438	11598.35266
813.625	10931.76128
813.812	10923.62507
813.999	11011.07994
814.186	10978.54101
814.372	11061.91635
814.559	11299.74182
814.746	10870.73522
814.933	11029.38183
815.12	10697.77113
815.306	10494.1718
815.493	10764.93205
815.68	10783.24641
815.866	10703.87721
816.053	10634.66858
816.24	10695.73575
816.426	10909.38625
816.613	10850.39091
816.799	11086.31539
816.986	10821.90692
817.173	10966.33817
817.359	10777.14173
817.546	10779.17663
817.732	10567.48191
817.919	10844.28739
818.105	10986.67601
818.292	10882.94126
818.478	10830.04543
818.665	10982.60853
818.851	10899.21533
819.037	10585.80689
819.224	10738.47627
819.41	10565.44574
819.597	10606.1668
819.783	10748.65181
819.969	10553.22845
820.156	10899.21533
820.342	10404.54807
820.528	10779.17663
820.714	10634.66858
820.901	10667.2391
821.087	10720.15955
821.273	11007.01272
821.459	10903.28373
821.646	11086.31539
821.832	10919.55689
822.018	10933.7953
822.204	10492.13518
822.39	10567.48191
822.576	10223.18586
822.762	10455.47371
822.948	10092.70155
823.134	10406.58525
823.32	10005.00014
823.507	10184.45424
823.693	10353.61428
823.879	10673.34573
824.065	10663.16796
824.25	10486.02522
824.436	10345.4641
824.622	10378.06352
824.808	10306.74789
824.994	10212.99381
825.18	10422.88223
825.366	10528.79251
825.552	9937.67642
825.738	10443.25229
825.923	10159.98961
826.109	10292.4828
826.295	10023.35843
826.481	10351.57675
826.667	10292.4828
826.852	10186.49287
827.038	10078.42636
827.224	10231.33926
827.409	10100.85849
827.595	10184.45424
827.781	9839.72261
827.966	9980.52061
828.152	9709.06401
828.338	10094.74081
828.523	9888.70376
828.709	9864.21425
828.894	9611.02898
829.08	9711.10603
829.266	9441.42465
829.451	9743.77625
829.637	9431.204
829.822	9741.73447
830.008	9760.1099
830.193	9831.55825
830.378	9615.11448
830.564	10094.74081
830.749	9792.77429
830.935	9929.5149
831.12	9953.99877
831.305	10066.18994
831.491	9700.89578
831.676	9892.78514
831.861	9592.64342
832.047	9600.81493
832.232	9357.60332
832.417	9512.95792
832.602	9539.52243
832.788	9915.23166
832.973	9747.85975
833.158	9676.38962
833.343	9637.58366
833.528	9729.48351
833.714	9373.96085
833.899	9578.34266
834.084	9220.5673
834.269	9709.06401
834.454	9071.17314
834.639	9425.07142
834.824	9288.072
835.009	9277.84518
835.194	9590.6005
835.379	9298.29839
835.564	9116.20565
835.749	9443.46873
835.934	9079.36149
836.119	9212.38367
836.304	9091.6435
836.489	9136.67222
836.674	9087.54956
836.859	9142.81185
837.044	9050.70105
837.228	9173.50773
837.413	9351.46897
837.598	9196.0156
837.783	8923.73501
837.968	8921.68662
838.152	8792.60159
838.337	8845.88343
838.522	8817.19473
838.707	9007.70399
838.891	8976.98707
839.076	8938.07328
839.261	8776.20471
839.445	9015.8945
839.63	8880.71497
839.815	9079.36149
839.999	8874.5686
840.184	9359.64807
840.368	9050.70105
840.553	9202.15375
840.737	8999.51319
840.922	9034.32212
841.106	8964.69919
841.291	8761.85649
841.475	8694.20277
841.66	8681.89993
841.844	8263.19913
842.029	8632.68194
842.213	8622.42684
842.397	8841.78526
842.582	8546.52456
842.766	8439.80731
842.951	8205.66756
843.135	8509.5898
843.319	8300.17556
843.504	8314.55356
843.688	8423.38469
843.872	8532.16177
844.056	8250.87224
844.241	8476.75373
844.425	8384.37601
844.609	8396.69529
844.793	8378.21611
844.977	8517.79805
845.161	8493.17237
845.346	8507.53769
845.53	8357.68185
845.714	8127.56411
845.898	8086.44543
846.082	8595.7614
846.266	8300.17556
846.45	8409.01388
846.634	8224.16154
846.818	8585.50462
847.002	8220.05191
847.186	8474.70131
847.37	8063.82672
847.554	8382.32273
847.738	8472.64888
847.922	8591.65875
848.106	8191.28224
848.29	8238.54464
848.473	8008.29769
848.657	7954.81128
848.841	7800.44566
849.025	7868.38087
849.209	7736.60706
849.392	7641.84155
849.576	7683.04943
849.76	7804.56359
849.944	7825.15199
850.127	8032.97909
850.311	7612.99097
850.495	7899.25304
850.678	7786.03225
850.862	7954.81128
851.046	7728.36835
851.229	7775.73633
851.413	7664.50693
851.596	7751.02399
851.78	7652.14431
851.964	7932.17825
852.147	7544.96952
852.331	7845.73831
852.514	7590.31974
852.698	7386.16168
852.881	7264.39046
853.065	7239.61408
853.248	7090.8888
853.431	7386.16168
853.615	6898.61366
853.798	7252.00267
853.982	7082.6229
854.165	7349.01922
854.348	7113.61818
854.532	7493.42257
854.715	7313.93372
854.898	7472.80002
855.081	6929.63897
855.265	7353.14651
855.448	6935.84342
855.631	7313.93372
855.814	7157.00314
855.997	7185.921
856.181	6977.20123
856.364	7291.22797
856.547	6946.18372
856.73	7051.62258
856.913	6828.27073
857.096	7254.06736
857.279	7270.58406
857.462	7272.64855
857.645	7183.85559
857.828	7072.29002
858.011	6884.13344
858.194	6826.20142
858.377	6602.58151
858.56	6704.07185
858.743	6815.85454
858.926	6592.22224
859.109	6675.08025
859.292	6579.79036
859.475	6656.44041
859.658	6888.27076
859.841	6784.81048
860.023	6968.93039
860.206	6501.03576
860.389	6650.22672
860.572	6418.10001
860.755	6735.12929
860.937	6295.70174
861.12	6571.50198
861.303	6693.71822
861.486	6704.07185
861.668	6550.7794
861.851	6546.63461
862.034	6318.52792
862.216	6442.98464
862.399	6036.11408
862.581	6125.45364
862.764	6106.75826
862.947	6571.50198
863.129	6428.46901
863.312	6577.7183
863.494	6434.69013
863.677	6604.6533
863.859	6556.99641
864.042	6316.45293
864.224	6214.74974
864.406	6169.06879
864.589	6061.05043
864.771	6393.21202
864.954	5979.9949
865.136	6019.48797
865.318	5819.85691
865.501	5905.1426
865.683	5909.30186
865.865	6144.14712
866.048	6023.64464
866.23	6002.86034
866.412	5811.53424
866.594	6218.902
866.777	5869.78506
866.959	5967.52164
867.141	5921.77909
867.323	5973.75838
867.505	5774.07751
867.687	5842.74233
867.869	5744.93921
868.052	5944.65179
868.234	5778.23974
868.416	6004.93888
868.598	5586.67918
868.78	5900.98324
868.962	5778.23974
869.144	5961.28469
869.326	5728.28668
869.508	5886.42475
869.69	5576.26256
869.872	6115.06755
870.054	5878.10509
870.236	6094.29362
870.417	5903.06293
870.599	5749.10211
870.781	5694.97708
870.963	5753.26491
871.145	5572.09575
871.327	5669.99092
871.508	5609.59367
871.69	5699.14111
871.872	5520.00263
872.054	5730.36833
872.235	5561.6783
872.417	5503.32972
872.599	5453.30196
872.78	5711.63264
872.962	5403.26066
873.144	5611.67666
873.325	5442.87781
873.507	5524.17062
873.689	5426.19794
873.87	5580.42928
874.052	5522.08664
874.233	5488.73969
874.415	5305.22394
874.596	5640.8361
874.778	5369.89227
874.959	5225.92239
875.141	5338.60396
875.322	5503.32972
875.503	5255.14268
875.685	5511.66636
875.866	5547.09289
876.048	5538.75785
876.229	5380.32054
876.41	5465.81017
876.592	5419.9426
876.773	5467.89479
876.954	5211.31053
877.136	5361.54924
877.317	5501.2455
877.498	5538.75785
877.679	5332.34566
877.86	5520.00263
878.042	5288.53168
878.223	5597.09521
878.404	5415.77225
878.585	5424.11285
878.766	5336.51788
878.947	5572.09575
879.128	5267.66426
879.309	5369.89227
879.49	5269.75111
879.672	5469.97939
879.853	5321.9147
880.034	5599.17835
880.215	5330.25952
880.396	5640.8361
880.576	5125.70385
880.757	5494.9927
880.938	5060.95092
881.119	5378.23493
881.3	5436.62303
881.481	5659.57902
881.662	5730.36833
881.843	5686.64874
882.023	5328.17335
882.204	5490.82405
882.385	5338.60396
882.566	5565.84535
882.747	5271.83793
882.927	5378.23493
883.108	5253.05567
883.289	5328.17335
883.469	5428.283
883.65	5497.07699
883.831	5351.11992
884.011	5572.09575
884.192	5553.34392
884.373	5832.34022
884.553	5298.96452
884.734	5459.55617
884.914	5401.17531
885.095	5553.34392
885.275	5482.48647
885.456	5747.02067
885.636	5553.34392
885.817	5778.23974
885.997	5724.12331
886.178	5824.01811
886.358	5538.75785
886.538	5688.73086
886.719	5620.0084
886.899	5699.14111
887.08	5796.96864
887.26	5778.23974
887.44	5503.32972
887.621	5517.9186
887.801	5449.13237
887.981	5507.49809
888.161	5367.80655
888.342	5455.38672
888.522	5338.60396
888.702	5615.84258
888.882	5451.21718
889.062	5655.41409
889.242	5542.92541
889.423	5890.58444
889.603	5376.1493
889.783	5655.41409
889.963	5236.35873
890.143	5595.01205
890.323	5520.00263
890.503	5555.42755
890.683	5486.65531
890.863	5678.32002
891.043	5490.82405
891.223	5759.50894
891.403	5669.99092
891.583	5815.69562
891.763	5478.31754
891.943	5663.74385
892.122	5290.6183
892.302	5553.34392
892.482	5705.38698
892.662	5492.90839
892.842	5303.13749
893.022	5413.68705
893.201	5163.29209
893.381	5459.55617
893.561	5179.99556
893.741	5601.26146
893.92	5303.13749
894.1	5355.29172
894.28	5131.96908
894.459	5253.05567
894.639	5029.61086
894.819	5253.05567
894.998	5194.60986
895.178	5538.75785
895.357	5202.96038
895.537	5315.65584
895.716	5098.55211
895.896	5230.097
896.075	5019.16302
896.255	5361.54924
896.434	5152.85167
896.614	5315.65584
896.793	5010.80433
896.973	5190.43446
897.152	5069.30739
897.331	5294.79146
897.511	5031.70036
897.69	5179.99556
897.87	5276.01151
898.049	5081.8414
898.228	4791.25727
898.407	5060.95092
898.587	4753.59537
898.766	5069.30739
898.945	4548.41915
899.124	4718.01905
899.304	4550.51387
899.483	4759.87286
899.662	4475.09004
899.841	4600.78045
900.02	4307.37983
900.199	4751.50282
900.378	4330.44822
900.557	4722.20484
900.737	4477.18554
900.916	4609.15697
901.095	4244.4528
901.274	4489.75803
901.453	4158.42152
901.632	4307.37983
901.811	4368.19087
901.989	4575.64876
902.168	4166.81638
902.347	4408.02269
902.526	4042.95822
902.705	4210.88386
902.884	4152.12515
903.063	4426.88765
903.242	4263.33293
903.42	4363.99759
903.599	4072.35485
903.778	4267.52828
903.957	4204.58908
904.135	4011.45734
904.314	3769.79928
904.493	4084.95216
904.672	3755.08119
904.85	3950.54257
905.029	3889.61074
905.207	3820.25404
905.386	3626.78352
905.565	3782.41403
905.743	3551.03381
905.922	3769.79928
906.1	3273.08409
906.279	3572.07782
906.457	3529.98796
906.636	3652.02802
906.814	3492.1008
906.993	3445.78629
907.171	3081.29389
907.35	3475.26017
907.528	3211.97888
907.707	3399.4631
907.885	3020.1461
908.063	3342.60026
908.242	3249.90791
908.42	3207.76422
908.598	3087.61877
908.777	3214.08619
908.955	3184.58236
909.133	3133.99691
909.311	2883.04447
909.49	3026.47233
909.668	2893.59295
909.846	3277.29772
910.024	3108.7007
910.202	3418.41454
910.38	3091.83529
910.559	3306.79123
910.737	3298.36485
910.915	3397.3573
911.093	3049.66735
911.271	3230.94407
911.449	2975.8586
911.627	2935.78326
911.805	2707.88875
911.983	3102.37629
912.161	2961.09463
912.339	3315.21733
912.517	3365.76814
912.695	3351.02519
912.872	3169.82924
913.05	3447.89168
913.228	3205.65686
913.406	3319.43028
913.584	3136.10482
913.762	3239.37261
913.939	3131.88898
914.117	3138.21272
914.295	3093.94352
914.473	3372.08629
914.65	3022.25486
914.828	3384.72211
915.006	3096.05173
915.184	3256.22889
915.361	2969.53128
915.539	3171.93687
915.716	2819.74611
915.894	2975.8586
916.072	2861.94643
916.249	2952.65774
916.427	2750.1035
916.604	2961.09463
916.782	3081.29389
916.959	3106.59258
917.137	2876.71521
917.314	3087.61877
917.492	2796.53355
917.669	3129.78103
917.847	2771.20888
918.024	2946.32992
918.201	2859.83655
918.379	2813.41558
918.556	2718.44293
918.733	2758.54581
918.911	2553.76178
919.088	2718.44293
919.265	2595.99486
919.442	2834.51686
919.62	2650.89061
919.797	3030.68975
919.974	2589.6602
920.151	2853.50681
920.328	2517.85995
920.506	2893.59295
920.683	2570.65558
920.86	2462.94491
921.037	2511.52399
921.214	2401.68479
921.391	2338.30304
921.568	2460.83265
921.745	2437.59699
921.922	2538.97908
922.099	2209.40008
922.276	2479.84265
922.453	2513.63599
922.63	2560.09704
922.807	2243.21398
922.984	2238.98737
923.161	2298.15665
923.338	2581.21382
923.514	2192.4923
923.691	2310.83484
923.868	2116.40076
924.045	2260.12008
924.222	2179.81111
924.399	2344.64162
924.575	2226.30731
924.752	2420.69751
924.929	2124.85588
925.105	2222.08056
925.282	2014.93006
925.459	2143.87946
925.635	2177.69755
925.812	2217.85377
925.989	2048.75544
926.165	2148.10683
926.342	1894.41398
926.518	2129.0834
926.695	2006.47344
926.871	2006.47344
927.048	1869.03983
927.224	1875.38344
927.401	1769.65113
927.577	2061.4395
927.754	1718.89597
927.93	1974.76022
928.107	1668.1389
928.283	1924.01619
928.459	1746.38861
928.636	1881.727
928.812	1786.56903
928.988	1805.60136
929.165	1543.35523
929.341	1769.65113
929.517	1642.75976
929.693	1689.28789
929.87	1488.36421
930.046	1752.73298
930.222	1424.91267
930.398	1458.75349
930.574	1549.7003
930.751	1746.38861
930.927	1520.08986
931.103	1680.82833
931.279	1465.09865
931.455	1547.58528
931.631	1416.45247
931.807	1583.5405
931.983	1384.72681
932.159	1549.7003
932.335	1270.5168
932.511	1257.82715
932.687	1247.25252
932.863	1407.99228
933.039	1211.29931
933.215	1407.99228
933.391	1253.59729
933.566	1245.1376
933.742	1215.52905
933.918	1029.43596
934.094	997.71953
934.27	1152.08439
934.445	1042.12291
934.621	1126.70752
934.797	1035.77941
934.973	839.16122
935.148	839.16122
935.324	934.29112
935.5	674.31378
935.675	923.72034
935.851	763.0701
936.027	898.35124
936.202	686.99207
936.378	763.0701
936.553	712.34986
936.729	818.02358
936.904	560.2289
937.08	600.36568
937.255	564.4536
937.431	492.64129
937.606	543.33065
937.782	467.29976
937.957	365.95611
938.133	391.28851
938.308	325.8515
938.483	418.73464
938.659	302.63595
938.834	365.95611
939.009	357.51251
939.185	266.76173
939.36	353.29082
939.535	292.08415
939.71	270.98194
939.886	380.73305
940.061	294.19448
940.236	296.30482
940.411	321.63033
940.586	188.70164
940.761	188.70164
940.937	384.95518
941.112	197.13926
941.287	325.8515
941.462	209.7963
941.637	218.23472
941.812	184.48295
941.987	199.24872
942.162	195.02983
942.337	197.13926
942.512	228.7832
942.687	216.12509
942.862	222.45405
943.037	214.01547
943.212	251.99156
943.386	154.95444
943.561	230.89295
943.736	171.82738
943.911	201.3582
944.086	222.45405
944.26	184.48295
944.435	188.70164
944.61	180.26435
944.785	180.26435
944.959	159.17255
945.134	214.01547
945.309	131.75635
945.483	154.95444
945.658	154.95444
945.833	186.59229
946.007	129.64756
946.182	140.19172
946.357	197.13926
946.531	243.55189
946.706	167.60902
946.88	165.49987
947.055	140.19172
947.229	171.82738
947.404	154.95444
947.578	161.28164
947.752	142.30062
947.927	230.89295
948.101	169.71819
948.276	154.95444
948.45	207.68674
948.624	157.06349
948.799	110.66943
948.973	125.43005
949.147	146.51847
949.321	251.99156
949.496	157.06349
949.67	243.55189
949.844	180.26435
950.018	220.34438
950.193	146.51847
950.367	152.84542
950.541	157.06349
950.715	218.23472
950.889	125.43005
951.063	300.52556
951.237	209.7963
951.411	214.01547
951.585	243.55189
951.759	275.20224
951.933	247.77168
952.107	150.73642
952.281	114.88664
952.455	192.92041
952.629	201.3582
952.803	220.34438
952.977	146.51847
953.151	233.00273
953.325	173.93659
953.499	176.04582
953.672	201.3582
953.846	146.51847
954.02	205.57721
954.194	226.67346
954.368	127.53879
954.541	167.60902
954.715	150.73642
954.889	163.39074
955.062	138.08285
955.236	197.13926
955.41	180.26435
955.583	207.68674
955.757	161.28164
955.93	133.86516
956.104	201.3582
956.278	268.87183
956.451	112.77803
956.625	146.51847
956.798	237.22233
956.972	233.00273
957.145	214.01547
957.319	256.21151
957.492	146.51847
957.665	182.37364
957.839	159.17255
958.012	224.56375
958.185	135.97399
958.359	281.53282
958.532	230.89295
958.705	228.7832
958.879	157.06349
959.052	300.52556
959.225	216.12509
959.398	281.53282
959.572	251.99156
959.745	197.13926
959.918	224.56375
960.091	207.68674
960.264	152.84542
960.438	239.33216
960.611	216.12509
960.784	176.04582
960.957	157.06349
961.13	222.45405
961.303	190.81102
961.476	317.40923
961.649	216.12509
961.822	180.26435
961.995	180.26435
962.168	188.70164
962.341	171.82738
962.514	180.26435
962.686	209.7963
962.859	201.3582
963.032	154.95444
963.205	159.17255
963.378	163.39074
963.551	222.45405
963.723	142.30062
963.896	228.7832
964.069	146.51847
964.242	201.3582
964.414	195.02983
964.587	148.62743
964.76	129.64756
964.932	163.39074
965.105	91.69308
965.278	157.06349
965.45	165.49987
965.623	205.57721
965.795	167.60902
965.968	176.04582
966.14	201.3582
966.313	167.60902
966.485	104.34378
966.658	205.57721
966.83	138.08285
967.003	161.28164
967.175	199.24872
967.348	197.13926
967.52	106.45231
967.692	161.28164
967.865	142.30062
968.037	218.23472
968.209	195.02983
968.382	121.21262
968.554	125.43005
968.726	89.5847
968.898	64.28597
969.071	57.9618
969.243	180.26435
969.415	184.48295
969.587	163.39074
969.759	148.62743
969.932	165.49987
970.104	190.81102
970.276	154.95444
970.448	121.21262
970.62	93.80147
970.792	87.47635
970.964	28.45175
971.136	95.90989
971.308	150.73642
971.48	102.23527
971.652	121.21262
971.824	100.12679
971.996	127.53879
972.168	66.39408
972.339	133.86516
972.511	121.21262
972.683	199.24872
972.855	81.15143
973.027	87.47635
973.199	112.77803
973.37	89.5847
973.542	125.43005
973.714	79.04317
973.886	140.19172
974.057	11.59093
974.229	106.45231
974.401	140.19172
974.572	70.61035
974.744	98.01833
974.915	100.12679
975.087	176.04582
975.259	180.26435
975.43	144.40954
975.602	135.97399
975.773	87.47635
975.945	110.66943
976.116	146.51847
976.288	116.99528
976.459	188.70164
976.63	116.99528
976.802	-5.26836
976.973	112.77803
977.145	104.34378
977.316	66.39408
977.487	87.47635
977.659	89.5847
977.83	114.88664
978.001	129.64756
978.172	125.43005
978.344	70.61035
978.515	57.9618
978.686	138.08285
978.857	62.17789
979.028	74.82672
979.2	93.80147
979.371	43.20621
979.542	121.21262
979.713	45.31408
979.884	116.99528
980.055	53.7458
980.226	83.25972
980.397	45.31408
980.568	62.17789
980.739	112.77803
980.91	129.64756
981.081	34.77495
981.252	112.77803
981.423	-7.37567
981.594	-5.26836
981.765	89.5847
981.936	28.45175
982.106	89.5847
982.277	131.75635
982.448	57.9618
982.619	57.9618
982.79	45.31408
982.96	45.31408
983.131	114.88664
983.302	89.5847
983.472	17.91356
983.643	112.77803
983.814	129.64756
983.984	47.42198
984.155	79.04317
984.326	15.80599
984.496	72.71852
984.667	64.28597
984.837	55.85379
985.008	43.20621
985.178	98.01833
985.349	66.39408
985.519	57.9618
985.69	41.09836
985.86	64.28597
986.031	45.31408
986.201	49.5299
986.371	116.99528
986.542	83.25972
986.712	131.75635
986.882	51.63784
987.053	32.66719
987.223	100.12679
987.393	28.45175
987.563	102.23527
987.734	45.31408
987.904	53.7458
988.074	64.28597
988.244	43.20621
988.414	66.39408
988.585	93.80147
988.755	68.5022
988.925	104.34378
989.095	30.55946
989.265	79.04317
989.435	91.69308
989.605	57.9618
989.775	45.31408
989.945	22.12877
990.115	81.15143
990.285	36.88273
990.455	45.31408
990.625	102.23527
990.795	64.28597
990.965	87.47635
991.134	45.31408
991.304	-20.01897
991.474	43.20621
991.644	72.71852
991.814	-9.48295
991.984	138.08285
992.153	114.88664
992.323	41.09836
992.493	81.15143
992.662	112.77803
992.832	3.16109
993.002	53.7458
993.171	79.04317
993.341	45.31408
993.511	91.69308
993.68	3.16109
993.85	3.16109
994.019	79.04317
994.189	-22.12611
994.358	-20.01897
994.528	26.34407
994.697	68.5022
994.867	-36.87534
995.036	11.59093
995.206	11.59093
995.375	20.02115
995.544	104.34378
995.714	95.90989
995.883	-20.01897
996.052	45.31408
996.222	5.26851
996.391	-3.16104
996.56	32.66719
996.73	55.85379
996.899	17.91356
997.068	36.88273
997.237	-45.30293
997.406	1.05369
997.576	95.90989
997.745	32.66719
997.914	45.31408
998.083	24.2364
998.252	51.63784
998.421	79.04317
998.59	20.02115
998.759	22.12877
998.928	51.63784
999.097	30.55946
999.266	55.85379
999.435	13.69845
999.604	7.37596
999.773	106.45231
999.942	20.02115
1000.111	144.40954
1000.28	57.9618
1000.448	55.85379
1000.617	98.01833
1000.786	28.45175
1000.955	45.31408
1001.124	36.88273
1001.292	45.31408
1001.461	20.02115
1001.63	74.82672
1001.798	-43.19607
1001.967	45.31408
1002.136	36.88273
1002.304	5.26851
1002.473	-15.80464
1002.642	-5.26836
1002.81	26.34407
1002.979	55.85379
1003.147	5.26851
1003.316	15.80599
1003.484	20.02115
1003.653	-43.19607
1003.821	-5.26836
1003.99	20.02115
1004.158	74.82672
1004.327	15.80599
1004.495	-1.05368
1004.663	47.42198
1004.832	-26.3403
1005	81.15143
1005.168	41.09836
1005.337	87.47635
1005.505	11.59093
1005.673	11.59093
1005.842	-9.48295
1006.01	28.45175
1006.178	22.12877
1006.346	95.90989
1006.514	36.88273
1006.683	57.9618
1006.851	15.80599
1007.019	13.69845
1007.187	-17.91182
1007.355	38.99053
1007.523	22.12877
1007.691	87.47635
1007.859	-1.05368
1008.027	24.2364
1008.195	36.88273
1008.363	13.69845
1008.531	20.02115
1008.699	30.55946
1008.867	62.17789
1009.035	38.99053
1009.203	-17.91182
1009.37	15.80599
1009.538	34.77495
1009.706	-11.5902
1009.874	-72.68981
1010.042	-5.26836
1010.209	-30.55439
1010.377	-3.16104
1010.545	64.28597
1010.713	-20.01897
1010.88	13.69845
1011.048	-3.16104
1011.216	20.02115
1011.383	-45.30293
1011.551	38.99053
1011.718	41.09836
1011.886	30.55946
1012.054	11.59093
1012.221	-26.3403
1012.389	36.88273
1012.556	-43.19607
1012.724	5.26851
1012.891	38.99053
1013.058	66.39408
1013.226	24.2364
1013.393	62.17789
1013.561	-62.1569
1013.728	26.34407
1013.895	83.25972
1014.063	-22.12611
1014.23	28.45175
1014.397	-20.01897
1014.565	36.88273
1014.732	24.2364
1014.899	36.88273
1015.066	11.59093
1015.233	20.02115
1015.401	68.5022
1015.568	15.80599
1015.735	32.66719
1015.902	-36.87534
1016.069	98.01833
1016.236	3.16109
1016.403	-17.91182
1016.57	-5.26836
1016.737	64.28597
1016.904	114.88664
1017.071	81.15143
1017.238	-45.30293
1017.405	38.99053
1017.572	3.16109
1017.739	-30.55439
1017.906	60.06984
1018.073	7.37596
1018.24	3.16109
1018.407	-11.5902
1018.573	11.59093
1018.74	45.31408
1018.907	41.09836
1019.074	11.59093
1019.241	-3.16104
1019.407	28.45175
1019.574	22.12877
1019.741	36.88273
1019.907	-13.69743
1020.074	57.9618
1020.241	-32.6614
1020.407	-11.5902
1020.574	-45.30293
1020.74	45.31408
1020.907	51.63784
1021.073	70.61035
1021.24	32.66719
1021.406	-55.83685
1021.573	-26.3403
1021.739	3.16109
1021.906	20.02115
1022.072	87.47635
1022.239	36.88273
1022.405	-22.12611
1022.571	-5.26836
1022.738	-17.91182
1022.904	45.31408
1023.07	3.16109
1023.237	49.5299
1023.403	-26.3403
1023.569	-3.16104
1023.735	38.99053
1023.902	45.31408
1024.068	3.16109
1024.234	24.2364
1024.4	49.5299
1024.566	-20.01897
1024.732	20.02115
1024.898	5.26851
1025.065	98.01833
1025.231	-22.12611
1025.397	-9.48295
1025.563	-45.30293
1025.729	-26.3403
1025.895	30.55946
1026.061	-20.01897
1026.227	36.88273
1026.392	24.2364
1026.558	85.36802
1026.724	45.31408
1026.89	-3.16104
1027.056	-38.98228
1027.222	49.5299
1027.388	5.26851
1027.553	20.02115
1027.719	36.88273
1027.885	20.02115
1028.051	47.42198
1028.216	11.59093
1028.382	15.80599
1028.548	24.2364
1028.713	3.16109
1028.879	28.45175
1029.045	-20.01897
1029.21	36.88273
1029.376	3.16109
1029.541	5.26851
1029.707	38.99053
1029.873	-13.69743
1030.038	57.9618
1030.204	28.45175
1030.369	20.02115
1030.534	60.06984
1030.7	-5.26836
1030.865	34.77495
1031.031	-5.26836
1031.196	-47.40976
1031.361	47.42198
1031.527	-17.91182
1031.692	-1.05368
1031.857	30.55946
1032.023	62.17789
1032.188	20.02115
1032.353	38.99053
1032.518	7.37596
1032.684	20.02115
1032.849	-13.69743
1033.014	-1.05368
1033.179	66.39408
1033.344	-64.26353
1033.509	-45.30293
1033.674	104.34378
1033.839	30.55946
1034.004	-106.39078
1034.17	11.59093
1034.335	-5.26836
1034.5	60.06984
1034.664	-43.19607
1034.829	87.47635
1034.994	28.45175
1035.159	-11.5902
1035.324	49.5299
1035.489	20.02115
1035.654	79.04317
1035.819	-47.40976
1035.984	43.20621
1036.148	-13.69743
1036.313	-36.87534
1036.478	72.71852
1036.643	-28.44736
1036.807	28.45175
1036.972	-7.37567
1037.137	102.23527
1037.301	41.09836
1037.466	38.99053
1037.631	-1.05368
1037.795	-11.5902
1037.96	36.88273
1038.124	28.45175
1038.289	45.31408
1038.454	-28.44736
1038.618	-5.26836
1038.783	38.99053
1038.947	-22.12611
1039.111	20.02115
1039.276	22.12877
1039.44	66.39408
1039.605	1.05369
1039.769	36.88273
1039.933	53.7458
1040.098	15.80599
1040.262	-68.47672
1040.426	53.7458
1040.591	7.37596
1040.755	22.12877
1040.919	36.88273
1041.083	20.02115
1041.248	57.9618
1041.412	45.31408
1041.576	91.69308
1041.74	-38.98228
1041.904	36.88273
1042.068	79.04317
1042.232	22.12877
1042.397	20.02115
1042.561	38.99053
1042.725	-22.12611
1042.889	20.02115
1043.053	5.26851
1043.217	11.59093
1043.381	87.47635
1043.544	30.55946
1043.708	-1.05368
1043.872	47.42198
1044.036	20.02115
1044.2	-5.26836
1044.364	-13.69743
1044.528	-45.30293
1044.691	-57.94356
1044.855	62.17789
1045.019	30.55946
1045.183	36.88273
1045.346	22.12877
1045.51	22.12877
1045.674	30.55946
1045.837	51.63784
1046.001	1.05369
1046.165	-13.69743
1046.328	34.77495
1046.492	-26.3403
1046.655	-38.98228
1046.819	53.7458
1046.983	-28.44736
1047.146	-43.19607
1047.31	-11.5902
1047.473	20.02115
1047.636	55.85379
1047.8	-22.12611
1047.963	-47.40976
1048.127	49.5299
1048.29	11.59093
