Data from mixed_try1_USB4F045381__4__00069.txt Node

Date: Thu Apr 03 19:51:06 EDT 2025
User: mmckonesweet
Spectrometer: USB4F04538
Trigger mode: 4
Integration Time (sec): 2.700000E-3
Scans to average: 1
Electric dark correction enabled: true
Nonlinearity correction enabled: true
Boxcar width: 0
XAxis mode: Wavelengths
Number of Pixels in Spectrum: 3648
>>>>>Begin Spectral Data<<<<<
345.52	51.11085
345.736	51.11085
345.952	51.11085
346.168	6.8491
346.384	49.00291
346.6	-35.29512
346.816	2.63424
347.032	0.52684
347.248	0.52684
347.464	15.2791
347.68	-31.08114
347.896	51.11085
348.112	-12.11701
348.328	-58.47023
348.544	-7.90249
348.76	51.11085
348.975	23.70949
349.191	-35.29512
349.407	-81.64228
349.623	2.63424
349.839	49.00291
350.055	19.49425
350.27	0.52684
350.486	32.14026
350.702	38.46358
350.918	61.65088
351.133	23.70949
351.349	57.4348
351.565	19.49425
351.781	23.70949
351.996	32.14026
352.212	76.40788
352.428	-28.97412
352.644	-5.79519
352.859	49.00291
353.075	-43.72279
353.291	-18.43861
353.506	-26.86706
353.722	-22.65289
353.938	65.86705
354.153	-1.58052
354.369	40.5714
354.584	49.00291
354.8	-35.29512
355.016	19.49425
355.231	-24.75999
355.447	36.35578
355.662	-16.33143
355.878	-14.22423
356.093	55.32679
356.309	23.70949
356.524	65.86705
356.74	11.06405
356.955	15.2791
357.171	23.70949
357.386	49.00291
357.602	-22.65289
357.817	27.92483
358.033	23.70949
358.248	-1.58052
358.464	53.21881
358.679	36.35578
358.895	8.95656
359.11	-7.90249
359.325	44.78711
359.541	23.70949
359.756	17.38667
359.972	110.14229
360.187	36.35578
360.402	-43.72279
360.618	51.11085
360.833	6.8491
361.048	32.14026
361.264	11.06405
361.479	-26.86706
361.694	-64.79019
361.909	67.97517
362.125	40.5714
362.34	-43.72279
362.555	40.5714
362.77	49.00291
362.986	8.95656
363.201	49.00291
363.416	25.81715
363.631	-14.22423
363.847	42.67924
364.062	65.86705
364.277	15.2791
364.492	-1.58052
364.707	6.8491
364.922	19.49425
365.138	27.92483
365.353	6.8491
365.568	8.95656
365.783	-26.86706
365.998	2.63424
366.213	-37.40208
366.428	49.00291
366.643	32.14026
366.858	-5.79519
367.073	97.49122
367.288	57.4348
367.503	61.65088
367.718	-33.18815
367.933	59.54283
368.148	25.81715
368.363	13.17157
368.578	-33.18815
368.793	91.16598
369.008	-43.72279
369.223	49.00291
369.438	42.67924
369.653	65.86705
369.868	13.17157
370.083	49.00291
370.298	55.32679
370.513	4.74166
370.728	-16.33143
370.943	23.70949
371.157	51.11085
371.372	-1.58052
371.587	-10.00976
371.802	17.38667
372.017	-18.43861
372.232	46.895
372.446	17.38667
372.661	38.46358
372.876	-5.79519
373.091	6.8491
373.306	8.95656
373.52	-33.18815
373.735	49.00291
373.95	70.08331
374.165	49.00291
374.379	55.32679
374.594	40.5714
374.809	99.59967
375.023	61.65088
375.238	91.16598
375.453	-14.22423
375.667	15.2791
375.882	-1.58052
376.097	-98.49271
376.311	27.92483
376.526	-18.43861
376.741	17.38667
376.955	-39.50901
377.17	86.94927
377.384	-12.11701
377.599	0.52684
377.813	42.67924
378.028	-10.00976
378.242	-26.86706
378.457	63.75895
378.672	27.92483
378.886	2.63424
379.101	46.895
379.315	6.8491
379.53	17.38667
379.744	-12.11701
379.958	82.73264
380.173	4.74166
380.387	15.2791
380.602	-43.72279
380.816	74.29967
381.031	82.73264
381.245	15.2791
381.459	6.8491
381.674	67.97517
381.888	-12.11701
382.103	-39.50901
382.317	11.06405
382.531	59.54283
382.746	-22.65289
382.96	61.65088
383.174	-22.65289
383.388	91.16598
383.603	86.94927
383.817	82.73264
384.031	-50.04327
384.246	42.67924
384.46	63.75895
384.674	84.84094
384.888	61.65088
385.103	108.03372
385.317	17.38667
385.531	40.5714
385.745	-31.08114
385.959	91.16598
386.174	11.06405
386.388	38.46358
386.602	-20.54576
386.816	-52.15005
387.03	23.70949
387.244	8.95656
387.458	84.84094
387.672	17.38667
387.887	61.65088
388.101	65.86705
388.315	40.5714
388.529	70.08331
388.743	44.78711
388.957	-24.75999
389.171	59.54283
389.385	84.84094
389.599	-26.86706
389.813	-33.18815
390.027	23.70949
390.241	67.97517
390.455	32.14026
390.669	65.86705
390.883	27.92483
391.097	32.14026
391.311	80.62436
391.525	2.63424
391.738	2.63424
391.952	-22.65289
392.166	59.54283
392.38	0.52684
392.594	49.00291
392.808	51.11085
393.022	23.70949
393.236	34.24801
393.449	36.35578
393.663	34.24801
393.877	36.35578
394.091	42.67924
394.305	42.67924
394.518	-1.58052
394.732	27.92483
394.946	-16.33143
395.16	101.70815
395.373	30.03253
395.587	15.2791
395.801	67.97517
396.015	53.21881
396.228	70.08331
396.442	89.05761
396.656	32.14026
396.869	59.54283
397.083	6.8491
397.297	-14.22423
397.51	6.8491
397.724	-52.15005
397.938	76.40788
398.151	61.65088
398.365	27.92483
398.578	27.92483
398.792	74.29967
399.005	40.5714
399.219	74.29967
399.433	19.49425
399.646	6.8491
399.86	99.59967
400.073	57.4348
400.287	-5.79519
400.5	-24.75999
400.714	63.75895
400.927	-31.08114
401.141	110.14229
401.354	57.4348
401.567	32.14026
401.781	67.97517
401.994	2.63424
402.208	57.4348
402.421	-18.43861
402.635	36.35578
402.848	11.06405
403.061	15.2791
403.275	61.65088
403.488	61.65088
403.701	91.16598
403.915	40.5714
404.128	-5.79519
404.341	124.90287
404.555	101.70815
404.768	70.08331
404.981	27.92483
405.195	80.62436
405.408	51.11085
405.621	91.16598
405.834	2.63424
406.048	65.86705
406.261	46.895
406.474	49.00291
406.687	67.97517
406.9	116.46812
407.114	27.92483
407.327	59.54283
407.54	-10.00976
407.753	55.32679
407.966	-1.58052
408.179	15.2791
408.392	-18.43861
408.605	84.84094
408.819	97.49122
409.032	17.38667
409.245	97.49122
409.458	76.40788
409.671	15.2791
409.884	34.24801
410.097	59.54283
410.31	74.29967
410.523	23.70949
410.736	32.14026
410.949	25.81715
411.162	74.29967
411.375	51.11085
411.588	49.00291
411.801	53.21881
412.014	67.97517
412.227	65.86705
412.44	15.2791
412.653	34.24801
412.865	65.86705
413.078	25.81715
413.291	46.895
413.504	80.62436
413.717	74.29967
413.93	36.35578
414.143	91.16598
414.356	65.86705
414.568	91.16598
414.781	61.65088
414.994	95.38278
415.207	135.44678
415.42	51.11085
415.632	15.2791
415.845	135.44678
416.058	145.99124
416.271	91.16598
416.483	57.4348
416.696	82.73264
416.909	91.16598
417.121	55.32679
417.334	49.00291
417.547	49.00291
417.759	38.46358
417.972	91.16598
418.185	32.14026
418.397	34.24801
418.61	105.92518
418.823	177.62776
419.035	-14.22423
419.248	-3.68787
419.46	21.60186
419.673	116.46812
419.885	89.05761
420.098	108.03372
420.311	118.57677
420.523	91.16598
420.736	91.16598
420.948	124.90287
421.161	23.70949
421.373	135.44678
421.586	21.60186
421.798	40.5714
422.01	19.49425
422.223	124.90287
422.435	91.16598
422.648	141.77339
422.86	108.03372
423.073	82.73264
423.285	103.81665
423.497	78.51611
423.71	74.29967
423.922	124.90287
424.134	70.08331
424.347	23.70949
424.559	137.55563
424.771	89.05761
424.984	133.33796
425.196	160.75436
425.408	137.55563
425.621	135.44678
425.833	84.84094
426.045	160.75436
426.257	173.40929
426.47	82.73264
426.682	179.73703
426.894	103.81665
427.106	224.03632
427.318	152.31817
427.531	76.40788
427.743	179.73703
427.955	160.75436
428.167	150.20917
428.379	158.64528
428.591	167.08173
428.804	156.53622
429.016	183.95562
429.228	118.57677
429.44	141.77339
429.652	124.90287
429.864	202.94032
430.076	148.10019
430.288	167.08173
430.5	148.10019
430.712	124.90287
430.924	158.64528
431.136	143.8823
431.348	177.62776
431.56	158.64528
431.772	270.45441
431.984	169.1909
432.196	217.70731
432.408	186.06495
432.62	251.46407
432.832	154.42718
433.044	183.95562
433.256	171.30008
433.468	268.3443
433.679	243.02442
433.891	230.36551
434.103	253.57403
434.315	276.78487
434.527	192.39306
434.739	293.6669
434.95	238.8047
435.162	293.6669
435.374	202.94032
435.586	278.89506
435.798	209.26891
436.009	375.98323
436.221	310.5501
436.433	327.43445
436.645	293.6669
436.856	219.81696
437.068	329.54508
437.28	354.87394
437.491	221.92663
437.703	270.45441
437.915	293.6669
438.126	352.76311
438.338	270.45441
438.55	382.31634
438.761	285.22573
438.973	321.10269
439.184	382.31634
439.396	390.76073
439.608	306.32919
439.819	367.53931
440.031	371.76124
440.242	371.76124
440.454	380.20529
440.665	390.76073
440.877	424.5409
441.088	428.76371
441.3	445.65559
441.511	390.76073
441.723	386.5385
441.934	331.65572
442.146	523.79316
442.357	422.42952
442.569	470.99526
442.78	390.76073
442.991	403.4278
443.203	430.87514
443.414	371.76124
443.626	447.76714
443.837	420.31815
444.048	485.77775
444.26	473.107
444.471	449.87871
444.682	348.54149
444.894	439.32102
445.105	445.65559
445.316	449.87871
445.528	481.5541
445.739	612.51326
445.95	432.98659
446.161	456.21352
446.373	540.69038
446.584	580.82481
446.795	570.26265
447.006	515.34488
447.217	566.03788
447.429	563.92551
447.64	544.91483
447.851	521.68107
448.062	513.23285
448.273	639.97888
448.484	639.97888
448.695	576.59991
448.907	682.23766
449.118	652.65602
449.329	642.09171
449.54	644.20454
449.751	570.26265
449.962	608.28796
450.173	675.89855
450.384	724.50103
450.595	768.88217
450.806	779.44977
451.017	684.35073
451.228	762.54173
451.439	760.42827
451.65	741.40759
451.861	726.61431
452.072	756.20138
452.283	720.27449
452.494	783.67688
452.705	794.24483
452.915	855.54351
453.126	809.04035
453.337	783.67688
453.548	868.22692
453.759	1028.90734
453.97	1014.10618
454.181	1109.26129
454.391	927.42009
454.602	1064.8542
454.813	948.56196
455.024	1050.05236
455.235	912.62122
455.445	946.44774
455.656	1054.28143
455.867	1096.57332
456.078	1022.56395
456.288	1031.02181
456.499	1075.42711
456.71	1229.80453
456.921	986.61912
457.131	1202.31115
457.342	1208.65573
457.553	1219.23009
457.763	1164.24435
457.974	1358.81767
458.184	1206.54086
458.395	1360.9327
458.606	1244.60887
458.816	1367.27778
459.027	1384.19805
459.237	1418.03876
459.448	1401.11838
459.659	1333.43747
459.869	1566.0917
460.08	1513.21599
460.29	1673.9549
460.501	1790.26979
460.711	1544.9415
460.922	1580.89675
461.132	1697.21869
461.343	1665.49526
461.553	1671.84
461.764	1917.14434
461.974	1536.48138
462.184	1843.1363
462.395	1978.46016
462.605	1946.7457
462.816	1855.82383
463.026	1925.60199
463.236	2052.45498
463.447	2204.64483
463.657	2052.45498
463.867	2213.09859
464.078	2162.37399
464.288	2257.47854
464.498	2299.74145
464.709	2377.91771
464.919	2358.90311
465.129	2517.33196
465.339	2451.85539
465.55	2460.30458
465.76	2299.74145
465.97	2477.20243
466.18	2570.12766
466.391	2812.88803
466.601	2637.69528
466.811	2846.64946
467.021	2627.13867
467.231	2893.06554
467.441	2593.35543
467.651	3061.79127
467.862	2981.65854
468.072	3247.27412
468.282	3093.41646
468.492	3133.46992
468.702	3264.1299
468.912	3451.57608
469.122	3108.17367
469.332	3478.94416
469.542	3377.87779
469.752	3718.80754
469.962	3607.32237
470.172	3737.73364
470.382	3783.99083
470.592	3979.42671
470.802	3788.19556
471.012	3954.21894
471.222	3937.41214
471.432	4189.3759
471.642	4130.61113
471.852	4262.80851
472.062	4260.7108
472.272	4300.56367
472.482	4417.97942
472.691	4776.08878
472.901	4497.61543
473.111	4587.69143
473.321	4717.49582
473.531	4763.53464
473.741	4893.22124
473.95	4916.22099
474.16	4840.9388
474.37	5285.92338
474.58	5306.78876
474.79	5640.31544
474.999	5452.78077
475.209	5210.78866
475.419	5456.95028
475.628	5758.98861
475.838	5606.98989
476.048	5833.90058
476.258	5860.94461
476.467	6050.14119
476.677	6243.29458
476.886	6156.08917
477.096	6419.65539
477.306	6363.65318
477.515	6189.31516
477.725	6624.85198
477.935	6446.61337
478.144	6753.24375
478.354	6398.91581
478.563	6744.96307
478.773	6906.37047
478.982	7183.33923
479.192	7257.68051
479.401	7313.41771
479.611	7402.1514
479.82	7641.32639
480.03	7360.88494
480.239	7847.2822
480.449	7579.49847
480.658	7764.92505
480.868	7935.77913
481.077	7900.79653
481.287	7911.08615
481.496	8258.57663
481.705	8373.59607
481.915	8550.11512
482.124	8390.02244
482.333	8552.16683
482.543	8640.37296
482.752	8849.46927
482.961	8902.73812
483.171	9181.1811
483.38	9021.52531
483.589	9191.41188
483.799	9336.64368
484.008	9461.35376
484.217	9191.41188
484.426	9600.30422
484.636	9673.83677
484.845	9573.74583
485.054	9516.53407
485.263	9769.80754
485.472	9982.05064
485.682	9937.16633
485.891	10130.93527
486.1	9949.4082
486.309	10346.99228
486.518	10430.52116
486.727	10418.29879
486.936	10485.51605
487.146	10579.18965
487.355	10731.86202
487.564	10733.89719
487.773	11142.73224
487.982	10752.21318
488.191	11291.10535
488.4	11228.10436
488.609	11138.66644
488.818	11319.5542
489.027	11512.54867
489.236	11415.0467
489.445	11557.22975
489.654	11545.04445
489.863	11802.89687
490.072	11784.62855
490.281	11906.40436
490.49	11780.56883
490.698	11973.36833
490.907	12226.94239
491.116	12366.86594
491.325	12421.60966
491.534	12210.71717
491.743	12186.37847
491.952	12806.71222
492.16	12565.54245
492.369	12810.76479
492.578	12822.92237
492.787	12970.8241
492.996	13019.44326
493.204	13039.7004
493.413	13161.23308
493.622	12956.64295
493.831	12934.35779
494.039	13428.54846
494.248	13280.7241
494.457	13641.13675
494.665	13631.01438
494.874	13705.91797
495.083	13888.09822
495.291	14019.65887
495.5	13817.25317
495.709	13880.00181
495.917	13647.21013
496.126	14240.25366
496.335	14072.28019
496.543	14373.81341
496.752	14250.3721
496.96	14375.83699
497.169	14300.96359
497.377	14598.42145
497.586	14470.94329
497.794	14632.81951
498.003	14818.96895
498.211	15090.09035
498.42	14436.54352
498.628	14950.48397
498.837	14984.87987
499.045	14897.87823
499.254	15201.37026
499.462	15223.62625
499.671	15118.41616
499.879	15417.86142
500.087	15656.61493
500.296	15717.31667
500.504	15438.09444
500.713	15474.514
500.921	15628.28772
501.129	15757.78498
501.338	15628.28772
501.546	16041.07608
501.754	15660.66168
501.962	15846.81674
502.171	15931.80371
502.379	16057.26493
502.587	15996.55722
502.795	16372.96843
503.004	15958.10965
503.212	16336.5389
503.42	16304.15761
503.628	16421.54211
503.837	16486.30882
504.045	16324.39586
504.253	16474.1649
504.461	16654.30761
504.669	16881.03003
504.877	16838.51723
505.085	16988.3293
505.294	16763.61641
505.502	16842.56602
505.71	17099.68554
505.918	16806.12727
506.126	17415.57936
506.334	17020.72299
506.542	17142.20558
506.75	16923.54396
506.958	17431.78102
507.166	17257.62349
507.374	17253.57358
507.582	17441.90715
507.79	17725.47134
507.998	17504.69093
508.206	17796.37249
508.414	17450.00811
508.622	17765.98578
508.83	17824.73411
509.037	17729.52273
509.245	17620.14007
509.453	18063.80918
509.661	18108.38797
509.869	18039.49421
510.077	17968.57849
510.285	17946.29159
510.492	18175.25944
510.7	18136.7572
510.908	18134.7308
511.116	18175.25944
511.324	18381.97849
511.531	18057.73039
511.739	18548.19287
511.947	18702.2684
512.155	18294.8275
512.362	18219.84263
512.57	18534.00283
512.778	18499.54209
512.985	18752.95609
513.193	18856.36665
513.401	19002.37574
513.608	18900.97833
513.816	18623.20051
514.024	18752.95609
514.231	18860.42218
514.439	19225.48571
514.646	19195.05872
514.854	19335.03057
515.061	18984.12346
515.269	19452.70327
515.477	19079.44452
515.684	19383.72103
515.892	19243.74236
516.099	19560.24399
516.307	19379.6634
516.514	19744.91673
516.722	19915.41467
516.929	19860.60853
517.136	19414.15378
517.344	19330.97314
517.551	19826.10253
517.759	20110.30578
517.966	19937.74398
518.173	19988.4943
518.381	20171.2172
518.588	20244.31591
518.796	20351.94335
519.003	20374.2826
519.21	19893.08587
519.418	20242.28531
519.625	20232.13241
519.832	20337.72773
520.039	20441.3034
520.247	20420.99358
520.454	20668.80188
520.661	20808.98321
520.868	20709.43212
521.076	21075.1787
521.283	20589.57772
521.49	20808.98321
521.697	20859.77842
521.904	21201.18886
522.112	20906.51229
522.319	21282.49401
522.526	21010.14734
522.733	21211.35165
522.94	20884.16104
523.147	21105.6636
523.354	21284.52672
523.561	21589.4788
523.768	21188.99364
523.975	21654.54679
524.183	21589.4788
524.39	21593.54543
524.597	21768.42542
524.804	21906.72295
525.011	21552.87982
525.218	21774.5264
525.425	22053.17492
525.632	21896.55341
525.838	21916.89259
526.045	21896.55341
526.252	22160.99236
526.459	22134.5456
526.666	21713.51812
526.873	22199.64646
527.08	22352.24143
527.287	22555.73325
527.494	22207.78433
527.701	22761.29609
527.907	22362.41516
528.114	22602.54143
528.321	22264.75111
528.528	22360.38041
528.735	22824.39676
528.941	22539.45258
529.148	22681.9161
529.355	23001.50326
529.562	22802.00582
529.768	23141.98507
529.975	22694.12806
530.182	23302.84569
530.388	22995.39572
530.595	23410.77603
530.802	22899.71478
531.008	23480.01901
531.215	23445.39707
531.422	23706.1017
531.628	23608.33162
531.835	23594.07406
532.042	24054.46258
532.248	24089.0995
532.455	23752.95231
532.661	23901.66234
532.868	23771.28558
533.074	24235.80587
533.281	24054.46258
533.487	23940.37022
533.694	24190.97743
533.9	24696.38973
534.107	24140.03761
534.313	24307.12655
534.52	24127.8123
534.726	24435.51192
534.933	24356.03403
535.139	24533.33626
535.345	24492.5754
535.552	24643.39561
535.758	24953.2305
535.965	25006.23402
536.171	24616.89917
536.377	24669.89246
536.584	24810.53651
536.79	24790.15261
536.996	25493.52866
537.203	25138.74955
537.409	24694.35146
537.615	25140.78832
537.821	25316.13107
538.028	25624.03791
538.234	25542.46867
538.44	25053.12304
538.646	25157.09859
538.853	25234.57431
539.059	25108.1682
539.265	25611.80232
539.471	25770.87045
539.677	25689.29557
539.883	26168.59035
540.09	26119.63655
540.296	25799.42237
540.502	26425.61379
540.708	25452.74622
540.914	26211.42575
541.12	25976.86039
541.326	26337.89649
541.532	26421.53385
541.738	26235.90345
541.944	26282.81973
542.15	26256.30172
542.356	26284.85959
542.562	26397.05434
542.768	26474.57359
542.974	26749.98917
543.18	26260.3814
543.386	26639.81959
543.592	26633.69918
543.798	26825.47824
544.004	27102.96843
544.21	27162.14244
544.415	26994.82578
544.621	27188.66909
544.827	26839.76018
545.033	27041.75513
545.239	27209.07436
545.445	27647.81875
545.651	27188.66909
545.856	27568.22826
546.062	27239.68251
546.268	27198.87171
546.474	27102.96843
546.679	26752.02939
546.885	26833.63934
547.091	27145.81846
547.297	27507.00608
547.502	27984.56769
547.708	27627.41075
547.914	27625.36996
548.119	27655.98198
548.325	27574.35054
548.531	27062.15943
548.736	27439.66297
548.942	27370.2806
549.147	27125.41361
549.353	28000.89571
549.559	28305.01815
549.764	28002.93672
549.97	28139.6868
550.175	28562.21434
550.381	28676.52916
550.586	27992.73169
550.792	28656.11556
550.997	28564.25565
551.203	28529.55357
551.408	28480.56292
551.614	28652.03285
551.819	28715.31529
552.025	29015.41019
552.23	28627.53669
552.435	28878.62946
552.641	29215.48592
552.846	29076.65681
553.052	29117.4884
553.257	29433.94739
553.462	29223.65249
553.668	29354.31986
553.873	28986.82876
554.078	29391.07083
554.283	29548.28717
554.489	29331.8611
554.694	29570.74716
554.899	29286.94396
555.105	29009.28558
555.31	29356.36157
555.515	29615.66753
555.72	29830.06741
555.925	29858.65497
556.131	29748.38985
556.336	29676.92341
556.541	30293.62177
556.746	29754.5156
556.951	29872.94883
557.156	29701.42604
557.361	29942.37695
557.567	30256.86197
557.772	30285.45289
557.977	29821.89957
558.182	30148.627
558.387	30032.22702
558.592	29968.92333
558.797	30036.31117
559.002	30330.38196
559.207	30138.41633
559.412	30109.82659
559.617	30124.12143
559.822	29987.30171
560.027	30236.44002
560.232	30422.28417
560.437	30289.53733
560.642	30648.98711
560.847	30871.62101
561.051	30961.49619
561.256	30354.88897
561.461	30802.17385
561.666	30973.7521
561.871	30871.62101
562.076	30941.06977
562.281	30806.25893
562.485	30420.24187
562.69	30567.29054
562.895	30373.26935
563.1	30804.21639
563.305	30873.66359
563.509	30951.28296
563.714	30900.21736
563.919	31065.67314
564.123	30787.8761
564.328	30569.33293
564.533	30840.98236
564.737	31004.39213
564.942	31343.49732
565.147	31502.85078
565.351	31621.35093
565.556	31049.33141
565.761	31415.00085
565.965	31684.6896
566.17	31441.55981
566.374	31723.51091
566.579	31760.28958
566.784	31678.55998
566.988	31649.95528
567.193	31876.75929
567.397	31233.18139
567.602	31539.62608
567.806	31137.16933
568.011	31580.48816
568.215	31560.05704
568.42	31478.33421
568.624	31899.2366
568.828	31758.24631
569.033	31837.93539
569.237	32044.32295
569.442	31797.06885
569.646	31995.27858
569.85	32154.67696
570.055	32281.38708
570.259	32265.03693
570.463	32193.50663
570.668	32048.41003
570.872	31950.32223
571.076	31580.48816
571.281	32164.89522
571.485	32641.12602
571.689	32193.50663
571.893	32326.35068
572.098	32518.47986
572.302	32236.4245
572.506	32718.80634
572.71	32706.5408
572.914	32921.20076
573.119	32397.88585
573.323	32453.07197
573.527	32191.46294
573.731	32874.17762
573.935	32682.00997
574.139	32692.2311
574.343	32475.55567
574.547	32692.2311
574.751	33162.47192
574.955	32949.82421
575.159	32583.8901
575.364	32763.78076
575.568	33379.24008
575.772	33291.30191
575.976	33052.05504
576.18	33045.921
576.383	33078.63615
576.587	33328.11258
576.791	33405.82711
576.995	33340.38301
577.199	33111.352
577.403	32966.1807
577.607	33567.4055
577.811	33391.51095
578.015	33401.73677
578.219	33788.32939
578.422	33630.81499
578.626	33557.17845
578.83	33240.17755
579.034	33776.05484
579.238	33794.46671
579.442	33859.93335
579.645	33634.90603
579.849	33894.71392
580.053	34009.2923
580.257	33880.39239
580.46	34349.00223
580.664	34572.12257
580.868	33866.07103
581.071	34346.95548
581.275	34025.66154
581.479	34518.89686
581.682	33851.74983
581.886	34418.59431
582.09	34467.72088
582.293	34537.32083
582.497	34355.14253
582.7	34561.88664
582.904	34561.88664
583.107	34680.62981
583.311	34572.12257
583.515	34918.15939
583.718	34658.10847
583.922	34697.00929
584.125	34690.86696
584.329	34768.67273
584.532	34608.97277
584.735	35114.78122
584.939	34944.78279
585.142	35120.92634
585.346	34772.76794
585.549	34889.48889
585.753	35223.35134
585.956	35067.67002
586.159	35444.63101
586.363	35407.74702
586.566	35465.12282
586.769	34883.34532
586.973	34582.3586
587.176	35350.37517
587.379	35411.84516
587.582	35321.69072
587.786	35168.04036
587.989	35329.88618
588.192	35163.94338
588.395	35803.31342
588.599	35592.18359
588.802	35981.69182
589.005	35922.22762
589.208	36291.39492
589.411	35547.09523
589.615	35756.16295
589.818	35536.84823
590.021	35934.53016
590.224	35553.24349
590.427	35981.69182
590.63	35758.21291
590.833	36032.95792
591.036	35891.47214
591.239	36236.00758
591.442	36032.95792
591.645	36125.24605
591.848	36344.73507
592.051	36057.56693
592.254	36065.77012
592.457	36547.8765
592.66	36486.31197
592.863	36742.86928
593.066	36933.81513
593.269	36746.97503
593.472	36792.14004
593.675	36710.02425
593.878	36517.09352
594.081	36627.91904
594.284	36697.70779
594.486	36736.71071
594.689	36506.83284
594.892	36139.60304
595.095	36316.01294
595.298	36305.75532
595.5	36677.1809
595.703	37435.08016
595.906	36900.96004
596.109	36728.49937
596.311	36985.15474
596.514	37071.41511
596.717	37291.23044
596.92	37589.24581
597.122	37141.25405
597.325	36960.51119
597.528	37233.70068
597.73	37346.71102
597.933	37153.57942
598.136	37159.74221
598.338	37157.68794
598.541	37634.47593
598.743	37971.76634
598.946	37172.06797
599.148	37229.59163
599.351	36851.6807
599.554	37100.17132
599.756	37301.50422
599.959	37864.79726
600.161	37363.15075
600.363	37363.15075
600.566	37416.58315
600.768	37963.53717
600.971	37945.022
601.173	38290.74949
601.376	38546.08434
601.578	38109.62464
601.78	38451.34761
601.983	37788.69795
602.185	37788.69795
602.388	37856.56977
602.59	38054.06532
602.792	37755.79352
602.995	37517.29651
603.197	37558.40924
603.399	37926.5075
603.601	37603.63681
603.804	37430.96967
604.006	38171.36437
604.208	37622.14007
604.41	38052.00769
604.613	37996.45465
604.815	38253.69586
605.017	38086.98863
605.219	37597.46919
605.421	37692.04697
605.623	37663.26068
605.826	38175.48062
606.028	38070.52671
606.23	38183.71323
606.432	37766.07594
606.634	38298.98401
606.836	38214.58671
607.038	38708.82856
607.24	38121.97198
607.442	38056.12297
607.644	38609.93929
607.846	38653.20078
608.048	38923.16108
608.25	39038.61275
608.452	38921.09971
608.654	39040.67466
608.856	38276.33942
609.058	38750.0386
609.26	38690.28523
609.462	38463.70351
609.664	38498.71363
609.866	38416.34093
610.067	38611.99927
610.269	38436.93279
610.471	38562.56221
610.673	38576.98082
610.875	38706.76815
611.077	38925.22246
611.278	38539.90529
611.48	38570.80136
611.682	38430.75514
611.884	38766.52365
612.085	38787.13078
612.287	39030.36522
612.489	38700.58698
612.69	38834.53068
612.892	38292.80811
613.094	38719.13072
613.295	38506.95168
613.497	39048.92238
613.699	39123.15877
613.9	39083.97691
614.102	38929.34524
614.304	38729.43312
614.505	38187.82958
614.707	38690.28523
614.908	38035.5469
615.11	38076.69987
615.311	38438.99202
615.513	38041.71963
615.714	38323.68839
615.916	38752.0992
616.117	38663.50172
616.319	39024.17967
616.52	38795.37389
616.722	38290.74949
616.923	38599.63952
617.124	38181.65507
617.326	38455.46621
617.527	38659.38131
617.729	39032.42709
617.93	38498.71363
618.131	38848.95771
618.333	38476.05973
618.534	38947.89823
618.735	39222.16004
618.937	38688.2249
619.138	38684.10428
619.339	38855.14087
619.54	38867.50742
619.742	39092.22543
619.943	39166.46908
620.144	38886.05789
620.345	39403.72086
620.546	38591.39987
620.748	39317.05732
620.949	38657.32113
621.15	39028.30336
621.351	38743.85686
621.552	38999.43832
621.753	38566.68177
621.954	39055.10827
622.155	38546.08434
622.356	39259.29129
622.558	39129.3457
622.759	39079.8527
622.96	38861.3241
623.161	38589.33998
623.362	38733.55414
623.563	38892.24154
623.764	38688.2249
623.965	39273.73208
624.166	39182.96937
624.366	38735.61467
624.567	38785.07002
624.768	38927.28385
624.969	38840.71364
625.17	38960.26732
625.371	38758.28105
625.572	39108.72294
625.773	39063.35626
625.973	38758.28105
626.174	38807.73883
626.375	38851.01876
626.576	39488.33792
626.777	39601.87518
626.977	39046.86043
627.178	39750.55242
627.379	38921.09971
627.58	38715.00983
627.78	38945.83675
627.981	39284.04722
628.182	39273.73208
628.382	39240.72527
628.583	39478.01786
628.784	38869.56855
628.984	38414.2818
629.185	39224.22281
629.386	38418.40008
629.586	39546.13488
629.787	38826.28687
629.987	38564.62199
630.188	38494.59466
630.388	38853.07981
630.589	38657.32113
630.79	39546.13488
630.99	39762.9446
631.191	39401.65724
631.391	40128.68405
631.591	39893.08514
631.792	39017.9942
631.992	39265.48014
632.193	39335.62661
632.393	39290.23642
632.594	39112.84742
632.794	39393.40285
632.994	39579.16528
633.195	39694.79221
633.395	39884.82101
633.595	39810.45142
633.796	39684.46707
633.996	39665.88247
634.196	39903.41553
634.397	39752.61776
634.597	39232.47396
634.797	39771.20626
634.997	38972.63674
635.198	39963.33702
635.398	39440.86774
635.598	39924.07711
635.798	39849.70035
635.998	39537.87769
636.199	39750.55242
636.399	39579.16528
636.599	39048.92238
636.799	39831.10828
636.999	39139.65744
637.199	39922.0109
637.399	39461.5063
637.599	39428.48509
637.799	39020.05601
637.999	39950.93874
638.199	39731.96485
638.399	39857.96376
638.599	39773.2717
638.799	39884.82101
638.999	40172.09903
639.199	40265.14724
639.399	39740.22589
639.599	39659.68779
639.799	39292.29951
639.999	40021.20071
640.199	39789.79561
640.399	39895.15119
640.599	38853.07981
640.799	40505.10737
640.998	40242.40008
641.198	39333.56331
641.398	39502.78642
641.598	39717.50842
641.798	40017.06731
641.997	39756.74846
642.197	39932.34204
642.397	39750.55242
642.597	39680.33709
642.796	39352.13331
642.996	39414.03911
643.196	40227.92531
643.395	40108.01192
643.595	40505.10737
643.795	40217.58651
643.994	40066.67089
644.194	40087.34087
644.394	40366.49157
644.593	40124.54954
644.793	39967.46986
644.992	39595.68145
645.192	39709.24784
645.392	39727.83439
645.591	40316.85023
645.791	39478.01786
645.99	39903.41553
646.19	40116.28065
646.389	40213.45107
646.589	40343.7385
646.788	40289.96382
646.987	39717.50842
647.187	39818.71404
647.386	40263.07926
647.586	40931.61645
647.785	40503.03811
647.984	40345.80691
648.184	40583.74755
648.383	40498.89962
648.582	40710.01981
648.782	40463.72429
648.981	40174.16653
649.18	40796.98597
649.38	40552.70344
649.579	40563.0512
649.778	40198.97736
649.977	41084.94784
650.177	40563.0512
650.376	40763.85363
650.575	40114.21345
650.774	40180.36909
650.973	40589.95668
651.173	40364.42305
651.372	40120.41507
651.571	40085.27382
651.77	40186.57175
651.969	40021.20071
652.168	40478.20786
652.367	40563.0512
652.566	40314.78198
652.765	40354.08064
652.964	40463.72429
653.163	40848.76116
653.362	40865.33073
653.561	40602.37524
653.76	40120.41507
653.959	40761.78295
654.158	40453.37922
654.357	40527.86997
654.556	40184.50419
654.755	41024.85088
654.954	40857.04585
655.153	40494.76118
655.352	40285.82761
655.551	40993.77011
655.749	41458.18654
655.948	41047.64512
656.147	40397.52063
656.346	40956.47666
656.545	40033.60115
656.743	40631.35345
656.942	40629.28351
657.141	40701.73837
657.34	40401.65803
657.538	40687.24628
657.737	40393.38328
657.936	40542.35596
658.135	40362.35455
658.333	40552.70344
658.532	40695.5274
658.731	40635.49338
658.929	40828.05022
659.128	40271.35124
659.326	40503.03811
659.525	41211.39103
659.724	40345.80691
659.922	40455.44821
660.121	40331.3283
660.319	40000.53415
660.518	40234.12872
660.716	40560.98162
660.915	40627.21357
661.113	40558.91206
661.312	40846.69001
661.51	40883.97239
661.709	41169.92939
661.907	41207.24465
662.105	40927.47325
662.304	41068.36838
662.502	41037.28392
662.701	41182.36738
662.899	40894.32928
663.097	40985.48235
663.296	41259.07778
663.494	41462.33582
663.692	40445.10336
663.891	40472.00055
664.089	40072.87177
664.287	40205.18032
664.485	40867.40198
664.684	41292.2549
664.882	40602.37524
665.08	40722.44231
665.278	40767.99501
665.476	40558.91206
665.675	40594.09616
665.873	40066.67089
666.071	40492.69198
666.269	40683.10579
666.467	40645.84339
666.665	41028.99518
666.863	39913.74619
667.061	40116.28065
667.259	40141.08785
667.457	40811.4823
667.655	39684.46707
667.853	40612.72435
668.051	40190.70691
668.249	40412.00171
668.447	40141.08785
668.645	40205.18032
668.843	40306.50909
669.041	40198.97736
669.239	39455.31463
669.437	40308.57729
669.635	40565.12078
669.833	39843.5029
670.031	39523.42799
670.229	39236.5996
670.426	39257.22836
670.624	39587.42328
670.822	39284.04722
671.02	39915.81235
671.218	40070.8048
671.415	39601.87518
671.613	39998.46755
671.811	39645.23388
672.009	39785.66457
672.206	39992.26782
672.404	39936.47456
672.602	39808.38579
672.799	39899.28334
672.997	40443.03443
673.195	40275.48729
673.392	40066.67089
673.59	40019.134
673.788	40304.44089
673.985	39705.11761
674.183	40050.13568
674.38	40354.08064
674.578	40571.3296
674.775	39868.29326
674.973	39775.33715
675.17	39667.94738
675.368	39129.3457
675.565	39750.55242
675.763	40229.9931
675.96	40132.81861
676.158	39953.00509
676.355	40021.20071
676.553	40345.80691
676.75	39899.28334
676.947	40529.93936
677.145	39847.63452
677.342	39451.1869
677.539	39612.19828
677.737	40163.82914
677.934	39323.24699
678.131	39610.13364
678.329	39641.10429
678.526	39868.29326
678.723	39798.05781
678.92	39866.22734
679.118	39164.40659
679.315	39232.47396
679.512	39234.53677
679.709	39387.21217
679.906	39279.92113
680.104	39288.17334
680.301	39463.57021
680.498	38760.34168
680.695	38861.3241
680.892	39296.42571
681.089	39042.73657
681.286	38919.03835
681.483	38130.20371
681.68	38616.11926
681.877	38993.2532
682.075	38968.51356
682.272	38441.05126
682.469	39224.22281
682.665	38406.04533
682.862	38700.58698
683.059	38628.47944
683.256	38601.69946
683.453	38484.29739
683.65	38294.86673
683.847	38653.20078
684.044	38822.16502
684.241	38638.77984
684.438	38640.83994
684.635	38692.34556
684.831	39067.48031
685.028	38987.06816
685.225	38966.45199
685.422	38148.72559
685.619	38669.68239
685.815	37901.82253
686.012	38488.41627
686.209	38249.57897
686.405	38679.98369
686.602	38097.2776
686.799	37677.65363
686.996	38134.31962
687.192	38175.48062
687.389	37885.36653
687.586	37344.65609
687.782	37766.07594
687.979	37961.47989
688.175	37615.97224
688.372	37459.7438
688.568	37515.24095
688.765	37924.45038
688.962	38103.45108
689.158	37607.74859
689.355	37992.33985
689.551	38167.24815
689.748	37984.11035
689.944	37741.39848
690.14	37443.30125
690.337	37391.92142
690.533	37206.99237
690.73	37050.8758
690.926	37796.92437
691.123	37266.57413
691.319	37533.74123
691.515	37587.18999
691.712	37396.03163
691.908	37233.70068
692.104	37202.88351
692.301	37009.7993
692.497	37404.25215
692.693	37371.37079
692.889	37922.39326
693.086	37683.82216
693.282	37437.13543
693.478	37196.72027
693.674	36515.04137
693.87	36808.56448
694.067	36681.28623
694.263	37412.47279
694.459	37313.83299
694.655	37920.33615
694.851	37511.12986
695.047	36839.36147
695.243	36420.64942
695.439	37091.95512
695.635	37054.98361
695.831	36508.88497
696.027	36264.72639
696.224	36675.12825
696.42	36348.83834
696.615	36705.91874
696.811	36730.55219
697.007	36061.66852
697.203	36369.35501
697.399	35858.66769
697.595	35698.76626
697.791	36098.58382
697.987	36032.95792
698.183	36301.65232
698.379	35860.71793
698.575	36646.3918
698.77	37149.47094
698.966	36180.62464
699.162	35918.12681
699.358	36338.58023
699.554	36065.77012
699.749	36350.88998
699.945	36094.48202
700.141	36254.46953
700.337	36014.50171
700.532	36527.35435
700.728	36459.63578
700.924	36186.77808
701.119	36211.3924
701.315	36098.58382
701.511	35678.26848
701.706	36437.06445
701.902	36192.93158
702.097	36359.0966
702.293	36203.18753
702.489	35786.91292
702.684	35618.82791
702.88	36045.26232
703.075	35739.76346
703.271	35577.83702
703.466	36447.32405
703.662	35555.29292
703.857	36006.2991
704.053	35998.09658
704.248	36188.82924
704.443	36071.92258
704.639	36088.32938
704.834	35975.54013
705.03	35741.81338
705.225	35870.96919
705.42	35803.31342
705.616	36008.34974
705.811	35776.66279
706.006	35918.12681
706.202	36098.58382
706.397	35575.78753
706.592	35598.3322
706.787	35616.77832
706.983	35514.30528
707.178	35704.91571
707.373	35512.25595
707.568	35200.81681
707.763	34914.06355
707.959	35231.54586
708.154	34821.91186
708.349	34803.4826
708.544	34942.73481
708.739	34737.95918
708.934	34881.29747
709.129	35038.99485
709.324	34934.54293
709.519	35063.57351
709.714	34711.34156
709.909	34819.86415
710.104	34414.50053
710.299	34815.76873
710.494	35143.45882
710.689	34772.76794
710.884	34924.30319
711.079	34959.11879
711.274	35182.3799
711.469	35440.53271
711.664	34920.20732
711.859	35090.20115
712.054	34901.77614
712.249	34459.53296
712.443	34203.69203
712.638	34121.83549
712.833	34283.50792
713.028	34694.96184
713.223	34381.75088
713.417	34545.50937
713.612	34625.35107
713.807	34459.53296
714.002	35110.68449
714.196	35102.4911
714.391	34338.76849
714.586	34817.81644
714.78	34805.53028
714.975	35096.34611
715.17	34744.10182
715.364	35213.1083
715.559	34635.58764
715.754	34275.32141
715.948	34461.57993
716.143	34330.58156
716.337	34125.92818
716.532	34275.32141
716.726	34189.3667
716.921	34377.65724
717.115	34091.14081
717.31	34424.73501
717.504	34203.69203
717.699	34543.46223
717.893	34326.48812
718.088	34164.80943
718.282	34091.14081
718.476	33324.02246
718.671	33487.63656
718.865	33784.23786
719.059	33669.68039
719.254	34066.58565
719.448	33649.22477
719.642	33679.90831
719.837	33017.29581
720.031	33598.08713
720.225	33405.82711
720.419	33358.78886
720.614	32964.13613
720.808	33129.75497
721.002	32708.58505
721.196	33101.12822
721.39	32902.80024
721.585	33346.51826
721.779	33459.0027
721.973	33448.77647
722.167	32322.26304
722.361	32945.73512
722.555	32661.56788
722.749	32500.08366
722.943	32802.62327
723.137	32814.88951
723.331	32955.95787
723.525	33283.12189
723.719	33125.6654
723.913	33217.68339
724.107	32559.36098
724.301	32898.71127
724.495	32913.02273
724.689	32618.64026
724.883	32426.50067
725.077	32776.04672
725.271	32804.66763
725.465	32835.33345
725.659	32326.35068
725.853	32295.69357
726.046	32487.81962
726.24	32260.94942
726.434	32040.23587
726.628	32716.76208
726.822	32021.84414
727.015	32473.51169
727.209	32175.11353
727.403	32665.65628
727.596	32173.06986
727.79	32446.9401
727.984	32778.09105
728.177	32575.71369
728.371	32538.92031
728.565	32218.03101
728.758	32211.89989
728.952	32487.81962
729.146	32271.16822
729.339	32655.4353
729.533	32641.12602
729.726	32534.8322
729.92	32540.96436
730.113	32299.78115
730.307	32792.40147
730.5	32373.35921
730.694	32694.27534
730.887	32377.44696
731.081	32205.76878
731.274	31995.27858
731.468	31684.6896
731.661	31905.36681
731.854	32291.60599
732.048	32191.46294
732.241	32279.3433
732.435	32183.28822
732.628	32027.9747
732.821	32242.5557
733.014	32434.67642
733.208	32099.49922
733.401	32156.7206
733.594	32109.71721
733.788	32391.75416
733.981	32289.5622
734.174	32547.09655
734.367	32199.63769
734.56	32164.89522
734.754	32140.37147
734.947	32117.89163
735.14	32034.10528
735.333	31482.42029
735.526	31492.63551
735.719	31247.48135
735.912	31404.78594
736.105	31572.31569
736.298	31817.50203
736.491	31531.45374
736.684	31400.69999
736.877	31084.0577
737.07	31202.53888
737.263	31251.56706
737.456	31372.09849
737.649	31733.72715
737.842	31658.12802
738.035	31940.10501
738.228	31425.2158
738.421	31660.17121
738.614	31772.54927
738.807	31748.02996
739	31651.99846
739.192	31525.32451
739.385	31376.1844
739.578	32156.7206
739.771	32034.10528
739.964	31825.67535
740.156	31972.80029
740.349	31637.69623
740.542	31670.38717
740.735	31625.43725
740.927	31856.32557
741.12	31359.84081
741.313	31598.87632
741.505	32083.15054
741.698	31412.95786
741.891	31069.75859
742.083	30894.08955
742.276	31090.18592
742.468	31145.34044
742.661	31043.20328
742.854	30986.00807
743.046	30967.62414
743.239	31018.69091
743.431	31378.22736
743.624	30928.81399
743.816	30693.92111
744.009	30832.8121
744.201	30503.97712
744.393	30642.8598
744.586	30685.75124
744.778	31006.4348
744.971	31143.29766
745.163	30932.89924
745.355	30783.79104
745.548	30550.95148
745.74	30473.34203
745.932	30506.01947
746.125	30575.46011
746.317	30843.02492
746.509	30483.55369
746.702	30998.2641
746.894	30604.05374
747.086	30348.7622
747.278	30232.35565
747.471	30346.71995
747.663	30734.77076
747.855	30117.99506
748.047	30483.55369
748.239	30197.63865
748.431	30312.00181
748.623	30077.15289
748.815	29944.41897
749.008	30026.10081
749.2	30003.63812
749.392	30091.4476
749.584	29419.65515
749.776	30054.68988
749.968	29662.63029
750.16	29762.68329
750.352	29464.57379
750.544	29438.03089
750.736	29879.07479
750.928	29921.95678
751.12	29738.18027
751.311	29499.284
751.503	29507.45115
751.695	28950.0815
751.887	29311.44416
752.079	29301.23572
752.271	28958.24753
752.463	29540.11993
752.654	29380.86219
752.846	29497.24221
753.038	29074.61524
753.23	29244.06899
753.421	29438.03089
753.613	29168.52848
753.805	29809.64785
753.997	29754.5156
754.188	29785.14453
754.38	28890.87829
754.572	29139.94596
754.763	28821.46874
754.955	29007.24405
755.146	29078.69838
755.338	28984.78724
755.53	29113.40522
755.721	29154.23719
755.913	28848.00755
756.104	29178.73657
756.296	28884.75387
756.487	28500.97562
756.679	28790.84727
756.87	28311.14167
757.062	28598.95803
757.253	28825.55163
757.445	28243.78348
757.636	28345.84181
757.827	28609.16467
758.019	28770.43308
758.21	28282.56532
758.401	28233.5778
758.593	28039.67505
758.784	27898.84678
758.975	28082.5369
759.167	27760.06485
759.358	28064.16748
759.549	28027.4289
759.74	28094.78324
759.932	28113.15281
760.123	28262.15378
760.314	27817.2097
760.505	27200.91224
760.696	27249.8853
760.888	27972.32172
761.079	27686.59426
761.27	27323.3463
761.461	27268.25039
761.652	27355.99617
761.843	27186.62857
762.034	27129.49457
762.225	26884.64675
762.416	27368.23996
762.607	27339.6712
762.798	27827.41423
762.989	27684.55344
763.18	27953.95285
763.371	27268.25039
763.562	27233.56086
763.753	27096.84704
763.944	27096.84704
764.135	26858.12278
764.326	27153.98044
764.517	27225.39867
764.708	27286.61559
764.899	26968.30082
765.089	26747.94895
765.28	26431.73371
765.471	26778.55237
765.662	26219.58495
765.853	26188.98807
766.043	26180.82896
766.234	26388.89455
766.425	25948.30621
766.615	26452.13357
766.806	26464.37355
766.997	26260.3814
767.187	26556.17527
767.378	26725.50666
767.569	26025.81123
767.759	26568.41574
767.95	26572.49591
768.141	26368.4952
768.331	26313.41778
768.522	26464.37355
768.712	26205.30636
768.903	26105.35854
769.093	25650.54859
769.284	25832.0536
769.474	26166.55059
769.665	26021.73196
769.855	26229.784
770.046	26025.81123
770.236	25721.92515
770.426	25542.46867
770.617	26154.31206
770.807	26129.83518
770.998	26231.82382
771.188	26056.40604
771.378	25921.79193
771.569	25322.24796
771.759	25175.44782
771.949	25159.13739
772.139	25701.53161
772.33	25220.30223
772.52	25159.13739
772.71	25081.66477
772.9	25142.8271
773.09	25171.3702
773.281	25263.11878
773.471	25515.95935
773.661	25244.76871
773.851	24818.69015
774.041	24847.22815
774.231	24936.92203
774.421	24720.84912
774.611	24779.96074
774.802	24529.26012
774.992	24478.30934
775.182	24625.05188
775.372	24661.73954
775.562	24508.87962
775.752	24894.11302
775.942	24156.33816
776.131	24370.299
776.321	23940.37022
776.511	24484.42335
776.701	24364.18543
776.891	23952.59398
777.081	23932.22111
777.271	23844.62104
777.461	24223.5798
777.651	24109.47454
777.84	23946.48209
778.03	23520.75185
778.22	23445.39707
778.41	23699.99087
778.599	23836.47247
778.789	23667.40022
778.979	23559.44919
779.169	23447.43363
779.358	23736.65627
779.548	24252.10745
779.738	23579.81666
779.927	23883.32739
780.117	23834.43533
780.307	23571.66963
780.496	23657.2158
780.686	23569.63289
780.875	23422.99512
781.065	23231.57584
781.254	23270.2647
781.444	23178.63508
781.633	23253.97451
781.823	23724.43436
782.012	23465.76281
782.202	23612.40524
782.391	23007.61084
782.581	23015.75432
782.77	22804.04134
782.96	22694.12806
783.149	22496.71692
783.338	22913.96466
783.528	22873.25116
783.717	22624.92862
783.906	22653.42201
784.096	22417.35488
784.285	22333.92894
784.474	22757.22519
784.663	22456.01775
784.853	22230.16379
785.042	22246.44004
785.231	22222.02575
785.42	22116.23668
785.61	22067.41436
785.799	22055.20912
785.988	22085.72247
786.177	21851.80856
786.366	22012.49185
786.555	21929.09628
786.744	22006.38951
786.933	21802.99813
787.122	22181.33646
787.312	21864.01152
787.501	21434.95853
787.69	21540.68045
787.879	21695.21632
788.068	21550.84658
788.257	21376.00291
788.445	21144.27911
788.634	21386.16743
788.823	21439.02456
789.012	21473.58645
789.201	21325.1818
789.39	21188.99364
789.579	21241.84062
789.768	21166.63613
789.957	21113.79306
790.145	21428.85952
790.334	21270.29782
790.523	20748.03238
790.712	21038.59805
790.9	20973.56905
791.089	20506.29761
791.278	20969.50487
791.467	21032.5014
791.655	21579.31229
791.844	20880.09723
792.033	20678.95929
792.221	20349.91254
792.41	20445.36541
792.599	20193.55234
792.787	20542.85875
792.976	20620.0478
793.164	20784.60243
793.353	20404.74603
793.541	20796.79275
793.73	20697.24287
793.918	20882.12913
794.107	20445.36541
794.295	20500.20422
794.484	20439.2724
794.672	20689.11679
794.861	20435.21041
795.049	20471.7689
795.238	20488.01756
795.426	20705.36902
795.614	20506.29761
795.803	20591.60903
795.991	20459.58259
796.179	20737.87427
796.368	20362.09749
796.556	20459.58259
796.744	19852.48936
796.932	20309.2971
797.121	19738.82806
797.309	19949.92381
797.497	20085.94227
797.685	19988.4943
797.874	20128.57881
798.062	20057.51894
798.25	19966.16383
798.438	20256.49955
798.626	20167.15632
798.814	20433.17942
799.002	20191.52185
799.19	19860.60853
799.378	19574.44836
799.566	19580.53601
799.755	19600.82844
799.943	19684.03178
800.131	19621.12129
800.318	19653.59071
800.506	19458.79017
800.694	19742.88717
800.882	19570.38995
801.07	19627.20922
801.258	19324.88702
801.446	20031.12659
801.634	19698.23793
801.822	19824.0728
802.01	19554.15647
802.197	19984.43417
802.385	19921.50443
802.573	19690.1201
802.761	19387.77868
802.949	19389.80751
803.136	19150.43412
803.324	19302.57158
803.512	19235.62825
803.699	19225.48571
803.887	19432.41388
804.075	19351.26046
804.262	19505.45763
804.45	19408.06716
804.638	19410.09603
804.825	19619.09198
805.013	19468.93508
805.201	19243.74236
805.388	19245.77089
805.576	19381.69221
805.763	19576.47757
805.951	19598.79918
806.138	19434.4428
806.326	19799.71641
806.513	19430.38496
806.701	19312.7149
806.888	19296.48564
807.075	19436.47172
807.263	19272.14224
807.45	19815.95394
807.638	19641.41455
807.825	19884.96644
808.012	19209.25787
808.2	19314.74358
808.387	19686.06121
808.574	19748.97586
808.761	19602.8577
808.949	19655.62009
809.136	19343.14548
809.323	19572.41915
809.51	19337.05929
809.698	19541.98153
809.885	19367.49061
810.072	19554.15647
810.259	19663.73763
810.446	19661.70824
810.633	19574.44836
810.82	19310.68623
811.008	19109.86802
811.195	19197.08715
811.382	19049.02193
811.569	19436.47172
811.756	19556.18564
811.943	19604.88697
812.13	19353.28921
812.317	19385.74985
812.504	19738.82806
812.691	19935.71402
812.878	19874.81723
813.064	19852.48936
813.251	19655.62009
813.438	19744.91673
813.625	19404.00943
813.812	19201.14404
813.999	19448.64536
814.186	19290.39973
814.372	19635.32653
814.559	19826.10253
814.746	19505.45763
814.933	19292.42836
815.12	19059.16269
815.306	18765.1215
815.493	19164.63264
815.68	19182.88818
815.866	18836.08926
816.053	18951.67578
816.24	18896.92264
816.426	19059.16269
816.613	19223.45722
816.799	18949.64783
816.986	18700.24095
817.173	19022.65643
817.359	19004.40379
817.546	18801.6186
817.732	18694.1586
817.919	18900.97833
818.105	18856.36665
818.292	18852.31114
818.478	18838.11698
818.665	19176.80296
818.851	18720.51569
819.037	19051.05008
819.224	18819.86763
819.41	18927.34069
819.597	18754.98365
819.783	18850.28339
819.969	18562.3831
820.156	18765.1215
820.342	18637.39175
820.528	18542.1114
820.714	18663.7474
820.901	18698.21349
821.087	18359.68339
821.273	18781.34228
821.459	18574.5463
821.646	18882.72786
821.832	18846.2279
822.018	18961.81557
822.204	18467.10947
822.39	18623.20051
822.576	18454.94749
822.762	18663.7474
822.948	18351.57619
823.134	18394.13965
823.32	17919.95307
823.507	18132.70441
823.693	17913.87504
823.879	18219.84263
824.065	18000.99657
824.25	18000.99657
824.436	17986.81355
824.622	18272.53417
824.808	18246.18809
824.994	18260.37436
825.18	17857.14822
825.366	18238.08173
825.552	17990.86582
825.738	18325.22822
825.923	18033.41555
826.109	18242.1349
826.295	17792.32088
826.481	17812.57905
826.667	17812.57905
826.852	18069.888
827.038	17905.77104
827.224	18106.36162
827.409	18092.1773
827.595	18248.21469
827.781	17802.44992
827.966	18118.51975
828.152	17954.39587
828.338	17755.85704
828.523	17672.80459
828.709	17731.54842
828.894	17344.69945
829.08	17040.9694
829.266	17213.07511
829.451	17326.47379
829.637	17073.36422
829.822	16992.37847
830.008	16753.49493
830.193	16856.73687
830.378	17008.57527
830.564	17409.5038
830.749	17375.0761
830.935	17146.25518
831.12	16951.88721
831.305	17150.30478
831.491	16688.7189
831.676	17014.64912
831.861	16842.56602
832.047	16964.03448
832.232	16915.44598
832.417	16972.13271
832.602	17093.61135
832.788	17328.49885
832.973	17344.69945
833.158	17121.95779
833.343	16937.71552
833.528	16864.83455
833.714	16866.85897
833.899	17287.9982
834.084	17061.21608
834.269	16953.91175
834.454	16642.1626
834.639	17018.69836
834.824	16783.85954
835.009	16909.37252
835.194	16530.83716
835.379	16874.95671
835.564	16425.58997
835.749	17140.18079
835.934	16573.34245
836.119	16644.18676
836.304	16593.58341
836.489	16459.99709
836.674	16277.84816
836.859	16281.89575
837.044	16117.97398
837.228	16146.30536
837.413	16192.85045
837.598	16419.51819
837.783	16300.10999
837.968	16360.82519
838.152	15978.34515
838.337	16217.1352
838.522	15824.5586
838.707	15913.59203
838.891	15440.11774
839.076	15409.76823
839.261	15763.85526
839.445	15775.99585
839.63	15634.35782
839.815	15739.57419
839.999	15541.28368
840.184	16041.07608
840.368	15642.4513
840.553	15982.39227
840.737	15703.15286
840.922	15523.0737
841.106	15393.58186
841.291	15464.39744
841.475	15660.66168
841.66	15727.43371
841.844	15308.60382
842.029	15504.86377
842.213	15474.514
842.397	15300.5107
842.582	15108.2998
842.766	15312.65038
842.951	14891.80831
843.135	15007.13599
843.319	15077.95071
843.504	15019.27568
843.688	15043.55502
843.872	15361.2092
844.056	15055.69468
844.241	15282.3012
844.425	14938.34421
844.609	14954.53055
844.793	14907.99474
844.977	14661.14709
845.161	14365.71909
845.346	14659.1237
845.53	14288.82174
845.714	14659.1237
845.898	14284.77444
846.082	14689.47448
846.266	14671.26404
846.45	14442.6141
846.634	14408.21398
846.818	14371.78983
847.002	14531.6478
847.186	14721.84841
847.37	14535.69473
847.554	14829.08557
847.738	14547.83547
847.922	14458.80224
848.106	14422.37879
848.29	14193.70823
848.473	14090.4949
848.657	14126.92377
848.841	14195.73196
849.025	14157.28062
849.209	14130.97138
849.392	14327.27073
849.576	14400.11977
849.76	14181.56577
849.944	14104.66177
850.127	13975.13186
850.311	13861.78475
850.495	14234.18258
850.678	14041.92193
850.862	14495.22524
851.046	13833.44663
851.229	13867.85713
851.413	13817.25317
851.596	13697.8205
851.78	13894.17049
851.964	13884.05002
852.147	13483.21787
852.331	13649.23459
852.514	13663.40567
852.698	13693.77174
852.881	13278.69895
853.065	13594.57315
853.248	13294.89999
853.431	13373.87621
853.615	13224.01842
853.798	13315.15091
853.982	13414.37445
854.165	13294.89999
854.348	12995.13404
854.532	13414.37445
854.715	13171.36004
854.898	13734.25872
855.081	13252.37169
855.265	13562.18
855.448	13335.4014
855.631	13519.66262
855.814	12972.84995
855.997	13183.51225
856.181	13055.90576
856.364	13045.77745
856.547	13047.80312
856.73	13159.20768
856.913	12745.92093
857.096	13068.05957
857.279	12514.86559
857.462	12948.53933
857.645	12634.45671
857.828	12537.1639
858.011	12518.91989
858.194	12506.75693
858.377	12060.61135
858.56	12445.93863
858.743	12600.00047
858.926	12583.78515
859.109	12474.32124
859.292	12196.51972
859.475	12015.97721
859.658	12210.71717
859.841	12032.20824
860.023	12224.91426
860.206	11975.39741
860.389	12097.12739
860.572	12007.8615
860.755	11847.54984
860.937	11853.63856
861.12	11839.43142
861.303	12117.41301
861.486	12076.84101
861.668	11894.22813
861.851	11664.85214
862.034	11543.01354
862.216	11626.27348
862.399	11242.33125
862.581	11459.73785
862.764	11264.68678
862.947	11415.0467
863.129	11449.58118
863.312	11662.82176
863.494	11563.32227
863.677	11675.00388
863.859	11492.23758
864.042	11536.92073
864.224	11425.20419
864.406	11449.58118
864.589	11128.50175
864.771	11419.10972
864.954	11140.69935
865.136	11364.25554
865.318	11187.45328
865.501	11238.26648
865.683	11167.12617
865.865	11482.08168
866.048	11228.10436
866.23	11368.31906
866.412	10990.23501
866.594	11244.36363
866.777	11291.10535
866.959	11301.26588
867.141	11191.51858
867.323	11012.60513
867.505	11122.4028
867.687	11085.8071
867.869	10841.74422
868.052	10961.76201
868.234	10660.62347
868.416	10691.15609
868.598	10438.66914
868.78	10782.73769
868.962	10672.83685
869.144	10723.72122
869.326	10756.28327
869.508	11004.4707
869.69	10939.38882
869.872	10963.79587
870.054	10699.29766
870.236	10925.15062
870.417	10440.70611
870.599	10772.56315
870.781	10746.10795
870.963	10752.21318
871.145	10882.43268
871.327	11047.17449
871.508	10841.74422
871.69	10843.77876
871.872	10923.11655
872.054	11049.20789
872.235	10253.25043
872.417	10589.36996
872.599	10287.89746
872.78	10583.26181
872.962	10283.82154
873.144	10353.1049
873.325	10408.11313
873.507	10556.79187
873.689	10467.18546
873.87	10540.50162
874.052	10438.66914
874.233	10459.0382
874.415	10200.25327
874.596	10562.90051
874.778	10049.36402
874.959	10300.1249
875.141	10071.79836
875.322	10283.82154
875.503	10259.36489
875.685	10516.06473
875.866	9982.05064
876.048	10330.69138
876.229	10208.40728
876.41	10122.77916
876.592	10369.40463
876.773	10658.58786
876.954	10434.59518
877.136	10489.58937
877.317	10617.87318
877.498	10440.70611
877.679	9792.26394
877.86	10116.66192
878.042	9912.68101
878.223	10185.98322
878.404	10147.24683
878.585	10210.44574
878.766	10198.21473
878.947	10481.44268
879.128	10218.59948
879.309	10275.66954
879.49	10094.23099
879.672	10373.47943
879.853	9984.09067
880.034	10334.76668
880.215	10181.90594
880.396	10428.48413
880.576	10020.80873
880.757	10338.84193
880.938	10179.86728
881.119	10359.2174
881.3	10194.13761
881.481	10678.94337
881.662	10516.06473
881.843	10670.80131
882.023	10569.00903
882.204	10634.15964
882.385	10461.07504
882.566	10438.66914
882.747	10253.25043
882.927	10571.04518
883.108	10304.2006
883.289	10353.1049
883.469	9851.45845
883.65	10218.59948
883.831	10440.70611
884.011	10693.1915
884.192	10646.37397
884.373	10569.00903
884.553	10548.64685
884.734	10611.76555
884.914	10454.96449
885.095	10626.01651
885.275	10483.47937
885.456	10524.21056
885.636	10475.33252
885.817	10685.04979
885.997	10379.59154
886.178	10334.76668
886.358	10397.92714
886.538	10571.04518
886.719	10424.41003
886.899	10575.11744
887.08	10402.00158
887.26	10674.87237
887.44	10742.03775
887.621	10642.30258
887.801	10522.17413
887.981	10505.88216
888.161	10318.46515
888.342	10577.15355
888.522	10465.14867
888.702	10593.442
888.882	10552.71938
889.062	10615.83732
889.242	10542.53795
889.423	10259.36489
889.603	10141.1301
889.783	10479.40597
889.963	10291.97333
890.143	10344.95471
890.323	10275.66954
890.503	10577.15355
890.683	10342.91713
890.863	10257.32675
891.043	10145.20793
891.223	10363.29233
891.403	10275.66954
891.583	10461.07504
891.763	10263.44114
891.943	10342.91713
892.122	9912.68101
892.302	10281.78356
892.482	10294.01124
892.662	10334.76668
892.842	10212.4842
893.022	10165.59627
893.201	9998.37047
893.381	10238.98287
893.561	10100.34869
893.741	10073.83776
893.92	9973.89038
894.1	10092.19173
894.28	10047.32445
894.459	9822.88336
894.639	9690.17461
894.819	9853.49942
894.998	9855.54037
895.178	9884.11214
895.357	9859.62223
895.537	9945.32764
895.716	10104.42708
895.896	10037.12638
896.075	9555.35769
896.255	10043.24527
896.434	9590.08977
896.614	9884.11214
896.793	9404.11732
896.973	9655.45552
897.152	9492.01093
897.331	9904.51877
897.511	9526.75137
897.69	9761.64113
897.87	9710.59552
898.049	9635.03044
898.228	9549.22802
898.407	9673.83677
898.587	9737.14043
898.766	9888.19358
898.945	9500.18556
899.124	9569.65968
899.304	9279.37923
899.483	9561.48721
899.662	9121.83413
899.841	9150.48618
900.02	9428.64878
900.199	9712.63753
900.378	9089.0848
900.557	9500.18556
900.737	9093.17871
900.916	9379.58352
901.095	9222.1017
901.274	9226.19339
901.453	8878.154
901.632	9031.76281
901.811	8958.043
901.989	9197.55015
902.168	8867.90986
902.347	9164.81095
902.526	8746.99488
902.705	8845.37116
902.884	8740.84497
903.063	9160.71825
903.242	8968.28322
903.42	9397.98409
903.599	8863.81207
903.778	9130.02077
903.957	8820.78101
904.135	9084.99082
904.314	8751.09473
904.493	8955.9949
904.672	8660.88106
904.85	8904.78668
905.029	8685.48833
905.207	8580.88892
905.386	8488.55475
905.565	8718.29388
905.743	8525.49302
905.922	8607.55612
906.1	8324.30952
906.279	8449.55766
906.457	8291.44559
906.636	8705.99235
906.814	8293.49973
906.993	8593.19725
907.171	8426.97724
907.35	8238.03097
907.528	8328.41716
907.707	8285.28304
907.885	8034.52158
908.063	8213.37358
908.242	7958.41176
908.42	8268.84872
908.598	7900.79653
908.777	8525.49302
908.955	7927.54846
909.133	8127.05018
909.311	7886.3902
909.49	7754.62806
909.668	7587.7433
909.846	7756.6875
910.024	7492.90703
910.202	7449.59707
910.38	7288.6476
910.559	7604.23194
910.737	7280.39019
910.915	7746.39008
911.093	7515.5894
911.271	7711.37495
911.449	7383.58257
911.627	7338.18466
911.805	7127.56442
911.983	7365.01198
912.161	7067.64004
912.339	7457.84732
912.517	7175.07732
912.695	7323.73766
912.872	7032.50321
913.05	7243.2275
913.228	6933.25826
913.406	7253.55119
913.584	7067.64004
913.762	7150.28944
913.939	7077.97317
914.117	7049.039
914.295	7001.49474
914.473	7146.15782
914.65	7042.83824
914.828	7170.94623
915.006	6836.03043
915.184	7249.42178
915.361	6695.27131
915.539	6964.27789
915.716	6686.98806
915.894	6968.41345
916.072	6767.73406
916.249	6989.08993
916.427	6819.47602
916.604	6993.22496
916.782	6641.42363
916.959	6838.09963
917.137	6554.40602
917.314	6715.97781
917.492	6382.32247
917.669	6631.06652
917.847	6459.05418
918.024	6759.45402
918.201	6332.53349
918.379	6606.20712
918.556	6367.80207
918.733	6440.39264
918.911	5967.0019
919.088	6054.29717
919.265	5948.29037
919.442	6160.24275
919.62	6072.99789
919.797	6056.37512
919.974	5973.23866
920.151	6195.54436
920.328	6045.98512
920.506	5967.0019
920.683	5954.52776
920.86	5792.28659
921.037	5623.65342
921.214	5727.76626
921.391	5835.98103
921.568	6031.43814
921.745	5731.92955
921.922	5942.05276
922.099	5790.20565
922.276	5800.61015
922.453	5631.98462
922.63	5831.8201
922.807	5573.65831
922.984	5513.22944
923.161	5448.61117
923.338	5736.09274
923.514	5340.1685
923.691	5498.64019
923.868	5175.29786
924.045	5319.30687
924.222	5118.91629
924.399	5477.79641
924.575	5235.83693
924.752	5290.09665
924.929	5129.3586
925.105	5277.57658
925.282	4978.93344
925.459	5233.7497
925.635	4876.49242
925.812	5244.18561
925.989	4604.44522
926.165	4863.94483
926.342	4732.14572
926.518	4610.72753
926.695	4352.98981
926.871	4512.28176
927.048	4302.66097
927.224	4386.53545
927.401	4199.86786
927.577	4512.28176
927.754	4109.61973
927.93	4409.59484
928.107	4287.97939
928.283	4420.07551
928.459	4111.71896
928.636	4363.47342
928.812	4172.58765
928.988	4178.8834
929.165	3872.2736
929.341	4227.1445
929.517	3916.40182
929.693	4019.33299
929.87	3697.7767
930.046	3891.18678
930.222	3882.78112
930.398	4126.41302
930.574	3792.40021
930.751	4038.23338
930.927	3802.91149
931.103	4067.63066
931.279	3714.60152
931.455	3907.99713
931.631	3916.40182
931.807	4013.03249
931.983	3697.7767
932.159	3664.12338
932.335	3394.72502
932.511	3474.73388
932.687	3198.80783
932.863	3403.14822
933.039	3097.63288
933.215	3278.87781
933.391	3091.30822
933.566	3175.6252
933.742	3061.79127
933.918	3217.77395
934.094	3057.57431
934.27	3135.57784
934.445	2890.95586
934.621	3127.14608
934.797	2682.02964
934.973	2863.52883
935.148	2658.80758
935.324	2796.00598
935.5	2534.22737
935.675	2555.3456
935.851	2303.96753
936.027	2303.96753
936.202	2202.53136
936.378	2213.09859
936.553	2189.85041
936.729	2115.87231
936.904	2031.31444
937.08	2130.66871
937.255	1756.43384
937.431	2014.40152
937.606	1595.70173
937.782	1709.90787
937.957	1458.22473
938.133	1528.02125
938.308	1238.26414
938.483	1341.89751
938.659	1204.426
938.834	1409.57856
939.009	1041.59428
939.185	1189.62209
939.36	1037.36528
939.535	1183.2776
939.71	921.07767
939.886	1124.06413
940.061	842.8604
940.236	876.6827
940.411	825.95009
940.586	931.6484
940.761	823.83634
940.937	902.05083
941.112	830.17761
941.287	940.10513
941.462	692.80309
941.637	842.8604
941.812	686.4638
941.987	787.90403
942.162	749.86112
942.337	648.43026
942.512	661.10768
942.687	673.78553
942.862	580.82481
943.037	675.89855
943.212	631.5277
943.386	694.9162
943.561	506.89684
943.736	648.43026
943.911	523.79316
944.086	642.09171
944.26	549.13933
944.435	661.10768
944.61	538.57818
944.785	599.83753
944.959	496.33711
945.134	540.69038
945.309	644.20454
945.483	580.82481
945.658	496.33711
945.833	639.97888
946.007	490.00145
946.182	597.72496
946.357	578.71235
946.531	576.59991
946.706	399.20538
946.88	492.11332
947.055	496.33711
947.229	487.88959
947.404	487.88959
947.578	608.28796
947.752	504.78487
947.927	538.57818
948.101	631.5277
948.276	606.17534
948.45	479.44231
948.624	633.64047
948.799	538.57818
948.973	492.11332
949.147	566.03788
949.321	570.26265
949.496	547.02707
949.67	639.97888
949.844	555.47618
950.018	608.28796
950.193	454.1019
950.367	566.03788
950.541	572.37505
950.715	604.06272
950.889	513.23285
951.063	616.7386
951.237	534.35382
951.411	635.75326
951.585	601.95012
951.759	758.31482
951.933	690.68998
952.107	667.44655
952.281	631.5277
952.455	690.68998
952.629	530.12951
952.803	720.27449
952.977	530.12951
953.151	785.79045
953.325	593.49984
953.499	707.59515
953.672	627.30218
953.846	547.02707
954.02	601.95012
954.194	661.10768
954.368	620.96399
954.541	716.048
954.715	597.72496
954.889	673.78553
955.062	644.20454
955.236	775.2227
955.41	658.99475
955.583	732.95422
955.757	568.15026
955.93	669.55954
956.104	572.37505
956.278	566.03788
956.451	623.07671
956.625	642.09171
956.798	521.68107
956.972	716.048
957.145	699.14248
957.319	644.20454
957.492	555.47618
957.665	549.13933
957.839	658.99475
958.012	678.01157
958.185	530.12951
958.359	597.72496
958.532	506.89684
958.705	665.33358
958.879	557.58849
959.052	692.80309
959.225	563.92551
959.398	728.7276
959.572	530.12951
959.745	631.5277
959.918	582.93728
960.091	538.57818
960.264	547.02707
960.438	532.24166
960.611	572.37505
960.784	656.88183
960.957	572.37505
961.13	648.43026
961.303	639.97888
961.476	684.35073
961.649	538.57818
961.822	563.92551
961.995	460.4368
962.168	599.83753
962.341	568.15026
962.514	580.82481
962.686	477.33052
962.859	456.21352
963.032	439.32102
963.205	530.12951
963.378	496.33711
963.551	690.68998
963.723	547.02707
963.896	456.21352
964.069	580.82481
964.242	496.33711
964.414	525.90526
964.587	601.95012
964.76	500.56096
964.932	551.2516
965.105	498.44903
965.278	504.78487
965.45	477.33052
965.623	639.97888
965.795	454.1019
965.968	627.30218
966.14	470.99526
966.313	616.7386
966.485	449.87871
966.658	466.77183
966.83	460.4368
967.003	515.34488
967.175	449.87871
967.348	570.26265
967.52	447.76714
967.692	631.5277
967.865	411.87285
968.037	481.5541
968.209	397.09419
968.382	487.88959
968.554	473.107
968.726	540.69038
968.898	477.33052
969.071	441.43252
969.243	371.76124
969.415	420.31815
969.587	422.42952
969.759	375.98323
969.932	310.5501
970.104	443.54405
970.276	285.22573
970.448	397.09419
970.62	386.5385
970.792	462.54846
970.964	323.21326
971.136	344.31995
971.308	411.87285
971.48	394.98302
971.652	323.21326
971.824	371.76124
971.996	365.42837
972.168	428.76371
972.339	226.14603
972.511	306.32919
972.683	388.64961
972.855	411.87285
973.027	323.21326
973.199	348.54149
973.37	454.1019
973.542	331.65572
973.714	295.77723
973.886	354.87394
974.057	302.10835
974.229	281.00526
974.401	175.51851
974.572	245.1343
974.744	264.12413
974.915	287.336
975.087	262.01407
975.259	299.99796
975.43	386.5385
975.602	361.20655
975.773	321.10269
975.945	278.89506
976.116	234.58507
976.288	354.87394
976.459	257.79401
976.63	329.54508
976.802	253.57403
976.973	276.78487
977.145	192.39306
977.316	337.98775
977.487	266.2342
977.659	321.10269
977.83	281.00526
978.001	243.02442
978.172	198.72135
978.344	236.69488
978.515	281.00526
978.686	255.68401
978.857	200.83082
979.028	175.51851
979.2	264.12413
979.371	266.2342
979.542	143.8823
979.713	289.44628
979.884	234.58507
980.055	152.31817
980.226	272.56455
980.397	133.33796
980.568	160.75436
980.739	192.39306
980.91	192.39306
981.081	183.95562
981.252	209.26891
981.423	310.5501
981.594	266.2342
981.765	262.01407
981.936	192.39306
982.106	127.01161
982.277	173.40929
982.448	192.39306
982.619	205.04983
982.79	183.95562
982.96	127.01161
983.131	211.37848
983.302	78.51611
983.472	236.69488
983.643	202.94032
983.814	183.95562
983.984	160.75436
984.155	143.8823
984.326	167.08173
984.496	124.90287
984.667	160.75436
984.837	183.95562
985.008	101.70815
985.178	167.08173
985.349	141.77339
985.519	173.40929
985.69	143.8823
985.86	179.73703
986.031	171.30008
986.201	124.90287
986.371	194.50247
986.542	133.33796
986.712	114.35949
986.882	74.29967
987.053	114.35949
987.223	217.70731
987.393	112.25088
987.563	141.77339
987.734	152.31817
987.904	183.95562
988.074	124.90287
988.244	139.6645
988.414	53.21881
988.585	129.12037
988.755	154.42718
988.925	141.77339
989.095	120.68545
989.265	160.75436
989.435	156.53622
989.605	91.16598
989.775	86.94927
989.945	205.04983
990.115	141.77339
990.285	158.64528
990.455	91.16598
990.625	202.94032
990.795	101.70815
990.965	154.42718
991.134	169.1909
991.304	150.20917
991.474	120.68545
991.644	133.33796
991.814	108.03372
991.984	112.25088
992.153	112.25088
992.323	127.01161
992.493	67.97517
992.662	84.84094
992.832	131.22915
993.002	34.24801
993.171	116.46812
993.341	91.16598
993.511	74.29967
993.68	150.20917
993.85	129.12037
994.019	112.25088
994.189	86.94927
994.358	127.01161
994.528	30.03253
994.697	101.70815
994.867	53.21881
995.036	95.38278
995.206	122.79415
995.375	57.4348
995.544	129.12037
995.714	93.27437
995.883	97.49122
996.052	150.20917
996.222	82.73264
996.391	74.29967
996.56	129.12037
996.73	99.59967
996.899	-5.79519
997.068	34.24801
997.237	84.84094
997.406	122.79415
997.576	99.59967
997.745	74.29967
997.914	49.00291
998.083	57.4348
998.252	6.8491
998.421	57.4348
998.59	51.11085
998.759	67.97517
998.928	67.97517
999.097	84.84094
999.266	17.38667
999.435	57.4348
999.604	42.67924
999.773	53.21881
999.942	53.21881
1000.111	36.35578
1000.28	122.79415
1000.448	25.81715
1000.617	70.08331
1000.786	53.21881
1000.955	42.67924
1001.124	74.29967
1001.292	148.10019
1001.461	19.49425
1001.63	42.67924
1001.798	36.35578
1001.967	17.38667
1002.136	63.75895
1002.304	57.4348
1002.473	25.81715
1002.642	122.79415
1002.81	-14.22423
1002.979	67.97517
1003.147	2.63424
1003.316	108.03372
1003.484	-10.00976
1003.653	82.73264
1003.821	49.00291
1003.99	91.16598
1004.158	49.00291
1004.327	135.44678
1004.495	40.5714
1004.663	84.84094
1004.832	74.29967
1005	40.5714
1005.168	65.86705
1005.337	34.24801
1005.505	101.70815
1005.673	-1.58052
1005.842	44.78711
1006.01	53.21881
1006.178	36.35578
1006.346	110.14229
1006.514	51.11085
1006.683	70.08331
1006.851	-18.43861
1007.019	108.03372
1007.187	17.38667
1007.355	19.49425
1007.523	53.21881
1007.691	124.90287
1007.859	4.74166
1008.027	17.38667
1008.195	65.86705
1008.363	65.86705
1008.531	-56.36353
1008.699	99.59967
1008.867	32.14026
1009.035	72.19148
1009.203	91.16598
1009.37	-7.90249
1009.538	30.03253
1009.706	65.86705
1009.874	49.00291
1010.042	57.4348
1010.209	19.49425
1010.377	74.29967
1010.545	44.78711
1010.713	61.65088
1010.88	148.10019
1011.048	57.4348
1011.216	82.73264
1011.383	101.70815
1011.551	57.4348
1011.718	61.65088
1011.886	36.35578
1012.054	72.19148
1012.221	99.59967
1012.389	42.67924
1012.556	49.00291
1012.724	-18.43861
1012.891	59.54283
1013.058	-77.42941
1013.226	42.67924
1013.393	57.4348
1013.561	110.14229
1013.728	-39.50901
1013.895	95.38278
1014.063	93.27437
1014.23	57.4348
1014.397	74.29967
1014.565	103.81665
1014.732	36.35578
1014.899	13.17157
1015.066	17.38667
1015.233	2.63424
1015.401	17.38667
1015.568	93.27437
1015.735	53.21881
1015.902	30.03253
1016.069	23.70949
1016.236	25.81715
1016.403	51.11085
1016.57	105.92518
1016.737	91.16598
1016.904	8.95656
1017.071	124.90287
1017.238	78.51611
1017.405	82.73264
1017.572	-22.65289
1017.739	38.46358
1017.906	61.65088
1018.073	76.40788
1018.24	8.95656
1018.407	110.14229
1018.573	8.95656
1018.74	51.11085
1018.907	30.03253
1019.074	63.75895
1019.241	82.73264
1019.407	-58.47023
1019.574	23.70949
1019.741	11.06405
1019.907	19.49425
1020.074	40.5714
1020.241	-3.68787
1020.407	82.73264
1020.574	-47.93647
1020.74	51.11085
1020.907	40.5714
1021.073	55.32679
1021.24	74.29967
1021.406	25.81715
1021.573	30.03253
1021.739	53.21881
1021.906	-12.11701
1022.072	-54.2568
1022.239	49.00291
1022.405	-7.90249
1022.571	17.38667
1022.738	-66.89679
1022.904	23.70949
1023.07	49.00291
1023.237	-73.21644
1023.403	-43.72279
1023.569	-5.79519
1023.735	36.35578
1023.902	70.08331
1024.068	49.00291
1024.234	-22.65289
1024.4	76.40788
1024.566	-14.22423
1024.732	-52.15005
1024.898	46.895
1025.065	-16.33143
1025.231	11.06405
1025.397	116.46812
1025.563	-64.79019
1025.729	15.2791
1025.895	40.5714
1026.061	118.57677
1026.227	-12.11701
1026.392	-1.58052
1026.558	-18.43861
1026.724	-14.22423
1026.89	36.35578
1027.056	32.14026
1027.222	82.73264
1027.388	57.4348
1027.553	-10.00976
1027.719	57.4348
1027.885	21.60186
1028.051	108.03372
1028.216	76.40788
1028.382	70.08331
1028.548	-73.21644
1028.713	11.06405
1028.879	42.67924
1029.045	30.03253
1029.21	25.81715
1029.376	-16.33143
1029.541	59.54283
1029.707	42.67924
1029.873	-35.29512
1030.038	59.54283
1030.204	-20.54576
1030.369	-26.86706
1030.534	74.29967
1030.7	49.00291
1030.865	34.24801
1031.031	25.81715
1031.196	8.95656
1031.361	110.14229
1031.527	-43.72279
1031.692	74.29967
1031.857	-41.61591
1032.023	67.97517
1032.188	59.54283
1032.353	11.06405
1032.518	-1.58052
1032.684	15.2791
1032.849	154.42718
1033.014	76.40788
1033.179	15.2791
1033.344	42.67924
1033.509	6.8491
1033.674	2.63424
1033.839	91.16598
1034.004	25.81715
1034.17	86.94927
1034.335	51.11085
1034.5	-56.36353
1034.664	80.62436
1034.829	89.05761
1034.994	59.54283
1035.159	49.00291
1035.324	91.16598
1035.489	-5.79519
1035.654	21.60186
1035.819	-31.08114
1035.984	2.63424
1036.148	32.14026
1036.313	19.49425
1036.478	61.65088
1036.643	91.16598
1036.807	141.77339
1036.972	57.4348
1037.137	34.24801
1037.301	57.4348
1037.466	61.65088
1037.631	36.35578
1037.795	70.08331
1037.96	53.21881
1038.124	34.24801
1038.289	112.25088
1038.454	-12.11701
1038.618	63.75895
1038.783	15.2791
1038.947	23.70949
1039.111	2.63424
1039.276	32.14026
1039.44	32.14026
1039.605	-14.22423
1039.769	23.70949
1039.933	-1.58052
1040.098	4.74166
1040.262	-5.79519
1040.426	51.11085
1040.591	74.29967
1040.755	32.14026
1040.919	-1.58052
1041.083	-18.43861
1041.248	-54.2568
1041.412	-10.00976
1041.576	42.67924
1041.74	91.16598
1041.904	15.2791
1042.068	67.97517
1042.232	38.46358
1042.397	-75.32294
1042.561	133.33796
1042.725	8.95656
1042.889	27.92483
1043.053	-5.79519
1043.217	25.81715
1043.381	-31.08114
1043.544	57.4348
1043.708	-31.08114
1043.872	17.38667
1044.036	32.14026
1044.2	86.94927
1044.364	23.70949
1044.528	57.4348
1044.691	-24.75999
1044.855	-39.50901
1045.019	118.57677
1045.183	57.4348
1045.346	-14.22423
1045.51	-7.90249
1045.674	57.4348
1045.837	49.00291
1046.001	38.46358
1046.165	74.29967
1046.328	-35.29512
1046.492	32.14026
1046.655	49.00291
1046.819	-20.54576
1046.983	59.54283
1047.146	-16.33143
1047.31	-1.58052
1047.473	55.32679
1047.636	23.70949
1047.8	-7.90249
1047.963	-50.04327
1048.127	-22.65289
1048.29	-10.00976
