Data from mixed_try1_USB4F045381__30__00095.txt Node

Date: Thu Apr 03 19:55:02 EDT 2025
User: mmckonesweet
Spectrometer: USB4F04538
Trigger mode: 4
Integration Time (sec): 2.700000E-3
Scans to average: 1
Electric dark correction enabled: true
Nonlinearity correction enabled: true
Boxcar width: 0
XAxis mode: Wavelengths
Number of Pixels in Spectrum: 3648
>>>>>Begin Spectral Data<<<<<
345.52	-2.98542
345.736	-2.98542
345.952	-2.98542
346.168	115.06236
346.384	-24.05762
346.6	-19.84338
346.816	-61.98135
347.032	-9.30734
347.248	9.65906
347.464	26.51971
347.68	-55.66129
347.896	51.8135
348.112	47.59764
348.328	-57.768
348.544	39.16618
348.76	47.59764
348.975	-17.73622
349.191	64.46165
349.407	45.48974
349.623	-13.52183
349.839	68.67788
350.055	20.19678
350.27	-7.20006
350.486	15.98162
350.702	60.24551
350.918	-7.20006
351.133	56.02946
351.349	41.27401
351.565	-7.20006
351.781	-15.62904
351.996	22.3044
352.212	-0.87807
352.428	-15.62904
352.644	-57.768
352.859	62.35357
353.075	91.86877
353.291	37.05838
353.506	93.97717
353.722	-21.95051
353.938	37.05838
354.153	-15.62904
354.369	39.16618
354.584	-13.52183
354.8	47.59764
355.016	87.65205
355.231	28.62739
355.447	37.05838
355.662	13.87408
355.878	60.24551
356.093	13.87408
356.309	79.21886
356.524	-7.20006
356.74	60.24551
356.955	104.51949
357.171	106.62802
357.386	13.87408
357.602	34.9506
357.817	3.33671
358.033	9.65906
358.248	-13.52183
358.464	34.9506
358.679	62.35357
358.895	83.43541
359.11	-30.3788
359.325	13.87408
359.541	-55.66129
359.756	30.7351
359.972	30.7351
360.187	37.05838
360.402	47.59764
360.618	1.22931
360.833	-55.66129
361.048	30.7351
361.264	77.11062
361.479	28.62739
361.694	-28.27177
361.909	68.67788
362.125	18.08919
362.34	-19.84338
362.555	60.24551
362.77	60.24551
362.986	26.51971
363.201	11.76656
363.416	43.38186
363.631	60.24551
363.847	26.51971
364.062	110.84515
364.277	-32.48582
364.492	70.78603
364.707	43.38186
364.922	-104.10916
365.138	34.9506
365.353	-19.84338
365.568	70.78603
365.783	-5.09275
365.998	37.05838
366.213	-11.4146
366.428	28.62739
366.643	39.16618
366.858	58.13747
367.073	34.9506
367.288	77.11062
367.503	26.51971
367.718	26.51971
367.933	79.21886
368.148	77.11062
368.363	121.38835
368.578	-24.05762
368.793	-15.62904
369.008	32.84284
369.223	13.87408
369.438	77.11062
369.653	30.7351
369.868	62.35357
370.083	26.51971
370.298	-45.12736
370.513	43.38186
370.728	100.3025
370.943	85.54372
371.157	66.56975
371.372	1.22931
371.587	45.48974
371.802	34.9506
372.017	37.05838
372.232	9.65906
372.446	85.54372
372.661	79.21886
372.876	-9.30734
373.091	-0.87807
373.306	37.05838
373.52	51.8135
373.735	-24.05762
373.95	62.35357
374.165	26.51971
374.379	39.16618
374.594	-32.48582
374.809	-32.48582
375.023	77.11062
375.238	1.22931
375.453	26.51971
375.667	26.51971
375.882	9.65906
376.097	51.8135
376.311	47.59764
376.526	51.8135
376.741	41.27401
376.955	70.78603
377.17	13.87408
377.384	-49.34101
377.599	60.24551
377.813	-2.98542
378.028	62.35357
378.242	96.08559
378.457	64.46165
378.672	68.67788
378.886	11.76656
379.101	22.3044
379.315	51.8135
379.53	-21.95051
379.744	-5.09275
379.958	-28.27177
380.173	60.24551
380.387	28.62739
380.602	72.8942
380.816	34.9506
381.031	20.19678
381.245	34.9506
381.459	9.65906
381.674	51.8135
381.888	77.11062
382.103	1.22931
382.317	5.44413
382.531	-2.98542
382.746	28.62739
382.96	5.44413
383.174	43.38186
383.388	56.02946
383.603	11.76656
383.817	43.38186
384.031	-7.20006
384.246	13.87408
384.46	47.59764
384.674	39.16618
384.888	-2.98542
385.103	66.56975
385.317	64.46165
385.531	53.92147
385.745	53.92147
385.959	51.8135
386.174	11.76656
386.388	11.76656
386.602	-11.4146
386.816	1.22931
387.03	18.08919
387.244	22.3044
387.458	56.02946
387.672	70.78603
387.887	-30.3788
388.101	28.62739
388.315	58.13747
388.529	56.02946
388.743	53.92147
388.957	34.9506
389.171	-13.52183
389.385	-2.98542
389.599	-32.48582
389.813	3.33671
390.027	56.02946
390.241	-5.09275
390.455	45.48974
390.669	41.27401
390.883	136.14973
391.097	22.3044
391.311	43.38186
391.525	51.8135
391.738	-45.12736
391.952	1.22931
392.166	-2.98542
392.38	-7.20006
392.594	77.11062
392.808	13.87408
393.022	96.08559
393.236	43.38186
393.449	26.51971
393.663	-30.3788
393.877	-66.19459
394.091	-28.27177
394.305	34.9506
394.518	43.38186
394.732	-40.91361
394.946	60.24551
395.16	-19.84338
395.373	43.38186
395.587	28.62739
395.801	56.02946
396.015	-11.4146
396.228	22.3044
396.442	22.3044
396.656	9.65906
396.869	9.65906
397.083	34.9506
397.297	43.38186
397.51	37.05838
397.724	-24.05762
397.938	98.19403
398.151	-7.20006
398.365	20.19678
398.578	39.16618
398.792	51.8135
399.005	18.08919
399.219	11.76656
399.433	108.73657
399.646	77.11062
399.86	51.8135
400.073	22.3044
400.287	30.7351
400.5	49.70556
400.714	39.16618
400.927	11.76656
401.141	62.35357
401.354	-7.20006
401.567	41.27401
401.781	5.44413
401.994	34.9506
402.208	22.3044
402.421	-11.4146
402.635	60.24551
402.848	47.59764
403.061	45.48974
403.275	51.8135
403.488	18.08919
403.701	-15.62904
403.915	43.38186
404.128	39.16618
404.341	-21.95051
404.555	77.11062
404.768	93.97717
404.981	22.3044
405.195	26.51971
405.408	77.11062
405.621	53.92147
405.834	39.16618
406.048	22.3044
406.261	43.38186
406.474	18.08919
406.687	56.02946
406.9	-38.8067
407.114	9.65906
407.327	47.59764
407.54	-24.05762
407.753	28.62739
407.966	56.02946
408.179	34.9506
408.392	98.19403
408.605	51.8135
408.819	9.65906
409.032	1.22931
409.245	-7.20006
409.458	1.22931
409.671	22.3044
409.884	-24.05762
410.097	26.51971
410.31	11.76656
410.523	26.51971
410.736	66.56975
410.949	-2.98542
411.162	-2.98542
411.375	85.54372
411.588	-7.20006
411.801	56.02946
412.014	-13.52183
412.227	-32.48582
412.44	34.9506
412.653	43.38186
412.865	30.7351
413.078	32.84284
413.291	34.9506
413.504	-30.3788
413.717	89.7604
413.93	89.7604
414.143	70.78603
414.356	56.02946
414.568	43.38186
414.781	98.19403
414.994	3.33671
415.207	3.33671
415.42	26.51971
415.632	-2.98542
415.845	112.95374
416.058	102.41098
416.271	20.19678
416.483	43.38186
416.696	-24.05762
416.909	-19.84338
417.121	32.84284
417.334	26.51971
417.547	119.27966
417.759	-19.84338
417.972	79.21886
418.185	106.62802
418.397	43.38186
418.61	72.8942
418.823	-30.3788
419.035	1.22931
419.248	51.8135
419.46	37.05838
419.673	37.05838
419.885	60.24551
420.098	68.67788
420.311	24.41204
420.523	47.59764
420.736	136.14973
420.948	79.21886
421.161	15.98162
421.373	18.08919
421.586	51.8135
421.798	32.84284
422.01	34.9506
422.223	28.62739
422.435	-5.09275
422.648	-5.09275
422.86	28.62739
423.073	34.9506
423.285	-17.73622
423.497	47.59764
423.71	-7.20006
423.922	-32.48582
424.134	20.19678
424.347	5.44413
424.559	98.19403
424.771	-30.3788
424.984	79.21886
425.196	24.41204
425.408	26.51971
425.621	-2.98542
425.833	64.46165
426.045	62.35357
426.257	-15.62904
426.47	18.08919
426.682	51.8135
426.894	51.8135
427.106	77.11062
427.318	37.05838
427.531	26.51971
427.743	45.48974
427.955	43.38186
428.167	18.08919
428.379	1.22931
428.591	39.16618
428.804	43.38186
429.016	37.05838
429.228	72.8942
429.44	51.8135
429.652	13.87408
429.864	64.46165
430.076	3.33671
430.288	81.32712
430.5	-70.40773
430.712	13.87408
430.924	9.65906
431.136	72.8942
431.348	104.51949
431.56	51.8135
431.772	51.8135
431.984	83.43541
432.196	28.62739
432.408	121.38835
432.62	9.65906
432.832	9.65906
433.044	37.05838
433.256	68.67788
433.468	-40.91361
433.679	13.87408
433.891	26.51971
434.103	81.32712
434.315	93.97717
434.527	-11.4146
434.739	-7.20006
434.95	34.9506
435.162	-7.20006
435.374	72.8942
435.586	62.35357
435.798	30.7351
436.009	39.16618
436.221	30.7351
436.433	-15.62904
436.645	60.24551
436.856	-26.16471
437.068	123.49705
437.28	5.44413
437.491	62.35357
437.703	-5.09275
437.915	11.76656
438.126	-5.09275
438.338	77.11062
438.55	3.33671
438.761	-9.30734
438.973	-2.98542
439.184	-7.20006
439.396	22.3044
439.608	3.33671
439.819	18.08919
440.031	34.9506
440.242	-11.4146
440.454	28.62739
440.665	32.84284
440.877	22.3044
441.088	-2.98542
441.3	85.54372
441.511	51.8135
441.723	39.16618
441.934	-13.52183
442.146	62.35357
442.357	45.48974
442.569	51.8135
442.78	77.11062
442.991	34.9506
443.203	129.82329
443.414	32.84284
443.626	-30.3788
443.837	91.86877
444.048	13.87408
444.26	89.7604
444.471	-24.05762
444.682	20.19678
444.894	-11.4146
445.105	9.65906
445.316	-5.09275
445.528	110.84515
445.739	28.62739
445.95	5.44413
446.161	13.87408
446.373	51.8135
446.584	68.67788
446.795	56.02946
447.006	47.59764
447.217	45.48974
447.429	-9.30734
447.64	51.8135
447.851	102.41098
448.062	1.22931
448.273	37.05838
448.484	1.22931
448.695	30.7351
448.907	9.65906
449.118	9.65906
449.329	43.38186
449.54	-11.4146
449.751	-32.48582
449.962	89.7604
450.173	37.05838
450.384	72.8942
450.595	22.3044
450.806	77.11062
451.017	20.19678
451.228	20.19678
451.439	22.3044
451.65	60.24551
451.861	77.11062
452.072	60.24551
452.283	39.16618
452.494	115.06236
452.705	58.13747
452.915	13.87408
453.126	93.97717
453.337	39.16618
453.548	11.76656
453.759	39.16618
453.97	51.8135
454.181	43.38186
454.391	53.92147
454.602	1.22931
454.813	70.78603
455.024	60.24551
455.235	72.8942
455.445	-19.84338
455.656	85.54372
455.867	18.08919
456.078	102.41098
456.288	-21.95051
456.499	83.43541
456.71	89.7604
456.921	32.84284
457.131	115.06236
457.342	26.51971
457.553	1.22931
457.763	98.19403
457.974	32.84284
458.184	81.32712
458.395	110.84515
458.606	39.16618
458.816	77.11062
459.027	58.13747
459.237	117.171
459.448	28.62739
459.659	56.02946
459.869	-36.69976
460.08	53.92147
460.29	60.24551
460.501	93.97717
460.711	62.35357
460.922	26.51971
461.132	45.48974
461.343	121.38835
461.553	68.67788
461.764	102.41098
461.974	77.11062
462.184	28.62739
462.395	45.48974
462.605	62.35357
462.816	51.8135
463.026	5.44413
463.236	62.35357
463.447	18.08919
463.657	138.25859
463.867	77.11062
464.078	11.76656
464.288	39.16618
464.498	39.16618
464.709	-13.52183
464.919	47.59764
465.129	62.35357
465.339	68.67788
465.55	-36.69976
465.76	-57.768
465.97	121.38835
466.18	87.65205
466.391	56.02946
466.601	77.11062
466.811	64.46165
467.021	51.8135
467.231	108.73657
467.441	85.54372
467.651	13.87408
467.862	-30.3788
468.072	70.78603
468.282	83.43541
468.492	77.11062
468.702	102.41098
468.912	41.27401
469.122	85.54372
469.332	34.9506
469.542	-7.20006
469.752	60.24551
469.962	112.95374
470.172	64.46165
470.382	13.87408
470.592	70.78603
470.802	22.3044
471.012	22.3044
471.222	136.14973
471.432	91.86877
471.642	60.24551
471.852	51.8135
472.062	72.8942
472.272	85.54372
472.482	79.21886
472.691	117.171
472.901	37.05838
473.111	51.8135
473.321	85.54372
473.531	75.0024
473.741	104.51949
473.95	110.84515
474.16	26.51971
474.37	49.70556
474.58	127.71452
474.79	-2.98542
474.999	26.51971
475.209	104.51949
475.419	127.71452
475.628	96.08559
475.838	79.21886
476.048	102.41098
476.258	98.19403
476.467	77.11062
476.677	140.36746
476.886	169.89395
477.096	68.67788
477.306	68.67788
477.515	102.41098
477.725	131.93208
477.935	37.05838
478.144	140.36746
478.354	144.58528
478.563	136.14973
478.773	96.08559
478.982	53.92147
479.192	186.76807
479.401	153.02117
479.611	70.78603
479.82	115.06236
480.03	119.27966
480.239	144.58528
480.449	77.11062
480.658	108.73657
480.868	161.45739
481.077	93.97717
481.287	117.171
481.496	100.3025
481.705	131.93208
481.915	184.65873
482.124	150.91217
482.333	178.33085
482.543	250.05744
482.752	161.45739
482.961	205.753
483.171	172.00315
483.38	174.11236
483.589	178.33085
483.799	190.9868
484.008	226.84928
484.217	220.52019
484.426	245.8376
484.636	138.25859
484.845	237.39815
485.054	216.30089
485.263	182.54942
485.472	273.26793
485.682	256.38735
485.891	136.14973
486.1	163.5665
486.309	283.8189
486.518	300.70142
486.727	188.87742
486.936	195.20561
487.146	283.8189
487.355	199.42451
487.564	283.8189
487.773	197.31505
487.982	212.08167
488.191	266.93757
488.4	315.47458
488.609	254.27736
488.818	309.14312
489.027	334.46994
489.236	304.92223
489.445	275.37808
489.654	273.26793
489.863	269.04767
490.072	315.47458
490.281	315.47458
490.49	296.48068
490.698	404.13155
490.907	298.59104
491.116	321.80621
491.325	342.91278
491.534	326.02738
491.743	340.80204
491.952	437.91335
492.16	465.36403
492.369	313.36408
492.578	357.68842
492.787	452.69416
492.996	389.35331
493.204	465.36403
493.413	410.46532
493.622	456.91739
493.831	323.91679
494.039	503.37689
494.248	473.81092
494.457	518.16095
494.665	478.03445
494.874	549.84342
495.083	558.2926
495.291	545.61891
495.5	440.02485
495.709	592.09148
495.917	516.0489
496.126	647.02168
496.335	617.44283
496.543	670.26386
496.752	482.25804
496.96	623.78095
497.169	526.6093
497.377	604.76693
497.586	642.79598
497.794	676.60289
498.003	566.742
498.211	659.69906
498.42	723.09218
498.628	655.47322
498.837	697.73371
499.045	621.66823
499.254	712.52596
499.462	710.41275
499.671	535.05787
499.879	678.71592
500.087	653.36032
500.296	746.3388
500.504	754.79243
500.713	644.90883
500.921	773.81369
501.129	769.58667
501.338	583.64144
501.546	769.58667
501.754	803.40391
501.962	826.65467
502.171	651.24742
502.379	820.31344
502.587	744.22541
502.795	898.52741
503.004	744.22541
503.212	881.6153
503.42	839.33737
503.628	902.75551
503.837	752.679
504.045	892.18531
504.253	748.45219
504.461	883.72929
504.669	862.58981
504.877	985.20956
505.085	839.33737
505.294	1004.23891
505.502	898.52741
505.71	980.98088
505.918	993.66698
506.126	1004.23891
506.334	934.4673
506.542	1048.64267
506.75	898.52741
506.958	1006.35331
507.166	985.20956
507.374	983.09522
507.582	890.07129
507.79	1200.90125
507.998	1057.10082
508.206	1114.19554
508.414	1052.87173
508.622	949.2667
508.83	1008.46772
509.037	1099.39286
509.245	964.06646
509.453	1205.13096
509.661	1088.81965
509.869	1203.0161
510.077	980.98088
510.285	1192.44187
510.492	1126.88374
510.7	1234.73929
510.908	1183.98254
511.116	1217.82017
511.324	1173.40847
511.531	1236.8542
511.739	1203.0161
511.947	1194.55671
512.155	1099.39286
512.362	1234.73929
512.57	1141.68685
512.778	1285.49774
512.985	1277.0379
513.193	1277.0379
513.401	1378.55795
513.608	1442.00933
513.816	1272.80799
514.024	1340.4875
514.231	1387.0181
514.439	1281.26782
514.646	1289.72768
514.854	1389.13314
515.061	1429.31902
515.269	1382.78803
515.477	1448.35449
515.684	1448.35449
515.892	1334.14247
516.099	1505.46083
516.307	1395.47827
516.514	1490.65551
516.722	1446.23943
516.929	1490.65551
517.136	1568.91171
517.344	1602.75169
517.551	1442.00933
517.759	1613.32658
517.966	1526.61123
518.173	1636.59117
518.381	1446.23943
518.588	1600.6367
518.796	1535.07136
519.003	1632.36126
519.21	1535.07136
519.418	1623.90143
519.625	1518.15108
519.832	1592.17674
520.039	1547.76153
520.247	1678.88967
520.454	1632.36126
520.661	1938.99308
520.868	1575.25674
521.076	1884.01772
521.283	1687.34924
521.49	1839.61195
521.697	1818.46561
521.904	1829.03884
522.112	1674.65987
522.319	1903.04807
522.526	1721.18705
522.733	1951.67915
522.94	1911.50586
523.147	1750.79442
523.354	1843.84117
523.561	1936.87871
523.768	1886.13222
523.975	2139.82819
524.183	1786.74526
524.39	1930.53557
524.597	2010.87794
524.804	2051.04564
525.011	1977.05066
525.218	2038.36137
525.425	2059.50168
525.632	1945.33614
525.838	2044.70353
526.045	2089.09691
526.252	1879.78869
526.459	2139.82819
526.666	2032.01914
526.873	2129.25954
527.08	2029.90505
527.287	2135.60076
527.494	1979.16492
527.701	2334.25335
527.907	2061.61567
528.114	2230.71015
528.321	2167.30575
528.528	2283.5411
528.735	2186.32787
528.941	2118.6907
529.148	2023.56274
529.355	2268.74901
529.562	2232.82349
529.768	2313.12392
529.975	2055.27367
530.182	2330.02754
530.388	2122.91826
530.595	2397.63568
530.802	2304.67187
531.008	2617.28555
531.215	2232.82349
531.422	2475.7943
531.628	2344.81769
531.835	2484.24299
532.042	2418.76107
532.248	2463.12093
532.455	2275.08854
532.661	2505.36393
532.868	2515.92397
533.074	2598.28235
533.281	2363.8329
533.487	2638.39905
533.694	2372.28384
533.9	2634.17645
534.107	2452.55949
534.313	2705.95379
534.52	2505.36393
534.726	2815.70161
534.933	2625.7311
535.139	2674.28912
535.345	2731.28341
535.552	2760.83224
535.758	2676.40019
535.965	2849.46275
536.171	2686.95534
536.377	2866.34197
536.584	2735.50483
536.79	2824.14223
536.996	2767.16379
537.203	2908.53602
537.409	2636.28775
537.615	2990.79759
537.821	2781.93693
538.028	2868.45181
538.234	2916.97414
538.44	2819.92195
538.646	2815.70161
538.853	2836.80274
539.059	2792.48877
539.265	2978.14344
539.471	2781.93693
539.677	3121.52476
539.883	2860.01237
540.09	3151.03541
540.296	3161.57416
540.502	3250.08349
540.708	2940.17775
540.914	3102.55197
541.12	3136.28048
541.326	3389.1094
541.532	3237.44109
541.738	3250.08349
541.944	3047.7345
542.15	3511.22052
542.356	3182.65045
542.562	3313.28637
542.768	3220.58363
542.974	3462.80438
543.18	3241.65529
543.386	3544.89563
543.592	3260.61837
543.798	3420.69563
544.004	3376.4738
544.21	3450.1725
544.415	3334.35058
544.621	3547.00017
544.827	3323.81869
545.033	3618.54341
545.239	3473.33044
545.445	3454.3832
545.651	3123.63277
545.856	3534.37266
546.062	3540.6865
546.268	3534.37266
546.474	3477.54074
546.679	3528.05866
546.885	3441.7509
547.091	3488.06617
547.297	3553.31367
547.502	3694.27138
547.708	3469.12007
547.914	3599.60759
548.119	3412.27303
548.325	3483.85605
548.531	3557.52258
548.736	3734.22892
548.942	3456.48852
549.147	3395.42697
549.353	3641.68512
549.559	3851.95764
549.764	3700.58092
549.97	3790.99867
550.175	3534.37266
550.381	3843.5505
550.586	3439.64545
550.792	3826.73525
550.997	3561.73142
551.203	3732.12607
551.408	3759.46167
551.614	3822.53125
551.819	3654.30691
552.025	4104.02167
552.23	3841.44866
552.435	3986.42834
552.641	3826.73525
552.846	4089.32605
553.052	3896.08993
553.257	4070.43019
553.462	3839.34681
553.668	4160.69516
553.873	4047.33297
554.078	4049.43282
554.283	3915.00106
554.489	4045.2331
554.694	3879.27867
554.899	4177.48436
555.105	4020.03303
555.31	4187.97693
555.515	4137.6078
555.72	4259.31231
555.925	4164.89259
556.131	4095.6243
556.336	3929.70859
556.541	4122.91453
556.746	4072.52982
556.951	4257.21456
557.156	4196.3706
557.361	4162.79388
557.567	4206.86221
557.772	4242.52973
557.977	4215.25512
558.182	4603.04913
558.387	4271.89835
558.592	4416.58201
558.797	4110.31948
559.002	4229.9419
559.207	4301.26277
559.412	4385.13782
559.617	4232.03992
559.822	4492.02798
560.027	4215.25512
560.232	4483.6465
560.437	4288.67853
560.642	4452.21282
560.847	4385.13782
561.051	4569.53988
561.256	4324.33186
561.461	4376.75188
561.666	4393.52342
561.871	4757.95476
562.076	4347.39833
562.281	4741.21415
562.485	4303.36007
562.69	4418.67812
562.895	4359.97895
563.1	4554.8778
563.305	4498.31386
563.509	4590.48383
563.714	4550.68843
563.919	4531.83518
564.123	4598.86079
564.328	4573.72885
564.533	4473.16916
564.737	4584.20088
564.942	4431.25429
565.147	4787.24733
565.351	4757.95476
565.556	4450.11707
565.761	4613.5196
565.965	4699.35631
566.17	4580.01214
566.374	4824.90266
566.579	4634.45886
566.784	4632.36503
566.988	4760.04723
567.193	4829.08613
567.397	4797.70788
567.602	4981.72018
567.806	4651.20865
568.011	5073.65957
568.215	4774.69391
568.42	4977.54006
568.624	4764.23211
568.828	4990.08016
569.033	4464.78689
569.237	5121.70096
569.442	4879.28066
569.646	4718.19346
569.85	4850.00211
570.055	4958.72836
570.259	4870.91581
570.463	5069.48148
570.668	4877.18948
570.872	5071.57054
571.076	5004.70922
571.281	4990.08016
571.485	4810.25979
571.689	5100.81491
571.893	5084.10439
572.098	5073.65957
572.302	5054.85743
572.506	4983.81021
572.71	4958.72836
572.914	5384.66548
573.119	5090.37101
573.323	5094.54864
573.527	4996.34989
573.731	5309.57064
573.935	5205.22192
574.139	5182.25737
574.343	4856.27646
574.547	5217.74685
574.751	5328.3472
574.955	5518.09227
575.159	5259.49054
575.364	5228.18365
575.568	5092.45984
575.772	5522.2603
575.976	5297.05188
576.18	5263.6644
576.383	5146.76116
576.587	5272.01183
576.791	5232.3582
576.995	5576.43617
577.199	5102.90362
577.403	5276.18541
577.607	5259.49054
577.811	5415.94602
578.015	5351.29374
578.219	5330.43336
578.422	5359.63724
578.626	5376.32311
578.83	5470.1531
579.034	5313.74337
579.238	5445.13642
579.442	5817.94967
579.645	5509.75592
579.849	5611.85024
580.053	5518.09227
580.257	5593.10247
580.46	5334.60563
580.664	5641.00966
580.868	5234.44545
581.071	5722.21507
581.275	5436.79678
581.479	5757.60106
581.682	5559.76837
581.886	5605.6012
582.09	5634.7616
582.293	5682.65794
582.497	5476.40674
582.7	5792.98024
582.904	5530.59609
583.107	5605.6012
583.311	5745.11267
583.515	5838.75493
583.718	5651.42261
583.922	5599.35194
584.125	5570.18592
584.329	5784.65634
584.532	5776.33206
584.735	5896.9971
584.939	5495.16639
585.142	5857.47765
585.346	5955.22079
585.549	5880.35837
585.753	5751.35697
585.956	5942.74584
586.159	5751.35697
586.363	6025.89613
586.566	5919.8729
586.769	6034.20908
586.973	5628.51333
587.176	6077.84592
587.379	5901.15655
587.582	6086.15652
587.786	5784.65634
587.989	6136.01223
588.192	6148.47404
588.395	6071.61272
588.599	5892.83756
588.802	6177.54831
589.005	6021.73951
589.208	6235.68306
589.411	6034.20908
589.615	6075.76821
589.818	6052.91185
590.021	6140.16626
590.224	6266.81911
590.427	6312.4758
590.63	6136.01223
590.833	6300.0251
591.036	6133.93517
591.239	6488.77053
591.442	6279.27206
591.645	6351.89747
591.848	6183.77791
592.051	6383.01389
592.254	6268.89466
592.457	6287.57355
592.66	6185.8544
592.863	6548.87971
593.066	6200.38915
593.269	6397.53309
593.472	6374.71669
593.675	6443.15744
593.878	6225.3032
594.081	6320.7758
594.284	6300.0251
594.486	6501.20851
594.689	6432.78926
594.892	6459.74532
595.095	6449.37806
595.298	6548.87971
595.5	6291.72416
595.703	6774.63381
595.906	6519.86392
596.109	6648.32805
596.311	6414.12507
596.514	6401.68123
596.717	6565.45813
596.92	6933.94764
597.122	6656.61301
597.325	6706.31506
597.528	6540.58995
597.73	6844.9968
597.933	6524.00931
598.136	6929.81132
598.338	6847.0659
598.541	6921.53841
598.743	6820.16581
598.946	6708.38569
599.148	6658.68419
599.351	6847.0659
599.554	6751.86367
599.756	6774.63381
599.959	6780.84337
600.161	6931.87949
600.363	6818.09642
600.566	6832.58172
600.768	6515.71843
600.971	6772.56391
601.173	6751.86367
601.376	6917.40182
601.578	6871.89334
601.78	6774.63381
601.983	6679.39476
602.185	6840.85853
602.388	6888.44315
602.59	6927.74313
602.792	6772.56391
602.995	7062.12881
603.197	6826.37387
603.399	6973.23817
603.601	6859.48003
603.804	6724.94992
604.006	6956.69578
604.208	6584.10708
604.41	7055.92848
604.613	6981.50882
604.815	6851.20403
605.017	6950.49201
605.219	6793.26188
605.421	7012.52055
605.623	6983.57642
605.826	7190.22389
606.028	6863.61789
606.23	6954.62788
606.432	7022.85667
606.634	7202.61565
606.836	6917.40182
607.038	7031.12516
607.24	6832.58172
607.442	7190.22389
607.644	6925.67491
607.846	7301.72111
608.048	6791.19218
608.25	7309.97761
608.452	7144.78059
608.654	7334.745
608.856	7049.72796
609.058	7161.30667
609.26	7107.59171
609.462	7219.13675
609.664	6871.89334
609.866	7279.01392
610.067	7150.97804
610.269	7153.04381
610.471	7196.41987
610.673	7458.53483
610.875	7276.9495
611.077	7204.68086
611.278	7153.04381
611.48	7132.3851
611.682	6913.26514
611.884	7291.39999
612.085	7196.41987
612.287	7349.19119
612.489	7167.50358
612.69	7279.01392
612.892	7105.52545
613.094	7285.20705
613.295	7186.09312
613.497	7369.82674
613.699	7202.61565
613.9	7215.00661
614.102	7229.46173
614.304	7353.31847
614.505	6995.98159
614.707	7386.33362
614.908	7237.72131
615.11	7524.52417
615.311	7264.56251
615.513	7326.48955
615.714	7155.10956
615.916	7190.22389
616.117	7322.3617
616.319	7343.00009
616.52	7301.72111
616.722	7268.6916
616.923	7425.53186
617.124	7452.34719
617.326	7367.76329
617.527	7495.65655
617.729	7072.46224
617.93	7444.09671
618.131	7442.03404
618.333	7225.3318
618.534	6756.0039
618.735	7413.15431
618.937	7338.87259
619.138	7400.77599
619.339	7210.87638
619.54	7318.23375
619.742	7421.4061
619.943	7510.09088
620.144	7136.51702
620.345	7378.08036
620.546	7161.30667
620.748	7656.43698
620.949	7204.68086
621.15	7272.82059
621.351	7049.72796
621.552	7314.10572
621.753	7396.64971
621.954	7499.78075
622.155	7512.15285
622.356	7483.28342
622.558	7613.16272
622.759	7485.34566
622.96	7293.46426
623.161	7376.01698
623.362	7510.09088
623.563	7609.04087
623.764	7181.96227
623.965	7707.94177
624.166	7549.26449
624.366	7681.16093
624.567	7301.72111
624.768	7468.84712
624.969	7425.53186
625.17	7495.65655
625.371	7450.28461
625.572	7854.1438
625.773	7639.95265
625.973	7656.43698
626.174	7495.65655
626.375	7561.63349
626.576	7380.1437
626.777	7782.08554
626.977	7423.46899
627.178	7677.04048
627.379	7512.15285
627.58	7574.00172
627.78	7464.72227
627.981	7738.83832
628.182	7666.73899
628.382	7847.96837
628.583	7411.09131
628.784	7672.91995
628.984	7297.59273
629.185	7858.26064
629.386	7501.84282
629.586	7837.67559
629.787	7510.09088
629.987	7644.07386
630.188	7400.77599
630.388	7674.98022
630.589	7707.94177
630.79	7740.89792
630.99	7510.09088
631.191	7767.67083
631.391	7475.03423
631.591	7860.31903
631.792	7648.19498
631.992	7761.49278
632.193	7580.18555
632.393	7759.43339
632.594	7446.15936
632.794	7726.48026
632.994	7584.30799
633.195	7996.12732
633.395	7862.3774
633.595	7998.18433
633.796	7668.79933
633.996	7847.96837
634.196	7668.79933
634.397	7773.84869
634.597	7823.26481
634.797	7804.73517
634.997	7697.64187
635.198	7689.40156
635.398	7660.55785
635.598	7808.85302
635.798	7606.97991
635.998	7924.11892
636.199	7792.38114
636.399	7969.38427
636.599	7691.46167
636.799	7981.72764
636.999	7812.97078
637.199	7977.61327
637.399	7911.7721
637.599	7825.32355
637.799	7759.43339
637.999	8088.6729
638.199	7903.54048
638.399	8004.35526
638.599	7613.16272
638.799	8047.54659
638.999	7769.73014
639.199	7992.01323
639.399	7920.0034
639.599	7998.18433
639.799	7979.67047
639.999	8127.73542
640.199	7699.70189
640.399	7815.02962
640.599	7543.0797
640.799	8372.22715
640.998	7961.15494
641.198	8191.4535
641.398	8057.82893
641.598	8061.94172
641.798	7946.75284
641.997	8133.90253
642.197	7950.86783
642.397	8125.67968
642.597	8010.526
642.796	8304.45483
642.996	8070.16706
643.196	8324.99414
643.395	7887.07624
643.595	8320.88643
643.795	7948.81034
643.994	8103.0652
644.194	7911.7721
644.394	8047.54659
644.593	8117.45651
644.793	8168.84606
644.992	8010.526
645.192	8080.44828
645.392	8033.15047
645.591	8333.20931
645.791	8043.43352
645.99	8119.51233
646.19	8177.06722
646.389	7996.12732
646.589	8166.79071
646.788	8265.42474
646.987	8076.33585
647.187	8251.04345
647.386	8183.23289
647.586	8314.72472
647.785	8072.22334
647.984	8355.79944
648.184	8166.79071
648.383	8220.22314
648.582	8057.82893
648.782	8355.79944
648.981	8275.69651
649.18	8374.28053
649.38	7977.61327
649.579	8318.83255
649.778	8359.90649
649.977	8396.86639
650.177	8183.23289
650.376	8310.61682
650.575	8133.90253
650.774	8349.63873
650.973	8248.9889
651.173	8409.18497
651.372	8084.56063
651.571	8341.42418
651.77	8251.04345
651.969	8290.07615
652.168	8148.29174
652.367	8528.22894
652.566	8160.62457
652.765	8359.90649
652.964	8283.91356
653.163	8610.29104
653.362	8585.67557
653.561	8376.33388
653.76	8195.56369
653.959	8109.23302
654.158	8462.55746
654.357	8417.39696
654.556	7940.5802
654.755	8296.23856
654.954	8288.02197
655.153	8483.08189
655.352	8439.97837
655.551	8364.01345
655.749	8345.53149
655.948	8474.87235
656.147	8505.65657
656.346	8563.10901
656.545	8546.69554
656.743	8698.47443
656.942	8366.06691
657.141	8296.23856
657.34	8421.50285
657.538	8320.88643
657.737	8476.92476
657.936	8589.77834
658.135	8265.42474
658.333	8682.07081
658.532	8497.44786
658.731	8753.82792
658.929	8242.82514
659.128	8478.97716
659.326	8327.04796
659.525	8513.86497
659.724	8396.86639
659.922	8600.03492
660.121	8534.38464
660.319	8429.71438
660.518	8265.42474
660.716	8275.69651
660.915	8341.42418
661.113	8657.46317
661.312	8390.70684
661.51	8626.69986
661.709	8361.95998
661.907	8659.51391
662.105	8413.291
662.304	8790.72284
662.502	8497.44786
662.701	8747.6782
662.899	8372.22715
663.097	8725.12778
663.296	8585.67557
663.494	8632.85285
663.692	8466.6625
663.891	8645.15835
664.089	8435.87284
664.287	8934.14741
664.485	8476.92476
664.684	8813.26683
664.882	8583.62416
665.08	8548.74729
665.278	8364.01345
665.476	8579.52128
665.675	8470.76746
665.873	8606.18865
666.071	8446.13654
666.269	8606.18865
666.467	8470.76746
666.665	8632.85285
666.863	8579.52128
667.061	8661.56463
667.259	8737.42828
667.457	8571.3153
667.655	8614.39336
667.853	8647.2092
668.051	8462.55746
668.249	8692.32321
668.447	8388.65362
668.645	8413.291
668.843	8669.76732
669.041	8610.29104
669.239	8446.13654
669.437	8856.29929
669.635	8737.42828
669.833	8651.31084
670.031	8396.86639
670.229	8550.79902
670.426	8585.67557
670.624	8745.62825
670.822	8587.72696
671.02	8577.46981
671.218	8468.71499
671.415	8439.97837
671.613	8577.46981
671.811	8778.42519
672.009	8585.67557
672.206	8661.56463
672.404	8540.54018
672.602	8501.55225
672.799	8347.58512
672.997	8932.09911
673.195	8630.80187
673.392	8684.12133
673.59	8421.50285
673.788	8544.64377
673.985	8429.71438
674.183	8478.97716
674.38	8419.44992
674.578	8688.22231
674.775	8556.9541
674.973	8530.28086
675.17	8437.92561
675.368	8513.86497
675.565	8478.97716
675.763	8655.41241
675.96	8275.69651
676.158	8651.31084
676.355	8446.13654
676.553	8995.58834
676.75	8413.291
676.947	8749.72812
677.145	8415.34399
677.342	8647.2092
677.539	8628.75087
677.737	8782.52448
677.934	8380.44054
678.131	8725.12778
678.329	8306.50885
678.526	8538.48835
678.723	8602.08618
678.92	8657.46317
679.118	8470.76746
679.315	8474.87235
679.512	8423.55576
679.709	8680.02028
679.906	8384.54712
680.104	8468.71499
680.301	8212.00364
680.498	8380.44054
680.695	8288.02197
680.892	8706.67579
681.089	8216.11343
681.286	8429.71438
681.483	8275.69651
681.68	8388.65362
681.877	8146.2362
682.075	8370.17376
682.272	8380.44054
682.469	8659.51391
682.665	8427.66153
682.862	8503.60442
683.059	8292.1303
683.256	8536.43651
683.453	8368.12034
683.65	8261.3159
683.847	8343.47785
684.044	8283.91356
684.241	8179.12247
684.438	8396.86639
684.635	8294.18444
684.831	8714.87686
685.028	8388.65362
685.225	8462.55746
685.422	8138.01383
685.619	8405.07885
685.815	8251.04345
686.012	8675.91915
686.209	8341.42418
686.405	8513.86497
686.602	8168.84606
686.799	8220.22314
686.996	8230.49707
687.192	8109.23302
687.389	8187.34324
687.586	8357.85297
687.782	8179.12247
687.979	8320.88643
688.175	8138.01383
688.372	7992.01323
688.568	7899.42454
688.765	8183.23289
688.962	8061.94172
689.158	8248.9889
689.355	8121.56814
689.551	8135.95819
689.748	8094.84115
689.944	8002.2983
690.14	7961.15494
690.337	8047.54659
690.533	8189.39838
690.73	8037.26375
690.926	7944.69531
691.123	8251.04345
691.319	7940.5802
691.515	8359.90649
691.712	8051.65959
691.908	8240.77051
692.104	7994.07028
692.301	8257.20698
692.497	7989.95615
692.693	8242.82514
692.889	7944.69531
693.086	8018.75336
693.282	7866.49408
693.478	8177.06722
693.674	8070.16706
693.87	7940.5802
694.067	7656.43698
694.263	8150.34726
694.459	7815.02962
694.655	8020.81015
694.851	7839.73418
695.047	8199.6738
695.243	8177.06722
695.439	8096.89719
695.635	7932.34972
695.831	7944.69531
696.027	7845.90986
696.224	7759.43339
696.42	7952.92529
696.615	8039.32036
696.811	8059.88533
697.007	8105.12116
697.203	7874.72719
697.399	8212.00364
697.595	7862.3774
697.791	7897.36654
697.987	7712.06158
698.183	8068.11075
698.379	7823.26481
698.575	8341.42418
698.77	7930.29205
698.966	8002.2983
699.162	7751.19561
699.358	8076.33585
699.554	7674.98022
699.749	8002.2983
699.945	8059.88533
700.141	8185.28807
700.337	7932.34972
700.532	8275.69651
700.728	7747.0766
700.924	7911.7721
701.119	7738.83832
701.315	7815.02962
701.511	7790.32207
701.706	7992.01323
701.902	7952.92529
702.097	7845.90986
702.293	7796.49924
702.489	8020.81015
702.684	7858.26064
702.88	8010.526
703.075	7771.78942
703.271	7732.65938
703.466	8029.03712
703.662	7693.52176
703.857	7815.02962
704.053	7979.67047
704.248	7891.19242
704.443	8096.89719
704.639	7747.0766
704.834	8092.78508
705.03	7763.55215
705.225	7913.82996
705.42	7716.18131
705.616	7889.13434
705.811	7806.7941
706.006	7833.55832
706.202	7907.65633
706.397	7845.90986
706.592	7841.79276
706.787	8076.33585
706.983	7922.06117
707.178	7952.92529
707.373	7874.72719
707.568	7623.46696
707.763	7691.46167
707.959	7839.73418
708.154	7858.26064
708.349	7872.66895
708.544	7874.72719
708.739	7920.0034
708.934	7526.58598
709.129	7841.79276
709.324	7683.22112
709.519	7852.08534
709.714	7845.90986
709.909	8024.92368
710.104	7755.31454
710.299	7808.85302
710.494	7757.37397
710.689	7845.90986
710.884	7664.67863
711.079	7862.3774
711.274	7730.5997
711.469	7909.71423
711.664	7769.73014
711.859	7913.82996
712.054	7734.71905
712.249	7712.06158
712.443	7738.83832
712.638	7761.49278
712.833	7367.76329
713.028	7693.52176
713.223	7297.59273
713.417	7767.67083
713.612	7644.07386
713.807	7831.49966
714.002	7689.40156
714.196	7755.31454
714.391	7707.94177
714.586	7695.58182
714.78	7503.90487
714.975	7689.40156
715.17	7543.0797
715.364	7860.31903
715.559	7419.34318
715.754	7627.58851
715.948	7435.84588
716.143	7516.27671
716.337	7475.03423
716.532	7580.18555
716.726	7606.97991
716.921	7767.67083
717.115	7392.52334
717.31	7705.88183
717.504	7435.84588
717.699	7598.73588
717.893	7318.23375
718.088	7541.01806
718.282	7557.51058
718.476	7559.57204
718.671	7245.98054
718.865	7437.90862
719.059	7179.89681
719.254	7462.65981
719.448	7444.09671
719.642	7526.58598
719.837	7037.3263
720.031	7334.745
720.225	7204.68086
720.419	7355.38208
720.614	7144.78059
720.808	7559.57204
721.002	7301.72111
721.196	7493.59441
721.39	7256.30408
721.585	7503.90487
721.779	7074.52886
721.973	7402.8391
722.167	7037.3263
722.361	7355.38208
722.555	7318.23375
722.749	7491.53226
722.943	7128.25309
723.137	7460.59733
723.331	7254.23941
723.525	7404.90218
723.719	7231.52666
723.913	7334.745
724.107	7086.9281
724.301	7314.10572
724.495	7235.65645
724.689	7334.745
724.883	7305.8494
725.077	7334.745
725.271	7142.71473
725.465	7188.15851
725.659	6888.44315
725.853	7272.82059
726.046	7262.49793
726.24	7262.49793
726.434	7043.52723
726.628	7144.78059
726.822	7080.72858
727.015	7351.25484
727.209	7095.19381
727.403	7186.09312
727.596	7101.39286
727.79	7291.39999
727.984	7287.27139
728.177	7557.51058
728.371	6884.30583
728.565	7161.30667
728.758	7070.3956
728.952	7179.89681
729.146	7053.86166
729.339	7330.61732
729.533	7018.72229
729.726	7223.26681
729.92	7008.38595
730.113	7186.09312
730.307	7140.64885
730.5	7264.56251
730.694	7097.26018
730.887	7334.745
731.081	7140.64885
731.274	7136.51702
731.468	6813.95755
731.661	7161.30667
731.854	7000.11647
732.048	7119.98881
732.241	6871.89334
732.435	6938.08387
732.628	6921.53841
732.821	7101.39286
733.014	6921.53841
733.208	7012.52055
733.401	7024.92383
733.594	7012.52055
733.788	6921.53841
733.981	7177.83133
734.174	6998.04904
734.367	7378.08036
734.56	7212.9415
734.754	7181.96227
734.947	7237.72131
735.14	7254.23941
735.333	7153.04381
735.526	7051.79482
735.719	6795.33155
735.912	6933.94764
736.105	6834.65095
736.298	6950.49201
736.491	6884.30583
736.684	6904.9915
736.877	6724.94992
737.07	7016.65507
737.263	7165.43797
737.456	6958.76366
737.649	7053.86166
737.842	7184.02771
738.035	6950.49201
738.228	7169.56918
738.421	6975.30586
738.614	6838.78936
738.807	7031.12516
739	6979.44119
739.192	6892.58037
739.385	6958.76366
739.578	7074.52886
739.771	7215.00661
739.964	6832.58172
740.156	7080.72858
740.349	6784.98296
740.542	7161.30667
740.735	6950.49201
740.927	7068.32893
741.12	6913.26514
741.313	6917.40182
741.505	6929.81132
741.698	6960.83151
741.891	6824.30454
742.083	7136.51702
742.276	6886.3745
742.468	7091.061
742.661	6969.1027
742.854	6890.51177
743.046	6909.12837
743.239	6838.78936
743.431	6907.05995
743.624	7008.38595
743.816	6780.84337
744.009	7006.31861
744.201	6811.88809
744.393	6805.67956
744.586	6948.42405
744.778	6975.30586
744.971	6720.809
745.163	6882.23714
745.355	6826.37387
745.548	6644.18543
745.74	6720.809
745.932	6704.24441
746.125	6756.0039
746.317	6855.34208
746.509	6698.03231
746.702	6619.32777
746.894	6762.21408
747.086	6482.55122
747.278	6559.2414
747.471	6867.75566
747.663	6782.91318
747.855	6998.04904
748.047	6606.8977
748.239	6789.12247
748.431	6600.68236
748.623	6948.42405
748.815	6764.28409
749.008	6956.69578
749.2	7057.99528
749.392	6876.03093
749.584	6735.30182
749.776	6756.0039
749.968	6561.31366
750.16	6737.37213
750.352	6689.74918
750.544	6598.61053
750.736	6722.87947
750.928	6840.85853
751.12	6758.07398
751.311	6648.32805
751.503	6606.8977
751.695	6625.5425
751.887	6627.61403
752.079	6811.88809
752.271	6588.25104
752.463	6737.37213
752.654	6432.78926
752.846	6648.32805
753.038	6524.00931
753.23	6760.14404
753.421	6619.32777
753.613	6681.46569
753.805	6457.67191
753.997	6739.44242
754.188	6335.2999
754.38	6393.38487
754.572	6457.67191
754.763	6499.13557
754.955	6356.04663
755.146	6557.16911
755.338	6308.32566
755.53	6497.06261
755.721	6368.49355
755.913	6399.60717
756.104	6300.0251
756.296	6553.02446
756.487	6490.84358
756.679	6801.54042
756.87	6324.92566
757.062	6254.36532
757.253	6457.67191
757.445	6449.37806
757.636	6279.27206
757.827	6341.52416
758.019	6360.1957
758.21	6374.71669
758.401	6258.51668
758.593	6418.27283
758.784	6057.06777
758.975	6221.15109
759.167	6100.69917
759.358	6235.68306
759.549	6175.47173
759.74	6200.38915
759.932	6158.85823
760.123	6248.13811
760.314	6196.23648
760.505	6270.97019
760.696	6113.16337
760.888	6246.06233
761.079	6131.8581
761.27	6291.72416
761.461	5951.06257
761.652	6212.8466
761.843	5884.5182
762.034	6212.8466
762.225	5745.11267
762.416	6094.46674
762.607	5992.64054
762.798	6027.9744
762.989	5788.81834
763.18	5917.7934
763.371	5834.59406
763.562	5940.6666
763.753	5940.6666
763.944	5990.56186
764.135	5892.83756
764.326	6142.24324
764.517	5888.67793
764.708	6054.98982
764.899	5786.73735
765.089	5840.83532
765.28	5749.27556
765.471	5969.77382
765.662	5711.80612
765.853	5926.11126
766.043	5828.35259
766.234	5919.8729
766.425	5709.72426
766.615	5969.77382
766.806	5718.05156
766.997	5847.07637
767.187	5670.16445
767.378	5867.87833
767.569	5786.73735
767.759	5953.14169
767.95	6009.26908
768.141	5924.03183
768.331	5713.88796
768.522	5961.45794
768.712	5722.21507
768.903	5738.86815
769.093	5568.10246
769.284	5588.93604
769.474	5534.76384
769.665	5580.60289
769.855	5601.43505
770.046	5663.91738
770.236	5634.7616
770.426	5682.65794
770.617	5676.4113
770.807	5595.18565
770.998	5630.59611
771.188	5624.3477
771.378	5509.75592
771.569	5684.74011
771.759	5436.79678
771.949	5345.03588
772.139	5438.88173
772.33	5378.40874
772.52	5342.94987
772.71	5480.57572
772.9	5453.47569
773.09	5455.56045
773.281	5322.08855
773.471	5555.60118
773.661	5551.4339
773.851	5484.7446
774.041	5267.83816
774.231	5397.17833
774.421	5198.95914
774.611	5288.70557
774.802	5259.49054
774.992	5228.18365
775.182	5175.99382
775.372	5276.18541
775.562	5161.37806
775.752	5422.2015
775.942	4971.2697
776.131	5357.5514
776.321	5134.23148
776.511	5303.31136
776.701	5069.48148
776.891	5367.98036
777.081	5255.3166
777.271	5190.60844
777.461	5232.3582
777.651	5021.42677
777.84	5094.54864
778.03	5052.76818
778.22	4942.00528
778.41	5286.61893
778.599	5253.22959
778.789	5201.04676
778.979	5175.99382
779.169	5167.6421
779.358	4912.73636
779.548	5092.45984
779.738	4929.46201
779.927	5301.22489
780.117	5000.5296
780.307	5201.04676
780.496	5142.58469
780.686	5100.81491
780.875	5044.41098
781.065	5033.96396
781.254	4960.81864
781.444	5067.3924
781.633	4839.54441
781.823	4866.73326
782.012	4812.3517
782.202	5075.74858
782.391	4615.61362
782.581	4843.72756
782.77	4875.09828
782.96	4829.08613
783.149	4492.02798
783.338	4785.15515
783.528	4841.63599
783.717	4904.37298
783.906	4858.36787
784.096	4833.26951
784.285	4743.30681
784.474	4655.39588
784.663	4659.58301
784.853	4757.95476
785.042	4598.86079
785.231	4877.18948
785.42	4613.5196
785.61	4615.61362
785.799	4651.20865
785.988	4594.67235
786.177	4433.35024
786.366	4489.93264
786.555	4508.78988
786.744	4389.33067
786.933	4632.36503
787.122	4837.4528
787.312	4540.21462
787.501	4787.24733
787.69	4515.07522
787.879	4632.36503
788.068	4452.21282
788.257	4492.02798
788.445	4359.97895
788.634	4686.7972
788.823	4617.70763
789.012	4542.30943
789.201	4232.03992
789.39	4357.88223
789.579	4424.9663
789.768	4540.21462
789.957	4498.31386
790.145	4649.11501
790.334	4290.77596
790.523	4221.54958
790.712	4276.09352
790.9	4519.26534
791.089	4246.7255
791.278	4531.83518
791.467	4334.81694
791.655	4653.30228
791.844	4238.33387
792.033	4223.64769
792.221	4062.03149
792.41	4133.40983
792.599	3929.70859
792.787	4397.71609
792.976	4368.36559
793.164	4529.74026
793.353	4265.60543
793.541	4510.88501
793.73	4097.72367
793.918	4288.67853
794.107	4028.43339
794.295	4158.59641
794.484	4278.19108
794.672	4339.01083
794.861	4181.68145
795.049	4250.92119
795.238	4106.12096
795.426	4313.84623
795.614	4257.21456
795.803	4240.43181
795.991	4257.21456
796.179	4190.07538
796.368	4292.87336
796.556	4221.54958
796.744	4049.43282
796.932	4064.1312
797.121	3994.83001
797.309	4162.79388
797.497	4143.90461
797.685	4330.62297
797.874	4013.73255
798.062	4175.38578
798.25	3961.22139
798.438	3961.22139
798.626	3858.26279
798.814	4246.7255
799.002	4038.93336
799.19	4213.15693
799.378	4024.23325
799.566	4011.63235
799.755	3845.65231
799.943	4028.43339
800.131	3967.52341
800.318	4091.42549
800.506	3801.51002
800.694	4064.1312
800.882	3944.41513
801.07	3936.01152
801.258	3614.33558
801.446	3982.22739
801.634	3801.51002
801.822	3919.20331
802.01	3868.77098
802.197	4032.63344
802.385	3843.5505
802.573	3978.02635
802.761	3982.22739
802.949	3988.52879
803.136	3988.52879
803.324	4146.0035
803.512	4114.51791
803.699	4007.43189
803.887	3797.30554
804.075	4255.11679
804.262	3963.32209
804.45	4158.59641
804.638	3931.80959
804.825	3994.83001
805.013	3980.12688
805.201	4080.9281
805.388	3994.83001
805.576	3994.83001
805.763	3807.81659
805.951	3961.22139
806.138	3751.05107
806.326	3996.93037
806.513	3868.77098
806.701	3910.79873
806.888	3751.05107
807.075	4038.93336
807.263	3959.12068
807.45	4080.9281
807.638	3931.80959
807.825	4164.89259
808.012	3826.73525
808.2	4108.22023
808.387	3973.82524
808.574	4087.2266
808.761	3923.40549
808.949	4219.45145
809.136	3893.98859
809.323	4148.10237
809.51	3683.75508
809.698	4154.39886
809.885	3704.78719
810.072	4013.73255
810.259	3971.72465
810.446	4066.23088
810.633	3931.80959
810.82	4171.18857
811.008	3929.70859
811.195	4190.07538
811.382	3944.41513
811.569	4072.52982
811.756	3839.34681
811.943	4162.79388
812.13	3973.82524
812.317	4133.40983
812.504	4093.5249
812.691	4187.97693
812.878	4257.21456
813.064	4179.58292
813.251	3965.42276
813.438	4194.27221
813.625	3954.9192
813.812	4068.33055
813.999	3839.34681
814.186	4003.23134
814.372	3778.3844
814.559	4099.82303
814.746	3908.69753
814.933	4028.43339
815.12	3837.24493
815.306	3860.36447
815.493	3864.56777
815.68	4043.13321
815.866	3915.00106
816.053	4078.82856
816.24	3837.24493
816.426	3978.02635
816.613	4007.43189
816.799	4070.43019
816.986	3927.60758
817.173	4114.51791
817.359	3795.20327
817.546	4213.15693
817.732	3847.75411
817.919	4028.43339
818.105	3801.51002
818.292	4024.23325
818.478	3952.81843
818.665	4011.63235
818.851	3879.27867
819.037	3931.80959
819.224	3860.36447
819.41	3883.4816
819.597	3660.61754
819.783	3978.02635
819.969	3906.59631
820.156	3946.51599
820.342	3824.63326
820.528	4041.03329
820.714	3788.89634
820.901	4038.93336
821.087	3856.1611
821.273	3933.91056
821.459	4011.63235
821.646	4051.53265
821.832	3818.32716
822.018	4003.23134
822.204	3692.16815
822.39	3730.02319
822.576	3679.54842
822.762	3868.77098
822.948	3582.77448
823.134	3902.39382
823.32	3582.77448
823.507	3629.06265
823.693	3818.32716
823.879	3719.50853
824.065	3778.3844
824.25	3835.14303
824.436	3458.59382
824.622	3809.91875
824.808	3742.64015
824.994	3774.17948
825.18	3626.95884
825.366	3696.37458
825.552	3412.27303
825.738	3830.93918
825.923	3433.329
826.109	3797.30554
826.295	3460.69911
826.481	3776.28195
826.667	3778.3844
826.852	3734.22892
827.038	3595.39943
827.224	3734.22892
827.409	3700.58092
827.595	3650.09972
827.781	3481.75097
827.966	3443.85633
828.152	3365.94365
828.338	3637.47771
828.523	3427.0124
828.709	3631.16644
828.894	3414.3787
829.08	3574.35748
829.266	3216.36909
829.451	3380.68574
829.637	3296.43377
829.822	3387.00351
830.008	3283.7936
830.193	3561.73142
830.378	3216.36909
830.564	3391.21527
830.749	3349.0945
830.935	3448.06713
831.12	3201.61771
831.305	3538.5819
831.491	3170.00487
831.676	3391.21527
831.861	3197.40287
832.047	3435.4345
832.232	3247.97647
832.417	3507.0108
832.602	3119.41673
832.788	3405.95589
832.973	3382.79168
833.158	3563.83581
833.343	3247.97647
833.528	3528.05866
833.714	3214.2618
833.899	3384.8976
834.084	3214.2618
834.269	3363.83756
834.454	3110.98448
834.639	3229.01249
834.824	3174.22013
835.009	3380.68574
835.194	3170.00487
835.379	3170.00487
835.564	3085.68619
835.749	3220.58363
835.934	3191.0805
836.119	3376.4738
836.304	2988.6886
836.489	3283.7936
836.674	2954.94276
836.859	3144.71196
837.044	3138.38837
837.228	3182.65045
837.413	2942.28708
837.598	3342.77578
837.783	3009.7778
837.968	3096.22742
838.152	2849.46275
838.337	3157.35871
838.522	2961.27039
838.707	3077.25292
838.891	2948.61498
839.076	3018.21305
839.261	2935.95904
839.445	2957.05198
839.63	2705.95379
839.815	2893.76876
839.999	2729.17268
840.184	2866.34197
840.368	2931.74028
840.553	2957.05198
840.737	2916.97414
840.922	3102.55197
841.106	2722.84041
841.291	2933.84967
841.475	2556.04952
841.66	2722.84041
841.844	2613.0627
842.029	2792.48877
842.213	2644.73285
842.397	2640.51033
842.582	2655.28895
842.766	2748.16877
842.951	2526.48373
843.135	2642.6216
843.319	2781.93693
843.504	2710.17552
843.688	2629.9538
843.872	2689.06633
844.056	2545.49057
844.241	2710.17552
844.425	2562.38475
844.609	2733.39413
844.793	2680.62229
844.977	2714.3972
845.161	2600.39386
845.346	2623.61973
845.53	2613.0627
845.714	2781.93693
845.898	2486.35513
846.082	2532.81945
846.266	2585.613
846.45	2705.95379
846.634	2475.7943
846.818	2737.61552
847.002	2384.95994
847.186	2642.6216
847.37	2220.14328
847.554	2608.8398
847.738	2342.70484
847.922	2537.04321
848.106	2461.00867
848.29	2488.46727
848.473	2401.86084
848.657	2300.4458
848.841	2370.17112
849.025	2397.63568
849.209	2220.14328
849.392	2488.46727
849.576	2334.25335
849.76	2418.76107
849.944	2384.95994
850.127	2503.25188
850.311	2247.61667
850.495	2505.36393
850.678	2277.20169
850.862	2501.13983
851.046	2315.2369
851.229	2414.53608
851.413	2209.5762
851.596	2283.5411
851.78	2228.59679
851.964	2494.8036
852.147	2156.73762
852.331	2355.3818
852.514	2173.64653
852.698	2313.12392
852.881	1905.16252
853.065	2086.98301
853.248	2021.44862
853.431	2272.97537
853.615	1993.96451
853.798	2186.32787
853.982	2002.42128
854.165	2199.00891
854.348	2114.4631
854.532	2169.41936
854.715	2055.27367
854.898	2097.55243
855.081	1943.22179
855.265	2266.63582
855.448	2139.82819
855.631	2205.34931
855.814	2040.47543
855.997	2182.10079
856.181	2125.03203
856.364	2148.28297
856.547	1989.73608
856.73	2012.99209
856.913	1947.45048
857.096	2095.43856
857.279	1945.33614
857.462	2133.48703
857.645	1793.08941
857.828	2133.48703
858.011	1955.9078
858.194	2099.66629
858.377	1903.04807
858.56	1979.16492
858.743	1801.54821
858.926	2025.67685
859.109	1733.87601
859.292	1835.38272
859.475	1848.07036
859.658	1890.36121
859.841	1778.28634
860.023	2036.2473
860.206	1820.58026
860.389	2067.9576
860.572	1604.86667
860.755	1835.38272
860.937	1674.65987
861.12	1841.72656
861.303	1676.77477
861.486	1767.71261
861.668	1742.33524
861.851	1824.80956
862.034	1666.20023
862.216	1953.79348
862.399	1414.51368
862.581	1725.41671
862.764	1558.33664
862.947	1587.94675
863.129	1668.31515
863.312	1590.06175
863.494	1615.44155
863.677	1733.87601
863.859	1547.76153
864.042	1805.77759
864.224	1668.31515
864.406	1700.03851
864.589	1511.80596
864.771	1556.22162
864.954	1473.73511
865.136	1786.74526
865.318	1482.19531
865.501	1636.59117
865.683	1408.16853
865.865	1642.93601
866.048	1556.22162
866.23	1556.22162
866.412	1488.54046
866.594	1480.08026
866.777	1518.15108
866.959	1611.21161
867.141	1482.19531
867.323	1615.44155
867.505	1425.08892
867.687	1484.31036
867.869	1389.13314
868.052	1418.74377
868.234	1403.93844
868.416	1645.05095
868.598	1471.62006
868.78	1518.15108
868.962	1480.08026
869.144	1583.71675
869.326	1412.39863
869.508	1458.92975
869.69	1416.62872
869.872	1513.921
870.054	1319.33745
870.236	1556.22162
870.417	1361.6377
870.599	1486.42541
870.781	1389.13314
870.963	1406.05349
871.145	1287.61271
871.327	1389.13314
871.508	1200.90125
871.69	1281.26782
871.872	1234.73929
872.054	1258.0034
872.235	1334.14247
872.417	1344.71753
872.599	1319.33745
872.78	1488.54046
872.962	1327.79745
873.144	1471.62006
873.325	1321.45245
873.507	1431.43407
873.689	1209.36068
873.87	1403.93844
874.052	1253.77354
874.233	1422.97387
874.415	1268.5781
874.596	1414.51368
874.778	1334.14247
874.959	1302.41753
875.141	1243.19893
875.322	1461.0448
875.503	1287.61271
875.685	1488.54046
875.866	1287.61271
876.048	1431.43407
876.229	1348.94757
876.41	1378.55795
876.592	1279.15286
876.773	1374.32789
876.954	1164.94928
877.136	1384.90307
877.317	1200.90125
877.498	1270.69304
877.679	1183.98254
877.86	1243.19893
878.042	1194.55671
878.223	1463.15985
878.404	1217.82017
878.585	1511.80596
878.766	1133.2279
878.947	1448.35449
879.128	1219.93505
879.309	1336.25748
879.49	1177.63809
879.672	1378.55795
879.853	1192.44187
880.034	1327.79745
880.215	1264.34821
880.396	1444.12438
880.576	1414.51368
880.757	1372.21285
880.938	1245.31384
881.119	1551.99158
881.3	1141.68685
881.481	1378.55795
881.662	1230.50949
881.843	1477.96521
882.023	1238.96911
882.204	1452.58459
882.385	1255.88846
882.566	1302.41753
882.747	1302.41753
882.927	1507.57587
883.108	1310.87747
883.289	1353.17761
883.469	1310.87747
883.65	1361.6377
883.831	1268.5781
884.011	1541.41645
884.192	1249.54368
884.373	1530.8413
884.553	1365.86776
884.734	1403.93844
884.914	1414.51368
885.095	1522.38116
885.275	1312.99246
885.456	1378.55795
885.636	1270.69304
885.817	1528.72626
885.997	1376.44292
886.178	1412.39863
886.358	1374.32789
886.538	1323.56744
886.719	1395.47827
886.899	1431.43407
887.08	1293.95762
887.26	1395.47827
887.44	1304.53251
887.621	1522.38116
887.801	1196.67155
887.981	1399.70835
888.161	1211.47555
888.342	1277.0379
888.522	1268.5781
888.702	1416.62872
888.882	1194.55671
889.062	1321.45245
889.242	1247.42876
889.423	1272.80799
889.603	1128.99846
889.783	1336.25748
889.963	1336.25748
890.143	1446.23943
890.323	1177.63809
890.503	1372.21285
890.683	1158.60493
890.863	1545.64651
891.043	1329.91245
891.223	1482.19531
891.403	1181.86772
891.583	1412.39863
891.763	1255.88846
891.943	1361.6377
892.122	1215.70529
892.302	1439.89428
892.482	1285.49774
892.662	1291.84265
892.842	1296.07259
893.022	1336.25748
893.201	1222.04993
893.381	1391.24818
893.561	1116.31023
893.741	1260.11833
893.92	1236.8542
894.1	1425.08892
894.28	1236.8542
894.459	1387.0181
894.639	1226.27971
894.819	1253.77354
894.998	1099.39286
895.178	1310.87747
895.357	1109.96618
895.537	1158.60493
895.716	1232.62439
895.896	1300.30255
896.075	1175.52328
896.255	1243.19893
896.434	1167.06407
896.614	1200.90125
896.793	1135.34263
896.973	1241.08402
897.152	1150.14586
897.331	1116.31023
897.511	1044.41363
897.69	1116.31023
897.87	1109.96618
898.049	1109.96618
898.228	1008.46772
898.407	968.29503
898.587	970.40932
898.766	1033.84112
898.945	845.67884
899.124	1076.13198
899.304	955.60942
899.483	1010.58214
899.662	877.38736
899.841	1031.72664
900.02	989.43826
900.199	1067.67363
900.378	887.95728
900.557	1116.31023
900.737	911.21182
900.916	1095.16356
901.095	955.60942
901.274	964.06646
901.453	926.01066
901.632	934.4673
901.811	790.72215
901.989	883.72929
902.168	841.45119
902.347	976.75224
902.526	773.81369
902.705	826.65467
902.884	797.06299
903.063	875.2734
903.242	756.90586
903.42	930.23896
903.599	718.86566
903.778	805.51757
903.957	752.679
904.135	896.41337
904.314	790.72215
904.493	746.3388
904.672	767.47318
904.85	839.33737
905.029	729.43204
905.207	873.15945
905.386	778.04075
905.565	864.70372
905.743	661.812
905.922	862.58981
906.1	680.82896
906.279	748.45219
906.457	551.95569
906.636	676.60289
906.814	549.84342
906.993	594.20402
907.171	619.55552
907.35	708.29955
907.528	570.96678
907.707	606.87955
907.885	501.26494
908.063	634.34474
908.242	560.40493
908.42	638.57033
908.598	543.50667
908.777	541.39445
908.955	560.40493
909.133	638.57033
909.311	615.33015
909.49	602.65432
909.668	482.25804
909.846	604.76693
910.024	507.60084
910.202	600.54173
910.38	414.68792
910.559	602.65432
910.737	484.36986
910.915	541.39445
911.093	387.2422
911.271	606.87955
911.449	507.60084
911.627	661.812
911.805	501.26494
911.983	596.31658
912.161	490.7054
912.339	617.44283
912.517	568.85439
912.695	670.26386
912.872	499.153
913.05	644.90883
913.228	608.99218
913.406	598.42915
913.584	465.36403
913.762	632.23195
913.939	566.742
914.117	598.42915
914.295	554.06798
914.473	587.86644
914.65	524.49719
914.828	558.2926
915.006	490.7054
915.184	710.41275
915.361	520.27302
915.539	634.34474
915.716	473.81092
915.894	577.30405
916.072	473.81092
916.249	589.97895
916.427	549.84342
916.604	583.64144
916.782	450.58257
916.959	585.75393
917.137	518.16095
917.314	549.84342
917.492	465.36403
917.669	524.49719
917.847	467.47573
918.024	509.71283
918.201	509.71283
918.379	507.60084
918.556	410.46532
918.733	480.14624
918.911	357.68842
919.088	520.27302
919.265	406.24279
919.442	410.46532
919.62	442.13636
919.797	459.02903
919.974	391.46444
920.151	393.57558
920.328	391.46444
920.506	549.84342
920.683	433.6904
920.86	431.57895
921.037	355.57756
921.214	448.471
921.391	351.3559
921.568	444.24789
921.745	380.90897
921.922	499.153
922.099	389.35331
922.276	467.47573
922.453	429.46752
922.63	433.6904
922.807	473.81092
922.984	402.02032
923.161	435.80187
923.338	429.46752
923.514	302.81182
923.691	391.46444
923.868	389.35331
924.045	414.68792
924.222	393.57558
924.399	469.58744
924.575	349.24509
924.752	440.02485
924.929	410.46532
925.105	418.91058
925.282	410.46532
925.459	475.92268
925.635	368.24296
925.812	334.46994
925.989	252.16739
926.165	275.37808
926.342	247.94751
926.518	288.03942
926.695	317.58511
926.871	364.02109
927.048	313.36408
927.224	355.57756
927.401	228.95901
927.577	340.80204
927.754	294.37034
927.93	262.71742
928.107	222.62986
928.283	323.91679
928.459	216.30089
928.636	321.80621
928.812	207.86254
928.988	271.15779
929.165	218.41053
929.341	279.59846
929.517	294.37034
929.693	279.59846
929.87	330.24862
930.046	262.71742
930.222	247.94751
930.398	247.94751
930.574	224.73956
930.751	239.50798
930.927	220.52019
931.103	269.04767
931.279	146.69422
931.455	279.59846
931.631	228.95901
931.807	199.42451
931.983	205.753
932.159	172.00315
932.335	252.16739
932.511	161.45739
932.687	195.20561
932.863	228.95901
933.039	127.71452
933.215	188.87742
933.391	190.9868
933.566	214.19127
933.742	146.69422
933.918	220.52019
934.094	197.31505
934.27	241.61784
934.445	180.44012
934.621	157.23924
934.797	112.95374
934.973	228.95901
935.148	127.71452
935.324	231.06877
935.5	148.80318
935.675	138.25859
935.851	212.08167
936.027	241.61784
936.202	96.08559
936.378	121.38835
936.553	123.49705
936.729	195.20561
936.904	131.93208
937.08	89.7604
937.255	89.7604
937.431	20.19678
937.606	159.34831
937.782	77.11062
937.957	96.08559
938.133	129.82329
938.308	172.00315
938.483	108.73657
938.659	197.31505
938.834	136.14973
939.009	62.35357
939.185	-13.52183
939.36	11.76656
939.535	77.11062
939.71	108.73657
939.886	104.51949
940.061	127.71452
940.236	117.171
940.411	127.71452
940.586	68.67788
940.761	127.71452
940.937	30.7351
941.112	146.69422
941.287	112.95374
941.462	104.51949
941.637	146.69422
941.812	131.93208
941.987	41.27401
942.162	51.8135
942.337	119.27966
942.512	70.78603
942.687	115.06236
942.862	108.73657
943.037	39.16618
943.212	15.98162
943.386	43.38186
943.561	110.84515
943.736	-0.87807
943.911	34.9506
944.086	45.48974
944.26	15.98162
944.435	3.33671
944.61	37.05838
944.785	3.33671
944.959	77.11062
945.134	1.22931
945.309	96.08559
945.483	68.67788
945.658	43.38186
945.833	34.9506
946.007	68.67788
946.182	30.7351
946.357	3.33671
946.531	9.65906
946.706	79.21886
946.88	11.76656
947.055	26.51971
947.229	108.73657
947.404	-30.3788
947.578	28.62739
947.752	43.38186
947.927	77.11062
948.101	106.62802
948.276	51.8135
948.45	43.38186
948.624	81.32712
948.799	-7.20006
948.973	64.46165
949.147	72.8942
949.321	26.51971
949.496	58.13747
949.67	26.51971
949.844	-13.52183
950.018	98.19403
950.193	70.78603
950.367	119.27966
950.541	-5.09275
950.715	87.65205
950.889	112.95374
951.063	60.24551
951.237	9.65906
951.411	112.95374
951.585	70.78603
951.759	89.7604
951.933	102.41098
952.107	98.19403
952.281	161.45739
952.455	85.54372
952.629	11.76656
952.803	110.84515
952.977	77.11062
953.151	146.69422
953.325	64.46165
953.499	117.171
953.672	104.51949
953.846	102.41098
954.02	81.32712
954.194	79.21886
954.368	102.41098
954.541	56.02946
954.715	110.84515
954.889	77.11062
955.062	39.16618
955.236	77.11062
955.41	75.0024
955.583	98.19403
955.757	56.02946
955.93	45.48974
956.104	45.48974
956.278	49.70556
956.451	100.3025
956.625	77.11062
956.798	20.19678
956.972	45.48974
957.145	64.46165
957.319	26.51971
957.492	87.65205
957.665	102.41098
957.839	106.62802
958.012	60.24551
958.185	131.93208
958.359	68.67788
958.532	81.32712
958.705	68.67788
958.879	66.56975
959.052	83.43541
959.225	24.41204
959.398	68.67788
959.572	119.27966
959.745	51.8135
959.918	102.41098
960.091	15.98162
960.264	47.59764
960.438	60.24551
960.611	-26.16471
960.784	43.38186
960.957	-7.20006
961.13	112.95374
961.303	26.51971
961.476	70.78603
961.649	93.97717
961.822	60.24551
961.995	110.84515
962.168	98.19403
962.341	85.54372
962.514	56.02946
962.686	102.41098
962.859	45.48974
963.032	79.21886
963.205	106.62802
963.378	56.02946
963.551	87.65205
963.723	37.05838
963.896	93.97717
964.069	26.51971
964.242	104.51949
964.414	93.97717
964.587	49.70556
964.76	110.84515
964.932	106.62802
965.105	106.62802
965.278	81.32712
965.45	91.86877
965.623	85.54372
965.795	72.8942
965.968	-15.62904
966.14	77.11062
966.313	66.56975
966.485	64.46165
966.658	47.59764
966.83	129.82329
967.003	-2.98542
967.175	85.54372
967.348	47.59764
967.52	43.38186
967.692	72.8942
967.865	68.67788
968.037	26.51971
968.209	34.9506
968.382	-2.98542
968.554	37.05838
968.726	117.171
968.898	106.62802
969.071	68.67788
969.243	30.7351
969.415	51.8135
969.587	51.8135
969.759	68.67788
969.932	60.24551
970.104	28.62739
970.276	-13.52183
970.448	70.78603
970.62	106.62802
970.792	32.84284
970.964	22.3044
971.136	39.16618
971.308	24.41204
971.48	26.51971
971.652	34.9506
971.824	51.8135
971.996	28.62739
972.168	39.16618
972.339	49.70556
972.511	-19.84338
972.683	34.9506
972.855	60.24551
973.027	56.02946
973.199	-19.84338
973.37	70.78603
973.542	89.7604
973.714	79.21886
973.886	26.51971
974.057	102.41098
974.229	45.48974
974.401	-24.05762
974.572	106.62802
974.744	43.38186
974.915	18.08919
975.087	89.7604
975.259	26.51971
975.43	60.24551
975.602	70.78603
975.773	77.11062
975.945	58.13747
976.116	58.13747
976.288	43.38186
976.459	62.35357
976.63	134.0409
976.802	60.24551
976.973	51.8135
977.145	60.24551
977.316	39.16618
977.487	98.19403
977.659	87.65205
977.83	43.38186
978.001	85.54372
978.172	60.24551
978.344	70.78603
978.515	79.21886
978.686	64.46165
978.857	121.38835
979.028	32.84284
979.2	30.7351
979.371	60.24551
979.542	32.84284
979.713	79.21886
979.884	79.21886
980.055	51.8135
980.226	81.32712
980.397	83.43541
980.568	60.24551
980.739	87.65205
980.91	60.24551
981.081	72.8942
981.252	66.56975
981.423	-36.69976
981.594	60.24551
981.765	34.9506
981.936	91.86877
982.106	58.13747
982.277	37.05838
982.448	39.16618
982.619	79.21886
982.79	20.19678
982.96	81.32712
983.131	56.02946
983.302	108.73657
983.472	-53.55456
983.643	157.23924
983.814	70.78603
983.984	77.11062
984.155	60.24551
984.326	81.32712
984.496	-7.20006
984.667	53.92147
984.837	125.60578
985.008	64.46165
985.178	32.84284
985.349	-49.34101
985.519	62.35357
985.69	-2.98542
985.86	81.32712
986.031	108.73657
986.201	45.48974
986.371	43.38186
986.542	85.54372
986.712	64.46165
986.882	34.9506
987.053	-13.52183
987.223	45.48974
987.393	-7.20006
987.563	72.8942
987.734	93.97717
987.904	110.84515
988.074	-32.48582
988.244	47.59764
988.414	66.56975
988.585	87.65205
988.755	89.7604
988.925	-15.62904
989.095	18.08919
989.265	53.92147
989.435	53.92147
989.605	77.11062
989.775	3.33671
989.945	60.24551
990.115	9.65906
990.285	9.65906
990.455	3.33671
990.625	32.84284
990.795	20.19678
990.965	75.0024
991.134	112.95374
991.304	30.7351
991.474	26.51971
991.644	58.13747
991.814	18.08919
991.984	60.24551
992.153	60.24551
992.323	51.8135
992.493	-15.62904
992.662	3.33671
992.832	26.51971
993.002	-7.20006
993.171	28.62739
993.341	34.9506
993.511	26.51971
993.68	34.9506
993.85	34.9506
994.019	60.24551
994.189	58.13747
994.358	-9.30734
994.528	115.06236
994.697	85.54372
994.867	15.98162
995.036	13.87408
995.206	1.22931
995.375	43.38186
995.544	22.3044
995.714	47.59764
995.883	62.35357
996.052	62.35357
996.222	-15.62904
996.391	129.82329
996.56	51.8135
996.73	-7.20006
996.899	34.9506
997.068	28.62739
997.237	24.41204
997.406	64.46165
997.576	37.05838
997.745	34.9506
997.914	85.54372
998.083	66.56975
998.252	9.65906
998.421	51.8135
998.59	15.98162
998.759	30.7351
998.928	49.70556
999.097	39.16618
999.266	-38.8067
999.435	60.24551
999.604	-7.20006
999.773	39.16618
999.942	98.19403
1000.111	9.65906
1000.28	43.38186
1000.448	98.19403
1000.617	144.58528
1000.786	13.87408
1000.955	-15.62904
1001.124	-30.3788
1001.292	49.70556
1001.461	-17.73622
1001.63	43.38186
1001.798	28.62739
1001.967	129.82329
1002.136	18.08919
1002.304	98.19403
1002.473	-5.09275
1002.642	51.8135
1002.81	119.27966
1002.979	-26.16471
1003.147	43.38186
1003.316	32.84284
1003.484	53.92147
1003.653	68.67788
1003.821	70.78603
1003.99	68.67788
1004.158	53.92147
1004.327	77.11062
1004.495	28.62739
1004.663	-49.34101
1004.832	70.78603
1005	102.41098
1005.168	26.51971
1005.337	136.14973
1005.505	1.22931
1005.673	51.8135
1005.842	96.08559
1006.01	60.24551
1006.178	60.24551
1006.346	83.43541
1006.514	-2.98542
1006.683	91.86877
1006.851	9.65906
1007.019	-24.05762
1007.187	28.62739
1007.355	85.54372
1007.523	-19.84338
1007.691	112.95374
1007.859	39.16618
1008.027	-9.30734
1008.195	11.76656
1008.363	77.11062
1008.531	24.41204
1008.699	-40.91361
1008.867	70.78603
1009.035	47.59764
1009.203	41.27401
1009.37	62.35357
1009.538	9.65906
1009.706	34.9506
1009.874	37.05838
1010.042	43.38186
1010.209	18.08919
1010.377	34.9506
1010.545	-13.52183
1010.713	53.92147
1010.88	20.19678
1011.048	28.62739
1011.216	72.8942
1011.383	43.38186
1011.551	26.51971
1011.718	51.8135
1011.886	30.7351
1012.054	28.62739
1012.221	24.41204
1012.389	110.84515
1012.556	-13.52183
1012.724	117.171
1012.891	34.9506
1013.058	62.35357
1013.226	-26.16471
1013.393	18.08919
1013.561	34.9506
1013.728	39.16618
1013.895	47.59764
1014.063	18.08919
1014.23	68.67788
1014.397	70.78603
1014.565	9.65906
1014.732	119.27966
1014.899	39.16618
1015.066	15.98162
1015.233	-38.8067
1015.401	43.38186
1015.568	22.3044
1015.735	11.76656
1015.902	64.46165
1016.069	85.54372
1016.236	1.22931
1016.403	34.9506
1016.57	102.41098
1016.737	62.35357
1016.904	81.32712
1017.071	51.8135
1017.238	47.59764
1017.405	64.46165
1017.572	11.76656
1017.739	64.46165
1017.906	43.38186
1018.073	34.9506
1018.24	-24.05762
1018.407	51.8135
1018.573	-5.09275
1018.74	-49.34101
1018.907	3.33671
1019.074	20.19678
1019.241	18.08919
1019.407	7.55158
1019.574	41.27401
1019.741	104.51949
1019.907	-13.52183
1020.074	43.38186
1020.241	-17.73622
1020.407	53.92147
1020.574	-7.20006
1020.74	117.171
1020.907	-7.20006
1021.073	43.38186
1021.24	20.19678
1021.406	62.35357
1021.573	9.65906
1021.739	-21.95051
1021.906	39.16618
1022.072	51.8135
1022.239	7.55158
1022.405	53.92147
1022.571	51.8135
1022.738	-2.98542
1022.904	104.51949
1023.07	20.19678
1023.237	26.51971
1023.403	93.97717
1023.569	34.9506
1023.735	15.98162
1023.902	-30.3788
1024.068	47.59764
1024.234	-30.3788
1024.4	51.8135
1024.566	-2.98542
1024.732	51.8135
1024.898	121.38835
1025.065	-11.4146
1025.231	26.51971
1025.397	37.05838
1025.563	47.59764
1025.729	-15.62904
1025.895	9.65906
1026.061	22.3044
1026.227	49.70556
1026.392	1.22931
1026.558	64.46165
1026.724	13.87408
1026.89	106.62802
1027.056	1.22931
1027.222	58.13747
1027.388	60.24551
1027.553	9.65906
1027.719	68.67788
1027.885	70.78603
1028.051	77.11062
1028.216	-2.98542
1028.382	22.3044
1028.548	-24.05762
1028.713	89.7604
1028.879	26.51971
1029.045	-7.20006
1029.21	75.0024
1029.376	-11.4146
1029.541	62.35357
1029.707	51.8135
1029.873	-64.08798
1030.038	60.24551
1030.204	81.32712
1030.369	51.8135
1030.534	-7.20006
1030.7	72.8942
1030.865	5.44413
1031.031	1.22931
1031.196	-0.87807
1031.361	-15.62904
1031.527	58.13747
1031.692	62.35357
1031.857	39.16618
1032.023	18.08919
1032.188	77.11062
1032.353	70.78603
1032.518	81.32712
1032.684	18.08919
1032.849	-17.73622
1033.014	37.05838
1033.179	3.33671
1033.344	34.9506
1033.509	9.65906
1033.674	7.55158
1033.839	60.24551
1034.004	-15.62904
1034.17	9.65906
1034.335	47.59764
1034.5	45.48974
1034.664	15.98162
1034.829	79.21886
1034.994	81.32712
1035.159	89.7604
1035.324	98.19403
1035.489	20.19678
1035.654	51.8135
1035.819	98.19403
1035.984	-55.66129
1036.148	115.06236
1036.313	28.62739
1036.478	-9.30734
1036.643	-15.62904
1036.807	-32.48582
1036.972	3.33671
1037.137	64.46165
1037.301	79.21886
1037.466	39.16618
1037.631	-43.0205
1037.795	18.08919
1037.96	-30.3788
1038.124	26.51971
1038.289	5.44413
1038.454	-30.3788
1038.618	-7.20006
1038.783	9.65906
1038.947	26.51971
1039.111	-34.5928
1039.276	22.3044
1039.44	1.22931
1039.605	43.38186
1039.769	30.7351
1039.933	49.70556
1040.098	37.05838
1040.262	-51.44779
1040.426	28.62739
1040.591	26.51971
1040.755	121.38835
1040.919	24.41204
1041.083	3.33671
1041.248	51.8135
1041.412	64.46165
1041.576	64.46165
1041.74	11.76656
1041.904	18.08919
1042.068	-24.05762
1042.232	-15.62904
1042.397	-5.09275
1042.561	62.35357
1042.725	49.70556
1042.889	-40.91361
1043.053	47.59764
1043.217	43.38186
1043.381	22.3044
1043.544	18.08919
1043.708	-15.62904
1043.872	112.95374
1044.036	64.46165
1044.2	22.3044
1044.364	51.8135
1044.528	18.08919
1044.691	3.33671
1044.855	-21.95051
1045.019	-21.95051
1045.183	-2.98542
1045.346	-19.84338
1045.51	1.22931
1045.674	47.59764
1045.837	-24.05762
1046.001	37.05838
1046.165	-45.12736
1046.328	51.8135
1046.492	68.67788
1046.655	1.22931
1046.819	64.46165
1046.983	43.38186
1047.146	1.22931
1047.31	28.62739
1047.473	-24.05762
1047.636	18.08919
1047.8	-24.05762
1047.963	-5.09275
1048.127	9.65906
1048.29	1.22931
