Data from mixed_try1_USB4F045381__15__00080.txt Node

Date: Thu Apr 03 19:52:35 EDT 2025
User: mmckonesweet
Spectrometer: USB4F04538
Trigger mode: 4
Integration Time (sec): 2.700000E-3
Scans to average: 1
Electric dark correction enabled: true
Nonlinearity correction enabled: true
Boxcar width: 0
XAxis mode: Wavelengths
Number of Pixels in Spectrum: 3648
>>>>>Begin Spectral Data<<<<<
345.52	-11.06339
345.736	-11.06339
345.952	-11.06339
346.168	45.84105
346.384	-32.13465
346.6	-95.33338
346.816	47.94895
347.032	75.35377
347.248	14.22533
347.464	22.65567
347.68	-34.24164
347.896	-48.98987
348.112	10.01031
348.328	-11.06339
348.544	24.76332
348.76	52.16483
348.975	-57.41689
349.191	5.79537
349.407	-2.6342
349.623	-6.84884
349.839	5.79537
350.055	-34.24164
350.27	1.58054
350.486	-38.45555
350.702	20.54805
350.918	-2.6342
351.133	-6.84884
351.349	39.51749
351.565	52.16483
351.781	22.65567
351.996	-25.81353
352.212	-6.84884
352.428	33.19413
352.644	41.62532
352.859	-17.38502
353.075	66.92111
353.291	52.16483
353.506	7.90283
353.722	-8.95613
353.938	14.22533
354.153	-44.77622
354.369	22.65567
354.584	75.35377
354.8	-8.95613
355.016	-2.6342
355.231	-40.56246
355.447	71.13739
355.662	1.58054
355.878	5.79537
356.093	-0.52684
356.309	22.65567
356.524	-19.49219
356.74	22.65567
356.955	3.68794
357.171	-78.48264
357.386	-63.73688
357.602	-44.77622
357.817	-30.02763
358.033	-51.09666
358.248	26.87099
358.464	62.70491
358.679	26.87099
358.895	20.54805
359.11	-53.20343
359.325	-6.84884
359.541	10.01031
359.756	69.02924
359.972	31.08639
360.187	18.44046
360.402	-27.92059
360.618	-36.3486
360.833	-15.27784
361.048	-67.95008
361.264	37.40968
361.479	26.87099
361.694	-19.49219
361.909	85.8951
362.125	41.62532
362.34	26.87099
362.555	12.11781
362.77	22.65567
362.986	-42.66935
363.201	22.65567
363.416	28.97868
363.631	-6.84884
363.847	-25.81353
364.062	45.84105
364.277	20.54805
364.492	-0.52684
364.707	5.79537
364.922	-2.6342
365.138	5.79537
365.353	24.76332
365.568	14.22533
365.783	-0.52684
365.998	1.58054
366.213	-11.06339
366.428	-38.45555
366.643	-6.84884
366.858	-15.27784
367.073	50.05688
367.288	-2.6342
367.503	33.19413
367.718	-84.80186
367.933	-2.6342
368.148	-32.13465
368.363	7.90283
368.578	-19.49219
368.793	45.84105
369.008	18.44046
369.223	24.76332
369.438	-19.49219
369.653	31.08639
369.868	-78.48264
370.083	106.97945
370.298	16.33288
370.513	18.44046
370.728	31.08639
370.943	10.01031
371.157	24.76332
371.372	31.08639
371.587	-40.56246
371.802	33.19413
372.017	31.08639
372.232	7.90283
372.446	22.65567
372.661	-0.52684
372.876	-8.95613
373.091	-19.49219
373.306	26.87099
373.52	-32.13465
373.735	-48.98987
373.95	-27.92059
374.165	7.90283
374.379	-59.52357
374.594	35.30189
374.809	12.11781
375.023	22.65567
375.238	43.73317
375.453	-78.48264
375.667	18.44046
375.882	-36.3486
376.097	7.90283
376.311	-11.06339
376.526	-42.66935
376.741	-74.26969
376.955	-11.06339
377.17	20.54805
377.384	-53.20343
377.599	50.05688
377.813	50.05688
378.028	-61.63024
378.242	41.62532
378.457	-53.20343
378.672	-11.06339
378.886	33.19413
379.101	-40.56246
379.315	16.33288
379.53	14.22533
379.744	77.46199
379.958	50.05688
380.173	-6.84884
380.387	28.97868
380.602	-48.98987
380.816	20.54805
381.031	16.33288
381.245	-8.95613
381.459	-67.95008
381.674	-40.56246
381.888	-19.49219
382.103	-11.06339
382.317	58.48881
382.531	14.22533
382.746	-32.13465
382.96	-8.95613
383.174	94.32857
383.388	77.46199
383.603	-19.49219
383.817	-74.26969
384.031	14.22533
384.246	-15.27784
384.46	-25.81353
384.674	58.48881
384.888	-32.13465
385.103	-2.6342
385.317	18.44046
385.531	24.76332
385.745	-11.06339
385.959	75.35377
386.174	14.22533
386.388	1.58054
386.602	10.01031
386.816	-23.70644
387.03	-86.90822
387.244	16.33288
387.458	7.90283
387.672	5.79537
387.887	-44.77622
388.101	-65.84349
388.315	10.01031
388.529	-51.09666
388.743	-6.84884
388.957	14.22533
389.171	56.38079
389.385	-27.92059
389.599	-11.06339
389.813	66.92111
390.027	-53.20343
390.241	-17.38502
390.455	-8.95613
390.669	14.22533
390.883	-2.6342
391.097	24.76332
391.311	-17.38502
391.525	-0.52684
391.738	-0.52684
391.952	-36.3486
392.166	-6.84884
392.38	56.38079
392.594	14.22533
392.808	31.08639
393.022	-19.49219
393.236	-0.52684
393.449	-27.92059
393.663	1.58054
393.877	20.54805
394.091	5.79537
394.305	39.51749
394.518	-4.74153
394.732	26.87099
394.946	-32.13465
395.16	39.51749
395.373	75.35377
395.587	-32.13465
395.801	5.79537
396.015	60.59685
396.228	-27.92059
396.442	47.94895
396.656	45.84105
396.869	3.68794
397.083	-6.84884
397.297	1.58054
397.51	100.65391
397.724	10.01031
397.938	39.51749
398.151	-53.20343
398.365	-44.77622
398.578	56.38079
398.792	47.94895
399.005	18.44046
399.219	-44.77622
399.433	24.76332
399.646	16.33288
399.86	22.65567
400.073	-36.3486
400.287	-82.69548
400.5	41.62532
400.714	39.51749
400.927	-32.13465
401.141	41.62532
401.354	26.87099
401.567	31.08639
401.781	-25.81353
401.994	-8.95613
402.208	31.08639
402.421	7.90283
402.635	35.30189
402.848	-6.84884
403.061	16.33288
403.275	14.22533
403.488	-23.70644
403.701	47.94895
403.915	52.16483
404.128	16.33288
404.341	73.24557
404.555	-27.92059
404.768	-42.66935
404.981	64.813
405.195	5.79537
405.408	-53.20343
405.621	-19.49219
405.834	-19.49219
406.048	-57.41689
406.261	1.58054
406.474	-25.81353
406.687	-44.77622
406.9	58.48881
407.114	56.38079
407.327	41.62532
407.54	-25.81353
407.753	-6.84884
407.966	-25.81353
408.179	75.35377
408.392	7.90283
408.605	-51.09666
408.819	100.65391
409.032	-36.3486
409.245	-42.66935
409.458	-8.95613
409.671	-17.38502
409.884	45.84105
410.097	5.79537
410.31	-63.73688
410.523	-72.16318
410.736	-25.81353
410.949	16.33288
411.162	-48.98987
411.375	-25.81353
411.588	33.19413
411.801	39.51749
412.014	-147.9811
412.227	18.44046
412.44	50.05688
412.653	-11.06339
412.865	-25.81353
413.078	47.94895
413.291	-23.70644
413.504	81.6785
413.717	18.44046
413.93	18.44046
414.143	10.01031
414.356	-44.77622
414.568	-15.27784
414.781	-40.56246
414.994	39.51749
415.207	-101.65198
415.42	16.33288
415.632	39.51749
415.845	-32.13465
416.058	-40.56246
416.271	-15.27784
416.483	50.05688
416.696	69.02924
416.909	-25.81353
417.121	22.65567
417.334	3.68794
417.547	41.62532
417.759	96.437
417.972	-6.84884
418.185	43.73317
418.397	-61.63024
418.61	-36.3486
418.823	-40.56246
419.035	-70.05664
419.248	18.44046
419.46	31.08639
419.673	62.70491
419.885	-40.56246
420.098	-23.70644
420.311	18.44046
420.523	-0.52684
420.736	-78.48264
420.948	43.73317
421.161	50.05688
421.373	10.01031
421.586	62.70491
421.798	-48.98987
422.01	31.08639
422.223	10.01031
422.435	18.44046
422.648	-36.3486
422.86	58.48881
423.073	35.30189
423.285	56.38079
423.497	92.22017
423.71	41.62532
423.922	-15.27784
424.134	22.65567
424.347	31.08639
424.559	-23.70644
424.771	7.90283
424.984	-93.22713
425.196	10.01031
425.408	-25.81353
425.621	10.01031
425.833	56.38079
426.045	52.16483
426.257	-6.84884
426.47	16.33288
426.682	-61.63024
426.894	14.22533
427.106	-27.92059
427.318	-61.63024
427.531	1.58054
427.743	-34.24164
427.955	31.08639
428.167	14.22533
428.379	16.33288
428.591	-11.06339
428.804	-11.06339
429.016	33.19413
429.228	14.22533
429.44	64.813
429.652	-17.38502
429.864	-55.31017
430.076	43.73317
430.288	-51.09666
430.5	37.40968
430.712	1.58054
430.924	43.73317
431.136	28.97868
431.348	-19.49219
431.56	37.40968
431.772	-6.84884
431.984	-11.06339
432.196	-32.13465
432.408	58.48881
432.62	-32.13465
432.832	-8.95613
433.044	18.44046
433.256	16.33288
433.468	16.33288
433.679	-36.3486
433.891	-27.92059
434.103	16.33288
434.315	31.08639
434.527	5.79537
434.739	-2.6342
434.95	18.44046
435.162	-23.70644
435.374	20.54805
435.586	-2.6342
435.798	43.73317
436.009	-25.81353
436.221	35.30189
436.433	-61.63024
436.645	-36.3486
436.856	-27.92059
437.068	14.22533
437.28	1.58054
437.491	-2.6342
437.703	-19.49219
437.915	31.08639
438.126	7.90283
438.338	33.19413
438.55	1.58054
438.761	-4.74153
438.973	24.76332
439.184	-2.6342
439.396	-11.06339
439.608	-2.6342
439.819	22.65567
440.031	-8.95613
440.242	75.35377
440.454	31.08639
440.665	-11.06339
440.877	-17.38502
441.088	22.65567
441.3	54.2728
441.511	-44.77622
441.723	28.97868
441.934	-0.52684
442.146	-72.16318
442.357	10.01031
442.569	-36.3486
442.78	-34.24164
442.991	-36.3486
443.203	-27.92059
443.414	56.38079
443.626	3.68794
443.837	-23.70644
444.048	75.35377
444.26	35.30189
444.471	-74.26969
444.682	-0.52684
444.894	-61.63024
445.105	-2.6342
445.316	-32.13465
445.528	10.01031
445.739	26.87099
445.95	5.79537
446.161	18.44046
446.373	10.01031
446.584	5.79537
446.795	56.38079
447.006	14.22533
447.217	47.94895
447.429	-74.26969
447.64	-19.49219
447.851	81.6785
448.062	47.94895
448.273	-11.06339
448.484	-23.70644
448.695	14.22533
448.907	-19.49219
449.118	-19.49219
449.329	47.94895
449.54	52.16483
449.751	24.76332
449.962	31.08639
450.173	-32.13465
450.384	5.79537
450.595	1.58054
450.806	10.01031
451.017	81.6785
451.228	18.44046
451.439	-44.77622
451.65	-17.38502
451.861	14.22533
452.072	-0.52684
452.283	7.90283
452.494	75.35377
452.705	-48.98987
452.915	26.87099
453.126	-4.74153
453.337	-4.74153
453.548	98.54544
453.759	-19.49219
453.97	24.76332
454.181	14.22533
454.391	-93.22713
454.602	22.65567
454.813	43.73317
455.024	5.79537
455.235	-15.27784
455.445	-44.77622
455.656	66.92111
455.867	14.22533
456.078	-19.49219
456.288	10.01031
456.499	39.51749
456.71	75.35377
456.921	-95.33338
457.131	-13.17063
457.342	-6.84884
457.553	5.79537
457.763	-36.3486
457.974	3.68794
458.184	-59.52357
458.395	-17.38502
458.606	-2.6342
458.816	-6.84884
459.027	73.24557
459.237	-30.02763
459.448	7.90283
459.659	-0.52684
459.869	-11.06339
460.08	-2.6342
460.29	26.87099
460.501	5.79537
460.711	-19.49219
460.922	5.79537
461.132	35.30189
461.343	39.51749
461.553	18.44046
461.764	-19.49219
461.974	7.90283
462.184	-15.27784
462.395	-36.3486
462.605	14.22533
462.816	33.19413
463.026	-11.06339
463.236	-6.84884
463.447	-11.06339
463.657	10.01031
463.867	45.84105
464.078	18.44046
464.288	-6.84884
464.498	69.02924
464.709	-32.13465
464.919	-17.38502
465.129	47.94895
465.339	5.79537
465.55	-36.3486
465.76	47.94895
465.97	52.16483
466.18	10.01031
466.391	22.65567
466.601	100.65391
466.811	60.59685
467.021	24.76332
467.231	-15.27784
467.441	66.92111
467.651	50.05688
467.862	52.16483
468.072	3.68794
468.282	73.24557
468.492	45.84105
468.702	22.65567
468.912	1.58054
469.122	5.79537
469.332	39.51749
469.542	66.92111
469.752	56.38079
469.962	-15.27784
470.172	24.76332
470.382	5.79537
470.592	35.30189
470.802	22.65567
471.012	-25.81353
471.222	10.01031
471.432	35.30189
471.642	39.51749
471.852	-42.66935
472.062	94.32857
472.272	43.73317
472.482	7.90283
472.691	5.79537
472.901	35.30189
473.111	50.05688
473.321	14.22533
473.531	56.38079
473.741	-6.84884
473.95	60.59685
474.16	18.44046
474.37	73.24557
474.58	39.51749
474.79	22.65567
474.999	-0.52684
475.209	-53.20343
475.419	58.48881
475.628	-32.13465
475.838	-23.70644
476.048	18.44046
476.258	66.92111
476.467	37.40968
476.677	90.11179
476.886	-11.06339
477.096	22.65567
477.306	-17.38502
477.515	22.65567
477.725	56.38079
477.935	-65.84349
478.144	31.08639
478.354	-44.77622
478.563	35.30189
478.773	47.94895
478.982	33.19413
479.192	37.40968
479.401	-6.84884
479.611	54.2728
479.82	52.16483
480.03	1.58054
480.239	31.08639
480.449	115.4138
480.658	58.48881
480.868	7.90283
481.077	58.48881
481.287	81.6785
481.496	33.19413
481.705	94.32857
481.915	5.79537
482.124	43.73317
482.333	26.87099
482.543	47.94895
482.752	54.2728
482.961	45.84105
483.171	7.90283
483.38	54.2728
483.589	-17.38502
483.799	94.32857
484.008	22.65567
484.217	39.51749
484.426	39.51749
484.636	39.51749
484.845	33.19413
485.054	123.8485
485.263	94.32857
485.472	77.46199
485.682	-2.6342
485.891	90.11179
486.1	85.8951
486.309	119.63111
486.518	47.94895
486.727	45.84105
486.936	5.79537
487.146	62.70491
487.355	111.19658
487.564	106.97945
487.773	90.11179
487.982	98.54544
488.191	43.73317
488.4	47.94895
488.609	90.11179
488.818	79.57023
489.027	56.38079
489.236	106.97945
489.445	140.71894
489.654	22.65567
489.863	123.8485
490.072	98.54544
490.281	92.22017
490.49	117.52244
490.698	149.15468
490.907	71.13739
491.116	142.82785
491.325	79.57023
491.534	123.8485
491.743	136.50121
491.952	125.95723
492.16	170.24549
492.369	109.088
492.578	149.15468
492.787	113.30518
492.996	174.4639
493.204	77.46199
493.413	117.52244
493.622	142.82785
493.831	216.6525
494.039	94.32857
494.248	263.0691
494.457	153.37267
494.665	178.68239
494.874	208.21413
495.083	199.77609
495.291	134.39237
495.5	227.2009
495.709	235.63997
495.917	218.76214
496.126	180.79167
496.335	208.21413
496.543	203.99507
496.752	159.69982
496.96	125.95723
497.169	206.10459
497.377	263.0691
497.586	206.10459
497.794	193.44776
498.003	189.22898
498.211	258.84902
498.42	199.77609
498.628	180.79167
498.837	284.17061
499.045	246.18925
499.254	218.76214
499.462	233.53017
499.671	269.39935
499.879	275.72978
500.087	256.73901
500.296	237.74979
500.504	284.17061
500.713	317.93686
500.921	235.63997
501.129	241.96948
501.338	279.95016
501.546	279.95016
501.754	279.95016
501.962	258.84902
502.171	286.28086
502.379	328.48976
502.587	322.15797
502.795	326.37915
503.004	303.16355
503.212	292.61173
503.42	279.95016
503.628	303.16355
503.837	191.33836
504.045	271.50948
504.253	345.37533
504.461	341.15383
504.669	360.15111
504.877	379.14977
505.085	360.15111
505.294	311.60534
505.502	336.93241
505.71	341.15383
505.918	284.17061
506.126	358.04023
506.334	360.15111
506.542	343.26457
506.75	374.92772
506.958	355.92937
507.166	461.49263
507.374	379.14977
507.582	387.59405
507.79	461.49263
507.998	377.03874
508.206	362.262
508.414	503.72888
508.622	406.59467
508.83	412.9285
509.037	491.05738
509.245	393.92744
509.453	423.48521
509.661	415.03981
509.869	503.72888
510.077	398.14978
510.285	516.40091
510.492	457.26933
510.7	512.17684
510.908	512.17684
511.116	499.50499
511.324	505.84085
511.531	560.75699
511.739	550.19546
511.947	596.66867
512.155	537.52208
512.362	598.78124
512.57	518.51296
512.778	567.09406
512.985	560.75699
513.193	583.99353
513.401	529.07344
513.608	634.69687
513.816	588.21852
514.024	571.31885
514.231	469.9394
514.439	600.89382
514.646	545.97095
514.854	660.05121
515.061	562.86933
515.269	683.29419
515.477	649.48669
515.684	700.19905
515.892	700.19905
516.099	714.99138
516.307	630.47131
516.514	681.18114
516.722	579.76858
516.929	807.98352
517.136	668.50304
517.344	757.2581
517.551	562.86933
517.759	710.76495
517.966	698.0859
518.173	672.72903
518.381	757.2581
518.588	791.07442
518.796	668.50304
519.003	816.43829
519.21	734.01088
519.418	774.16594
519.625	774.16594
519.832	824.89321
520.039	767.82543
520.247	860.82823
520.454	850.25884
520.661	968.64741
520.868	843.91731
521.076	894.65167
521.283	784.73367
521.49	858.71433
521.697	879.85366
521.904	974.99031
522.112	932.70549
522.319	972.876
522.526	934.81966
522.733	1029.96458
522.94	867.16996
523.147	981.33327
523.354	943.27643
523.561	951.73331
523.768	943.27643
523.975	972.876
524.183	953.84754
524.39	1080.71362
524.597	974.99031
524.804	981.33327
525.011	979.21894
525.218	1108.20395
525.425	996.13375
525.632	1163.18696
525.838	1002.47691
526.045	1146.2688
526.252	1133.58036
526.459	1194.90918
526.666	1150.49832
526.873	1232.97688
527.08	1165.30175
527.287	1239.32159
527.494	1087.05747
527.701	1315.45996
527.907	1304.88501
528.114	1171.64614
528.321	1120.89207
528.528	1287.9652
528.735	1182.22019
528.941	1370.45033
529.148	1216.05777
529.355	1410.63609
529.562	1232.97688
529.768	1230.86198
529.975	1190.6795
530.182	1368.33529
530.388	1205.48343
530.595	1408.52104
530.802	1230.86198
531.008	1431.78658
531.215	1416.98123
531.422	1526.96373
531.628	1535.42387
531.835	1484.66287
532.042	1421.21133
532.248	1560.80416
532.455	1387.37061
532.661	1725.76918
532.868	1455.05215
533.074	1450.82205
533.281	1516.38855
533.487	1556.57412
533.694	1518.50359
533.9	1687.70173
534.107	1543.88399
534.313	1641.17355
534.52	1436.01668
534.726	1535.42387
534.933	1510.04342
535.139	1592.52924
535.345	1603.10418
535.552	1706.73558
535.758	1592.52924
535.965	1740.57291
536.171	1704.62072
536.377	1757.49123
536.584	1596.75922
536.79	1679.24216
536.996	1696.16125
537.203	1738.4581
537.409	1926.65919
537.615	1852.65197
537.821	1784.98299
538.028	1971.06025
538.234	1869.56846
538.44	2009.11614
538.646	1827.27664
538.853	1865.33937
539.059	1755.37645
539.265	1971.06025
539.471	2066.19596
539.677	2013.34445
539.883	1894.9426
540.09	2110.58778
540.296	1909.74383
540.502	2188.79365
540.708	1818.81805
540.914	2047.16991
541.12	2100.0186
541.326	2173.9988
541.532	2102.13245
541.738	2144.40788
541.944	2171.88521
542.15	2288.11952
542.356	2188.79365
542.562	2317.70204
542.768	2059.85401
542.974	2262.76161
543.18	2343.05699
543.386	2404.3255
543.592	2171.88521
543.798	2412.77565
544.004	2207.815
544.21	2330.37969
544.415	2133.83932
544.621	2469.8097
544.827	2157.0899
545.033	2406.43805
545.239	2296.57186
545.445	2431.78787
545.651	2484.59501
545.856	2695.75104
546.062	2391.64996
546.268	2436.01269
546.474	2357.84672
546.679	2376.86136
546.885	2296.57186
547.091	2417.00066
547.297	2256.42192
547.502	2417.00066
547.708	2319.81501
547.914	2670.4188
548.119	2486.70716
548.325	2600.74578
548.531	2450.79923
548.736	2695.75104
548.942	2482.48286
549.147	2509.93998
549.353	2702.08382
549.559	2653.52962
549.764	2685.19617
549.97	2708.41647
550.175	2611.30317
550.381	2773.84696
550.586	2680.97413
550.792	2879.35241
550.997	2507.82796
551.203	2858.25412
551.408	2683.08515
551.614	2915.21621
551.819	2862.4739
552.025	3016.45573
552.23	2685.19617
552.435	2862.4739
552.641	2746.40992
552.846	2913.10669
553.052	3010.12927
553.257	3041.76017
553.462	2959.51273
553.668	3016.45573
553.873	2845.59447
554.078	3166.14083
554.283	2986.9311
554.489	2991.14909
554.694	3098.68698
554.899	3014.34692
555.105	3064.95395
555.31	3187.21676
555.515	2948.96653
555.72	2932.09184
555.925	3155.60225
556.131	3431.57441
556.336	3159.81773
556.541	3254.64866
556.746	3107.11961
556.951	3307.31787
557.156	3225.1493
557.361	3345.23308
557.567	3300.99812
557.772	3414.72965
557.977	3324.16976
558.182	3244.11355
558.387	3353.65792
558.592	3437.8909
558.797	3183.00171
559.002	3488.41701
559.207	3343.12682
559.412	3564.18654
559.617	3235.68516
559.822	3595.75011
560.027	3180.89415
560.232	3414.72965
560.437	3345.23308
560.642	3682.00231
560.847	3372.61279
561.051	3458.94471
561.256	3303.10472
561.461	3452.62875
561.666	3463.15525
561.871	3690.41545
562.076	3414.72965
562.281	3553.66442
562.485	3385.24859
562.69	3837.59524
562.895	3433.67992
563.1	3864.91804
563.305	3587.33357
563.509	3595.75011
563.714	3461.04999
563.919	3663.07163
564.123	3705.13771
564.328	3715.65303
564.533	3671.48546
564.737	3789.24673
564.942	3721.962
565.147	3902.74403
565.351	3692.51869
565.556	3713.55001
565.761	3547.35092
565.965	4016.18276
566.17	3696.72511
566.374	3972.07475
566.579	3806.06478
566.784	3906.94652
566.988	3700.93145
567.193	3982.57747
567.397	3869.12125
567.602	4121.16526
567.806	3740.88784
568.011	4125.36348
568.215	3923.75566
568.42	4175.73555
568.624	3864.91804
568.828	3873.32437
569.033	3969.97414
569.237	4116.96696
569.442	3862.8164
569.646	3986.77842
569.85	4018.28292
570.055	4127.46256
570.259	3915.35125
570.463	4387.58366
570.668	3984.67796
570.872	4177.83412
571.076	4032.98344
571.281	4211.40841
571.485	4070.78013
571.689	4169.4397
571.893	4053.98243
572.098	4408.54674
572.302	4043.48319
572.506	4435.79549
572.71	4223.99737
572.914	4280.6382
573.119	4247.07515
573.323	4276.44312
573.527	4081.27802
573.731	4354.0382
573.935	4326.77843
574.139	4569.88897
574.343	4217.70299
574.547	4314.19576
574.751	4517.51947
574.955	4463.04053
575.159	4444.17898
575.364	4427.41165
575.568	4544.75334
575.772	4613.8686
575.976	4385.48723
576.18	4634.80783
576.383	4511.2342
576.587	4649.46395
576.791	4435.79549
576.995	4743.65558
577.199	4532.18433
577.403	4716.44936
577.607	4674.58618
577.811	4804.3326
578.015	4758.30351
578.219	4850.35069
578.422	4800.14859
578.626	4720.63518
578.83	4519.61452
579.034	4802.24061
579.238	4557.32155
579.442	4854.53361
579.645	4881.72033
579.849	4929.81044
580.053	4674.58618
580.257	4938.1727
580.46	4716.44936
580.664	4933.99162
580.868	4762.48842
581.071	5126.22596
581.275	4764.58085
581.479	5063.56236
581.682	4712.26344
581.886	4965.3475
582.09	4946.53459
582.293	5076.09675
582.497	4871.26436
582.7	4959.07674
582.904	4871.26436
583.107	4996.69821
583.311	4881.72033
583.515	5266.09911
583.718	4864.9905
583.922	4996.69821
584.125	5034.3122
584.329	5151.28556
584.532	5063.56236
584.735	5103.25173
584.939	4988.33852
585.142	5462.16203
585.346	5019.68543
585.549	4952.80577
585.753	5021.77503
585.956	5264.01222
586.159	5130.4028
586.363	5410.03788
586.566	5096.98555
586.769	5414.20835
586.973	5326.6087
587.176	5389.18411
587.379	5359.98488
587.582	5526.77557
587.786	5243.14204
587.989	5555.94845
588.192	5170.07805
588.395	5430.8893
588.599	5508.01913
588.802	5372.4994
589.005	5286.96671
589.208	5685.08713
589.411	5483.00758
589.615	5664.26445
589.818	5589.28324
590.021	5630.94324
590.224	5464.24669
590.427	5649.68716
590.63	5526.77557
590.833	5714.23493
591.036	5491.34514
591.239	5797.48886
591.442	5526.77557
591.645	5745.45958
591.848	5737.13352
592.051	5876.54511
592.254	5599.69913
592.457	5797.48886
592.66	5624.69484
592.863	5830.77986
593.066	5882.78495
593.269	5953.48821
593.472	5685.08713
593.675	5878.62508
593.878	5826.61881
594.081	6115.58687
594.284	5988.82961
594.486	5982.59339
594.689	5943.09238
594.892	5941.01314
595.095	5839.10166
595.298	6094.81299
595.5	5822.45767
595.703	6159.20436
595.906	5859.90452
596.109	5947.25078
596.311	6057.41409
596.514	5926.45783
596.717	6123.89576
596.92	6350.16863
597.122	5722.56202
597.325	5934.77529
597.528	6167.51128
597.73	6256.78696
597.933	6304.52128
598.136	6331.49608
598.338	6038.71177
598.541	6289.99475
598.743	6242.25666
598.946	6377.13675
599.148	6414.47072
599.351	6250.55983
599.554	6256.78696
599.756	6354.31783
599.959	6393.73055
600.161	6343.94465
600.363	6435.20855
600.566	6420.69231
600.768	6348.09399
600.971	6499.48106
601.173	6464.23761
601.376	6422.76613
601.578	6480.8236
601.78	6669.38494
601.983	6333.5709
602.185	6569.94786
602.388	6136.3584
602.59	6559.58678
602.792	6260.93826
602.995	6312.82164
603.197	6412.3968
603.399	6841.20339
603.601	6499.48106
603.804	6601.02766
604.006	6404.10093
604.208	6520.20937
604.41	6503.62691
604.613	6696.30669
604.815	6495.33512
605.017	6667.31388
605.219	6433.13487
605.421	6538.86287
605.623	6513.99112
605.826	6729.43582
606.028	6671.45598
606.23	6820.51071
606.432	6621.74464
606.634	6954.97253
606.836	6632.10226
607.038	6855.68691
607.24	6478.75043
607.442	6696.30669
607.644	6654.88701
607.846	6826.71875
608.048	6723.22455
608.25	7066.6067
608.452	6623.81621
608.654	6950.83667
608.856	6663.17168
609.058	6936.36045
609.26	6921.88312
609.462	6897.06226
609.664	6826.71875
609.866	6950.83667
610.067	6880.51321
610.269	6977.71815
610.471	6694.23592
610.673	6950.83667
610.875	6601.02766
611.077	6888.78792
611.278	6623.81621
611.48	6977.71815
611.682	6735.64687
611.884	7219.48093
612.085	6903.26778
612.287	7016.99961
612.489	6886.71928
612.69	7128.59743
612.892	6843.27253
613.094	7279.35799
613.295	6727.36542
613.497	7091.4054
613.699	7043.87172
613.9	6979.78579
614.102	7039.73779
614.304	7161.65095
614.505	7099.67092
614.707	7207.09025
614.908	7147.19074
615.11	7149.25655
615.311	7008.7305
615.513	7058.33975
615.714	6950.83667
615.916	7122.39926
616.117	6567.87569
616.319	7231.87081
616.52	6876.37572
616.722	7320.64173
616.923	7000.46103
617.124	7110.00232
617.326	7229.80588
617.527	7161.65095
617.729	7120.33316
617.93	7171.97901
618.131	7093.47182
618.333	7432.06414
618.534	7376.36088
618.735	7130.66344
618.937	7153.3881
619.138	7291.74404
619.339	7060.40652
619.54	7378.42425
619.742	7384.61422
619.943	7297.93676
620.144	7076.93988
620.345	7440.31512
620.546	7339.21655
620.748	7452.69096
620.949	7302.06513
621.15	7351.59878
621.351	7215.35079
621.552	7297.93676
621.753	7244.25989
621.954	7248.38941
622.155	7149.25655
622.356	7660.90125
622.558	7293.8083
622.759	7547.54651
622.96	7273.16467
623.161	7547.54651
623.362	7376.36088
623.563	7440.31512
623.764	7448.56577
623.965	7679.44408
624.166	7619.6888
624.366	7202.95985
624.567	7194.69878
624.768	7675.3236
624.969	7233.93571
625.17	7599.07939
625.371	7388.74075
625.572	7456.81606
625.773	7448.56577
625.973	7473.31561
626.174	7481.56487
626.375	7712.4049
626.576	7553.73116
626.777	7629.99271
626.977	7551.66963
627.178	7858.60371
627.379	7314.44973
627.58	7846.25294
627.78	7621.74962
627.981	7677.38385
628.182	7652.65944
628.382	7619.6888
628.583	7479.50258
628.784	7669.14272
628.984	7458.87858
629.185	7879.18666
629.386	7512.4965
629.586	7656.78039
629.787	7553.73116
629.987	7425.87567
630.188	7485.68937
630.388	7887.41926
630.589	7685.62465
630.79	7671.20303
630.99	7541.36167
631.191	7850.36995
631.391	7568.16126
631.591	7553.73116
631.792	7751.53886
631.992	7891.53544
632.193	7712.4049
632.393	7759.77662
632.594	7792.72432
632.794	7825.66668
632.994	7722.70404
633.195	7852.42842
633.395	7747.41985
633.595	8037.60652
633.796	7796.84241
633.996	8109.57568
634.196	7868.89544
634.397	8154.80082
634.597	7644.41729
634.797	7990.299
634.997	7578.46784
635.198	7996.47016
635.398	7914.17293
635.598	8000.58416
635.798	7770.07335
635.998	7953.2682
636.199	7883.303
636.399	8084.90332
636.599	7813.31392
636.799	8072.56606
636.999	7671.20303
637.199	7753.59833
637.399	7594.95725
637.599	7907.99932
637.799	7947.09576
637.999	8047.88934
638.199	7936.80794
638.399	8121.91077
638.599	7712.4049
638.799	8121.91077
638.999	8037.60652
639.199	8298.635
639.399	8010.86881
639.599	8226.73002
639.799	7788.60615
639.999	7887.41926
640.199	7722.70404
640.399	8378.72944
640.599	7755.65778
640.799	8345.87377
640.998	8245.22218
641.198	8076.67856
641.398	8171.24393
641.598	8257.54939
641.798	8360.24874
641.997	8300.68907
642.197	8300.68907
642.397	8423.89791
642.597	8012.92568
642.796	8370.51599
642.996	8304.79716
643.196	8475.21442
643.395	8191.79602
643.595	8239.0583
643.795	8089.01558
643.994	8403.36795
644.194	8154.80082
644.394	8483.42395
644.593	8195.9062
644.793	8557.29605
644.992	8212.34613
645.192	8376.67611
645.392	8354.08815
645.591	8471.10954
645.791	8491.63318
645.99	8633.19468
646.19	8302.74313
646.389	8680.36203
646.589	8452.63663
646.788	8339.71277
646.987	8245.22218
647.187	8641.39841
647.386	8267.82153
647.586	8663.95711
647.785	8395.15542
647.984	8553.19269
648.184	8458.79444
648.383	8655.75421
648.582	8329.44406
648.782	8696.76577
648.981	8407.47409
649.18	8840.24843
649.38	8512.15491
649.579	8663.95711
649.778	8756.21944
649.977	9000.02513
650.177	8600.3768
650.376	8766.46851
650.575	8553.19269
650.774	8663.95711
650.973	8417.73912
651.173	8729.56971
651.372	8540.88215
651.571	8850.49379
651.77	8544.98574
651.969	8725.46947
652.168	8639.3475
652.367	8807.46026
652.566	8645.50016
652.765	8995.92964
652.964	8832.05182
653.163	8879.17839
653.362	8518.31106
653.561	8922.19872
653.76	8627.04169
653.959	8959.06704
654.158	8920.15031
654.357	8830.00262
654.556	8723.41933
654.755	8881.22716
654.954	8885.32463
655.153	8750.06978
655.352	8762.36894
655.551	8889.42204
655.749	8854.5918
655.948	9171.97302
656.147	8993.88186
656.346	8850.49379
656.545	9040.9762
656.743	9030.73908
656.942	8858.68975
657.141	8893.51937
657.34	8817.70706
657.538	8967.25922
657.737	9280.40193
657.936	9026.64412
658.135	8776.71713
658.333	9155.60227
658.532	8977.49905
658.731	8987.73844
658.929	8860.73869
659.128	8967.25922
659.326	8844.34663
659.525	9133.09069
659.724	9028.69161
659.922	8936.53708
660.121	8901.71383
660.319	8991.83407
660.518	9036.8814
660.716	9354.02496
660.915	9184.25038
661.113	9384.69492
661.312	9139.23042
661.51	9194.48104
661.709	9131.04408
661.907	9216.987
662.105	9216.987
662.304	9384.69492
662.502	9157.64867
662.701	9264.03833
662.899	9210.84921
663.097	9339.71105
663.296	9208.80325
663.494	9112.62382
663.692	9098.29599
663.891	9382.65037
664.089	8979.54696
664.287	9225.17048
664.485	9110.57704
664.684	9497.1201
664.882	9059.4019
665.08	9294.7192
665.278	9038.92881
665.476	9128.99746
665.675	8959.06704
665.873	9212.89516
666.071	9071.68492
666.269	9212.89516
666.467	9141.27696
666.665	9133.09069
666.863	9077.8262
667.061	9225.17048
667.259	9028.69161
667.457	9392.87295
667.655	8952.92272
667.853	9020.50154
668.051	9065.54349
668.249	9049.16557
668.447	9210.84921
668.645	9231.30791
668.843	9112.62382
669.041	9106.48343
669.239	9090.10828
669.437	9216.987
669.635	9356.06974
669.833	9564.55192
670.031	9208.80325
670.229	9229.26212
670.426	9178.11178
670.624	9098.29599
670.822	8909.908
671.02	9102.38974
671.218	8987.73844
671.415	9482.81415
671.613	9186.29654
671.811	9474.63897
672.009	9223.12463
672.206	9452.1559
672.404	9304.94533
672.602	9272.22026
672.799	9278.35654
672.997	9253.81053
673.195	9108.53024
673.392	9257.9017
673.59	9131.04408
673.788	8950.87458
673.985	8983.64274
674.183	9266.08384
674.38	9292.67393
674.578	9511.42527
674.775	9474.63897
674.973	9386.73945
675.17	9296.76446
675.368	9231.30791
675.565	9540.03326
675.763	9429.67087
675.96	9090.10828
676.158	9378.56122
676.355	9098.29599
676.553	9358.1145
676.75	9157.64867
676.947	9202.66526
677.145	9143.32348
677.342	9053.26015
677.539	8823.85492
677.737	8942.68183
677.934	8873.03198
678.131	8983.64274
678.329	9153.55585
678.526	9253.81053
678.723	9200.61923
678.92	9519.5993
679.118	9431.71504
679.315	9364.24869
679.512	9225.17048
679.709	9356.06974
679.906	9024.59661
680.104	9253.81053
680.301	9010.26355
680.498	8959.06704
680.695	8883.2759
680.892	9073.73203
681.089	8807.46026
681.286	9360.15925
681.483	9108.53024
681.68	9288.58333
681.877	9147.41648
682.075	9221.07877
682.272	9118.76406
682.469	9264.03833
682.665	9202.66526
682.862	9106.48343
683.059	8981.59486
683.256	9257.9017
683.453	9000.02513
683.65	9208.80325
683.847	9065.54349
684.044	9208.80325
684.241	9233.35369
684.438	9517.55582
684.635	9139.23042
684.831	9323.35131
685.028	8983.64274
685.225	9180.15799
685.422	8932.44049
685.619	9311.0808
685.815	9081.92029
686.012	9417.40548
686.209	8918.10188
686.405	9329.48634
686.602	8887.37334
686.799	9180.15799
686.996	8791.06443
687.192	9075.77912
687.389	8926.29548
687.586	9304.94533
687.782	9180.15799
687.979	9212.89516
688.175	9022.54908
688.372	9292.67393
688.568	9233.35369
688.765	9327.44134
688.962	9057.35467
689.158	9214.94109
689.355	9376.51663
689.551	9051.21287
689.748	8909.908
689.944	8815.65774
690.14	8914.00498
690.337	9094.20217
690.533	8840.24843
690.73	9174.01929
690.926	8811.55903
691.123	9002.07285
691.319	9032.78654
691.515	9243.58232
691.712	9051.21287
691.908	9370.38273
692.104	8858.68975
692.301	9200.61923
692.497	8592.17158
692.693	8930.39217
692.889	8934.4888
693.086	8983.64274
693.282	8965.2112
693.478	9034.83398
693.674	8926.29548
693.87	8883.2759
694.067	8860.73869
694.263	9253.81053
694.459	8938.58535
694.655	9088.06131
694.851	8938.58535
695.047	9135.13728
695.243	8881.22716
695.439	8944.73004
695.635	8959.06704
695.831	8873.03198
696.027	8819.75637
696.224	9069.63779
696.42	9028.69161
696.615	9055.30742
696.811	8948.82641
697.007	8979.54696
697.203	9024.59661
697.399	9049.16557
697.595	8891.47072
697.791	8842.29754
697.987	8624.99066
698.183	8707.01751
698.379	8920.15031
698.575	9167.88044
698.77	8907.85948
698.966	9083.96732
699.162	8959.06704
699.358	8909.908
699.554	8704.9672
699.749	9159.69506
699.945	8663.95711
700.141	8977.49905
700.337	8739.81997
700.532	8909.908
700.728	8604.4793
700.924	8807.46026
701.119	8573.70874
701.315	8817.70706
701.511	8569.60568
701.706	9034.83398
701.902	8661.90641
702.097	8758.26929
702.293	8702.91687
702.489	8704.9672
702.684	8825.90417
702.88	8963.16317
703.075	8961.11511
703.271	8946.77824
703.466	8696.76577
703.662	9034.83398
703.857	8957.01895
704.053	8897.61664
704.248	8735.71992
704.443	9176.06554
704.639	8909.908
704.834	9171.97302
705.03	8762.36894
705.225	8885.32463
705.42	8877.12961
705.616	9272.22026
705.811	8750.06978
706.006	8993.88186
706.202	8748.01985
706.397	9000.02513
706.592	9014.3588
706.787	9139.23042
706.983	8698.81616
707.178	9088.06131
707.373	8698.81616
707.568	8830.00262
707.763	8704.9672
707.959	8991.83407
708.154	8647.551
708.349	8914.00498
708.544	8698.81616
708.739	9188.34269
708.934	8807.46026
709.129	8860.73869
709.324	8489.5809
709.519	9102.38974
709.714	8567.55412
709.909	8895.56801
710.104	8489.5809
710.299	8772.61774
710.494	8620.88854
710.689	8985.6906
710.884	8914.00498
711.079	8971.35521
711.274	8567.55412
711.469	8932.44049
711.664	8737.76995
711.859	9073.73203
712.054	8764.41874
712.249	8723.41933
712.443	8713.16833
712.638	8823.85492
712.833	8735.71992
713.028	8950.87458
713.223	8830.00262
713.417	8733.66987
713.612	8698.81616
713.807	8922.19872
714.002	8384.88933
714.196	8868.93429
714.391	8698.81616
714.586	8719.31898
714.78	8633.19468
714.975	8551.14098
715.17	8641.39841
715.364	8776.71713
715.559	8649.60183
715.754	8745.96991
715.948	8721.36916
716.143	8967.25922
716.337	8637.29658
716.532	8830.00262
716.726	8758.26929
716.921	8854.5918
717.115	8559.3477
717.31	8707.01751
717.504	8618.83745
717.699	8688.56405
717.893	8563.45095
718.088	8713.16833
718.282	8762.36894
718.476	8733.66987
718.671	8354.08815
718.865	8590.12023
719.059	8608.58172
719.254	8624.99066
719.448	8534.72662
719.642	8590.12023
719.837	8237.00364
720.031	8510.10282
720.225	8308.90518
720.419	8616.78634
720.614	8499.8421
720.808	8571.65722
721.002	8448.53133
721.196	8485.47628
721.39	8489.5809
721.585	8489.5809
721.779	8491.63318
721.973	8479.31922
722.167	8271.93025
722.361	8450.58399
722.555	8037.60652
722.749	8308.90518
722.943	8471.10954
723.137	8222.62044
723.331	8140.41205
723.525	8487.5286
723.719	8304.79716
723.913	8391.04904
724.107	8345.87377
724.301	8524.46704
724.495	8469.05707
724.689	8450.58399
724.883	8393.10224
725.077	8450.58399
725.271	8306.85118
725.465	8319.17486
725.659	8056.11524
725.853	8173.29923
726.046	8146.57879
726.24	8216.45591
726.434	7936.80794
726.628	8273.98458
726.822	8222.62044
727.015	8165.07791
727.209	8265.76714
727.403	8163.02254
727.596	8230.83953
727.79	8598.32552
727.984	8284.25593
728.177	8510.10282
728.371	8577.81173
728.565	8530.62285
728.758	8200.0163
728.952	8458.79444
729.146	8306.85118
729.339	8830.00262
729.533	8417.73912
729.726	8618.83745
729.92	8475.21442
730.113	8577.81173
730.307	8296.58091
730.5	8573.70874
730.694	8177.40977
730.887	8508.05071
731.081	8335.60535
731.274	8286.31014
731.468	8216.45591
731.661	8384.88933
731.854	8148.63433
732.048	8356.1417
732.241	8072.56606
732.435	8245.22218
732.628	8302.74313
732.821	8095.18382
733.014	8280.14745
733.208	8146.57879
733.401	8284.25593
733.594	8107.51976
733.788	8557.29605
733.981	8481.3716
734.174	8352.03458
734.367	8261.65831
734.56	8243.16757
734.754	8388.99583
734.947	8354.08815
735.14	8286.31014
735.333	8386.94259
735.526	8417.73912
735.719	8156.85628
735.912	8072.56606
736.105	8298.635
736.298	8243.16757
736.491	8146.57879
736.684	8068.45347
736.877	8121.91077
737.07	8265.76714
737.263	8356.1417
737.456	8076.67856
737.649	7965.61254
737.842	8181.52022
738.035	8082.84716
738.228	8084.90332
738.421	8425.9508
738.614	8292.47266
738.807	8204.12632
739	8193.85112
739.192	8206.1813
739.385	8339.71277
739.578	8113.68745
739.771	8204.12632
739.964	8247.27676
740.156	8117.79915
740.349	7940.92313
740.542	8261.65831
740.735	8068.45347
740.927	8237.00364
741.12	8027.32319
741.313	8000.58416
741.505	8095.18382
741.698	8146.57879
741.891	7990.299
742.083	8206.1813
742.276	8269.8759
742.468	7961.49784
742.661	8150.68984
742.854	8060.22806
743.046	8000.58416
743.239	7998.52717
743.431	8204.12632
743.624	8027.32319
743.816	7998.52717
744.009	7918.28857
744.201	7733.00266
744.393	8177.40977
744.586	8056.11524
744.778	7961.49784
744.971	7755.65778
745.163	7724.76381
745.355	7932.69267
745.548	7792.72432
745.74	7768.01405
745.932	7805.07833
746.125	8010.86881
746.317	8017.03936
746.509	7879.18666
746.702	8105.46382
746.894	7986.18479
747.086	8093.12776
747.278	7854.48687
747.471	7924.46188
747.663	7809.19617
747.855	8008.81192
748.047	8029.3799
748.239	8043.77628
748.431	8113.68745
748.623	8091.07168
748.815	8045.83282
749.008	8171.24393
749.2	8023.20972
749.392	8123.96655
749.584	7998.52717
749.776	8101.35188
749.968	8025.26647
750.16	8263.71274
750.352	8245.22218
750.544	8251.38588
750.736	8014.98253
750.928	8113.68745
751.12	7998.52717
751.311	7739.18158
751.503	7765.95472
751.695	7695.92516
751.887	7603.20144
752.079	7815.37276
752.271	7739.18158
752.463	7800.96041
752.654	7891.53544
752.846	7998.52717
753.038	7735.06232
753.23	7743.30076
753.421	7652.65944
753.613	7817.43159
753.805	7848.31146
753.997	7656.78039
754.188	7751.53886
754.38	7887.41926
754.572	7697.9852
754.763	7842.13586
754.955	7879.18666
755.146	7955.32564
755.338	7745.36031
755.53	7947.09576
755.721	7967.66985
755.913	8047.88934
756.104	7776.25114
756.296	7636.1748
756.487	7413.49815
756.679	7679.44408
756.87	7611.44529
757.062	7605.26243
757.253	7691.80502
757.445	7685.62465
757.636	7776.25114
757.827	7792.72432
758.019	7984.12766
758.21	7825.66668
758.401	7679.44408
758.593	7454.75352
758.784	7374.29749
758.975	7528.9914
759.167	7578.46784
759.358	7611.44529
759.549	7481.56487
759.74	7586.71271
759.932	7347.47146
760.123	7266.97115
760.314	7454.75352
760.505	7456.81606
760.696	7465.06601
760.888	7487.75158
761.079	7293.8083
761.27	7405.24603
761.461	7233.93571
761.652	7388.74075
761.843	7037.6708
762.034	7396.99357
762.225	7120.33316
762.416	7302.06513
762.607	7200.89462
762.798	7322.70569
762.989	7258.71282
763.18	7487.75158
763.371	7198.82936
763.562	7355.72602
763.753	7180.24105
763.944	7413.49815
764.135	7190.56811
764.326	7436.18967
764.517	7487.75158
764.708	7190.56811
764.899	7101.73725
765.089	7122.39926
765.28	7126.5314
765.471	7438.25241
765.662	7083.13953
765.853	7021.13402
766.043	7033.53674
766.234	6998.39361
766.425	6760.48905
766.615	7016.99961
766.806	6983.92102
766.997	6911.54149
767.187	6843.27253
767.378	7110.00232
767.569	6926.01962
767.759	7244.25989
767.95	6919.81484
768.141	7097.60458
768.331	7054.20613
768.522	6992.19121
768.712	6903.26778
768.903	6853.6179
769.093	6615.52979
769.284	6727.36542
769.474	6814.30246
769.665	6797.74613
769.855	6735.64687
770.046	6892.92514
770.236	6834.99582
770.426	6841.20339
770.617	6814.30246
770.807	6992.19121
770.998	6944.63271
771.188	6801.88535
771.378	6663.17168
771.569	6696.30669
771.759	6793.60682
771.949	6735.64687
772.139	6785.32793
772.33	6528.50005
772.52	6704.58952
772.71	6756.34891
772.9	6654.88701
773.09	6661.10054
773.281	6677.66897
773.471	6565.8035
773.661	6578.23632
773.851	6538.86287
774.041	6480.8236
774.231	6677.66897
774.421	6412.3968
774.611	6572.02001
774.802	6292.07004
774.992	6455.94406
775.182	6337.72047
775.372	6406.17493
775.562	6323.19656
775.752	6538.86287
775.942	6321.12162
776.131	6412.3968
776.321	6132.20428
776.511	6501.554
776.701	6495.33512
776.891	6615.52979
777.081	6341.86995
777.271	6455.94406
777.461	6304.52128
777.651	6576.16424
777.84	6240.18081
778.03	6179.97096
778.22	6140.51242
778.41	6281.69337
778.599	6165.43459
778.789	6254.71127
778.979	6169.58795
779.169	6109.35496
779.358	6179.97096
779.548	6121.81858
779.738	6223.57317
779.927	6300.37096
780.117	6231.87718
780.307	6242.25666
780.496	6036.63362
780.686	6157.12758
780.875	5828.69935
781.065	6260.93826
781.254	6173.74123
781.444	6275.46708
781.633	5932.69596
781.823	6242.25666
782.012	6080.26988
782.202	6107.2776
782.391	5764.19182
782.581	5980.5146
782.77	5922.29895
782.96	5849.50339
783.149	5757.94795
783.338	5916.06047
783.528	5855.74414
783.717	5916.06047
783.906	5855.74414
784.096	5992.98698
784.285	5797.48886
784.474	6084.42517
784.663	5955.5673
784.853	6005.45851
785.042	5893.18419
785.231	5897.34373
785.42	5812.05441
785.61	5776.67892
785.799	5672.5938
785.988	5965.96242
786.177	5768.35428
786.366	5793.32706
786.555	5564.28272
786.744	5726.72543
786.933	5445.4839
787.122	5889.02457
787.312	5647.6046
787.501	5735.05195
787.69	5497.59806
787.879	5597.616
788.068	5505.93496
788.257	5616.36331
788.445	5309.91837
788.634	5724.64374
788.823	5622.61199
789.012	5676.75834
789.201	5630.94324
789.39	5647.6046
789.579	5405.86731
789.768	5658.01718
789.957	5414.20835
790.145	5614.28037
790.334	5422.54902
790.523	5572.6166
790.712	5501.76656
790.9	5630.94324
791.089	5347.46952
791.278	5747.54103
791.467	5343.29754
791.655	5772.51665
791.844	5547.61381
792.033	5284.88005
792.221	5320.35
792.41	5397.5259
792.599	5268.18597
792.787	5499.68232
792.976	5432.97432
793.164	5266.09911
793.353	5641.35677
793.541	5414.20835
793.73	5357.89904
793.918	5380.84194
794.107	5274.44643
794.295	5414.20835
794.484	5345.38354
794.672	5585.11672
794.861	5432.97432
795.049	5391.26959
795.238	5130.4028
795.426	5172.16599
795.614	5291.13995
795.803	5312.00474
795.991	5103.25173
796.179	5226.44422
796.368	4990.42848
796.556	5372.4994
796.744	5163.8141
796.932	5266.09911
797.121	4921.44781
797.309	5284.88005
797.497	5107.42907
797.685	5305.74555
797.874	5090.71915
798.062	5264.01222
798.25	5051.02713
798.438	5205.56985
798.626	5138.75618
798.814	5153.37371
799.002	5172.16599
799.19	5165.90211
799.378	5025.95418
799.566	5289.05334
799.755	5080.27469
799.943	5101.16303
800.131	5040.58047
800.318	5030.13324
800.506	4787.59602
800.694	5069.82966
800.882	4948.62501
801.07	5126.22596
801.258	4904.72146
801.446	5297.39963
801.634	4837.8014
801.822	5036.40165
802.01	5048.93785
802.197	5165.90211
802.385	5042.66985
802.573	5025.95418
802.761	4913.08482
802.949	5080.27469
803.136	4996.69821
803.324	5299.48615
803.512	4998.78807
803.699	5130.4028
803.887	5076.09675
804.075	5201.39469
804.262	4996.69821
804.45	5184.69314
804.638	4659.93194
804.825	4965.3475
805.013	5055.20563
805.201	5186.78091
805.388	4779.22718
805.576	5159.63801
805.763	5021.77503
805.951	5234.79332
806.138	5099.0743
806.326	5013.41646
806.513	4754.1185
806.701	4990.42848
806.888	4988.33852
807.075	5274.44643
807.263	5044.75921
807.45	5096.98555
807.638	5138.75618
807.825	5299.48615
808.012	4973.70819
808.2	5366.24224
808.387	4946.53459
808.574	5272.35963
808.761	5161.72607
808.949	5193.0441
809.136	4779.22718
809.323	5096.98555
809.51	5165.90211
809.698	5155.46183
809.885	5042.66985
810.072	5405.86731
810.259	5088.6303
810.446	5289.05334
810.633	4931.90104
810.82	5197.21944
811.008	5059.38404
811.195	5230.61882
811.382	5032.22273
811.569	5197.21944
811.756	5222.26953
811.943	5205.56985
812.13	5090.71915
812.317	5301.57264
812.504	4959.07674
812.691	5257.75141
812.878	5299.48615
813.064	5142.93273
813.251	4910.99402
813.438	5257.75141
813.625	4904.72146
813.812	4986.24855
813.999	4984.15855
814.186	5105.34042
814.372	4921.44781
814.559	5172.16599
814.746	4798.05656
814.933	5305.74555
815.12	5067.74058
815.306	5151.28556
815.493	5019.68543
815.68	5222.26953
815.866	5082.36363
816.053	5259.83837
816.24	5122.04904
816.426	5034.3122
816.613	4854.53361
816.799	5205.56985
816.986	4996.69821
817.173	5113.69491
817.359	4879.62918
817.546	4986.24855
817.732	4777.13492
817.919	5197.21944
818.105	4948.62501
818.292	4942.35369
818.478	4950.7154
818.665	4961.16701
818.851	4841.98459
819.037	5005.05752
819.224	4879.62918
819.41	4965.3475
819.597	5044.75921
819.783	5199.30708
819.969	4982.06852
820.156	5113.69491
820.342	5099.0743
820.528	5021.77503
820.714	5107.42907
820.901	5069.82966
821.087	5080.27469
821.273	5101.16303
821.459	4996.69821
821.646	5130.4028
821.832	4904.72146
822.018	5251.49039
822.204	4883.81146
822.39	5071.91871
822.576	4823.15952
822.762	5155.46183
822.948	4682.95953
823.134	4852.44216
823.32	4898.4487
823.507	4871.26436
823.693	4674.58618
823.879	5044.75921
824.065	4664.11898
824.25	4785.50385
824.436	4645.2766
824.622	4741.56293
824.808	4714.35641
824.994	4756.21101
825.18	4603.39815
825.366	4802.24061
825.552	4527.99448
825.738	4908.90319
825.923	4542.65856
826.109	4963.25727
826.295	4490.28187
826.481	4837.8014
826.667	4760.39598
826.852	4806.42457
827.038	4502.85353
827.224	4787.59602
827.409	4588.73859
827.595	4739.47026
827.781	4456.75355
827.966	4705.98441
828.152	4498.66306
828.338	4676.67955
828.523	4318.39007
828.709	4527.99448
828.894	4318.39007
829.08	4423.2196
829.266	4343.5541
829.451	4569.88897
829.637	4385.48723
829.822	4544.75334
830.008	4284.8332
830.193	4708.07744
830.378	4364.52175
830.564	4540.56376
830.749	4655.74481
830.935	4791.7803
831.12	4435.79549
831.305	4599.20982
831.491	4282.73571
831.676	4439.98728
831.861	4142.15551
832.047	4372.9082
832.232	4158.94621
832.417	4502.85353
832.602	4385.48723
832.788	4571.98346
832.973	4326.77843
833.158	4435.79549
833.343	4234.48759
833.528	4419.02747
833.714	4240.78146
833.899	4305.80689
834.084	4156.84744
834.269	4259.66193
834.454	4209.31018
834.639	4221.89927
834.824	3967.87351
835.009	4209.31018
835.194	4148.45218
835.379	4460.94489
835.564	4091.77539
835.749	4494.47251
835.934	4135.85866
836.119	4452.56211
836.304	4066.58083
836.489	4196.72033
836.674	4089.67596
836.859	4179.93267
837.044	4142.15551
837.228	4330.97248
837.413	4060.28172
837.598	4163.14367
837.783	3890.13609
837.968	4154.74866
838.152	3742.99061
838.337	4081.27802
838.522	3888.03469
838.707	4211.40841
838.891	4091.77539
839.076	4047.68295
839.261	3824.98359
839.445	4095.9742
839.63	3797.65591
839.815	3923.75566
839.999	3934.26072
840.184	4098.07357
840.368	3705.13771
840.553	4091.77539
840.737	3858.61308
840.922	3961.57151
841.106	3698.82829
841.291	3745.09337
841.475	3637.82833
841.66	3965.77287
841.844	3564.18654
842.029	3789.24673
842.213	3543.14183
842.397	3721.962
842.582	3446.31264
842.766	3665.17512
842.951	3528.40944
843.135	3639.93204
843.319	3564.18654
843.504	3772.42741
843.688	3764.01729
843.872	3864.91804
844.056	3967.87351
844.241	4066.58083
844.425	3787.14438
844.609	3814.47334
844.793	3484.2069
844.977	3591.54188
845.161	3524.20003
845.346	3549.45544
845.53	3383.14267
845.714	3671.48546
845.898	3496.83702
846.082	3793.45136
846.266	3353.65792
846.45	3562.08215
846.634	3328.38256
846.818	3570.49959
847.002	3494.73204
847.186	3667.27858
847.37	3629.41329
847.554	3745.09337
847.738	3496.83702
847.922	3768.22239
848.106	3602.06232
848.29	3431.57441
848.473	3442.1018
848.657	3488.41701
848.841	3319.95689
849.025	3522.09529
849.209	3119.76807
849.392	3486.31196
849.576	3252.54167
849.76	3248.32764
849.944	3414.72965
850.127	3566.2909
850.311	3113.44391
850.495	3347.33931
850.678	3197.75411
850.862	3488.41701
851.046	3242.00648
851.229	3284.14472
851.413	3208.29105
851.596	3465.2605
851.78	3145.06327
851.964	3237.79228
852.147	3018.56452
852.331	3183.00171
852.514	3153.49449
852.698	3277.82441
852.881	3041.76017
853.065	3300.99812
853.248	3075.49595
853.431	3075.49595
853.615	2972.16768
853.798	3081.82097
853.982	2856.14422
854.165	3149.27891
854.348	2792.8405
854.532	3094.47057
854.715	2959.51273
854.898	3031.21692
855.081	2708.41647
855.265	3077.60431
855.448	2786.50944
855.631	3083.92927
855.814	2873.02308
855.997	3092.36234
856.181	2839.26445
856.364	3001.69379
856.547	2896.23002
856.73	2999.58488
856.913	2786.50944
857.096	3005.91156
857.279	2921.54468
857.462	2936.3106
857.645	2845.59447
857.828	2963.73111
858.011	2854.0343
858.194	3136.63179
858.377	2718.97063
858.56	2887.79133
858.743	2638.75093
858.926	2702.08382
859.109	2499.37978
859.292	2771.7365
859.475	2364.18502
859.658	2642.97347
859.841	2630.30568
860.023	2727.41373
860.206	2397.98778
860.389	2541.61889
860.572	2366.29777
860.755	2583.85334
860.937	2419.11315
861.12	2550.06615
861.303	2493.04352
861.486	2558.51323
861.668	2452.91155
861.851	2499.37978
862.034	2250.08216
862.216	2651.41842
862.399	2359.9595
862.581	2495.15561
862.764	2247.96888
862.947	2507.82796
863.129	2391.64996
863.312	2537.39518
863.494	2423.3381
863.677	2524.72379
863.859	2372.63596
864.042	2417.00066
864.224	2254.30867
864.406	2353.62113
864.589	2197.24767
864.771	2391.64996
864.954	2228.94902
865.136	2402.21294
865.318	2053.51199
865.501	2254.30867
865.683	2186.68013
865.865	2364.18502
866.048	2030.2574
866.23	2277.55388
866.412	2042.94183
866.594	2469.8097
866.777	2193.02068
866.959	2393.76258
867.141	2157.0899
867.323	2321.92796
867.505	2085.22143
867.687	2131.72558
867.869	2057.74001
868.052	2154.97625
868.234	1949.91721
868.416	2250.08216
868.598	2047.16991
868.78	2169.77162
868.962	2222.60891
869.144	2452.91155
869.326	2085.22143
869.508	2165.54441
869.69	2135.95305
869.872	2237.40238
870.054	2102.13245
870.236	2237.40238
870.417	2123.27055
870.599	2218.38212
870.781	2148.63525
870.963	2336.71838
871.145	2152.86259
871.327	2068.30993
871.508	2034.48557
871.69	2182.45305
871.872	2013.34445
872.054	2269.10121
872.235	1854.76655
872.417	2212.04188
872.599	1962.60311
872.78	2207.815
872.962	2074.6518
873.144	2087.33533
873.325	1913.9727
873.507	2032.37149
873.689	1994.31687
873.87	2087.33533
874.052	2011.2303
874.233	2271.21439
874.415	1975.28878
874.596	2277.55388
874.778	1689.81661
874.959	2034.48557
875.141	1806.13003
875.322	2218.38212
875.503	1848.42279
875.685	2190.90717
875.866	1778.6388
876.048	2129.61184
876.229	2051.39797
876.41	1907.62938
876.592	1922.43038
876.773	2070.42389
876.954	1708.85044
877.136	1856.88112
877.317	1804.01535
877.498	1952.03154
877.679	1835.73516
877.86	2017.57273
878.042	1835.73516
878.223	2030.2574
878.404	1886.48464
878.585	1901.28602
878.766	1818.81805
878.947	2002.77364
879.128	1867.45392
879.309	2011.2303
879.49	1658.09304
879.672	1990.08845
879.853	1865.33937
880.034	2036.59964
880.215	1952.03154
880.396	2165.54441
880.576	1958.3745
880.757	2053.51199
880.938	1875.91207
881.119	2034.48557
881.3	1831.50591
881.481	2220.49552
881.662	1897.05708
881.843	1941.45983
882.023	1954.14587
882.204	2089.44923
882.385	2019.68685
882.566	1992.20267
882.747	1998.54527
882.927	2205.70155
883.108	1933.00235
883.289	2085.22143
883.469	1723.65435
883.65	2009.11614
883.831	1839.96439
884.011	2116.9292
884.192	1992.20267
884.373	2144.40788
884.553	1863.22481
884.734	2059.85401
884.914	1905.51493
885.095	2207.815
885.275	1990.08845
885.456	2214.1553
885.636	2023.91509
885.817	2138.06677
885.997	2064.08198
886.178	2154.97625
886.358	1998.54527
886.538	2165.54441
886.719	2004.88781
886.899	2038.71371
887.08	2205.70155
887.26	2178.22594
887.44	2017.57273
887.621	2083.10751
887.801	1909.74383
887.981	2142.29418
888.161	2026.0292
888.342	2093.677
888.522	1892.82812
888.702	2169.77162
888.882	1971.06025
889.062	2142.29418
889.242	1894.9426
889.423	2114.81541
889.603	1882.25563
889.783	2171.88521
889.963	2017.57273
890.143	2214.1553
890.323	1909.74383
890.503	2182.45305
890.683	1985.86001
890.863	2222.60891
891.043	1920.31597
891.223	2127.49808
891.403	1878.02659
891.583	2165.54441
891.763	1928.77358
891.943	2028.1433
892.122	1943.57418
892.302	2034.48557
892.482	2083.10751
892.662	2165.54441
892.842	1848.42279
893.022	2182.45305
893.201	1916.08713
893.381	2135.95305
893.561	1918.20155
893.741	1935.11673
893.92	1827.27664
894.1	2007.00198
894.28	1975.28878
894.459	1983.74577
894.639	1691.93149
894.819	1952.03154
894.998	1795.55657
895.178	2053.51199
895.357	1848.42279
895.537	2042.94183
895.716	1768.06506
895.896	1780.75353
896.075	1675.01235
896.255	1698.27612
896.434	1749.0321
896.614	1865.33937
896.793	1653.86318
896.973	1749.0321
897.152	1476.20267
897.331	1816.70339
897.511	1670.78254
897.69	1772.29457
897.87	1552.34408
898.049	1615.79405
898.228	1729.99884
898.407	1784.98299
898.587	1537.5389
898.766	1804.01535
898.945	1512.15846
899.124	1738.4581
899.304	1446.59194
899.483	1645.40344
899.662	1438.13174
899.841	1636.94366
900.02	1368.33529
900.199	1503.69829
900.378	1311.22997
900.557	1495.23811
900.737	1349.30007
900.916	1556.57412
901.095	1332.37996
901.274	1520.61862
901.453	1307
901.632	1484.66287
901.811	1292.19514
901.989	1501.58325
902.168	1296.42509
902.347	1393.71573
902.526	1167.41654
902.705	1366.22027
902.884	1376.79543
903.063	1459.28226
903.242	1302.77003
903.42	1450.82205
903.599	1334.49497
903.778	1389.48565
903.957	1173.76094
904.135	1283.73527
904.314	1087.05747
904.493	1216.05777
904.672	1205.48343
904.85	1218.17265
905.029	1065.91149
905.207	1023.62118
905.386	1017.27783
905.565	1120.89207
905.743	1129.35091
905.922	1163.18696
906.1	1046.88057
906.279	1123.00677
906.457	909.45008
906.636	1131.46563
906.814	884.08162
906.993	960.1903
907.171	960.1903
907.35	1099.7453
907.528	955.96179
907.707	1082.82823
907.885	833.34828
908.063	886.19561
908.242	892.53765
908.42	1021.50672
908.598	776.27947
908.777	841.80349
908.955	945.39064
909.133	960.1903
909.311	685.40726
909.49	761.485
909.668	807.98352
909.846	778.393
910.024	706.53856
910.202	862.94213
910.38	681.18114
910.559	818.55201
910.737	774.16594
910.915	1080.71362
911.093	731.89756
911.271	911.56417
911.449	892.53765
911.627	894.65167
911.805	710.76495
911.983	970.7617
912.161	884.08162
912.339	884.08162
912.517	784.73367
912.695	968.64741
912.872	816.43829
913.05	900.9938
913.228	786.84724
913.406	917.90649
913.584	799.52889
913.762	977.10462
913.939	900.9938
914.117	1036.30803
914.295	884.08162
914.473	1099.7453
914.65	884.08162
914.828	953.84754
915.006	774.16594
915.184	1053.22416
915.361	867.16996
915.539	900.9938
915.716	807.98352
915.894	907.336
916.072	936.93384
916.249	913.67827
916.427	892.53765
916.604	981.33327
916.782	765.71194
916.959	862.94213
917.137	757.2581
917.314	964.41884
917.492	630.47131
917.669	945.39064
917.847	774.16594
918.024	786.84724
918.201	744.57764
918.379	805.86985
918.556	797.41526
918.733	710.76495
918.911	641.03529
919.088	729.78425
919.265	660.05121
919.442	748.80442
919.62	573.43126
919.797	807.98352
919.974	605.11903
920.151	714.99138
920.328	657.93829
920.506	731.89756
920.683	647.37382
920.86	693.85964
921.037	600.89382
921.214	632.58408
921.391	649.48669
921.568	681.18114
921.745	579.76858
921.922	590.33104
922.099	664.2771
922.276	774.16594
922.453	643.14812
922.63	569.20645
922.807	666.39007
922.984	571.31885
923.161	457.26933
923.338	685.40726
923.514	455.15771
923.691	634.69687
923.868	590.33104
924.045	605.11903
924.222	493.16926
924.399	562.86933
924.575	478.38641
924.752	636.80966
924.929	558.64466
925.105	554.42003
925.282	510.06483
925.459	520.62503
925.635	588.21852
925.812	461.49263
925.989	505.84085
926.165	514.28887
926.342	503.72888
926.518	550.19546
926.695	429.81942
926.871	472.05113
927.048	533.29774
927.224	404.48342
927.401	366.48384
927.577	463.6043
927.754	351.7077
927.93	455.15771
928.107	339.04311
928.283	345.37533
928.459	503.72888
928.636	393.92744
928.812	387.59405
928.988	326.37915
929.165	385.48296
929.341	423.48521
929.517	296.83241
929.693	368.59479
929.87	334.82172
930.046	309.49486
930.222	385.48296
930.398	330.6004
930.574	353.81853
930.751	347.4861
930.927	400.26098
931.103	377.03874
931.279	379.14977
931.455	406.59467
931.631	279.95016
931.807	389.70517
931.983	383.37188
932.159	402.37219
932.335	248.29916
932.511	351.7077
932.687	296.83241
932.863	301.05315
933.039	216.6525
933.215	368.59479
933.391	326.37915
933.566	309.49486
933.742	275.72978
933.918	296.83241
934.094	252.51905
934.27	301.05315
934.445	260.95905
934.621	233.53017
934.797	227.2009
934.973	233.53017
935.148	157.59075
935.324	210.32369
935.5	102.7624
935.675	208.21413
935.851	216.6525
936.027	273.61962
936.202	115.4138
936.378	233.53017
936.553	174.4639
936.729	140.71894
936.904	185.01029
937.08	111.19658
937.255	90.11179
937.431	96.437
937.606	104.87091
937.782	142.82785
937.957	115.4138
938.133	117.52244
938.308	81.6785
938.483	153.37267
938.659	98.54544
938.834	98.54544
939.009	-42.66935
939.185	140.71894
939.36	109.088
939.535	115.4138
939.71	88.00344
939.886	157.59075
940.061	37.40968
940.236	98.54544
940.411	123.8485
940.586	134.39237
940.761	79.57023
940.937	31.08639
941.112	62.70491
941.287	60.59685
941.462	47.94895
941.637	26.87099
941.812	10.01031
941.987	119.63111
942.162	39.51749
942.337	-32.13465
942.512	31.08639
942.687	102.7624
942.862	43.73317
943.037	-23.70644
943.212	98.54544
943.386	90.11179
943.561	56.38079
943.736	96.437
943.911	52.16483
944.086	64.813
944.26	31.08639
944.435	26.87099
944.61	39.51749
944.785	123.8485
944.959	66.92111
945.134	75.35377
945.309	-2.6342
945.483	100.65391
945.658	88.00344
945.833	106.97945
946.007	22.65567
946.182	75.35377
946.357	47.94895
946.531	109.088
946.706	18.44046
946.88	66.92111
947.055	52.16483
947.229	47.94895
947.404	39.51749
947.578	73.24557
947.752	123.8485
947.927	10.01031
948.101	22.65567
948.276	10.01031
948.45	22.65567
948.624	66.92111
948.799	-11.06339
948.973	77.46199
949.147	75.35377
949.321	-21.59933
949.496	37.40968
949.67	33.19413
949.844	90.11179
950.018	56.38079
950.193	64.813
950.367	45.84105
950.541	50.05688
950.715	69.02924
950.889	47.94895
951.063	58.48881
951.237	39.51749
951.411	117.52244
951.585	69.02924
951.759	66.92111
951.933	52.16483
952.107	7.90283
952.281	73.24557
952.455	92.22017
952.629	83.78679
952.803	1.58054
952.977	75.35377
953.151	98.54544
953.325	24.76332
953.499	24.76332
953.672	64.813
953.846	81.6785
954.02	31.08639
954.194	35.30189
954.368	77.46199
954.541	-2.6342
954.715	26.87099
954.889	98.54544
955.062	58.48881
955.236	45.84105
955.41	-15.27784
955.583	54.2728
955.757	170.24549
955.93	52.16483
956.104	28.97868
956.278	56.38079
956.451	117.52244
956.625	75.35377
956.798	56.38079
956.972	52.16483
957.145	128.06598
957.319	58.48881
957.492	77.46199
957.665	75.35377
957.839	106.97945
958.012	90.11179
958.185	85.8951
958.359	66.92111
958.532	90.11179
958.705	81.6785
958.879	85.8951
959.052	12.11781
959.225	94.32857
959.398	98.54544
959.572	35.30189
959.745	14.22533
959.918	60.59685
960.091	37.40968
960.264	1.58054
960.438	83.78679
960.611	56.38079
960.784	90.11179
960.957	85.8951
961.13	35.30189
961.303	39.51749
961.476	106.97945
961.649	45.84105
961.822	43.73317
961.995	-2.6342
962.168	64.813
962.341	35.30189
962.514	117.52244
962.686	75.35377
962.859	35.30189
963.032	69.02924
963.205	41.62532
963.378	24.76332
963.551	50.05688
963.723	-38.45555
963.896	100.65391
964.069	113.30518
964.242	71.13739
964.414	62.70491
964.587	100.65391
964.76	31.08639
964.932	22.65567
965.105	58.48881
965.278	18.44046
965.45	58.48881
965.623	75.35377
965.795	58.48881
965.968	39.51749
966.14	28.97868
966.313	64.813
966.485	64.813
966.658	56.38079
966.83	77.46199
967.003	62.70491
967.175	66.92111
967.348	73.24557
967.52	69.02924
967.692	45.84105
967.865	45.84105
968.037	35.30189
968.209	-2.6342
968.382	58.48881
968.554	26.87099
968.726	31.08639
968.898	56.38079
969.071	-19.49219
969.243	56.38079
969.415	-2.6342
969.587	56.38079
969.759	39.51749
969.932	69.02924
970.104	60.59685
970.276	16.33288
970.448	-67.95008
970.62	16.33288
970.792	41.62532
970.964	35.30189
971.136	41.62532
971.308	52.16483
971.48	22.65567
971.652	56.38079
971.824	22.65567
971.996	39.51749
972.168	56.38079
972.339	75.35377
972.511	58.48881
972.683	35.30189
972.855	41.62532
973.027	33.19413
973.199	64.813
973.37	-11.06339
973.542	3.68794
973.714	14.22533
973.886	3.68794
974.057	50.05688
974.229	77.46199
974.401	22.65567
974.572	106.97945
974.744	7.90283
974.915	52.16483
975.087	22.65567
975.259	1.58054
975.43	56.38079
975.602	35.30189
975.773	64.813
975.945	24.76332
976.116	5.79537
976.288	-25.81353
976.459	47.94895
976.63	10.01031
976.802	54.2728
976.973	100.65391
977.145	22.65567
977.316	-8.95613
977.487	20.54805
977.659	14.22533
977.83	92.22017
978.001	75.35377
978.172	-27.92059
978.344	16.33288
978.515	45.84105
978.686	-0.52684
978.857	83.78679
979.028	-2.6342
979.2	-11.06339
979.371	-2.6342
979.542	-61.63024
979.713	18.44046
979.884	14.22533
980.055	64.813
980.226	43.73317
980.397	-30.02763
980.568	73.24557
980.739	1.58054
980.91	106.97945
981.081	22.65567
981.252	-36.3486
981.423	47.94895
981.594	-17.38502
981.765	58.48881
981.936	-0.52684
982.106	96.437
982.277	24.76332
982.448	41.62532
982.619	64.813
982.79	22.65567
982.96	60.59685
983.131	14.22533
983.302	119.63111
983.472	31.08639
983.643	50.05688
983.814	64.813
983.984	-11.06339
984.155	18.44046
984.326	14.22533
984.496	22.65567
984.667	16.33288
984.837	20.54805
985.008	39.51749
985.178	-2.6342
985.349	56.38079
985.519	-6.84884
985.69	14.22533
985.86	-4.74153
986.031	-27.92059
986.201	41.62532
986.371	54.2728
986.542	22.65567
986.712	47.94895
986.882	22.65567
987.053	-36.3486
987.223	39.51749
987.393	5.79537
987.563	98.54544
987.734	39.51749
987.904	20.54805
988.074	39.51749
988.244	75.35377
988.414	60.59685
988.585	33.19413
988.755	66.92111
988.925	-76.37618
989.095	47.94895
989.265	16.33288
989.435	5.79537
989.605	-11.06339
989.775	90.11179
989.945	24.76332
990.115	-4.74153
990.285	-11.06339
990.455	58.48881
990.625	22.65567
990.795	81.6785
990.965	31.08639
991.134	-2.6342
991.304	45.84105
991.474	-48.98987
991.644	-17.38502
991.814	-44.77622
991.984	-55.31017
992.153	-8.95613
992.323	12.11781
992.493	3.68794
992.662	47.94895
992.832	69.02924
993.002	7.90283
993.171	-40.56246
993.341	-76.37618
993.511	-34.24164
993.68	-13.17063
993.85	-19.49219
994.019	45.84105
994.189	16.33288
994.358	-27.92059
994.528	-40.56246
994.697	56.38079
994.867	-0.52684
995.036	39.51749
995.206	47.94895
995.375	-65.84349
995.544	16.33288
995.714	-2.6342
995.883	-11.06339
996.052	28.97868
996.222	12.11781
996.391	62.70491
996.56	5.79537
996.73	-51.09666
996.899	47.94895
997.068	-2.6342
997.237	-23.70644
997.406	-27.92059
997.576	56.38079
997.745	10.01031
997.914	125.95723
998.083	-36.3486
998.252	31.08639
998.421	-15.27784
998.59	-0.52684
998.759	77.46199
998.928	-40.56246
999.097	14.22533
999.266	-53.20343
999.435	31.08639
999.604	39.51749
999.773	16.33288
999.942	-51.09666
1000.111	56.38079
1000.28	-0.52684
1000.448	7.90283
1000.617	35.30189
1000.786	10.01031
1000.955	39.51749
1001.124	-34.24164
1001.292	-34.24164
1001.461	10.01031
1001.63	24.76332
1001.798	-21.59933
1001.967	47.94895
1002.136	-59.52357
1002.304	31.08639
1002.473	43.73317
1002.642	-30.02763
1002.81	-8.95613
1002.979	-2.6342
1003.147	-23.70644
1003.316	90.11179
1003.484	-27.92059
1003.653	-2.6342
1003.821	-44.77622
1003.99	35.30189
1004.158	-59.52357
1004.327	-0.52684
1004.495	10.01031
1004.663	54.2728
1004.832	-63.73688
1005	-76.37618
1005.168	35.30189
1005.337	-42.66935
1005.505	1.58054
1005.673	47.94895
1005.842	-34.24164
1006.01	-6.84884
1006.178	-53.20343
1006.346	-40.56246
1006.514	56.38079
1006.683	31.08639
1006.851	-4.74153
1007.019	52.16483
1007.187	-57.41689
1007.355	18.44046
1007.523	85.8951
1007.691	31.08639
1007.859	35.30189
1008.027	-8.95613
1008.195	-2.6342
1008.363	-32.13465
1008.531	-11.06339
1008.699	-27.92059
1008.867	1.58054
1009.035	-6.84884
1009.203	69.02924
1009.37	43.73317
1009.538	-6.84884
1009.706	47.94895
1009.874	1.58054
1010.042	-25.81353
1010.209	16.33288
1010.377	3.68794
1010.545	-2.6342
1010.713	-44.77622
1010.88	-86.90822
1011.048	56.38079
1011.216	64.813
1011.383	-11.06339
1011.551	-15.27784
1011.718	-25.81353
1011.886	-32.13465
1012.054	-42.66935
1012.221	-32.13465
1012.389	-6.84884
1012.556	-23.70644
1012.724	7.90283
1012.891	41.62532
1013.058	50.05688
1013.226	-76.37618
1013.393	5.79537
1013.561	16.33288
1013.728	-8.95613
1013.895	75.35377
1014.063	10.01031
1014.23	-27.92059
1014.397	-8.95613
1014.565	-17.38502
1014.732	47.94895
1014.899	7.90283
1015.066	-2.6342
1015.233	-93.22713
1015.401	-2.6342
1015.568	33.19413
1015.735	10.01031
1015.902	-27.92059
1016.069	5.79537
1016.236	71.13739
1016.403	26.87099
1016.57	-13.17063
1016.737	5.79537
1016.904	-11.06339
1017.071	50.05688
1017.238	18.44046
1017.405	-70.05664
1017.572	-32.13465
1017.739	-15.27784
1017.906	73.24557
1018.073	52.16483
1018.24	10.01031
1018.407	5.79537
1018.573	-2.6342
1018.74	90.11179
1018.907	-17.38502
1019.074	-34.24164
1019.241	-44.77622
1019.407	-44.77622
1019.574	-8.95613
1019.741	28.97868
1019.907	56.38079
1020.074	-19.49219
1020.241	24.76332
1020.407	64.813
1020.574	-36.3486
1020.74	22.65567
1020.907	-17.38502
1021.073	22.65567
1021.24	-17.38502
1021.406	14.22533
1021.573	33.19413
1021.739	31.08639
1021.906	31.08639
1022.072	10.01031
1022.239	106.97945
1022.405	-6.84884
1022.571	39.51749
1022.738	-78.48264
1022.904	58.48881
1023.07	88.00344
1023.237	18.44046
1023.403	24.76332
1023.569	-17.38502
1023.735	-0.52684
1023.902	-17.38502
1024.068	18.44046
1024.234	-15.27784
1024.4	31.08639
1024.566	54.2728
1024.732	39.51749
1024.898	-53.20343
1025.065	-2.6342
1025.231	-44.77622
1025.397	28.97868
1025.563	-25.81353
1025.729	31.08639
1025.895	12.11781
1026.061	24.76332
1026.227	31.08639
1026.392	-53.20343
1026.558	7.90283
1026.724	26.87099
1026.89	-15.27784
1027.056	-82.69548
1027.222	43.73317
1027.388	24.76332
1027.553	-59.52357
1027.719	10.01031
1027.885	60.59685
1028.051	39.51749
1028.216	24.76332
1028.382	-27.92059
1028.548	-19.49219
1028.713	24.76332
1028.879	14.22533
1029.045	-25.81353
1029.21	-13.17063
1029.376	22.65567
1029.541	20.54805
1029.707	5.79537
1029.873	14.22533
1030.038	-36.3486
1030.204	-25.81353
1030.369	22.65567
1030.534	31.08639
1030.7	-4.74153
1030.865	-36.3486
1031.031	35.30189
1031.196	5.79537
1031.361	45.84105
1031.527	-63.73688
1031.692	-2.6342
1031.857	-2.6342
1032.023	1.58054
1032.188	-55.31017
1032.353	-53.20343
1032.518	26.87099
1032.684	-2.6342
1032.849	-59.52357
1033.014	-30.02763
1033.179	-8.95613
1033.344	22.65567
1033.509	64.813
1033.674	31.08639
1033.839	-2.6342
1034.004	-15.27784
1034.17	-51.09666
1034.335	5.79537
1034.5	-15.27784
1034.664	24.76332
1034.829	31.08639
1034.994	45.84105
1035.159	-11.06339
1035.324	7.90283
1035.489	-42.66935
1035.654	31.08639
1035.819	7.90283
1035.984	12.11781
1036.148	-6.84884
1036.313	-13.17063
1036.478	14.22533
1036.643	-53.20343
1036.807	-44.77622
1036.972	-2.6342
1037.137	31.08639
1037.301	-17.38502
1037.466	10.01031
1037.631	-6.84884
1037.795	-61.63024
1037.96	22.65567
1038.124	5.79537
1038.289	-2.6342
1038.454	-40.56246
1038.618	-30.02763
1038.783	35.30189
1038.947	-53.20343
1039.111	52.16483
1039.276	106.97945
1039.44	-19.49219
1039.605	98.54544
1039.769	-4.74153
1039.933	-34.24164
1040.098	-32.13465
1040.262	-8.95613
1040.426	-59.52357
1040.591	-19.49219
1040.755	22.65567
1040.919	1.58054
1041.083	14.22533
1041.248	5.79537
1041.412	-11.06339
1041.576	-6.84884
1041.74	10.01031
1041.904	5.79537
1042.068	-19.49219
1042.232	-23.70644
1042.397	-34.24164
1042.561	33.19413
1042.725	43.73317
1042.889	-19.49219
1043.053	1.58054
1043.217	26.87099
1043.381	22.65567
1043.544	12.11781
1043.708	26.87099
1043.872	-67.95008
1044.036	-4.74153
1044.2	1.58054
1044.364	22.65567
1044.528	-34.24164
1044.691	26.87099
1044.855	-61.63024
1045.019	-32.13465
1045.183	-36.3486
1045.346	-4.74153
1045.51	-91.12085
1045.674	-95.33338
1045.837	-63.73688
1046.001	-74.26969
1046.165	73.24557
1046.328	-59.52357
1046.492	81.6785
1046.655	16.33288
1046.819	22.65567
1046.983	10.01031
1047.146	-51.09666
1047.31	37.40968
1047.473	5.79537
1047.636	33.19413
1047.8	-42.66935
1047.963	-32.13465
1048.127	-21.59933
1048.29	-11.06339
