Data from mixed_try1_USB4F045381__9__00074.txt Node

Date: Thu Apr 03 19:51:51 EDT 2025
User: mmckonesweet
Spectrometer: USB4F04538
Trigger mode: 4
Integration Time (sec): 2.700000E-3
Scans to average: 1
Electric dark correction enabled: true
Nonlinearity correction enabled: true
Boxcar width: 0
XAxis mode: Wavelengths
Number of Pixels in Spectrum: 3648
>>>>>Begin Spectral Data<<<<<
345.52	-3.68787
345.736	-3.68787
345.952	-3.68787
346.168	-62.68356
346.384	-41.61591
346.6	19.49425
346.816	-7.90249
347.032	0.52684
347.248	-20.54576
347.464	27.92483
347.68	8.95656
347.896	-18.43861
348.112	-7.90249
348.328	-22.65289
348.544	-12.11701
348.76	51.11085
348.975	-18.43861
349.191	17.38667
349.407	-22.65289
349.623	-33.18815
349.839	-52.15005
350.055	59.54283
350.27	-28.97412
350.486	-28.97412
350.702	65.86705
350.918	59.54283
351.133	4.74166
351.349	-22.65289
351.565	-7.90249
351.781	-66.89679
351.996	25.81715
352.212	-7.90249
352.428	40.5714
352.644	44.78711
352.859	-16.33143
353.075	63.75895
353.291	2.63424
353.506	25.81715
353.722	-5.79519
353.938	34.24801
354.153	-16.33143
354.369	-16.33143
354.584	51.11085
354.8	17.38667
355.016	0.52684
355.231	-20.54576
355.447	-16.33143
355.662	-14.22423
355.878	36.35578
356.093	49.00291
356.309	-24.75999
356.524	67.97517
356.74	19.49425
356.955	-16.33143
357.171	17.38667
357.386	-7.90249
357.602	27.92483
357.817	30.03253
358.033	-16.33143
358.248	2.63424
358.464	-3.68787
358.679	6.8491
358.895	0.52684
359.11	42.67924
359.325	-54.2568
359.541	25.81715
359.756	4.74166
359.972	-39.50901
360.187	-43.72279
360.402	-24.75999
360.618	13.17157
360.833	-31.08114
361.048	-12.11701
361.264	11.06405
361.479	-7.90249
361.694	34.24801
361.909	23.70949
362.125	0.52684
362.34	19.49425
362.555	15.2791
362.77	-24.75999
362.986	-20.54576
363.201	-20.54576
363.416	2.63424
363.631	8.95656
363.847	19.49425
364.062	-10.00976
364.277	-12.11701
364.492	13.17157
364.707	-1.58052
364.922	-37.40208
365.138	74.29967
365.353	17.38667
365.568	46.895
365.783	-41.61591
365.998	23.70949
366.213	-102.70506
366.428	-75.32294
366.643	25.81715
366.858	-7.90249
367.073	-7.90249
367.288	-24.75999
367.503	-50.04327
367.718	11.06405
367.933	-56.36353
368.148	-28.97412
368.363	-7.90249
368.578	38.46358
368.793	-5.79519
369.008	-37.40208
369.223	8.95656
369.438	36.35578
369.653	-62.68356
369.868	30.03253
370.083	-20.54576
370.298	-14.22423
370.513	11.06405
370.728	-7.90249
370.943	0.52684
371.157	8.95656
371.372	11.06405
371.587	-39.50901
371.802	17.38667
372.017	-33.18815
372.232	17.38667
372.446	-56.36353
372.661	-24.75999
372.876	2.63424
373.091	-7.90249
373.306	67.97517
373.52	0.52684
373.735	25.81715
373.95	19.49425
374.165	27.92483
374.379	0.52684
374.594	11.06405
374.809	-3.68787
375.023	21.60186
375.238	34.24801
375.453	-24.75999
375.667	53.21881
375.882	-37.40208
376.097	34.24801
376.311	-24.75999
376.526	-56.36353
376.741	-31.08114
376.955	34.24801
377.17	34.24801
377.384	-41.61591
377.599	-5.79519
377.813	17.38667
378.028	0.52684
378.242	27.92483
378.457	4.74166
378.672	95.38278
378.886	46.895
379.101	-28.97412
379.315	8.95656
379.53	4.74166
379.744	-60.57691
379.958	11.06405
380.173	30.03253
380.387	-5.79519
380.602	-14.22423
380.816	-64.79019
381.031	2.63424
381.245	17.38667
381.459	17.38667
381.674	-12.11701
381.888	-33.18815
382.103	51.11085
382.317	-14.22423
382.531	2.63424
382.746	0.52684
382.96	49.00291
383.174	-75.32294
383.388	-33.18815
383.603	17.38667
383.817	21.60186
384.031	-24.75999
384.246	-52.15005
384.46	4.74166
384.674	-50.04327
384.888	63.75895
385.103	-7.90249
385.317	0.52684
385.531	61.65088
385.745	-20.54576
385.959	-35.29512
386.174	34.24801
386.388	8.95656
386.602	44.78711
386.816	17.38667
387.03	-12.11701
387.244	34.24801
387.458	76.40788
387.672	61.65088
387.887	-7.90249
388.101	46.895
388.315	-45.82964
388.529	-12.11701
388.743	-16.33143
388.957	8.95656
389.171	-41.61591
389.385	76.40788
389.599	-16.33143
389.813	59.54283
390.027	-7.90249
390.241	25.81715
390.455	36.35578
390.669	67.97517
390.883	27.92483
391.097	2.63424
391.311	-35.29512
391.525	-37.40208
391.738	-24.75999
391.952	-20.54576
392.166	-64.79019
392.38	-1.58052
392.594	8.95656
392.808	25.81715
393.022	-3.68787
393.236	44.78711
393.449	34.24801
393.663	53.21881
393.877	-16.33143
394.091	-16.33143
394.305	8.95656
394.518	11.06405
394.732	19.49425
394.946	25.81715
395.16	46.895
395.373	-56.36353
395.587	34.24801
395.801	-7.90249
396.015	-18.43861
396.228	8.95656
396.442	0.52684
396.656	-10.00976
396.869	-26.86706
397.083	51.11085
397.297	-5.79519
397.51	-22.65289
397.724	-41.61591
397.938	25.81715
398.151	2.63424
398.365	-28.97412
398.578	-54.2568
398.792	-16.33143
399.005	21.60186
399.219	-16.33143
399.433	-12.11701
399.646	-79.53586
399.86	-7.90249
400.073	74.29967
400.287	-16.33143
400.5	34.24801
400.714	17.38667
400.927	-28.97412
401.141	-50.04327
401.354	-7.90249
401.567	40.5714
401.781	13.17157
401.994	42.67924
402.208	-39.50901
402.421	-64.79019
402.635	-69.00336
402.848	-7.90249
403.061	-1.58052
403.275	-16.33143
403.488	-28.97412
403.701	-24.75999
403.915	-16.33143
404.128	2.63424
404.341	25.81715
404.555	17.38667
404.768	30.03253
404.981	4.74166
405.195	-43.72279
405.408	-39.50901
405.621	-33.18815
405.834	36.35578
406.048	-41.61591
406.261	55.32679
406.474	65.86705
406.687	42.67924
406.9	-16.33143
407.114	38.46358
407.327	-58.47023
407.54	-28.97412
407.753	-54.2568
407.966	82.73264
408.179	8.95656
408.392	25.81715
408.605	-26.86706
408.819	-5.79519
409.032	4.74166
409.245	44.78711
409.458	-26.86706
409.671	-7.90249
409.884	70.08331
410.097	2.63424
410.31	8.95656
410.523	-5.79519
410.736	0.52684
410.949	34.24801
411.162	21.60186
411.375	-31.08114
411.588	-60.57691
411.801	34.24801
412.014	57.4348
412.227	-7.90249
412.44	-20.54576
412.653	34.24801
412.865	-41.61591
413.078	4.74166
413.291	42.67924
413.504	0.52684
413.717	25.81715
413.93	59.54283
414.143	8.95656
414.356	105.92518
414.568	0.52684
414.781	36.35578
414.994	-41.61591
415.207	-54.2568
415.42	-50.04327
415.632	4.74166
415.845	-7.90249
416.058	25.81715
416.271	34.24801
416.483	-20.54576
416.696	-14.22423
416.909	57.4348
417.121	-66.89679
417.334	-35.29512
417.547	-7.90249
417.759	-1.58052
417.972	-24.75999
418.185	-52.15005
418.397	23.70949
418.61	-75.32294
418.823	0.52684
419.035	-73.21644
419.248	70.08331
419.46	-56.36353
419.673	2.63424
419.885	0.52684
420.098	11.06405
420.311	13.17157
420.523	44.78711
420.736	-5.79519
420.948	27.92483
421.161	42.67924
421.373	-60.57691
421.586	34.24801
421.798	38.46358
422.01	84.84094
422.223	42.67924
422.435	-50.04327
422.648	-5.79519
422.86	76.40788
423.073	53.21881
423.285	38.46358
423.497	51.11085
423.71	-37.40208
423.922	-16.33143
424.134	-7.90249
424.347	-62.68356
424.559	8.95656
424.771	63.75895
424.984	19.49425
425.196	0.52684
425.408	42.67924
425.621	4.74166
425.833	-20.54576
426.045	-12.11701
426.257	-41.61591
426.47	-54.2568
426.682	59.54283
426.894	-41.61591
427.106	30.03253
427.318	-14.22423
427.531	-64.79019
427.743	21.60186
427.955	46.895
428.167	17.38667
428.379	34.24801
428.591	80.62436
428.804	17.38667
429.016	-7.90249
429.228	76.40788
429.44	-14.22423
429.652	-16.33143
429.864	0.52684
430.076	-7.90249
430.288	59.54283
430.5	-5.79519
430.712	17.38667
430.924	46.895
431.136	-35.29512
431.348	93.27437
431.56	8.95656
431.772	17.38667
431.984	32.14026
432.196	63.75895
432.408	51.11085
432.62	0.52684
432.832	-28.97412
433.044	0.52684
433.256	2.63424
433.468	-39.50901
433.679	46.895
433.891	-14.22423
434.103	-64.79019
434.315	2.63424
434.527	-3.68787
434.739	17.38667
434.95	34.24801
435.162	42.67924
435.374	38.46358
435.586	25.81715
435.798	13.17157
436.009	8.95656
436.221	-16.33143
436.433	-79.53586
436.645	38.46358
436.856	30.03253
437.068	61.65088
437.28	8.95656
437.491	-20.54576
437.703	8.95656
437.915	30.03253
438.126	-7.90249
438.338	42.67924
438.55	-20.54576
438.761	-20.54576
438.973	97.49122
439.184	4.74166
439.396	-3.68787
439.608	-31.08114
439.819	38.46358
440.031	32.14026
440.242	-3.68787
440.454	-12.11701
440.665	-66.89679
440.877	55.32679
441.088	34.24801
441.3	-20.54576
441.511	-66.89679
441.723	-7.90249
441.934	13.17157
442.146	4.74166
442.357	25.81715
442.569	93.27437
442.78	-58.47023
442.991	-50.04327
443.203	-12.11701
443.414	40.5714
443.626	-79.53586
443.837	78.51611
444.048	61.65088
444.26	40.5714
444.471	-18.43861
444.682	17.38667
444.894	8.95656
445.105	-39.50901
445.316	-45.82964
445.528	25.81715
445.739	27.92483
445.95	-50.04327
446.161	2.63424
446.373	-37.40208
446.584	19.49425
446.795	51.11085
447.006	4.74166
447.217	-7.90249
447.429	34.24801
447.64	42.67924
447.851	8.95656
448.062	8.95656
448.273	-90.0677
448.484	6.8491
448.695	-31.08114
448.907	17.38667
449.118	55.32679
449.329	-54.2568
449.54	-58.47023
449.751	-31.08114
449.962	-24.75999
450.173	27.92483
450.384	42.67924
450.595	0.52684
450.806	-45.82964
451.017	-20.54576
451.228	-16.33143
451.439	82.73264
451.65	-39.50901
451.861	93.27437
452.072	-73.21644
452.283	-7.90249
452.494	46.895
452.705	53.21881
452.915	17.38667
453.126	2.63424
453.337	-41.61591
453.548	0.52684
453.759	-28.97412
453.97	8.95656
454.181	70.08331
454.391	-7.90249
454.602	25.81715
454.813	25.81715
455.024	93.27437
455.235	0.52684
455.445	-7.90249
455.656	27.92483
455.867	-50.04327
456.078	36.35578
456.288	15.2791
456.499	6.8491
456.71	2.63424
456.921	19.49425
457.131	-37.40208
457.342	11.06405
457.553	46.895
457.763	34.24801
457.974	59.54283
458.184	44.78711
458.395	0.52684
458.606	23.70949
458.816	-41.61591
459.027	17.38667
459.237	-24.75999
459.448	-22.65289
459.659	-47.93647
459.869	-22.65289
460.08	-45.82964
460.29	2.63424
460.501	-3.68787
460.711	21.60186
460.922	-31.08114
461.132	-41.61591
461.343	44.78711
461.553	-14.22423
461.764	-41.61591
461.974	-22.65289
462.184	44.78711
462.395	76.40788
462.605	13.17157
462.816	67.97517
463.026	-10.00976
463.236	-66.89679
463.447	38.46358
463.657	40.5714
463.867	-50.04327
464.078	72.19148
464.288	-18.43861
464.498	72.19148
464.709	25.81715
464.919	8.95656
465.129	63.75895
465.339	-75.32294
465.55	21.60186
465.76	32.14026
465.97	-16.33143
466.18	-37.40208
466.391	0.52684
466.601	25.81715
466.811	-31.08114
467.021	17.38667
467.231	-22.65289
467.441	89.05761
467.651	-41.61591
467.862	-5.79519
468.072	-1.58052
468.282	30.03253
468.492	8.95656
468.702	-3.68787
468.912	8.95656
469.122	21.60186
469.332	17.38667
469.542	-24.75999
469.752	-22.65289
469.962	84.84094
470.172	72.19148
470.382	57.4348
470.592	42.67924
470.802	27.92483
471.012	-73.21644
471.222	-3.68787
471.432	38.46358
471.642	34.24801
471.852	21.60186
472.062	65.86705
472.272	74.29967
472.482	27.92483
472.691	51.11085
472.901	32.14026
473.111	13.17157
473.321	27.92483
473.531	17.38667
473.741	11.06405
473.95	15.2791
474.16	8.95656
474.37	-22.65289
474.58	-37.40208
474.79	-45.82964
474.999	17.38667
475.209	19.49425
475.419	27.92483
475.628	11.06405
475.838	-24.75999
476.048	-14.22423
476.258	-22.65289
476.467	59.54283
476.677	-14.22423
476.886	-73.21644
477.096	59.54283
477.306	19.49425
477.515	36.35578
477.725	101.70815
477.935	0.52684
478.144	-20.54576
478.354	19.49425
478.563	-10.00976
478.773	-75.32294
478.982	78.51611
479.192	0.52684
479.401	2.63424
479.611	-3.68787
479.82	34.24801
480.03	-50.04327
480.239	42.67924
480.449	36.35578
480.658	25.81715
480.868	-71.10991
481.077	-22.65289
481.287	30.03253
481.496	11.06405
481.705	13.17157
481.915	74.29967
482.124	2.63424
482.333	-31.08114
482.543	8.95656
482.752	34.24801
482.961	42.67924
483.171	8.95656
483.38	-20.54576
483.589	42.67924
483.799	36.35578
484.008	11.06405
484.217	-33.18815
484.426	-16.33143
484.636	46.895
484.845	70.08331
485.054	17.38667
485.263	-16.33143
485.472	67.97517
485.682	-3.68787
485.891	-66.89679
486.1	23.70949
486.309	11.06405
486.518	-7.90249
486.727	-33.18815
486.936	76.40788
487.146	63.75895
487.355	72.19148
487.564	-33.18815
487.773	67.97517
487.982	95.38278
488.191	93.27437
488.4	-7.90249
488.609	59.54283
488.818	53.21881
489.027	89.05761
489.236	53.21881
489.445	67.97517
489.654	-7.90249
489.863	59.54283
490.072	17.38667
490.281	76.40788
490.49	-10.00976
490.698	46.895
490.907	76.40788
491.116	27.92483
491.325	84.84094
491.534	34.24801
491.743	101.70815
491.952	42.67924
492.16	59.54283
492.369	30.03253
492.578	2.63424
492.787	65.86705
492.996	38.46358
493.204	38.46358
493.413	30.03253
493.622	57.4348
493.831	-7.90249
494.039	15.2791
494.248	11.06405
494.457	13.17157
494.665	4.74166
494.874	19.49425
495.083	70.08331
495.291	97.49122
495.5	38.46358
495.709	86.94927
495.917	51.11085
496.126	80.62436
496.335	21.60186
496.543	67.97517
496.752	80.62436
496.96	51.11085
497.169	70.08331
497.377	93.27437
497.586	97.49122
497.794	17.38667
498.003	15.2791
498.211	108.03372
498.42	17.38667
498.628	38.46358
498.837	103.81665
499.045	27.92483
499.254	42.67924
499.462	42.67924
499.671	78.51611
499.879	42.67924
500.087	67.97517
500.296	-7.90249
500.504	8.95656
500.713	110.14229
500.921	122.79415
501.129	80.62436
501.338	-41.61591
501.546	23.70949
501.754	42.67924
501.962	34.24801
502.171	-7.90249
502.379	51.11085
502.587	40.5714
502.795	53.21881
503.004	55.32679
503.212	80.62436
503.42	127.01161
503.628	143.8823
503.837	55.32679
504.045	116.46812
504.253	84.84094
504.461	51.11085
504.669	127.01161
504.877	97.49122
505.085	63.75895
505.294	127.01161
505.502	110.14229
505.71	72.19148
505.918	152.31817
506.126	152.31817
506.334	80.62436
506.542	46.895
506.75	84.84094
506.958	34.24801
507.166	25.81715
507.374	129.12037
507.582	120.68545
507.79	51.11085
507.998	11.06405
508.206	101.70815
508.414	89.05761
508.622	160.75436
508.83	110.14229
509.037	122.79415
509.245	101.70815
509.453	89.05761
509.661	101.70815
509.869	89.05761
510.077	118.57677
510.285	135.44678
510.492	127.01161
510.7	114.35949
510.908	112.25088
511.116	127.01161
511.324	122.79415
511.531	95.38278
511.739	103.81665
511.947	95.38278
512.155	76.40788
512.362	93.27437
512.57	70.08331
512.778	112.25088
512.985	97.49122
513.193	120.68545
513.401	110.14229
513.608	118.57677
513.816	143.8823
514.024	135.44678
514.231	55.32679
514.439	78.51611
514.646	190.28367
514.854	169.1909
515.061	101.70815
515.269	186.06495
515.477	93.27437
515.684	156.53622
515.892	112.25088
516.099	219.81696
516.307	158.64528
516.514	129.12037
516.722	127.01161
516.929	120.68545
517.136	129.12037
517.344	129.12037
517.551	120.68545
517.759	194.50247
517.966	129.12037
518.173	181.84631
518.381	196.6119
518.588	171.30008
518.796	158.64528
519.003	160.75436
519.21	183.95562
519.418	194.50247
519.625	247.24421
519.832	152.31817
520.039	120.68545
520.247	196.6119
520.454	141.77339
520.661	177.62776
520.868	211.37848
521.076	217.70731
521.283	198.72135
521.49	122.79415
521.697	232.47528
521.904	103.81665
522.112	198.72135
522.319	173.40929
522.526	95.38278
522.733	219.81696
522.94	198.72135
523.147	181.84631
523.354	221.92663
523.561	169.1909
523.768	230.36551
523.975	236.69488
524.183	202.94032
524.39	259.90403
524.597	219.81696
524.804	289.44628
525.011	221.92663
525.218	291.55658
525.425	186.06495
525.632	217.70731
525.838	186.06495
526.045	238.8047
526.252	259.90403
526.459	194.50247
526.666	226.14603
526.873	304.21876
527.08	177.62776
527.287	308.43963
527.494	207.15936
527.701	299.99796
527.907	238.8047
528.114	278.89506
528.321	217.70731
528.528	316.8816
528.735	274.6747
528.941	262.01407
529.148	181.84631
529.355	278.89506
529.562	304.21876
529.768	278.89506
529.975	245.1343
530.182	312.66058
530.388	295.77723
530.595	329.54508
530.802	243.02442
531.008	342.2092
531.215	346.43071
531.422	331.65572
531.628	299.99796
531.835	390.76073
532.042	331.65572
532.248	399.20538
532.455	337.98775
532.661	416.09547
532.868	371.76124
533.074	424.5409
533.281	312.66058
533.487	411.87285
533.694	321.10269
533.9	458.32515
534.107	312.66058
534.313	356.9848
534.52	350.65229
534.726	443.54405
534.933	451.9903
535.139	430.87514
535.345	397.09419
535.552	344.31995
535.758	430.87514
535.965	439.32102
536.171	382.31634
536.377	422.42952
536.584	490.00145
536.79	428.76371
536.996	506.89684
537.203	498.44903
537.409	399.20538
537.615	487.88959
537.821	401.31658
538.028	477.33052
538.234	443.54405
538.44	468.88354
538.646	407.65029
538.853	509.00883
539.059	458.32515
539.265	502.6729
539.471	479.44231
539.677	568.15026
539.883	544.91483
540.09	519.56899
540.296	540.69038
540.502	608.28796
540.708	559.70082
540.914	633.64047
541.12	559.70082
541.326	561.81316
541.532	528.01738
541.738	595.61239
541.944	616.7386
542.15	582.93728
542.356	639.97888
542.562	585.04977
542.768	654.76892
542.974	616.7386
543.18	635.75326
543.386	718.16124
543.592	618.85129
543.798	743.52096
544.004	597.72496
544.21	561.81316
544.415	663.22063
544.621	751.97453
544.827	652.65602
545.033	718.16124
545.239	639.97888
545.445	762.54173
545.651	536.46599
545.856	726.61431
546.062	745.63433
546.268	692.80309
546.474	694.9162
546.679	642.09171
546.885	743.52096
547.091	678.01157
547.297	743.52096
547.502	834.40517
547.708	743.52096
547.914	872.4548
548.119	802.69936
548.325	779.44977
548.531	745.63433
548.736	861.88518
548.942	836.51897
549.147	779.44977
549.353	828.06384
549.559	847.08807
549.764	832.29139
549.97	819.60887
550.175	836.51897
550.381	781.56332
550.586	811.15404
550.792	959.13317
550.997	796.35845
551.203	914.73532
551.408	899.93677
551.614	899.93677
551.819	906.27896
552.025	984.50478
552.23	844.97423
552.435	995.07656
552.641	971.81885
552.846	838.63277
553.052	766.76868
553.257	1007.76292
553.462	1016.22061
553.668	1064.8542
553.873	1098.68797
554.078	1077.54171
554.283	847.08807
554.489	1075.42711
554.694	914.73532
554.899	1088.11478
555.105	1115.60533
555.31	971.81885
555.515	1060.62508
555.72	1028.90734
555.925	1041.59428
556.131	1172.70354
556.336	1090.22941
556.541	1140.98193
556.746	1098.68797
556.951	1140.98193
557.156	1009.87733
557.361	1263.64323
557.567	1086.00015
557.772	1293.25263
557.977	1016.22061
558.182	1195.9666
558.387	1140.98193
558.592	1174.81834
558.797	1217.11521
559.002	1208.65573
559.207	1244.60887
559.412	1331.32246
559.617	1191.73692
559.822	1217.11521
560.027	1079.65631
560.232	1350.35758
560.437	1335.55247
560.642	1308.05749
560.847	1242.49396
561.051	1301.71254
561.256	1360.9327
561.461	1445.53442
561.666	1195.9666
561.871	1289.02269
562.076	1160.01479
562.281	1458.22473
562.485	1255.18349
562.69	1415.92371
562.895	1405.34847
563.1	1496.29563
563.305	1318.63245
563.509	1390.54317
563.714	1424.3839
563.919	1523.79118
564.123	1415.92371
564.328	1553.40159
564.533	1386.31309
564.737	1523.79118
564.942	1388.42813
565.147	1591.47174
565.351	1428.614
565.556	1515.33103
565.761	1470.91504
565.965	1500.52573
566.17	1320.74745
566.374	1504.75582
566.579	1515.33103
566.784	1661.26542
566.988	1515.33103
567.193	1657.03557
567.397	1563.97668
567.602	1657.03557
567.806	1434.95916
568.011	1680.29961
568.215	1678.18471
568.42	1745.85991
568.624	1566.0917
568.828	1733.17107
569.033	1661.26542
569.237	1650.69078
569.442	1555.51661
569.646	1606.27666
569.85	1665.49526
570.055	1633.77123
570.259	1657.03557
570.463	1779.69617
570.668	1676.06981
570.872	1817.76072
571.076	1747.9747
571.281	1893.88536
571.485	1589.35675
571.689	1815.64606
571.893	1720.4821
572.098	1986.91712
572.302	1830.44859
572.506	1919.25876
572.71	1659.1505
572.914	2054.569
573.119	1648.57585
573.323	1817.76072
573.527	1769.12244
573.731	1944.63136
573.935	1868.51119
574.139	1982.68866
574.343	1826.21932
574.547	2033.42853
574.751	1978.46016
574.955	2054.569
575.159	1970.00311
575.364	2088.39228
575.568	1938.28829
575.772	2071.48087
575.976	1970.00311
576.18	1936.17392
576.383	1931.94516
576.587	2130.66871
576.791	1927.71639
576.995	2227.89234
577.199	1853.70926
577.403	2117.9861
577.607	1986.91712
577.811	2198.30441
578.015	2022.85804
578.219	2096.84781
578.422	1986.91712
578.626	2130.66871
578.83	1902.34325
579.034	2086.27838
579.238	2098.96167
579.442	2259.59177
579.645	2217.32542
579.849	2257.47854
580.053	2306.08056
580.257	2439.18128
580.46	2090.50617
580.664	2314.53257
580.868	2206.75828
581.071	2259.59177
581.275	2232.11905
581.479	2310.30659
581.682	2303.96753
581.886	2369.46688
582.09	2272.27098
582.293	2443.40603
582.497	2223.6656
582.7	2432.84408
582.904	2149.69209
583.107	2519.44393
583.311	2217.32542
583.515	2363.12865
583.718	2342.00056
583.922	2371.5796
584.125	2344.11341
584.329	2437.06889
584.532	2458.1923
584.735	2633.47267
584.939	2555.3456
585.142	2610.24744
585.346	2409.60686
585.549	2595.46698
585.753	2445.51838
585.956	2696.80651
586.159	2487.76322
586.363	2603.91303
586.566	2447.63073
586.769	2677.80756
586.973	2418.05691
587.176	2622.91594
587.379	2646.14035
587.582	2705.25016
587.786	2646.14035
587.989	2682.02964
588.192	2627.13867
588.395	2703.13927
588.599	2654.58522
588.802	2994.31254
589.005	2644.0291
589.208	2893.06554
589.411	2686.25167
589.615	2749.57585
589.818	2713.69359
590.021	2840.31946
590.224	2823.43886
590.427	2916.27097
590.63	2648.25159
590.833	2671.47435
591.036	2806.55736
591.239	2998.53042
591.442	2675.6965
591.645	3066.00817
591.848	2806.55736
592.051	2924.70887
592.254	2920.48995
592.457	3110.28178
592.66	2983.76757
592.863	3114.49795
593.066	3025.94515
593.269	3278.87781
593.472	3177.73279
593.675	3217.77395
593.878	3146.11719
594.081	3099.74107
594.284	3028.05387
594.486	3194.59295
594.689	3047.03165
594.892	3175.6252
595.095	3181.94793
595.298	3224.09569
595.5	3000.63933
595.703	3299.94482
595.906	3000.63933
596.109	3173.51759
596.311	3025.94515
596.514	3120.82208
596.717	3034.37993
596.92	3354.711
597.122	3173.51759
597.325	3413.67681
597.528	3386.30154
597.73	3417.88813
597.933	3297.83819
598.136	3396.83085
598.338	3295.73155
598.541	3304.15801
598.743	3219.88121
598.946	3363.13553
599.148	3219.88121
599.351	3329.43575
599.554	3321.01011
599.756	3365.24162
599.959	3523.14766
600.161	3590.48981
600.363	3413.67681
600.566	3508.41405
600.768	3468.41833
600.971	3481.04927
601.173	3449.47071
601.376	3668.33031
601.578	3401.04244
601.78	3645.19124
601.983	3394.72502
602.185	3632.56896
602.388	3426.31054
602.59	3792.40021
602.792	3605.21836
602.995	3868.07045
603.197	3561.02995
603.399	3790.29789
603.601	3481.04927
603.804	3674.64057
604.006	3628.36138
604.208	3792.40021
604.41	3438.94363
604.613	3655.70928
604.815	3548.40318
605.017	3716.70454
605.219	3554.71665
605.421	3683.05397
605.623	3499.99444
605.826	3760.86341
606.028	3676.74395
606.23	3880.67966
606.432	3674.64057
606.634	3718.80754
606.836	3521.04291
607.038	3857.56223
607.24	3601.0103
607.442	3706.18927
607.644	3584.17729
607.846	3929.00826
608.048	3823.93259
608.25	3914.30068
608.452	3891.18678
608.654	3926.90723
608.856	3931.10926
609.058	3987.82864
609.26	3733.52797
609.462	3834.4424
609.664	3775.58113
609.866	3838.64618
610.067	4069.73031
610.269	3956.3197
610.471	3716.70454
610.673	4021.43312
610.875	3783.99083
611.077	3855.46053
611.278	3842.84989
611.48	4128.51209
611.682	3884.88256
611.884	4191.47433
612.085	3861.76558
612.287	4019.33299
612.489	3844.95171
612.69	4025.6333
612.892	3952.11816
613.094	4141.10605
613.295	3876.47667
613.497	3985.72819
613.699	3968.92383
613.9	4155.79805
614.102	3868.07045
614.304	4031.93343
614.505	3987.82864
614.707	4302.66097
614.908	3954.21894
615.11	4097.02388
615.311	3985.72819
615.513	4204.0645
615.714	4141.10605
615.916	4279.58944
616.117	4155.79805
616.319	4283.78445
616.52	4038.23338
616.722	4243.92833
616.923	4057.1321
617.124	4248.12407
617.326	4147.40275
617.527	4287.97939
617.729	4281.68696
617.93	4139.00711
618.131	4193.57275
618.333	4468.27954
618.534	4204.0645
618.735	4355.08658
618.937	4038.23338
619.138	4212.45752
619.339	4231.34058
619.54	4239.7325
619.742	4248.12407
619.943	4306.85552
620.144	4002.53125
620.345	4409.59484
620.546	4111.71896
620.748	4397.01732
620.949	4212.45752
621.15	4363.47342
621.351	4204.0645
621.552	4344.60254
621.753	4204.0645
621.954	4690.28592
622.155	4254.41753
622.356	4505.99632
622.558	4409.59484
622.759	4359.28004
622.96	4269.10152
623.161	4660.97871
623.362	4262.80851
623.563	4627.47935
623.764	4357.18332
623.965	4470.37511
624.166	4422.17158
624.366	4476.66167
624.567	4300.56367
624.768	4516.47194
624.969	4241.83042
625.17	4505.99632
625.371	4382.34255
625.572	4399.11363
625.773	4363.47342
625.973	4629.57323
626.174	4455.7057
626.375	4677.72623
626.576	4719.58873
626.777	4836.75559
626.977	4376.05303
627.178	4614.91562
627.379	4690.28592
627.58	4516.47194
627.78	4480.8526
627.981	4700.75172
628.182	4637.94852
628.382	4784.45775
628.583	4459.89706
628.784	4564.65264
628.984	4545.80072
629.185	4828.38889
629.386	4610.72753
629.586	4863.94483
629.787	4516.47194
629.987	4644.22975
630.188	4765.62705
630.388	4587.69143
630.589	4514.37686
630.79	4744.7019
630.99	4723.77448
631.191	4702.84481
631.391	4656.7916
631.591	4857.67074
631.792	4725.86733
631.992	4995.65327
632.193	4700.75172
632.393	4874.40121
632.594	4723.77448
632.794	4815.83816
632.994	4711.21695
633.195	4985.20355
633.395	4782.36554
633.595	4866.03616
633.796	4757.25726
633.996	4928.76513
634.196	4799.10258
634.397	4891.13022
634.597	4809.56249
634.797	5133.53536
634.997	4707.03093
635.198	4916.22099
635.398	4815.83816
635.598	5160.68204
635.798	4589.78574
635.998	5183.64924
636.199	5018.64061
636.399	5083.40809
636.599	4859.76212
636.799	4974.75326
636.999	4740.5166
637.199	5081.31916
637.399	4780.27331
637.599	5006.10241
637.799	4937.12744
637.999	5029.08848
638.199	4707.03093
638.399	4889.03917
638.599	5058.33945
638.799	5035.35693
638.999	4920.40246
639.199	5210.78866
639.399	4909.9486
639.599	5079.23021
639.799	5118.91629
639.999	5227.48788
640.199	5033.26747
640.399	5198.26326
640.599	4807.47055
640.799	5319.30687
640.998	5133.53536
641.198	5179.4736
641.398	5108.4734
641.598	5200.35089
641.798	4870.21873
641.997	5141.8886
642.197	5200.35089
642.397	5473.62737
642.597	5066.69603
642.796	5308.87517
642.996	5049.98249
643.196	5379.79914
643.395	5260.88184
643.595	5258.79489
643.795	5325.5656
643.994	5479.8809
644.194	5179.4736
644.394	5515.31353
644.593	5118.91629
644.793	5269.2294
644.992	5102.20738
645.192	5402.73933
645.392	5008.19216
645.591	5402.73933
645.791	5123.09328
645.99	5292.18324
646.19	5223.31321
646.389	5467.37364
646.589	5492.38731
646.788	5411.08051
646.987	5077.14124
647.187	5425.67667
647.386	5465.28901
647.586	5709.0303
647.785	5327.6518
647.984	5563.24095
648.184	5342.25453
648.383	5577.82509
648.582	5419.42131
648.782	5644.48071
648.981	5363.11359
649.18	5425.67667
649.38	5354.77025
649.579	5669.47034
649.778	5446.52633
649.977	5613.23889
650.177	5525.73359
650.376	5750.66317
650.575	5598.65756
650.774	5613.23889
650.973	5461.11969
651.173	5754.82594
651.372	5469.45824
651.571	5711.11217
651.77	5577.82509
651.969	5769.39488
652.168	5509.0612
652.367	5600.74068
652.566	5408.99525
652.765	5823.49797
652.964	5471.54282
653.163	5754.82594
653.362	5661.14084
653.561	5991.94765
653.76	5767.31367
653.959	5775.63836
654.158	5777.71947
654.357	5811.01406
654.556	5679.88168
654.755	5734.01116
654.954	5617.40478
655.153	5850.54353
655.352	5731.92955
655.551	5879.66506
655.749	5704.8665
655.948	5808.93332
656.147	5796.44842
656.346	5991.94765
656.545	5667.388
656.743	5854.70403
656.942	5783.96266
657.141	6012.73318
657.34	5694.45657
657.538	5927.49753
657.737	5892.1443
657.936	6083.38636
658.135	5800.61015
658.333	5969.08084
658.532	5948.29037
658.731	5962.84395
658.929	5758.98861
659.128	6000.26214
659.326	5977.39638
659.525	5991.94765
659.724	5838.06146
659.922	6006.49776
660.121	5602.82378
660.319	6066.76453
660.518	5746.50031
660.716	6174.77953
660.915	5904.62269
661.113	6199.69705
661.312	5663.22325
661.51	6162.3195
661.709	5850.54353
661.907	6461.12757
662.105	5985.71153
662.304	6176.85612
662.502	5983.63278
662.701	6025.20336
662.899	5844.3026
663.097	6041.82896
663.296	5917.10023
663.494	6411.35984
663.692	6072.99789
663.891	6110.39362
664.089	5954.52776
664.287	6124.93435
664.485	6162.3195
664.684	6247.44619
664.882	5973.23866
665.08	6183.08574
665.278	6102.08412
665.476	6264.05168
665.675	6012.73318
665.873	6253.67342
666.071	5937.89424
666.269	6226.68721
666.467	5925.41812
666.665	6187.23871
666.863	5877.5851
667.061	6218.38297
667.259	5908.78196
667.457	6286.88178
667.655	5867.18497
667.853	6004.41925
668.051	5987.79026
668.249	6452.83388
668.447	6141.55091
668.645	6309.70905
668.843	6222.53514
669.041	6351.20594
669.239	5983.63278
669.437	6118.70275
669.635	6091.69671
669.833	6083.38636
670.031	6077.15335
670.229	6141.55091
670.426	6058.45305
670.624	6212.15454
670.822	5973.23866
671.02	6230.8392
671.218	6276.50481
671.415	6299.33337
671.613	6127.0115
671.811	6311.78412
672.009	6174.77953
672.206	6291.0324
672.404	6266.12726
672.602	6168.54962
672.799	6110.39362
672.997	6199.69705
673.195	6257.82479
673.392	6390.61933
673.59	6168.54962
673.788	6251.5977
673.985	6203.84964
674.183	6309.70905
674.38	6272.35386
674.578	6349.13131
674.775	6058.45305
674.973	6388.54515
675.17	6158.16597
675.368	6541.9716
675.565	6091.69671
675.763	6382.32247
675.96	6164.39623
676.158	6349.13131
676.355	6141.55091
676.553	6546.1165
676.75	6295.18293
676.947	6376.09958
677.145	6085.46398
677.342	6363.65318
677.539	5989.86896
677.737	6232.91515
677.934	6245.37039
678.131	6423.80303
678.329	6228.76322
678.526	6384.39672
678.723	6390.61933
678.92	6715.97781
679.118	6311.78412
679.315	6585.48841
679.512	6116.6255
679.709	6432.09802
679.906	6018.96838
680.104	6315.93418
680.301	6203.84964
680.498	6208.00214
680.695	6066.76453
680.892	6519.17301
681.089	6187.23871
681.286	6442.46624
681.483	6139.47392
681.68	6392.69349
681.877	6110.39362
682.075	6340.83259
682.272	5996.10494
682.469	6394.76762
682.665	6264.05168
682.862	6176.85612
683.059	6162.3195
683.256	6251.5977
683.453	6124.93435
683.65	6243.29458
683.847	6027.28164
684.044	6066.76453
684.241	6104.16153
684.438	6490.15256
684.635	6100.00668
684.831	6467.3476
685.028	6243.29458
685.225	6342.90731
685.422	6079.23104
685.619	6318.00917
685.815	6185.16224
686.012	6365.72764
686.209	5981.554
686.405	6369.87649
686.602	6264.05168
686.799	6205.9259
686.996	6178.93268
687.192	6318.00917
687.389	5950.36952
687.586	6357.42966
687.782	6054.29717
687.979	6110.39362
688.175	5850.54353
688.372	6079.23104
688.568	6093.77424
688.765	6176.85612
688.962	6002.34071
689.158	6403.06392
689.355	6033.51635
689.551	6342.90731
689.748	6118.70275
689.944	6255.74912
690.14	6035.59454
690.337	6303.48371
690.533	6349.13131
690.73	6181.00923
690.926	6249.52195
691.123	6193.46799
691.319	6056.37512
691.515	6185.16224
691.712	6189.31516
691.908	6058.45305
692.104	6110.39362
692.301	6332.53349
692.497	6050.14119
692.693	6199.69705
692.889	6104.16153
693.086	6135.31988
693.282	5987.79026
693.478	6357.42966
693.674	6035.59454
693.87	6085.46398
694.067	6127.0115
694.263	6403.06392
694.459	6417.58154
694.655	6241.21874
694.851	5954.52776
695.047	6241.21874
695.243	6033.51635
695.439	6104.16153
695.635	6237.06699
695.831	6139.47392
696.027	5896.30385
696.224	6239.14288
696.42	6079.23104
696.615	6320.08415
696.811	5900.46332
697.007	6021.04673
697.203	5933.73563
697.399	5985.71153
697.595	6077.15335
697.791	6089.61916
697.987	6160.24275
698.183	6301.40855
698.379	6008.57626
698.575	6444.53982
698.77	6147.78174
698.966	6282.73106
699.162	5971.15976
699.358	6313.85916
699.554	6056.37512
699.749	6241.21874
699.945	6075.07563
700.141	6305.55885
700.337	6120.77997
700.532	6353.28053
700.728	6127.0115
700.924	6324.23402
701.119	6118.70275
701.315	6328.3838
701.511	5867.18497
701.706	6203.84964
701.902	5827.65908
702.097	6160.24275
702.293	6232.91515
702.489	6270.27835
702.684	6315.93418
702.88	6388.54515
703.075	6091.69671
703.271	6218.38297
703.466	6174.77953
703.662	6070.92013
703.857	5944.13199
704.053	6162.3195
704.248	5969.08084
704.443	6326.30893
704.639	6160.24275
704.834	6251.5977
705.03	6058.45305
705.225	6282.73106
705.42	6189.31516
705.616	6149.85863
705.811	6054.29717
706.006	6075.07563
706.202	6016.89
706.397	6145.70482
706.592	5991.94765
706.787	6261.97607
706.983	6338.75785
707.178	6599.99175
707.373	6131.16574
707.568	6365.72764
707.763	6072.99789
707.959	6378.1739
708.154	6035.59454
708.349	6160.24275
708.544	6108.31628
708.739	6168.54962
708.934	5958.6859
709.129	5987.79026
709.324	5908.78196
709.519	6232.91515
709.714	6083.38636
709.909	6068.84234
710.104	6062.60884
710.299	6029.3599
710.494	5915.0207
710.689	6100.00668
710.884	5973.23866
711.079	6280.65567
711.274	5967.0019
711.469	6208.00214
711.664	6178.93268
711.859	6237.06699
712.054	6014.8116
712.249	6110.39362
712.443	5942.05276
712.638	6060.53095
712.833	5885.90478
713.028	6400.98988
713.223	5917.10023
713.417	6247.44619
713.612	6151.9355
713.807	6241.21874
714.002	6075.07563
714.196	6261.97607
714.391	6097.92923
714.586	6434.17171
714.78	6129.08863
714.975	6326.30893
715.17	5808.93332
715.364	6050.14119
715.559	6131.16574
715.754	6193.46799
715.948	6035.59454
716.143	6403.06392
716.337	6008.57626
716.532	6361.5787
716.726	6127.0115
716.921	6257.82479
717.115	5923.33868
717.31	6027.28164
717.504	5919.17974
717.699	6156.08917
717.893	5752.74457
718.088	6127.0115
718.282	5871.34509
718.476	5856.78425
718.671	5677.79946
718.865	6081.30871
719.059	5927.49753
719.254	6116.6255
719.448	6060.53095
719.642	5983.63278
719.837	5865.10487
720.031	6137.39691
720.225	5783.96266
720.419	6116.6255
720.614	5640.31544
720.808	6066.76453
721.002	5715.27584
721.196	6008.57626
721.39	5736.09274
721.585	6149.85863
721.779	5838.06146
721.973	5991.94765
722.167	5783.96266
722.361	5811.01406
722.555	5900.46332
722.749	5917.10023
722.943	5644.48071
723.137	5773.55722
723.331	5706.94841
723.525	6145.70482
723.719	5817.25612
723.913	6133.24282
724.107	6033.51635
724.301	5979.4752
724.495	5715.27584
724.689	5652.81096
724.883	5696.5386
725.077	6016.89
725.271	6048.06317
725.465	5877.5851
725.659	5613.23889
725.853	5958.6859
726.046	5763.15119
726.24	5775.63836
726.434	5742.33735
726.628	6147.78174
726.822	5792.28659
727.015	5964.92294
727.209	5692.37451
727.403	6066.76453
727.596	5713.19402
727.79	5854.70403
727.984	5767.31367
728.177	6183.08574
728.371	5773.55722
728.565	6041.82896
728.758	5663.22325
728.952	5883.8249
729.146	5852.62379
729.339	5944.13199
729.533	5973.23866
729.726	6023.12506
729.92	5919.17974
730.113	6012.73318
730.307	5962.84395
730.5	6116.6255
730.694	6062.60884
730.887	5923.33868
731.081	5975.31753
731.274	5929.57692
731.468	5702.78456
731.661	6147.78174
731.854	5756.90729
732.048	5869.26504
732.241	5609.07292
732.435	5887.98464
732.628	5788.12468
732.821	5960.76494
733.014	5858.86444
733.208	5896.30385
733.401	5937.89424
733.594	6149.85863
733.788	6010.65473
733.981	6087.54158
734.174	6048.06317
734.367	6037.6727
734.56	5692.37451
734.754	5829.7396
734.947	5802.69098
735.14	5910.86156
735.333	5811.01406
735.526	5769.39488
735.719	5619.48768
735.912	5833.90058
736.105	5902.54301
736.298	5825.57854
736.491	5817.25612
736.684	5775.63836
736.877	5771.47606
737.07	5825.57854
737.263	5892.1443
737.456	5937.89424
737.649	5967.0019
737.842	6158.16597
738.035	5902.54301
738.228	5734.01116
738.421	5542.40447
738.614	5942.05276
738.807	6004.41925
739	6012.73318
739.192	5767.31367
739.385	5783.96266
739.578	5713.19402
739.771	5919.17974
739.964	5792.28659
740.156	5696.5386
740.349	5715.27584
740.542	6045.98512
740.735	5742.33735
740.927	5937.89424
741.12	5904.62269
741.313	5908.78196
741.505	5904.62269
741.698	5775.63836
741.891	5621.57056
742.083	5937.89424
742.276	6010.65473
742.468	5829.7396
742.661	5702.78456
742.854	5835.98103
743.046	5756.90729
743.239	5717.35763
743.431	5794.36752
743.624	5746.50031
743.816	5727.76626
744.009	5892.1443
744.201	5796.44842
744.393	5659.05841
744.586	5629.90185
744.778	5958.6859
744.971	5684.04605
745.163	5719.43941
745.355	5684.04605
745.548	5579.90844
745.74	5577.82509
745.932	5746.50031
746.125	5802.69098
746.317	5819.33676
746.509	5694.45657
746.702	5900.46332
746.894	5634.06736
747.086	5611.15592
747.278	5515.31353
747.471	5527.81753
747.663	5613.23889
747.855	5736.09274
748.047	5596.57442
748.239	5823.49797
748.431	5717.35763
748.623	5977.39638
748.815	5804.77178
749.008	5929.57692
749.2	5942.05276
749.392	5721.52116
749.584	5579.90844
749.776	5779.80056
749.968	5631.98462
750.16	5800.61015
750.352	5667.388
750.544	5775.63836
750.736	5669.47034
750.928	5725.68458
751.12	5734.01116
751.311	5813.09477
751.503	5671.55265
751.695	5567.40797
751.887	5498.64019
752.079	5554.90664
752.271	5577.82509
752.463	5613.23889
752.654	5754.82594
752.846	5825.57854
753.038	5598.65756
753.23	5511.14533
753.421	5569.49144
753.613	5725.68458
753.805	5788.12468
753.997	5773.55722
754.188	5769.39488
754.38	5542.40447
754.572	5459.035
754.763	5536.15307
754.955	5467.37364
755.146	5667.388
755.338	5467.37364
755.53	5550.73935
755.721	5313.04792
755.913	5611.15592
756.104	5567.40797
756.296	5604.90685
756.487	5260.88184
756.679	5475.71191
756.87	5315.13426
757.062	5308.87517
757.253	5444.44147
757.445	5379.79914
757.636	5548.65566
757.827	5544.48823
758.019	5321.39314
758.21	5517.39759
758.401	5335.99636
758.593	5275.48982
758.784	5281.75003
758.975	5269.2294
759.167	5363.11359
759.358	5442.35658
759.549	5383.97029
759.74	5317.22057
759.932	5333.91026
760.123	5415.25095
760.314	5246.27272
760.505	5371.45655
760.696	5250.44687
760.888	5325.5656
761.079	5302.61587
761.27	5373.54223
761.461	5108.4734
761.652	5519.48162
761.843	4991.47345
762.034	5160.68204
762.225	5116.82775
762.416	4995.65327
762.607	5227.48788
762.798	5300.52939
762.989	5300.52939
763.18	5304.70233
763.371	5125.18174
763.562	5183.64924
763.753	5192.00025
763.944	5373.54223
764.135	5060.42863
764.326	5427.76174
764.517	5070.87419
764.708	5369.37085
764.899	5077.14124
765.089	5200.35089
765.28	4907.85776
765.471	5185.73703
765.662	4853.48789
765.853	5070.87419
766.043	4912.03942
766.234	4935.0369
766.425	5060.42863
766.615	4995.65327
766.806	4847.21345
766.997	5121.0048
767.187	4976.84336
767.378	5225.40056
767.569	4899.49418
767.759	5154.41777
767.95	5175.29786
768.141	5075.05225
768.331	4943.39892
768.522	4983.11354
768.712	4983.11354
768.903	5075.05225
769.093	4970.57298
769.284	4807.47055
769.474	4857.67074
769.665	5219.13846
769.855	5016.55097
770.046	4884.85701
770.236	4690.28592
770.426	4849.30495
770.617	4794.91845
770.807	4897.40322
770.998	4857.67074
771.188	5049.98249
771.378	4962.21214
771.569	5037.44636
771.759	4866.03616
771.949	4932.94633
772.139	4801.1946
772.33	4757.25726
772.52	4656.7916
772.71	4826.29716
772.9	4652.60441
773.09	4884.85701
773.281	4485.04344
773.471	4874.40121
773.661	4650.51077
773.851	4776.08878
774.041	4700.75172
774.231	4679.81957
774.421	4614.91562
774.611	4753.07223
774.802	4602.35108
774.992	4438.93934
775.182	4564.65264
775.372	4627.47935
775.562	4315.24435
775.752	4658.88516
775.942	4386.53545
776.131	4623.29153
776.321	4275.39433
776.511	4633.76092
776.701	4637.94852
776.891	4652.60441
777.081	4514.37686
777.271	4573.0307
777.461	4654.69801
777.651	4598.16272
777.84	4489.23419
778.03	4593.97427
778.22	4430.55563
778.41	4262.80851
778.599	4564.65264
778.789	4619.10362
778.979	4468.27954
779.169	4510.18664
779.358	4524.85203
779.548	4549.99019
779.738	4554.17957
779.927	4545.80072
780.117	4449.41848
780.307	4371.85992
780.496	4497.61543
780.686	4399.11363
780.875	4271.19914
781.065	4327.82695
781.254	4212.45752
781.444	4313.14717
781.633	4294.27162
781.823	4510.18664
782.012	4459.89706
782.202	4355.08658
782.391	4336.21492
782.581	4170.48902
782.77	4363.47342
782.96	4369.76333
783.149	4208.26106
783.338	4292.17423
783.528	4321.53574
783.717	4397.01732
783.906	4346.69939
784.096	4271.19914
784.285	4090.72568
784.474	4250.22191
784.663	4082.32778
784.853	4042.43324
785.042	4178.8834
785.231	3914.30068
785.42	3979.42671
785.61	4050.83271
785.799	4017.23284
785.988	4157.89683
786.177	3983.62772
786.366	4212.45752
786.555	4006.7318
786.744	4050.83271
786.933	3981.52722
787.122	3926.90723
787.312	4094.9245
787.501	4122.21482
787.69	3897.49081
787.879	4346.69939
788.068	4063.4313
788.257	3954.21894
788.445	3672.53717
788.634	4107.52047
788.823	3847.05351
789.012	3947.91655
789.201	3903.79466
789.39	3901.6934
789.579	3809.21803
789.768	4004.63154
789.957	4000.43094
790.145	4078.12871
790.334	3878.57817
790.523	3920.60405
790.712	3758.7608
790.9	3884.88256
791.089	3844.95171
791.278	3937.41214
791.467	3903.79466
791.655	4044.53314
791.844	3697.7767
792.033	3872.2736
792.221	3823.93259
792.41	3880.67966
792.599	3459.99735
792.787	3817.62647
792.976	3807.11587
793.164	4090.72568
793.353	3811.32017
793.541	3994.12988
793.73	3561.02995
793.918	3762.966
794.107	3468.41833
794.295	3838.64618
794.484	3687.26056
794.672	3870.17203
794.861	3632.56896
795.049	3943.71485
795.238	3636.77646
795.426	3769.27365
795.614	3615.7382
795.803	3968.92383
795.991	3594.69806
796.179	3668.33031
796.368	3527.3571
796.556	3880.67966
796.744	3539.98497
796.932	3649.39851
797.121	3624.15373
797.309	3676.74395
797.497	3643.08757
797.685	3727.21933
797.874	3672.53717
798.062	3611.53032
798.25	3643.08757
798.438	3830.23853
798.626	3769.27365
798.814	4013.03249
799.002	3666.22685
799.19	3598.90624
799.378	3697.7767
799.566	3815.52439
799.755	3390.51332
799.943	3674.64057
800.131	3377.87779
800.318	3668.33031
800.506	3384.19563
800.694	3640.98389
800.882	3531.56646
801.07	3615.7382
801.258	3558.92553
801.446	3737.73364
801.634	3499.99444
801.822	3676.74395
802.01	3392.61918
802.197	3762.966
802.385	3449.47071
802.573	3630.46518
802.761	3371.55978
802.949	3626.25757
803.136	3491.57455
803.324	3508.41405
803.512	3533.67112
803.699	3588.38565
803.887	3518.93815
804.075	3653.60571
804.262	3476.83903
804.45	3573.65605
804.638	3537.88037
804.825	3695.67351
805.013	3563.13434
805.201	3634.67272
805.388	3236.73872
805.576	3419.99376
805.763	3287.30482
805.951	3632.56896
806.138	3407.35971
806.326	3649.39851
806.513	3466.31311
806.701	3489.46953
806.888	3457.89206
807.075	3714.60152
807.263	3255.70214
807.45	3533.67112
807.638	3396.83085
807.825	3539.98497
808.012	3363.13553
808.2	3497.8895
808.387	3628.36138
808.574	3569.44742
808.761	3506.30918
808.949	3718.80754
809.136	3613.63427
809.323	3731.42511
809.51	3575.76033
809.698	3657.81284
809.885	3346.2862
810.072	3643.08757
810.259	3575.76033
810.446	3716.70454
810.633	3670.43375
810.82	3758.7608
811.008	3563.13434
811.195	3657.81284
811.382	3449.47071
811.569	3813.42229
811.756	3577.8646
811.943	3670.43375
812.13	3554.71665
812.317	3510.51891
812.504	3514.72856
812.691	3809.21803
812.878	3695.67351
813.064	3762.966
813.251	3905.8959
813.438	3723.01347
813.625	3712.49849
813.812	3613.63427
813.999	3615.7382
814.186	3828.13657
814.372	3632.56896
814.559	3758.7608
814.746	3436.83816
814.933	3561.02995
815.12	3483.15436
815.306	3413.67681
815.493	3455.78675
815.68	3643.08757
815.866	3403.14822
816.053	3607.32237
816.24	3506.30918
816.426	3683.05397
816.613	3339.96741
816.799	3640.98389
816.986	3443.15452
817.173	3548.40318
817.359	3253.59516
817.546	3493.67955
817.732	3203.02263
817.919	3542.08955
818.105	3459.99735
818.292	3611.53032
818.478	3367.34769
818.665	3601.0103
818.851	3188.27051
819.037	3499.99444
819.224	3508.41405
819.41	3731.42511
819.597	3571.55174
819.783	3643.08757
819.969	3497.8895
820.156	3586.28148
820.342	3535.77575
820.528	3651.50212
820.714	3474.73388
820.901	3607.32237
821.087	3548.40318
821.273	3516.83337
821.459	3657.81284
821.646	3601.0103
821.832	3434.73267
822.018	3783.99083
822.204	3516.83337
822.39	3729.32223
822.576	3312.5842
822.762	3704.08615
822.948	3489.46953
823.134	3299.94482
823.32	3409.46543
823.507	3409.46543
823.693	3228.3101
823.879	3592.59394
824.065	3354.711
824.25	3329.43575
824.436	3213.55937
824.622	3295.73155
824.808	3270.45053
824.994	3335.7548
825.18	3095.52468
825.366	3577.8646
825.552	3207.23738
825.738	3499.99444
825.923	3272.55738
826.109	3514.72856
826.295	3236.73872
826.481	3373.6658
826.667	3205.13001
826.852	3438.94363
827.038	3295.73155
827.224	3626.25757
827.409	3544.19411
827.595	3542.08955
827.781	3186.163
827.966	3567.34308
828.152	3148.22501
828.338	3232.52444
828.523	2998.53042
828.709	3224.09569
828.894	2985.8766
829.08	3013.29252
829.266	2985.8766
829.451	3074.44177
829.637	2842.42948
829.822	3310.47768
830.008	2950.02117
830.193	3084.98342
830.378	2971.11312
830.564	3162.9793
830.749	3154.54837
830.935	3072.33339
831.12	2935.25592
831.305	3217.77395
831.491	2890.95586
831.676	3131.36199
831.861	3021.72767
832.047	3247.27412
832.232	3213.55937
832.417	3154.54837
832.602	3070.225
832.788	3162.9793
832.973	3093.41646
833.158	3221.98846
833.343	2947.91189
833.528	3186.163
833.714	2920.48995
833.899	3053.35729
834.084	3093.41646
834.269	3224.09569
834.454	3025.94515
834.639	3213.55937
834.824	3044.92307
835.009	3103.9574
835.194	3009.07485
835.379	3137.68574
835.564	2918.38047
835.749	3038.59723
835.934	2958.45813
836.119	3074.44177
836.304	2618.69315
836.489	2802.33685
836.674	2724.24759
836.859	2899.39446
837.044	2777.01263
837.228	2884.62676
837.413	2747.46523
837.598	3002.74824
837.783	2836.0994
837.968	2863.52883
838.152	2679.91861
838.337	3051.24876
838.522	2646.14035
838.707	2907.83283
838.891	2671.47435
839.076	2983.76757
839.261	2679.91861
839.445	2836.0994
839.63	2787.56462
839.815	2962.67652
839.999	2840.31946
840.184	2819.21857
840.368	2827.65909
840.553	3038.59723
840.737	2671.47435
840.922	2950.02117
841.106	2654.58522
841.291	2741.13331
841.475	2595.46698
841.66	2751.68645
841.844	2504.65991
842.029	2675.6965
842.213	2555.3456
842.397	2667.25214
842.582	2669.36325
842.766	2656.6964
842.951	2308.19358
843.135	2679.91861
843.319	2447.63073
843.504	2610.24744
843.688	2443.40603
843.872	2502.54787
844.056	2451.85539
844.241	2762.23926
844.425	2352.56473
844.609	2629.25002
844.793	2496.21166
844.977	2477.20243
845.161	2494.09957
845.346	2538.45111
845.53	2363.12865
845.714	2654.58522
845.898	2187.73689
846.082	2515.21998
846.266	2265.93142
846.45	2443.40603
846.634	2384.25572
846.818	2348.33909
847.002	2172.94201
847.186	2413.83191
847.37	2187.73689
847.554	2456.08
847.738	2259.59177
847.922	2352.56473
848.106	2206.75828
848.29	2508.88397
848.473	2227.89234
848.657	2434.95649
848.841	2422.28187
849.025	2430.73166
849.209	2166.60122
849.392	2354.67753
849.576	2156.03307
849.76	2322.98444
849.944	2287.06296
850.127	2510.99599
850.311	2063.02499
850.495	2299.74145
850.678	2164.48761
850.862	2456.08
851.046	2096.84781
851.229	2198.30441
851.413	2206.75828
851.596	2202.53136
851.78	2253.25205
851.964	2291.28916
852.147	2147.57841
852.331	2325.09738
852.514	2063.02499
852.698	2265.93142
852.881	2052.45498
853.065	2060.911
853.248	2071.48087
853.431	2215.21201
853.615	1783.92563
853.798	2084.16447
853.982	1847.3655
854.165	2037.65668
854.348	1800.84331
854.532	2143.35103
854.715	1923.48759
854.898	2063.02499
855.081	1847.3655
855.265	2189.85041
855.448	1902.34325
855.631	2090.50617
855.814	1847.3655
855.997	2056.68301
856.181	1805.07269
856.364	2187.73689
856.547	1817.76072
856.73	2096.84781
856.913	1792.3845
857.096	1991.14556
857.279	1821.99003
857.462	1849.48009
857.645	1739.5155
857.828	1959.43165
858.011	1769.12244
858.194	1876.96933
858.377	1771.2372
858.56	1919.25876
858.743	1834.67785
858.926	1864.28209
859.109	1633.77123
859.292	1862.16753
859.475	1648.57585
859.658	2088.39228
859.841	1508.9859
860.023	1847.3655
860.206	1640.11608
860.389	1927.71639
860.572	1648.57585
860.755	1883.31288
860.937	1570.32172
861.12	1642.23103
861.303	1563.97668
861.486	1813.5314
861.668	1513.21599
861.851	1705.67815
862.034	1453.99463
862.216	1733.17107
862.399	1580.89675
862.581	1602.04669
862.764	1504.75582
862.947	1614.73656
863.129	1709.90787
863.312	1682.4145
863.494	1566.0917
863.677	1720.4821
863.859	1481.4903
864.042	1690.87405
864.224	1566.0917
864.406	1716.25242
864.589	1470.91504
864.771	1502.64077
864.954	1479.37525
865.136	1707.79301
865.318	1466.68494
865.501	1399.00334
865.683	1464.56989
865.865	1616.85154
866.048	1411.69361
866.23	1627.42636
866.412	1439.18926
866.594	1618.9665
866.777	1407.46352
866.959	1508.9859
867.141	1403.23343
867.323	1576.66675
867.505	1394.77325
867.687	1557.63163
867.869	1597.81672
868.052	1489.95049
868.234	1356.70265
868.416	1337.66748
868.598	1255.18349
868.78	1462.45484
868.962	1453.99463
869.144	1515.33103
869.326	1388.42813
869.508	1515.33103
869.69	1390.54317
869.872	1426.49895
870.054	1443.41937
870.236	1504.75582
870.417	1392.65821
870.599	1407.46352
870.781	1310.17248
870.963	1468.79999
871.145	1276.33291
871.327	1473.03009
871.508	1261.52829
871.69	1470.91504
871.872	1242.49396
872.054	1513.21599
872.235	1198.08145
872.417	1449.76452
872.599	1234.03433
872.78	1360.9327
872.962	1320.74745
873.144	1379.96798
873.325	1274.21796
873.507	1371.50784
873.689	1286.90772
873.87	1377.85294
874.052	1234.03433
874.233	1388.42813
874.415	1198.08145
874.596	1312.28747
874.778	1092.34404
874.959	1242.49396
875.141	1109.26129
875.322	1286.90772
875.503	1130.40827
875.685	1403.23343
875.866	1115.60533
876.048	1462.45484
876.229	1134.63772
876.41	1272.10301
876.592	1299.59756
876.773	1301.71254
876.954	1157.90001
877.136	1352.4726
877.317	1145.21142
877.498	1276.33291
877.679	1208.65573
877.86	1138.86719
878.042	1081.77092
878.223	1242.49396
878.404	1043.70879
878.585	1269.98806
878.766	1121.94942
878.947	1403.23343
879.128	1174.81834
879.309	1388.42813
879.49	1269.98806
879.672	1360.9327
879.853	1274.21796
880.034	1310.17248
880.215	1255.18349
880.396	1394.77325
880.576	1293.25263
880.757	1379.96798
880.938	1191.73692
881.119	1420.1538
881.3	1356.70265
881.481	1458.22473
881.662	1327.09245
881.843	1392.65821
882.023	1369.39281
882.204	1413.80866
882.385	1382.08301
882.566	1428.614
882.747	1244.60887
882.927	1445.53442
883.108	1293.25263
883.289	1460.33978
883.469	1183.2776
883.65	1352.4726
883.831	1145.21142
884.011	1257.29842
884.192	1208.65573
884.373	1318.63245
884.553	1305.9425
884.734	1392.65821
884.914	1344.01253
885.095	1445.53442
885.275	1244.60887
885.456	1291.13766
885.636	1293.25263
885.817	1494.18059
885.997	1267.87311
886.178	1447.64947
886.358	1310.17248
886.538	1479.37525
886.719	1210.77059
886.899	1504.75582
887.08	1344.01253
887.26	1360.9327
887.44	1234.03433
887.621	1428.614
887.801	1360.9327
887.981	1371.50784
888.161	1318.63245
888.342	1409.57856
888.522	1365.16275
888.702	1589.35675
888.882	1337.66748
889.062	1439.18926
889.242	1267.87311
889.423	1420.1538
889.603	1225.57474
889.783	1344.01253
889.963	1210.77059
890.143	1415.92371
890.323	1360.9327
890.503	1269.98806
890.683	1272.10301
890.863	1384.19805
891.043	1286.90772
891.223	1453.99463
891.403	1242.49396
891.583	1540.71144
891.763	1183.2776
891.943	1377.85294
892.122	1160.01479
892.302	1320.74745
892.482	1225.57474
892.662	1375.73791
892.842	1335.55247
893.022	1312.28747
893.201	1272.10301
893.381	1327.09245
893.561	1217.11521
893.741	1301.71254
893.92	1145.21142
894.1	1183.2776
894.28	1185.39243
894.459	1234.03433
894.639	1238.26414
894.819	1411.69361
894.998	1253.06856
895.178	1322.86244
895.357	1115.60533
895.537	1337.66748
895.716	1151.5557
895.896	1227.68963
896.075	1117.72003
896.255	1329.20745
896.434	1092.34404
896.614	1297.48258
896.793	1026.79287
896.973	1181.16278
897.152	959.13317
897.331	1132.52299
897.511	1143.09668
897.69	1124.06413
897.87	1039.47978
898.049	1119.83472
898.228	959.13317
898.407	1081.77092
898.587	965.47598
898.766	1183.2776
898.945	904.16489
899.124	1164.24435
899.304	800.58571
899.483	1069.08335
899.662	1022.56395
899.841	1121.94942
900.02	1031.02181
900.199	1075.42711
900.378	849.20191
900.557	1077.54171
900.737	948.56196
900.916	1143.09668
901.095	929.53424
901.274	946.44774
901.453	830.17761
901.632	883.02463
901.811	904.16489
901.989	1009.87733
902.168	709.70835
902.347	872.4548
902.526	813.26773
902.705	921.07767
902.884	796.35845
903.063	823.83634
903.242	806.92668
903.42	963.3617
903.599	747.74772
903.778	868.22692
903.957	764.6552
904.135	768.88217
904.314	751.97453
904.493	828.06384
904.672	616.7386
904.85	688.57688
905.029	633.64047
905.207	806.92668
905.386	718.16124
905.565	790.01762
905.743	574.48747
905.922	629.41493
906.1	582.93728
906.279	781.56332
906.457	625.18944
906.636	711.82155
906.814	650.54313
906.993	604.06272
907.171	566.03788
907.35	585.04977
907.528	561.81316
907.707	572.37505
907.885	481.5541
908.063	629.41493
908.242	549.13933
908.42	574.48747
908.598	502.6729
908.777	595.61239
908.955	582.93728
909.133	599.83753
909.311	540.69038
909.49	511.12083
909.668	477.33052
909.846	515.34488
910.024	468.88354
910.202	515.34488
910.38	473.107
910.559	540.69038
910.737	426.6523
910.915	464.66014
911.093	413.98415
911.271	506.89684
911.449	551.2516
911.627	525.90526
911.805	424.5409
911.983	477.33052
912.161	547.02707
912.339	620.96399
912.517	399.20538
912.695	454.1019
912.872	509.00883
913.05	601.95012
913.228	418.2068
913.406	566.03788
913.584	528.01738
913.762	587.16227
913.939	458.32515
914.117	542.8026
914.295	578.71235
914.473	566.03788
914.65	644.20454
914.828	625.18944
915.006	528.01738
915.184	608.28796
915.361	515.34488
915.539	580.82481
915.716	542.8026
915.894	669.55954
916.072	566.03788
916.249	658.99475
916.427	509.00883
916.604	637.86606
916.782	559.70082
916.959	540.69038
917.137	549.13933
917.314	578.71235
917.492	532.24166
917.669	517.45693
917.847	475.21875
918.024	576.59991
918.201	441.43252
918.379	530.12951
918.556	494.22521
918.733	490.00145
918.911	477.33052
919.088	553.36388
919.265	397.09419
919.442	481.5541
919.62	348.54149
919.797	422.42952
919.974	388.64961
920.151	458.32515
920.328	363.31745
920.506	496.33711
920.683	477.33052
920.86	466.77183
921.037	435.09805
921.214	449.87871
921.391	418.2068
921.568	422.42952
921.745	346.43071
921.922	506.89684
922.099	363.31745
922.276	422.42952
922.453	306.32919
922.63	401.31658
922.807	371.76124
922.984	371.76124
923.161	380.20529
923.338	525.90526
923.514	388.64961
923.691	456.21352
923.868	365.42837
924.045	411.87285
924.222	350.65229
924.399	304.21876
924.575	312.66058
924.752	388.64961
924.929	295.77723
925.105	350.65229
925.282	359.09566
925.459	342.2092
925.635	329.54508
925.812	354.87394
925.989	350.65229
926.165	278.89506
926.342	234.58507
926.518	295.77723
926.695	281.00526
926.871	274.6747
927.048	247.24421
927.224	253.57403
927.401	152.31817
927.577	287.336
927.754	238.8047
927.93	297.88759
928.107	255.68401
928.283	205.04983
928.459	196.6119
928.636	266.2342
928.812	249.35413
928.988	281.00526
929.165	316.8816
929.341	245.1343
929.517	257.79401
929.693	272.56455
929.87	238.8047
930.046	215.59768
930.222	173.40929
930.398	272.56455
930.574	215.59768
930.751	257.79401
930.927	196.6119
931.103	133.33796
931.279	196.6119
931.455	224.03632
931.631	179.73703
931.807	224.03632
931.983	175.51851
932.159	179.73703
932.335	131.22915
932.511	188.1743
932.687	143.8823
932.863	177.62776
933.039	114.35949
933.215	120.68545
933.391	160.75436
933.566	156.53622
933.742	202.94032
933.918	234.58507
934.094	179.73703
934.27	150.20917
934.445	127.01161
934.621	230.36551
934.797	129.12037
934.973	156.53622
935.148	169.1909
935.324	143.8823
935.5	152.31817
935.675	196.6119
935.851	91.16598
936.027	171.30008
936.202	150.20917
936.378	84.84094
936.553	110.14229
936.729	122.79415
936.904	86.94927
937.08	25.81715
937.255	84.84094
937.431	101.70815
937.606	84.84094
937.782	72.19148
937.957	8.95656
938.133	72.19148
938.308	34.24801
938.483	63.75895
938.659	97.49122
938.834	59.54283
939.009	-20.54576
939.185	89.05761
939.36	95.38278
939.535	84.84094
939.71	86.94927
939.886	11.06405
940.061	30.03253
940.236	65.86705
940.411	-33.18815
940.586	97.49122
940.761	42.67924
940.937	32.14026
941.112	63.75895
941.287	17.38667
941.462	36.35578
941.637	23.70949
941.812	-5.79519
941.987	4.74166
942.162	63.75895
942.337	38.46358
942.512	61.65088
942.687	105.92518
942.862	25.81715
943.037	101.70815
943.212	-3.68787
943.386	51.11085
943.561	61.65088
943.736	17.38667
943.911	42.67924
944.086	80.62436
944.26	-14.22423
944.435	-3.68787
944.61	44.78711
944.785	36.35578
944.959	23.70949
945.134	44.78711
945.309	59.54283
945.483	25.81715
945.658	67.97517
945.833	13.17157
946.007	55.32679
946.182	21.60186
946.357	44.78711
946.531	19.49425
946.706	25.81715
946.88	72.19148
947.055	-12.11701
947.229	-12.11701
947.404	32.14026
947.578	110.14229
947.752	42.67924
947.927	11.06405
948.101	57.4348
948.276	25.81715
948.45	61.65088
948.624	0.52684
948.799	110.14229
948.973	44.78711
949.147	25.81715
949.321	30.03253
949.496	44.78711
949.67	67.97517
949.844	-22.65289
950.018	61.65088
950.193	17.38667
950.367	38.46358
950.541	38.46358
950.715	8.95656
950.889	38.46358
951.063	95.38278
951.237	51.11085
951.411	44.78711
951.585	93.27437
951.759	15.2791
951.933	89.05761
952.107	44.78711
952.281	17.38667
952.455	30.03253
952.629	78.51611
952.803	34.24801
952.977	70.08331
953.151	-16.33143
953.325	63.75895
953.499	46.895
953.672	53.21881
953.846	42.67924
954.02	-62.68356
954.194	51.11085
954.368	8.95656
954.541	84.84094
954.715	0.52684
954.889	61.65088
955.062	-12.11701
955.236	51.11085
955.41	-26.86706
955.583	-14.22423
955.757	-33.18815
955.93	53.21881
956.104	61.65088
956.278	8.95656
956.451	70.08331
956.625	-24.75999
956.798	135.44678
956.972	51.11085
957.145	25.81715
957.319	103.81665
957.492	46.895
957.665	17.38667
957.839	36.35578
958.012	51.11085
958.185	118.57677
958.359	34.24801
958.532	17.38667
958.705	-24.75999
958.879	84.84094
959.052	103.81665
959.225	36.35578
959.398	84.84094
959.572	21.60186
959.745	84.84094
959.918	46.895
960.091	65.86705
960.264	78.51611
960.438	120.68545
960.611	34.24801
960.784	101.70815
960.957	51.11085
961.13	97.49122
961.303	-16.33143
961.476	76.40788
961.649	76.40788
961.822	34.24801
961.995	55.32679
962.168	42.67924
962.341	25.81715
962.514	0.52684
962.686	-5.79519
962.859	46.895
963.032	65.86705
963.205	25.81715
963.378	21.60186
963.551	145.99124
963.723	36.35578
963.896	84.84094
964.069	-28.97412
964.242	93.27437
964.414	59.54283
964.587	53.21881
964.76	0.52684
964.932	30.03253
965.105	63.75895
965.278	44.78711
965.45	89.05761
965.623	-18.43861
965.795	6.8491
965.968	51.11085
966.14	23.70949
966.313	13.17157
966.485	120.68545
966.658	127.01161
966.83	38.46358
967.003	25.81715
967.175	44.78711
967.348	-7.90249
967.52	44.78711
967.692	4.74166
967.865	72.19148
968.037	114.35949
968.209	36.35578
968.382	38.46358
968.554	-22.65289
968.726	11.06405
968.898	105.92518
969.071	-28.97412
969.243	46.895
969.415	116.46812
969.587	-45.82964
969.759	95.38278
969.932	51.11085
970.104	4.74166
970.276	0.52684
970.448	101.70815
970.62	13.17157
970.792	-3.68787
970.964	51.11085
971.136	59.54283
971.308	127.01161
971.48	55.32679
971.652	-14.22423
971.824	38.46358
971.996	70.08331
972.168	0.52684
972.339	86.94927
972.511	30.03253
972.683	38.46358
972.855	-31.08114
973.027	70.08331
973.199	-54.2568
973.37	-10.00976
973.542	42.67924
973.714	0.52684
973.886	-24.75999
974.057	42.67924
974.229	-16.33143
974.401	36.35578
974.572	30.03253
974.744	51.11085
974.915	34.24801
975.087	-7.90249
975.259	-1.58052
975.43	2.63424
975.602	76.40788
975.773	53.21881
975.945	46.895
976.116	19.49425
976.288	6.8491
976.459	42.67924
976.63	-35.29512
976.802	80.62436
976.973	-7.90249
977.145	36.35578
977.316	-24.75999
977.487	34.24801
977.659	-26.86706
977.83	0.52684
978.001	2.63424
978.172	34.24801
978.344	44.78711
978.515	65.86705
978.686	-52.15005
978.857	-7.90249
979.028	93.27437
979.2	-16.33143
979.371	25.81715
979.542	27.92483
979.713	2.63424
979.884	42.67924
980.055	67.97517
980.226	38.46358
980.397	124.90287
980.568	127.01161
980.739	95.38278
980.91	51.11085
981.081	30.03253
981.252	-5.79519
981.423	57.4348
981.594	63.75895
981.765	51.11085
981.936	57.4348
982.106	55.32679
982.277	-33.18815
982.448	25.81715
982.619	0.52684
982.79	17.38667
982.96	72.19148
983.131	36.35578
983.302	-39.50901
983.472	-16.33143
983.643	4.74166
983.814	120.68545
983.984	-12.11701
984.155	38.46358
984.326	72.19148
984.496	46.895
984.667	-20.54576
984.837	34.24801
985.008	76.40788
985.178	46.895
985.349	-28.97412
985.519	-39.50901
985.69	4.74166
985.86	21.60186
986.031	70.08331
986.201	30.03253
986.371	36.35578
986.542	120.68545
986.712	51.11085
986.882	-22.65289
987.053	-3.68787
987.223	25.81715
987.393	0.52684
987.563	-37.40208
987.734	-1.58052
987.904	84.84094
988.074	42.67924
988.244	67.97517
988.414	30.03253
988.585	-10.00976
988.755	8.95656
988.925	36.35578
989.095	-28.97412
989.265	30.03253
989.435	42.67924
989.605	21.60186
989.775	34.24801
989.945	19.49425
990.115	-16.33143
990.285	67.97517
990.455	42.67924
990.625	19.49425
990.795	25.81715
990.965	25.81715
991.134	46.895
991.304	8.95656
991.474	-3.68787
991.644	72.19148
991.814	38.46358
991.984	27.92483
992.153	-7.90249
992.323	34.24801
992.493	-41.61591
992.662	59.54283
992.832	25.81715
993.002	-41.61591
993.171	4.74166
993.341	51.11085
993.511	0.52684
993.68	36.35578
993.85	-20.54576
994.019	-22.65289
994.189	-33.18815
994.358	-39.50901
994.528	32.14026
994.697	2.63424
994.867	91.16598
995.036	-7.90249
995.206	-16.33143
995.375	-33.18815
995.544	4.74166
995.714	-33.18815
995.883	91.16598
996.052	17.38667
996.222	38.46358
996.391	63.75895
996.56	80.62436
996.73	-50.04327
996.899	-50.04327
997.068	103.81665
997.237	-58.47023
997.406	-16.33143
997.576	-14.22423
997.745	11.06405
997.914	-7.90249
998.083	36.35578
998.252	19.49425
998.421	13.17157
998.59	-1.58052
998.759	-3.68787
998.928	-33.18815
999.097	-56.36353
999.266	13.17157
999.435	-31.08114
999.604	44.78711
999.773	46.895
999.942	0.52684
1000.111	4.74166
1000.28	51.11085
1000.448	21.60186
1000.617	-7.90249
1000.786	-14.22423
1000.955	-54.2568
1001.124	38.46358
1001.292	-12.11701
1001.461	-22.65289
1001.63	17.38667
1001.798	-41.61591
1001.967	-50.04327
1002.136	40.5714
1002.304	34.24801
1002.473	-18.43861
1002.642	-14.22423
1002.81	17.38667
1002.979	-7.90249
1003.147	8.95656
1003.316	-5.79519
1003.484	17.38667
1003.653	17.38667
1003.821	27.92483
1003.99	-7.90249
1004.158	34.24801
1004.327	8.95656
1004.495	42.67924
1004.663	19.49425
1004.832	82.73264
1005	-39.50901
1005.168	-33.18815
1005.337	44.78711
1005.505	13.17157
1005.673	-14.22423
1005.842	61.65088
1006.01	55.32679
1006.178	30.03253
1006.346	4.74166
1006.514	108.03372
1006.683	-14.22423
1006.851	15.2791
1007.019	57.4348
1007.187	21.60186
1007.355	55.32679
1007.523	-12.11701
1007.691	-62.68356
1007.859	2.63424
1008.027	-56.36353
1008.195	-14.22423
1008.363	17.38667
1008.531	30.03253
1008.699	2.63424
1008.867	-106.91731
1009.035	99.59967
1009.203	-5.79519
1009.37	25.81715
1009.538	51.11085
1009.706	51.11085
1009.874	-7.90249
1010.042	46.895
1010.209	-14.22423
1010.377	-5.79519
1010.545	25.81715
1010.713	-33.18815
1010.88	-16.33143
1011.048	-28.97412
1011.216	19.49425
1011.383	8.95656
1011.551	27.92483
1011.718	-45.82964
1011.886	-16.33143
1012.054	63.75895
1012.221	-12.11701
1012.389	-12.11701
1012.556	19.49425
1012.724	-33.18815
1012.891	32.14026
1013.058	84.84094
1013.226	-58.47023
1013.393	-16.33143
1013.561	-35.29512
1013.728	-16.33143
1013.895	42.67924
1014.063	17.38667
1014.23	-7.90249
1014.397	74.29967
1014.565	38.46358
1014.732	34.24801
1014.899	32.14026
1015.066	38.46358
1015.233	-12.11701
1015.401	8.95656
1015.568	-7.90249
1015.735	-33.18815
1015.902	17.38667
1016.069	95.38278
1016.236	-7.90249
1016.403	11.06405
1016.57	0.52684
1016.737	2.63424
1016.904	-33.18815
1017.071	-22.65289
1017.238	-20.54576
1017.405	-14.22423
1017.572	17.38667
1017.739	-14.22423
1017.906	-3.68787
1018.073	8.95656
1018.24	-56.36353
1018.407	-28.97412
1018.573	-5.79519
1018.74	27.92483
1018.907	17.38667
1019.074	15.2791
1019.241	-47.93647
1019.407	6.8491
1019.574	49.00291
1019.741	19.49425
1019.907	-58.47023
1020.074	-31.08114
1020.241	46.895
1020.407	103.81665
1020.574	-1.58052
1020.74	-98.49271
1020.907	17.38667
1021.073	25.81715
1021.24	59.54283
1021.406	0.52684
1021.573	-12.11701
1021.739	11.06405
1021.906	30.03253
1022.072	0.52684
1022.239	-79.53586
1022.405	8.95656
1022.571	-20.54576
1022.738	-20.54576
1022.904	13.17157
1023.07	-41.61591
1023.237	8.95656
1023.403	21.60186
1023.569	40.5714
1023.735	-54.2568
1023.902	49.00291
1024.068	-22.65289
1024.234	-7.90249
1024.4	8.95656
1024.566	-28.97412
1024.732	44.78711
1024.898	46.895
1025.065	53.21881
1025.231	25.81715
1025.397	2.63424
1025.563	11.06405
1025.729	36.35578
1025.895	34.24801
1026.061	59.54283
1026.227	-45.82964
1026.392	59.54283
1026.558	61.65088
1026.724	-22.65289
1026.89	59.54283
1027.056	-81.64228
1027.222	-16.33143
1027.388	-16.33143
1027.553	-75.32294
1027.719	25.81715
1027.885	27.92483
1028.051	19.49425
1028.216	0.52684
1028.382	8.95656
1028.548	-66.89679
1028.713	-20.54576
1028.879	36.35578
1029.045	-66.89679
1029.21	-31.08114
1029.376	-54.2568
1029.541	-58.47023
1029.707	4.74166
1029.873	34.24801
1030.038	36.35578
1030.204	-62.68356
1030.369	-45.82964
1030.534	46.895
1030.7	-41.61591
1030.865	78.51611
1031.031	-35.29512
1031.196	13.17157
1031.361	36.35578
1031.527	42.67924
1031.692	-5.79519
1031.857	-5.79519
1032.023	-24.75999
1032.188	21.60186
1032.353	17.38667
1032.518	17.38667
1032.684	34.24801
1032.849	13.17157
1033.014	-22.65289
1033.179	30.03253
1033.344	11.06405
1033.509	19.49425
1033.674	59.54283
1033.839	-41.61591
1034.004	27.92483
1034.17	-22.65289
1034.335	-83.74867
1034.5	-102.70506
1034.664	46.895
1034.829	-7.90249
1034.994	25.81715
1035.159	-16.33143
1035.324	-22.65289
1035.489	-10.00976
1035.654	63.75895
1035.819	-64.79019
1035.984	0.52684
1036.148	-50.04327
1036.313	0.52684
1036.478	53.21881
1036.643	13.17157
1036.807	8.95656
1036.972	30.03253
1037.137	51.11085
1037.301	40.5714
1037.466	-3.68787
1037.631	-12.11701
1037.795	-41.61591
1037.96	51.11085
1038.124	25.81715
1038.289	-3.68787
1038.454	4.74166
1038.618	30.03253
1038.783	-3.68787
1038.947	-16.33143
1039.111	-24.75999
1039.276	-20.54576
1039.44	-33.18815
1039.605	4.74166
1039.769	32.14026
1039.933	25.81715
1040.098	65.86705
1040.262	27.92483
1040.426	21.60186
1040.591	17.38667
1040.755	-5.79519
1040.919	27.92483
1041.083	-22.65289
1041.248	-16.33143
1041.412	-16.33143
1041.576	4.74166
1041.74	34.24801
1041.904	-20.54576
1042.068	2.63424
1042.232	-5.79519
1042.397	38.46358
1042.561	-54.2568
1042.725	-5.79519
1042.889	11.06405
1043.053	-85.85504
1043.217	8.95656
1043.381	-3.68787
1043.544	4.74166
1043.708	51.11085
1043.872	-75.32294
1044.036	-7.90249
1044.2	-24.75999
1044.364	-31.08114
1044.528	-56.36353
1044.691	-39.50901
1044.855	-16.33143
1045.019	-1.58052
1045.183	15.2791
1045.346	-45.82964
1045.51	38.46358
1045.674	-16.33143
1045.837	-3.68787
1046.001	-3.68787
1046.165	-35.29512
1046.328	-33.18815
1046.492	36.35578
1046.655	-37.40208
1046.819	-14.22423
1046.983	110.14229
1047.146	8.95656
1047.31	25.81715
1047.473	-3.68787
1047.636	0.52684
1047.8	-22.65289
1047.963	-12.11701
1048.127	-35.29512
1048.29	-24.75999
