Data from mixed_try1_USB4F045381__38__00103.txt Node

Date: Thu Apr 03 19:57:39 EDT 2025
User: mmckonesweet
Spectrometer: USB4F04538
Trigger mode: 4
Integration Time (sec): 2.700000E-3
Scans to average: 1
Electric dark correction enabled: true
Nonlinearity correction enabled: true
Boxcar width: 0
XAxis mode: Wavelengths
Number of Pixels in Spectrum: 3648
>>>>>Begin Spectral Data<<<<<
345.52	2.283
345.736	2.283
345.952	2.283
346.168	36.00449
346.384	23.35822
346.6	-20.89695
346.816	-29.32529
347.032	-6.14641
347.248	19.14299
347.464	-60.92802
347.68	-31.43231
347.896	14.92785
348.112	0.17561
348.328	2.283
348.544	69.73195
348.76	-35.64629
348.975	78.16474
349.191	46.54368
349.407	29.68125
349.623	-20.89695
349.839	-6.14641
350.055	69.73195
350.27	27.57355
350.486	10.7128
350.702	-8.2537
350.918	-115.69247
351.133	27.57355
351.349	-35.64629
351.565	33.89672
351.781	42.32793
351.996	-6.14641
352.212	65.5157
352.428	6.49786
352.644	29.68125
352.859	-20.89695
353.075	23.35822
353.291	-6.14641
353.506	-107.26832
353.722	-105.16222
353.938	-81.99334
354.153	52.86748
354.369	-4.03909
354.584	19.14299
354.8	10.7128
355.016	10.7128
355.231	38.11228
355.447	-39.86016
355.662	23.35822
355.878	27.57355
356.093	14.92785
356.309	57.08346
356.524	-37.75323
356.74	-23.00407
356.955	2.283
357.171	-44.07393
357.386	-35.64629
357.602	111.89944
357.817	-27.21824
358.033	10.7128
358.248	-29.32529
358.464	-35.64629
358.679	-6.14641
358.895	23.35822
359.11	59.19149
359.325	19.14299
359.541	-12.46822
359.756	-46.18078
359.972	-56.71465
360.187	25.46587
360.402	-77.78048
360.618	10.7128
360.833	-39.86016
361.048	6.49786
361.264	-14.57544
361.479	31.78897
361.694	21.25059
361.909	-18.7898
362.125	14.92785
362.34	29.68125
362.555	-41.96706
362.77	19.14299
362.986	-18.7898
363.201	-12.46822
363.416	-23.00407
363.631	-35.64629
363.847	-63.03467
364.062	-14.57544
364.277	0.17561
364.492	23.35822
364.707	-79.88693
364.922	2.283
365.138	-56.71465
365.353	31.78897
365.568	-4.03909
365.783	-77.78048
365.998	19.14299
366.213	-4.03909
366.428	-14.57544
366.643	44.4358
366.858	-90.41875
367.073	-48.28761
367.288	6.49786
367.503	-6.14641
367.718	-27.21824
367.933	36.00449
368.148	-39.86016
368.363	63.4076
368.578	6.49786
368.793	-35.64629
369.008	-77.78048
369.223	-23.00407
369.438	-37.75323
369.653	31.78897
369.868	23.35822
370.083	-6.14641
370.298	48.65159
370.513	-1.93175
370.728	2.283
370.943	-46.18078
371.157	4.39042
371.372	4.39042
371.587	-14.57544
371.802	-6.14641
372.017	-6.14641
372.232	-18.7898
372.446	-14.57544
372.661	-14.57544
372.876	-27.21824
373.091	-23.00407
373.306	-1.93175
373.52	-25.11117
373.735	-23.00407
373.95	19.14299
374.165	44.4358
374.379	-6.14641
374.594	38.11228
374.809	31.78897
375.023	-12.46822
375.238	82.38126
375.453	-14.57544
375.667	-6.14641
375.882	-4.03909
376.097	-48.28761
376.311	-6.14641
376.526	-65.14129
376.741	23.35822
376.955	4.39042
377.17	-86.2061
377.384	14.92785
377.599	-16.68263
377.813	38.11228
378.028	-31.43231
378.242	-39.86016
378.457	-1.93175
378.672	21.25059
378.886	-8.2537
379.101	-35.64629
379.315	-27.21824
379.53	8.60532
379.744	-12.46822
379.958	-14.57544
380.173	-65.14129
380.387	-39.86016
380.602	14.92785
380.816	-48.28761
381.031	2.283
381.245	10.7128
381.459	-1.93175
381.674	19.14299
381.888	-6.14641
382.103	-14.57544
382.317	82.38126
382.531	-16.68263
382.746	-46.18078
382.96	-27.21824
383.174	52.86748
383.388	10.7128
383.603	0.17561
383.817	2.283
384.031	-23.00407
384.246	-75.67402
384.46	-37.75323
384.674	-12.46822
384.888	-4.03909
385.103	-4.03909
385.317	-65.14129
385.531	-6.14641
385.745	-69.35446
385.959	-23.00407
386.174	-14.57544
386.388	10.7128
386.602	10.7128
386.816	54.97546
387.03	12.82031
387.244	-14.57544
387.458	-25.11117
387.672	52.86748
387.887	44.4358
388.101	-4.03909
388.315	-18.7898
388.529	-29.32529
388.743	63.4076
388.957	23.35822
389.171	-39.86016
389.385	-14.57544
389.599	2.283
389.813	0.17561
390.027	2.283
390.241	36.00449
390.455	-44.07393
390.669	-4.03909
390.883	-14.57544
391.097	31.78897
391.311	-41.96706
391.525	19.14299
391.738	67.62381
391.952	-98.84375
392.166	-1.93175
392.38	-31.43231
392.594	-6.14641
392.808	29.68125
393.022	29.68125
393.236	2.283
393.449	92.92297
393.663	4.39042
393.877	36.00449
394.091	46.54368
394.305	-29.32529
394.518	78.16474
394.732	-29.32529
394.946	-10.36097
395.16	-1.93175
395.373	-14.57544
395.587	-46.18078
395.801	27.57355
396.015	-4.03909
396.228	-12.46822
396.442	19.14299
396.656	36.00449
396.869	-46.18078
397.083	23.35822
397.297	-23.00407
397.51	-23.00407
397.724	-52.50118
397.938	31.78897
398.151	-29.32529
398.365	116.11668
398.578	-18.7898
398.792	-4.03909
399.005	0.17561
399.219	29.68125
399.433	-39.86016
399.646	0.17561
399.86	-6.14641
400.073	42.32793
400.287	-44.07393
400.5	61.29953
400.714	-73.56752
400.927	2.283
401.141	-23.00407
401.354	25.46587
401.567	0.17561
401.781	-48.28761
401.994	48.65159
402.208	120.334
402.421	57.08346
402.635	8.60532
402.848	-31.43231
403.061	23.35822
403.275	31.78897
403.488	44.4358
403.701	-29.32529
403.915	-81.99334
404.128	-12.46822
404.341	88.70622
404.555	8.60532
404.768	14.92785
404.981	-14.57544
405.195	-12.46822
405.408	12.82031
405.621	2.283
405.834	-23.00407
406.048	52.86748
406.261	40.22009
406.474	48.65159
406.687	-27.21824
406.9	-23.00407
407.114	25.46587
407.327	29.68125
407.54	42.32793
407.753	-6.14641
407.966	63.4076
408.179	-29.32529
408.392	44.4358
408.605	33.89672
408.819	27.57355
409.032	-41.96706
409.245	-23.00407
409.458	-1.93175
409.671	-6.14641
409.884	27.57355
410.097	88.70622
410.31	-44.07393
410.523	-27.21824
410.736	25.46587
410.949	4.39042
411.162	-18.7898
411.375	-63.03467
411.588	29.68125
411.801	-14.57544
412.014	21.25059
412.227	61.29953
412.44	27.57355
412.653	-12.46822
412.865	-39.86016
413.078	14.92785
413.291	14.92785
413.504	-33.53931
413.717	-14.57544
413.93	63.4076
414.143	14.92785
414.356	33.89672
414.568	2.283
414.781	10.7128
414.994	42.32793
415.207	-4.03909
415.42	-48.28761
415.632	-10.36097
415.845	27.57355
416.058	36.00449
416.271	4.39042
416.483	29.68125
416.696	10.7128
416.909	63.4076
417.121	57.08346
417.334	19.14299
417.547	27.57355
417.759	10.7128
417.972	10.7128
418.185	44.4358
418.397	19.14299
418.61	19.14299
418.823	-4.03909
419.035	23.35822
419.248	52.86748
419.46	52.86748
419.673	-6.14641
419.885	-69.35446
420.098	-12.46822
420.311	-37.75323
420.523	44.4358
420.736	-31.43231
420.948	19.14299
421.161	86.59788
421.373	-8.2537
421.586	-6.14641
421.798	67.62381
422.01	42.32793
422.223	19.14299
422.435	-4.03909
422.648	33.89672
422.86	-20.89695
423.073	29.68125
423.285	52.86748
423.497	97.13981
423.71	23.35822
423.922	4.39042
424.134	-1.93175
424.347	2.283
424.559	-18.7898
424.771	19.14299
424.984	-12.46822
425.196	12.82031
425.408	2.283
425.621	10.7128
425.833	12.82031
426.045	-46.18078
426.257	-37.75323
426.47	52.86748
426.682	6.49786
426.894	10.7128
427.106	12.82031
427.318	-25.11117
427.531	-20.89695
427.743	-6.14641
427.955	46.54368
428.167	44.4358
428.379	46.54368
428.591	21.25059
428.804	29.68125
429.016	52.86748
429.228	-1.93175
429.44	-6.14641
429.652	40.22009
429.864	65.5157
430.076	63.4076
430.288	-14.57544
430.5	-79.88693
430.712	19.14299
430.924	-23.00407
431.136	86.59788
431.348	-12.46822
431.56	-39.86016
431.772	0.17561
431.984	78.16474
432.196	-39.86016
432.408	29.68125
432.62	57.08346
432.832	38.11228
433.044	2.283
433.256	-46.18078
433.468	44.4358
433.679	2.283
433.891	27.57355
434.103	48.65159
434.315	46.54368
434.527	14.92785
434.739	-6.14641
434.95	38.11228
435.162	-20.89695
435.374	2.283
435.586	-44.07393
435.798	103.46523
436.009	-44.07393
436.221	61.29953
436.433	-71.461
436.645	61.29953
436.856	-46.18078
437.068	97.13981
437.28	-39.86016
437.491	17.0354
437.703	97.13981
437.915	38.11228
438.126	44.4358
438.338	2.283
438.55	-48.28761
438.761	-8.2537
438.973	54.97546
439.184	97.13981
439.396	-35.64629
439.608	27.57355
439.819	31.78897
440.031	-27.21824
440.242	-4.03909
440.454	0.17561
440.665	38.11228
440.877	40.22009
441.088	61.29953
441.3	105.57375
441.511	-6.14641
441.723	111.89944
441.934	4.39042
442.146	40.22009
442.357	-27.21824
442.569	99.24826
442.78	31.78897
442.991	36.00449
443.203	-35.64629
443.414	12.82031
443.626	10.7128
443.837	-6.14641
444.048	27.57355
444.26	-35.64629
444.471	29.68125
444.682	4.39042
444.894	107.68229
445.105	73.9483
445.316	-23.00407
445.528	-1.93175
445.739	-14.57544
445.95	10.7128
446.161	31.78897
446.373	-4.03909
446.584	-18.7898
446.795	57.08346
447.006	-14.57544
447.217	2.283
447.429	25.46587
447.64	73.9483
447.851	14.92785
448.062	105.57375
448.273	-14.57544
448.484	-14.57544
448.695	54.97546
448.907	-6.14641
449.118	10.7128
449.329	-12.46822
449.54	-56.71465
449.751	19.14299
449.962	-27.21824
450.173	-81.99334
450.384	21.25059
450.595	2.283
450.806	-23.00407
451.017	65.5157
451.228	27.57355
451.439	21.25059
451.65	65.5157
451.861	88.70622
452.072	36.00449
452.283	-31.43231
452.494	-35.64629
452.705	38.11228
452.915	78.16474
453.126	8.60532
453.337	78.16474
453.548	-14.57544
453.759	44.4358
453.97	-18.7898
454.181	46.54368
454.391	78.16474
454.602	27.57355
454.813	63.4076
455.024	-31.43231
455.235	-18.7898
455.445	61.29953
455.656	4.39042
455.867	52.86748
456.078	50.75953
456.288	36.00449
456.499	6.49786
456.71	-8.2537
456.921	21.25059
457.131	19.14299
457.342	2.283
457.553	36.00449
457.763	-29.32529
457.974	17.0354
458.184	54.97546
458.395	61.29953
458.606	97.13981
458.816	86.59788
459.027	48.65159
459.237	44.4358
459.448	-18.7898
459.659	65.5157
459.869	73.9483
460.08	69.73195
460.29	84.48956
460.501	2.283
460.711	59.19149
460.922	44.4358
461.132	111.89944
461.343	63.4076
461.553	57.08346
461.764	84.48956
461.974	130.87769
462.184	90.81458
462.395	88.70622
462.605	57.08346
462.816	111.89944
463.026	4.39042
463.236	78.16474
463.447	44.4358
463.657	90.81458
463.867	111.89944
464.078	86.59788
464.288	36.00449
464.498	42.32793
464.709	17.0354
464.919	69.73195
465.129	137.20416
465.339	156.18471
465.55	59.19149
465.76	80.27299
465.97	61.29953
466.18	78.16474
466.391	111.89944
466.601	90.81458
466.811	54.97546
467.021	71.84011
467.231	128.76891
467.441	122.44269
467.651	61.29953
467.862	120.334
468.072	105.57375
468.282	120.334
468.492	151.96666
468.702	130.87769
468.912	92.92297
469.122	132.98649
469.332	192.04149
469.542	162.51195
469.752	196.26033
469.962	183.60407
470.172	154.07568
470.382	95.03138
470.592	179.38548
470.802	173.05775
471.012	196.26033
471.222	217.35571
471.432	135.09531
471.642	156.18471
471.852	204.69824
472.062	230.01389
472.272	196.26033
472.482	276.43317
472.691	196.26033
472.901	242.67277
473.111	238.45306
473.321	192.04149
473.531	211.02688
473.741	284.87402
473.95	230.01389
474.16	267.99262
474.37	305.97745
474.58	246.89255
474.79	297.53586
474.999	331.30395
475.209	337.63597
475.419	341.85741
475.628	352.41131
475.838	352.41131
476.048	388.29776
476.258	352.41131
476.467	343.96815
476.677	341.85741
476.886	436.85761
477.096	381.9645
477.306	523.44114
477.515	428.41181
477.725	426.3004
477.935	474.86679
478.144	557.23644
478.354	411.52097
478.563	479.09034
478.773	500.20897
478.982	466.41988
479.192	491.76134
479.401	572.02299
479.611	525.55324
479.82	677.6594
480.03	629.0628
480.239	688.2247
480.449	622.72459
480.658	652.30387
480.868	719.92228
481.077	785.43819
481.287	527.66536
481.496	703.0166
481.705	808.68807
481.915	865.76068
482.124	798.1198
482.333	817.14286
482.543	834.05287
482.752	973.58077
482.961	844.62192
483.171	954.55229
483.38	924.95358
483.589	958.78079
483.799	956.66654
484.008	1020.09709
484.217	1009.52493
484.426	1087.76234
484.636	1026.44046
484.845	1242.14147
485.054	1142.74422
485.263	1288.67019
485.472	1172.35107
485.682	1311.93497
485.891	1290.78516
486.1	1252.71607
486.309	1282.3253
486.518	1278.09538
486.727	1400.76588
486.936	1373.27037
487.146	1421.91635
487.355	1481.13779
487.564	1373.27037
487.773	1593.23424
487.982	1440.9518
488.191	1608.03914
488.4	1679.94712
488.609	1574.19924
488.818	1660.91294
489.027	1713.7851
489.236	1679.94712
489.445	1724.3593
489.654	1694.75133
489.863	2039.4184
490.072	1764.54046
490.281	1802.60556
490.49	1777.22897
490.698	1997.13581
490.907	1889.30397
491.116	2024.6198
491.325	1963.30787
491.534	2176.8169
491.743	2149.33981
491.952	2058.44468
492.16	2064.78664
492.369	2210.63292
492.578	2246.56003
492.787	2246.56003
492.996	2212.74635
493.204	2407.14224
493.413	2284.59767
493.622	2474.7382
493.831	2216.97318
494.039	2504.30791
494.248	2320.51933
494.457	2609.89553
494.665	2407.14224
494.874	2538.09914
495.083	2512.75599
495.291	2563.44061
495.5	2535.98727
495.709	2696.45469
495.917	2459.95253
496.126	2770.32952
496.335	2707.00922
496.543	2675.34466
496.752	2690.12182
496.96	2880.05567
497.169	2858.95742
497.377	3015.04986
497.586	2915.91938
497.794	3076.19874
498.003	2666.90029
498.211	3027.70242
498.42	2867.39689
498.628	3145.76588
498.837	2945.45105
499.045	3187.91926
499.254	3015.04986
499.462	3137.33443
499.671	3145.76588
499.879	3358.57228
500.087	3141.55019
500.296	3375.4208
500.504	3377.52679
500.713	3390.16234
500.921	3465.96224
501.129	3411.22018
501.338	3179.48911
501.546	3609.07569
501.754	3364.89061
501.962	3501.74855
502.171	3417.53719
502.379	3619.59536
502.587	3280.63346
502.795	3562.78361
503.004	3373.3148
503.212	3695.32298
503.42	3609.07569
503.628	3758.41036
503.837	3592.24325
504.045	3735.28034
504.253	3617.49146
504.461	3653.25512
504.669	3676.39338
504.877	4029.48341
505.085	3787.84516
505.294	4018.98297
505.502	3911.84932
505.71	4056.78214
505.918	3644.84063
506.126	3947.56641
506.334	3911.84932
506.542	4176.43508
506.75	3937.06199
506.958	4117.66668
507.166	3937.06199
507.374	4230.99091
507.582	4000.08088
507.79	4249.87228
507.998	4155.44826
508.206	4308.60322
508.414	4285.53235
508.622	4340.05929
508.83	4193.22301
509.037	4426.01431
509.245	3907.64693
509.453	4147.05294
509.661	4191.12459
509.869	4411.34166
510.077	4157.54703
510.285	4514.02768
510.492	4358.93059
510.7	4402.9568
510.908	4390.37886
511.116	4574.77608
511.324	4449.06918
511.531	4752.72347
511.739	4467.93028
511.947	4641.78707
512.155	4570.58713
512.362	4809.21383
512.57	4595.71947
512.778	4532.88263
512.985	4658.53624
513.193	4694.12345
513.401	4683.6573
513.608	4658.53624
513.816	4551.73578
514.024	4520.31286
514.231	4664.81681
514.439	4819.67319
514.646	4750.63092
514.854	4880.32623
515.061	4763.1859
515.269	5051.72355
515.477	4825.94853
515.684	5103.94796
515.892	4790.38555
516.099	4725.51852
516.307	5028.74023
516.514	4957.68321
516.722	5028.74023
516.929	5156.15787
517.136	5068.43694
517.344	5237.57627
517.551	4951.41219
517.759	5110.21392
517.966	5074.70408
518.173	5204.17814
518.381	5248.01196
518.588	5379.45154
518.796	5243.83775
519.003	5346.07887
519.21	5258.44707
519.418	5298.09514
519.625	5191.6523
519.832	5364.85174
520.039	5204.17814
520.247	5533.72191
520.454	5594.14406
520.661	5777.37262
520.868	5377.36592
521.076	5677.45242
521.283	5669.12328
521.49	5546.22467
521.697	5602.4766
521.904	5712.84704
522.112	5760.72303
522.319	5889.71784
522.526	5675.37017
522.733	5885.55814
522.94	5571.22765
523.147	5785.69685
523.354	5635.80296
523.561	5843.95587
523.768	5712.84704
523.975	5979.12873
524.183	5843.95587
524.39	6193.12192
524.597	5806.50577
524.804	5870.99842
525.011	6105.89269
525.218	6166.12682
525.425	5918.83315
525.632	6091.35045
525.838	5974.97105
526.045	6116.27929
526.252	6020.70034
526.459	6118.35654
526.666	6130.81955
526.873	6282.38516
527.08	6205.57986
527.287	6284.46054
527.494	6186.89263
527.701	6381.97676
527.907	6330.11285
528.114	6359.15844
528.321	6525.04564
528.528	6462.85538
528.735	6386.12524
528.941	6525.04564
529.148	6272.00794
529.355	6541.62619
529.562	6363.30743
529.768	6460.78201
529.975	6334.2625
530.182	6783.94807
530.388	6388.19945
530.595	6653.50619
530.802	6487.73399
531.008	6806.71433
531.215	6665.93315
531.422	6765.31909
531.628	6709.421
531.835	6885.34017
532.042	6757.03894
532.248	6976.3397
532.455	6806.71433
532.661	6988.74534
532.868	6759.10901
533.074	6893.61466
533.281	6841.89311
533.487	7149.94515
533.694	6790.15733
533.9	7228.42926
534.107	6992.88037
534.313	7127.22008
534.52	7154.07669
534.726	7211.90894
534.933	6868.79009
535.139	6906.02573
535.345	7236.68888
535.552	7317.20175
535.758	7288.30355
535.965	7344.03196
536.171	7277.98171
536.377	7346.09567
536.584	7282.11051
536.79	7304.81734
536.996	7453.37848
537.203	7401.80755
537.409	7282.11051
537.615	7319.26575
537.821	7484.31454
538.028	7741.92771
538.234	7484.31454
538.44	7591.52207
538.646	7323.39367
538.853	7791.35161
539.059	7626.55813
539.265	7556.47983
539.471	7387.36525
539.677	7690.43162
539.883	7614.19316
540.09	7781.05596
540.296	7805.76464
540.502	7830.47033
540.708	7797.52875
540.914	7990.98469
541.12	7826.35292
541.326	7990.98469
541.532	7774.87831
541.738	7941.60898
541.944	7894.27951
542.15	8077.36397
542.356	7896.33754
542.562	8093.81312
542.768	8120.54024
542.974	8157.54143
543.18	8032.12214
543.386	8186.31566
543.592	7978.64187
543.798	8299.31969
544.004	8176.0396
544.21	8346.55831
544.415	8241.79783
544.621	8447.16288
544.827	8282.88645
545.033	8701.54997
545.239	8326.02105
545.445	8670.79264
545.651	8356.82621
545.856	8646.18377
546.062	8245.90704
546.268	8471.79369
546.474	8399.9461
546.679	8385.57375
546.885	8192.48106
547.091	8488.2127
547.297	8217.14087
547.502	8416.37048
547.708	8518.99507
547.914	8506.68263
548.119	8500.52616
548.325	8783.54929
548.531	8465.63625
548.736	8676.94444
548.942	8391.73345
549.147	8648.23462
549.353	8678.995
549.559	8717.95218
549.764	8375.30721
549.97	8900.34811
550.175	8621.57223
550.381	8941.31634
550.586	8761.0024
550.792	8965.89388
550.997	8603.11181
551.203	9045.75336
551.408	8943.36457
551.614	8869.61725
551.819	8875.76374
552.025	9211.53119
552.23	8947.46096
552.435	9221.76073
552.641	9027.32662
552.846	9217.66896
553.052	9340.39269
553.257	9418.08691
553.462	9117.39958
553.668	9505.97578
553.873	9340.39269
554.078	9332.21297
554.283	9168.56254
554.489	9430.35226
554.694	9546.84423
554.899	9561.14668
555.105	9397.64335
555.31	9375.15355
555.515	9356.75133
555.72	9446.70516
555.925	9168.56254
556.131	9485.53916
556.336	9471.23257
556.541	9648.98774
556.746	9587.70634
556.951	9798.04786
557.156	9236.08136
557.361	9657.15754
557.567	9724.54894
557.772	9769.46728
557.977	9495.75767
558.182	9589.74928
558.387	9534.58436
558.592	9606.09224
558.797	9626.51953
559.002	9869.48648
559.207	9653.07267
559.412	9785.7994
559.617	9685.74988
559.822	9936.82627
560.027	9628.56217
560.232	9832.7489
560.437	9626.51953
560.642	9808.2545
560.847	9687.79207
561.051	9806.2132
561.256	9883.77201
561.461	10020.46877
561.666	9928.66472
561.871	10075.53725
562.076	10010.26976
562.281	9987.83068
562.485	9822.54316
562.69	9993.95061
562.895	9875.60894
563.1	10032.70711
563.305	9983.75066
563.509	10018.429
563.714	9953.14867
563.919	10338.50233
564.123	10224.37491
564.328	10059.22175
564.533	9883.77201
564.737	10163.2177
564.942	10095.93037
565.147	10470.91956
565.351	10144.86811
565.556	10234.56658
565.761	10169.33398
565.965	10348.69024
566.17	10159.14011
566.374	10373.13987
566.579	10028.62772
566.784	10289.59574
566.988	10220.29815
567.193	10466.846
567.397	10216.22133
567.602	10426.10758
567.806	10049.02409
568.011	10377.21462
568.215	10371.10247
568.42	10532.0168
568.624	10540.16223
568.828	10275.32987
569.033	10281.4439
569.237	10568.66967
569.442	10568.66967
569.646	10312.01222
569.85	10336.46471
570.055	10729.48763
570.259	10686.74599
570.463	10670.46206
570.668	10362.95275
570.872	10688.78143
571.076	10641.9633
571.281	10534.05317
571.485	10607.35442
571.689	10993.96346
571.893	10544.23487
572.098	10902.43615
572.302	10646.03469
572.506	10884.12794
572.71	10597.17466
572.914	10898.36774
573.119	10821.05915
573.323	10843.43967
573.527	10646.03469
573.731	11097.6672
573.935	10971.59222
574.139	10910.57284
574.343	10786.46828
574.547	11241.99252
574.751	10985.82862
574.955	11059.0358
575.159	11132.22883
575.364	10987.86235
575.568	11093.60092
575.772	10926.84567
575.976	11002.09812
576.18	11126.12994
576.383	11294.83091
576.587	11099.70032
576.791	10896.33352
576.995	11260.28352
577.199	11244.0249
577.403	11386.2658
577.607	11410.64504
577.811	11388.29746
578.015	11349.69427
578.219	11593.44519
578.422	11183.04916
578.626	11522.36536
578.83	11284.67022
579.034	11522.36536
579.238	11014.29978
579.442	11540.64412
579.645	11428.92854
579.849	11619.84338
580.053	11573.13783
580.257	11506.11693
580.46	11638.11815
580.664	11550.79866
580.868	11284.67022
581.071	11642.17911
581.275	11158.65623
581.479	11625.93505
581.682	11416.73963
581.886	11565.01463
582.09	11493.93021
582.293	11845.18198
582.497	11609.69042
582.7	12121.13195
582.904	11920.27136
583.107	12064.33069
583.311	11784.29025
583.515	11560.95297
583.718	11656.39218
583.922	11711.20992
584.125	11652.33135
584.329	11605.62916
584.532	11601.56788
584.735	11948.68062
584.939	11627.96559
585.142	11995.34954
585.346	11713.24009
585.549	12110.98931
585.753	12017.66797
585.956	11954.76812
586.159	11867.50704
586.363	11958.8264
586.566	12190.09695
586.769	12202.26635
586.973	12104.90363
587.176	12250.94134
587.379	11985.20449
587.582	12307.7236
587.786	12194.15345
587.989	12366.528
588.192	12364.50036
588.395	12315.8349
588.599	12443.57336
588.802	12366.528
589.005	12113.01785
589.208	12370.58326
589.411	12119.10344
589.615	11885.77225
589.818	12561.15061
590.021	12591.55504
590.224	12129.24593
590.427	12307.7236
590.63	12354.36205
590.833	12338.1404
591.036	12445.60074
591.239	12542.90727
591.442	12344.22357
591.645	12376.6661
591.848	12467.90147
592.051	12621.95808
592.254	12569.25859
592.457	12553.04252
592.66	12459.79221
592.863	12611.82388
593.066	12417.21683
593.269	12741.53025
593.472	12530.74477
593.675	12810.42707
593.878	12727.34479
594.081	12780.03222
594.284	12553.04252
594.486	12786.11129
594.689	12707.07936
594.892	12676.68011
595.095	12824.61091
595.298	12808.40079
595.5	12978.58985
595.703	12899.57817
595.906	13083.92678
596.109	12877.29138
596.311	12773.9531
596.514	12733.42431
596.717	13213.5545
596.92	13314.81339
597.122	13136.59033
597.325	13132.5394
597.528	13108.23343
597.73	13231.7819
597.933	13122.412
598.136	13245.95852
598.338	12940.09797
598.541	13541.59639
598.743	13385.68836
598.946	13383.66343
599.148	13134.56487
599.351	12919.83833
599.554	13203.42801
599.756	13019.10564
599.959	13450.48405
600.161	13272.28597
600.363	13503.12765
600.566	13335.0639
600.768	13112.28447
600.971	13225.70614
601.173	13262.16011
601.376	13525.39918
601.578	13533.49781
601.78	13523.37451
601.983	13345.18899
602.185	13535.52246
602.388	13205.45331
602.59	13499.07823
602.792	13681.288
602.995	13709.62929
603.197	13426.18613
603.399	13665.0927
603.601	13584.11296
603.804	13555.76875
604.006	13671.16596
604.208	13675.21479
604.41	13452.50885
604.613	13598.28481
604.815	13543.62102
605.017	13612.45648
605.219	13567.91635
605.421	13620.55451
605.623	13393.78804
605.826	13782.50407
606.028	13620.55451
606.23	13503.12765
606.432	13243.9333
606.634	13796.67371
606.836	13598.28481
607.038	13683.3124
607.24	13606.38293
607.442	13733.92133
607.644	13543.62102
607.846	14090.15759
608.048	13778.45558
608.25	13681.288
608.452	13630.67697
608.654	13877.64036
608.856	13729.87269
609.058	13964.67458
609.26	13628.65248
609.462	13901.92947
609.664	13825.01256
609.866	13748.09148
610.067	13818.94
610.269	13942.41048
610.471	13557.79336
610.673	13833.10927
610.875	13527.42384
611.077	13600.30934
611.278	13399.86276
611.48	13794.64949
611.682	13932.29032
611.884	14120.51504
612.085	13713.678
612.287	14031.46507
612.489	13739.99427
612.69	14025.39332
612.892	14086.10989
613.094	14003.13004
613.295	13713.678
613.497	13928.24225
613.699	13962.65058
613.9	13885.73677
614.102	14104.32446
614.304	13731.89701
614.505	13515.27581
614.707	13988.96234
614.908	13409.98721
615.11	13877.64036
615.311	13675.21479
615.513	13843.23009
615.714	13432.26066
615.916	13820.96419
616.117	13663.06827
616.319	14059.79963
616.52	13754.16435
616.722	14003.13004
616.923	14075.99061
617.124	14073.96674
617.326	13869.5439
617.527	14027.41724
617.729	13766.31002
617.93	13944.4345
618.131	13918.122
618.333	14086.10989
618.534	13924.19416
618.735	14211.5845
618.937	13966.69858
619.138	13920.14606
619.339	13908.00169
619.54	14322.88622
619.742	14270.27156
619.943	14116.46741
620.144	14326.93346
620.345	14057.77575
620.546	13883.71267
620.748	14328.95707
620.949	13802.74637
621.15	14258.12954
621.351	13794.64949
621.552	14102.30063
621.753	13853.35084
621.954	14146.82443
622.155	13697.4831
622.356	14274.31888
622.558	13827.03674
622.759	14179.20472
622.96	13936.33839
623.161	14260.15321
623.362	14080.03833
623.563	14379.54687
623.764	13990.98631
623.965	14122.53885
624.166	14065.87127
624.366	13928.24225
624.567	13918.122
624.768	14225.75049
624.969	14013.24975
625.17	14308.72085
625.371	13958.60258
625.572	13893.83314
625.773	14053.72798
625.973	14243.96376
626.174	14160.99087
626.375	14272.29522
626.576	14116.46741
626.777	14306.69722
626.977	14167.06218
627.178	14252.0585
627.379	14268.24789
627.58	14357.28749
627.78	14355.2639
627.981	14272.29522
628.182	14225.75049
628.382	14509.05237
628.583	13988.96234
628.784	14258.12954
628.984	13912.04982
629.185	14337.05151
629.386	14031.46507
629.586	14644.62269
629.787	14272.29522
629.987	14312.76811
630.188	14005.15399
630.388	14533.33402
630.589	14221.70307
630.79	14417.99445
630.99	14177.18097
631.191	14318.83898
631.391	14654.73968
631.591	14689.13725
631.792	14600.10764
631.992	14687.11387
632.193	14462.51201
632.393	14614.27157
632.594	14786.25841
632.794	14543.45132
632.994	14668.90342
633.195	14571.77959
633.395	14254.08218
633.595	14310.74448
633.796	14444.30037
633.996	14602.13106
634.196	14302.64996
634.397	14642.59929
634.597	14292.53176
634.797	14709.37098
634.997	14306.69722
635.198	14515.1228
635.398	14517.14628
635.598	14676.99696
635.798	14513.09933
635.998	14618.3184
636.199	14314.79174
636.399	14719.48782
636.599	14397.75895
636.799	14401.80606
636.999	14363.35825
637.199	14511.07585
637.399	14284.43716
637.599	14458.46499
637.799	14191.3472
637.999	14571.77959
638.199	14444.30037
638.399	14747.81484
638.599	14563.68583
638.799	14676.99696
638.999	14806.49175
639.199	14774.11836
639.399	14764.00164
639.599	14701.2775
639.799	14579.87334
639.999	14948.12346
640.199	14670.9268
640.399	14668.90342
640.599	14211.5845
640.799	15146.40474
640.998	15229.35885
641.198	14962.28649
641.398	14561.66238
641.598	14944.07687
641.798	14545.47478
641.997	14703.30087
642.197	14654.73968
642.397	14832.795
642.597	15004.7755
642.796	15033.10142
642.996	14727.58127
643.196	14751.86155
643.395	14723.53455
643.595	15172.70726
643.795	14980.49609
643.994	15128.1953
644.194	14826.72503
644.394	14968.35636
644.593	14695.20738
644.793	15010.84534
644.992	14907.65752
645.192	14867.19139
645.392	14759.95495
645.591	15166.63744
645.791	14719.48782
645.99	14759.95495
646.19	14897.54101
646.389	14844.93492
646.589	14770.07168
646.788	15215.19595
646.987	15004.7755
647.187	15154.49782
647.386	15150.45128
647.586	15221.26576
647.785	15205.07959
647.984	15201.03305
648.184	14935.9837
648.383	15077.61349
648.582	15231.38212
648.782	15148.42801
648.981	14962.28649
649.18	15148.42801
649.38	15000.72893
649.579	15079.63677
649.778	15020.96175
649.977	15182.82361
650.177	14891.4711
650.376	15087.72986
650.575	15010.84534
650.774	15025.0083
650.973	14952.17004
651.173	15008.82206
651.372	14952.17004
651.571	15146.40474
651.77	14964.30978
651.969	15338.61584
652.168	14974.42622
652.367	15544.99313
652.566	15065.47385
652.765	15478.22341
652.964	15075.59022
653.163	15093.79968
653.362	15261.73123
653.561	15178.77707
653.76	15114.0324
653.959	15474.17678
654.158	15597.60009
654.357	15611.76359
654.556	15097.84623
654.755	15579.38993
654.954	15136.28839
655.153	15105.93932
655.352	15251.61486
655.551	15219.24249
655.749	15486.31668
655.948	15381.10488
656.147	15439.78053
656.346	15617.83367
656.545	15067.49712
656.743	15524.75981
656.942	15300.17349
657.141	15462.03691
657.34	15152.47455
657.538	15164.61417
657.737	15253.63813
657.936	15468.10684
658.135	15081.66004
658.333	15472.15347
658.532	15067.49712
658.731	15364.91856
658.929	15294.10365
659.128	15326.47614
659.326	15364.91856
659.525	15316.35973
659.724	15429.66401
659.922	15334.56927
660.121	15225.31231
660.319	15340.63912
660.518	15138.31166
660.716	15292.08037
660.915	15178.77707
661.113	15585.45998
661.312	14954.19333
661.51	15354.80212
661.709	15316.35973
661.907	15154.49782
662.105	15156.52109
662.304	15324.45285
662.502	15300.17349
662.701	15510.59652
662.899	15437.75722
663.097	15524.75981
663.296	15310.28989
663.494	15534.87646
663.692	15105.93932
663.891	15385.15147
664.089	15235.42867
664.287	15405.38442
664.485	15429.66401
664.684	15971.93723
664.882	15451.92037
665.08	15836.36214
665.278	15534.87646
665.476	15698.76883
665.675	15389.19805
665.873	15561.17984
666.071	15300.17349
666.269	15407.40771
666.467	15356.82541
666.665	15203.05632
666.863	15176.7538
667.061	15555.10982
667.259	15362.89527
667.457	15672.46475
667.655	15275.89416
667.853	15532.85313
668.051	15318.38301
668.249	15542.9698
668.447	15089.75314
668.645	15464.06022
668.843	15364.91856
669.041	15316.35973
669.239	15190.91669
669.437	15385.15147
669.635	15510.59652
669.833	15381.10488
670.031	15625.92713
670.229	15478.22341
670.426	15241.49849
670.624	15156.52109
670.822	14929.91381
671.02	15215.19595
671.218	15460.0136
671.415	15593.55338
671.613	15233.4054
671.811	15328.49942
672.009	15237.45194
672.206	15455.96698
672.404	15474.17678
672.602	15154.49782
672.799	14994.65908
672.997	15607.71687
673.195	15178.77707
673.392	15399.31453
673.59	14990.61251
673.788	14948.12346
673.985	14873.26132
674.183	15445.85044
674.38	15269.82433
674.578	15553.08648
674.775	15146.40474
674.973	15391.22135
675.17	15251.61486
675.368	15259.70795
675.565	15439.78053
675.763	15233.4054
675.96	15389.19805
676.158	15130.21857
676.355	14509.05237
676.553	15460.0136
676.75	14923.84392
676.947	14935.9837
677.145	14897.54101
677.342	14927.89051
677.539	15037.14798
677.737	15373.01172
677.934	15253.63813
678.131	15178.77707
678.329	15124.14876
678.526	15358.8487
678.723	15205.07959
678.92	15510.59652
679.118	15194.96323
679.315	15081.66004
679.512	15089.75314
679.709	15245.54504
679.906	14814.58507
680.104	15075.59022
680.301	14978.4728
680.498	14749.8382
680.695	14784.23507
680.892	14986.56594
681.089	14816.6084
681.286	15063.45057
681.483	14598.08421
681.68	15043.21781
681.877	14881.35456
682.075	14877.30794
682.272	14525.24016
682.469	14832.795
682.665	14911.70412
682.862	14907.65752
683.059	14846.95824
683.256	14976.44951
683.453	14589.9905
683.65	14790.30508
683.847	14395.73539
684.044	14628.43546
684.241	14687.11387
684.438	14911.70412
684.635	14531.31056
684.831	15010.84534
685.028	14444.30037
685.225	14642.59929
685.422	14741.74478
685.619	14911.70412
685.815	14511.07585
686.012	14913.72742
686.209	14395.73539
686.405	14832.795
686.602	14413.94736
686.799	14790.30508
686.996	14569.75615
687.192	14824.70171
687.389	14743.76814
687.586	14717.46445
687.782	14757.9316
687.979	14729.60463
688.175	14531.31056
688.372	14674.97358
688.568	14488.81752
688.765	14600.10764
688.962	14417.99445
689.158	14587.96707
689.355	14304.67359
689.551	14646.64609
689.748	14258.12954
689.944	14563.68583
690.14	14391.68827
690.337	14424.06507
690.533	14650.69289
690.73	14337.05151
690.926	14757.9316
691.123	14395.73539
691.319	14324.90984
691.515	14585.94364
691.712	14120.51504
691.908	14401.80606
692.104	14280.38986
692.301	14296.57904
692.497	14015.27368
692.693	14207.53705
692.889	14401.80606
693.086	14549.52168
693.282	14375.49972
693.478	14513.09933
693.674	14053.72798
693.87	14256.10586
694.067	14347.16952
694.263	14290.50811
694.459	14351.21671
694.655	14276.34254
694.851	14393.71183
695.047	14343.12232
695.243	14096.22912
695.439	14312.76811
695.635	14314.79174
695.831	14231.8216
696.027	14104.32446
696.224	14452.39445
696.42	14160.99087
696.615	14197.41841
696.811	14057.77575
697.007	14114.44359
697.203	14195.39467
697.399	14098.25296
697.595	13873.59213
697.791	14118.49122
697.987	13764.28575
698.183	14169.08594
698.379	14017.29762
698.575	14167.06218
698.77	14140.75306
698.966	14043.60851
699.162	14033.48898
699.358	14304.67359
699.554	13825.01256
699.749	14061.82351
699.945	13950.50655
700.141	14239.91638
700.337	14476.67655
700.532	14209.56078
700.728	14144.80064
700.924	14171.1097
701.119	13891.80906
701.315	13873.59213
701.511	13650.92163
701.706	13798.69794
701.902	13770.35855
702.097	14021.34547
702.293	13889.78496
702.489	13948.48254
702.684	14094.20528
702.88	13976.81851
703.075	13831.0851
703.271	13675.21479
703.466	13770.35855
703.662	13768.33429
703.857	14007.17793
704.053	14140.75306
704.248	14211.5845
704.443	14405.85317
704.639	14067.89514
704.834	13999.08214
705.03	14053.72798
705.225	14005.15399
705.42	13640.79934
705.616	13871.56801
705.811	13782.50407
706.006	13930.26629
706.202	13885.73677
706.397	13944.4345
706.592	13521.34984
706.787	13820.96419
706.983	13389.73821
707.178	13588.16207
707.373	13442.3848
707.568	13405.93745
707.763	13256.08455
707.959	13656.99496
708.154	13683.3124
708.349	13622.57901
708.544	13543.62102
708.739	13215.57978
708.934	13154.81928
709.129	13553.74414
709.324	13539.57175
709.519	13576.01468
709.714	13310.76324
709.909	13602.33387
710.104	13197.35206
710.299	13377.58862
710.494	13335.0639
710.689	13335.0639
710.884	13440.35998
711.079	13547.67028
711.274	13375.56367
711.469	13920.14606
711.664	13545.64565
711.859	13899.90539
712.054	13470.73189
712.249	13403.91256
712.443	13183.17469
712.638	13414.03697
712.833	13057.5938
713.028	13632.70145
713.223	13191.27607
713.417	13486.92989
713.612	13247.98374
713.807	13375.56367
714.002	13389.73821
714.196	13505.15235
714.391	13175.07324
714.586	13316.83846
714.78	13033.28569
714.975	13365.43888
715.17	13416.06184
715.364	13268.23564
715.559	13499.07823
715.754	13258.10974
715.948	13207.47862
716.143	13389.73821
716.337	13381.6385
716.532	13458.58323
716.726	13505.15235
716.921	13322.91365
717.115	13422.13643
717.31	13474.78141
717.504	13160.89552
717.699	13584.11296
717.893	12842.84687
718.088	13369.48881
718.282	13243.9333
718.476	13112.28447
718.671	12579.39343
718.865	12763.82111
719.059	12546.96139
719.254	12800.2956
719.448	13033.28569
719.642	13073.79881
719.837	12717.21214
720.031	12887.42182
720.225	12753.68899
720.419	12899.57817
720.614	12798.26928
720.808	12936.04608
721.002	12662.49333
721.196	13008.97688
721.39	12638.17247
721.585	12769.90032
721.779	12638.17247
721.973	12954.27941
722.167	12360.44506
722.361	12717.21214
722.555	12733.42431
722.749	12729.3713
722.943	12761.7947
723.137	12822.58466
723.331	12694.91981
723.525	12897.55212
723.719	12488.17418
723.913	12767.87392
724.107	12455.73753
724.301	12733.42431
724.495	12666.54673
724.689	12721.26522
724.883	12593.58195
725.077	12715.1856
725.271	12700.99961
725.465	12544.93434
725.659	12287.44486
725.853	12565.20461
726.046	12597.63576
726.24	12443.57336
726.434	12246.88525
726.628	12508.44624
726.822	12390.85916
727.015	12589.52812
727.209	12654.38647
727.403	12623.9849
727.596	12465.87417
727.79	12494.25587
727.984	12725.31827
728.177	12648.30627
728.371	12313.80708
728.565	12467.90147
728.758	12540.88021
728.952	12968.46059
729.146	12619.93125
729.339	12877.29138
729.533	12719.23869
729.726	12461.81953
729.92	12163.729
730.113	12526.69055
730.307	12741.53025
730.5	12360.44506
730.694	12407.0794
730.887	12445.60074
731.081	12419.24429
731.274	12305.69576
731.468	12169.81402
731.661	12368.55563
731.854	12437.49118
732.048	12273.24932
732.241	12392.88672
732.435	12563.17761
732.628	12348.27898
732.821	12275.27728
733.014	12338.1404
733.208	12236.7449
733.401	12437.49118
733.594	12297.58432
733.788	12478.03791
733.981	12222.54811
734.174	12184.01215
734.367	12216.46366
734.56	12204.29456
734.754	12279.33316
734.947	12352.33437
735.14	12368.55563
735.333	12508.44624
735.526	12508.44624
735.719	12228.63249
735.912	12090.70345
736.105	12248.9133
736.298	12167.78569
736.491	12246.88525
736.684	12362.47271
736.877	12250.94134
737.07	12222.54811
737.263	12275.27728
737.456	12346.25128
737.649	12449.65548
737.842	12419.24429
738.035	12417.21683
738.228	12248.9133
738.421	12244.85719
738.614	12228.63249
738.807	12350.30668
739	12023.75464
739.192	12348.27898
739.385	12188.06869
739.578	12149.53035
739.771	12011.58122
739.964	11995.34954
740.156	12248.9133
740.349	12052.1582
740.542	12161.70064
740.735	11820.8262
740.927	12143.44511
741.12	12165.75735
741.313	12021.72576
741.505	12088.67482
741.698	11910.12481
741.891	11877.65446
742.083	11954.76812
742.276	12145.47353
742.468	12165.75735
742.661	11873.59552
742.854	11885.77225
743.046	11897.94868
743.239	11958.8264
743.431	11885.77225
743.624	11668.57447
743.816	11581.26089
744.009	11625.93505
744.201	11601.56788
744.393	11727.45098
744.586	11430.95999
744.778	11743.69146
744.971	11627.96559
745.163	11469.55574
745.355	11349.69427
745.548	11471.587
745.74	11595.47588
745.932	11891.8605
746.125	11776.17077
746.317	11629.99612
746.509	11678.72612
746.702	11847.21157
746.894	11694.96831
747.086	11483.77435
747.278	11670.60482
747.471	11601.56788
747.663	11638.11815
747.855	11609.69042
748.047	11784.29025
748.239	11776.17077
748.431	11504.08583
748.623	11719.33052
748.815	11694.96831
749.008	11786.32009
749.2	11636.08766
749.392	11737.60135
749.584	11573.13783
749.776	11711.20992
749.968	11508.14802
750.16	11532.52032
750.352	11536.58224
750.544	11713.24009
750.736	11820.8262
750.928	11757.90143
751.12	11694.96831
751.311	11650.30092
751.503	11526.42737
751.695	11502.05473
751.887	11495.96135
752.079	11711.20992
752.271	11489.86789
752.463	11280.60587
752.654	11374.07565
752.846	11668.57447
753.038	11280.60587
753.23	11244.0249
753.421	11266.38033
753.613	11199.31028
753.805	11477.68072
753.997	11290.76666
754.188	11388.29746
754.38	11256.21893
754.572	11264.34807
754.763	11416.73963
754.955	11142.39343
755.146	11219.63573
755.338	10987.86235
755.53	10743.73367
755.721	11144.42632
755.913	11054.96911
756.104	11199.31028
756.296	11313.11951
756.487	11073.26888
756.679	11294.83091
756.87	11093.60092
757.062	11012.2662
757.253	11097.6672
757.445	11095.63406
757.636	11024.46752
757.827	10959.38916
758.019	10792.5728
758.21	10932.9478
758.401	11187.11451
758.593	10800.71199
758.784	10849.5432
758.975	10764.08414
759.167	10810.88571
759.358	10987.86235
759.549	10839.37059
759.74	10629.7488
759.932	10934.98181
760.123	10788.50313
760.314	10731.52282
760.505	10957.35527
760.696	10491.28658
760.888	10629.7488
761.079	10617.53387
761.27	10589.03062
761.461	10407.7736
761.652	10617.53387
761.843	10656.21298
762.034	10633.82035
762.225	10436.29267
762.416	10727.45244
762.607	10499.43303
762.798	10639.92758
762.989	10733.55799
763.18	10641.9633
763.371	10375.17725
763.562	10413.88505
763.753	10295.70949
763.944	10589.03062
764.135	10407.7736
764.326	10464.8092
764.517	10132.63443
764.708	10676.56862
764.899	10344.61512
765.089	10352.76531
765.28	10110.20471
765.471	10299.78525
765.662	10242.71967
765.853	10295.70949
766.043	10283.48188
766.234	10230.48996
766.425	9969.47014
766.615	10026.588
766.806	10169.33398
766.997	10250.87255
767.187	10346.65268
767.378	10523.87116
767.569	10267.17765
767.759	10450.55125
767.95	10177.48882
768.141	10195.83642
768.331	10061.26123
768.522	10118.36117
768.712	9987.83068
768.903	9969.47014
769.093	9706.17112
769.284	9822.54316
769.474	9936.82627
769.665	9942.94728
769.855	9857.24115
770.046	10024.54827
770.236	9732.71645
770.426	10006.19006
770.617	9834.79
770.807	9877.64973
770.998	9700.04491
771.188	9861.32299
771.378	9842.95427
771.569	9944.98759
771.759	9706.17112
771.949	9714.33919
772.139	9714.33919
772.33	9383.33189
772.52	9577.4914
772.71	9912.34092
772.9	9689.83425
773.09	9724.54894
773.281	9891.93485
773.471	9718.42314
773.661	9708.21316
773.851	9225.85242
774.041	9246.30988
774.231	9393.55444
774.421	9170.60884
774.611	9197.20914
774.802	9092.83755
774.992	9174.70138
775.182	8906.4938
775.372	9121.49301
775.562	9070.32017
775.752	9160.37718
775.942	9186.97859
776.131	9236.08136
776.321	9297.44621
776.511	9416.04263
776.701	9315.85274
776.891	9260.62911
777.081	9285.17444
777.271	9160.37718
777.461	9141.95913
777.651	9115.35284
777.84	9025.27911
778.03	9240.17282
778.22	8902.39669
778.41	9086.69665
778.599	9268.81115
778.789	9205.39327
778.979	9209.48524
779.169	9017.08892
779.358	9158.3308
779.548	9178.79385
779.738	9012.99372
779.927	9125.58637
780.117	8822.48874
780.307	8799.94565
780.496	8791.74762
780.686	8980.2296
780.875	8717.95218
781.065	8840.93147
781.254	8715.90197
781.444	8697.44923
781.633	8808.14339
781.823	8984.32536
782.012	9098.97829
782.202	8984.32536
782.391	8896.25089
782.581	8615.41892
782.77	8892.1536
782.96	8935.17156
783.149	8594.90669
783.338	8730.25307
783.528	8580.54701
783.717	8787.64849
783.906	8594.90669
784.096	8451.26821
784.285	8375.30721
784.474	8586.70127
784.663	8274.66935
784.853	8182.20529
785.042	8301.37376
785.231	8438.952
785.42	8097.9252
785.61	8496.42175
785.799	8003.32678
785.988	8336.28992
786.177	8262.34312
786.366	8504.63049
786.555	8182.20529
786.744	8223.30537
786.933	7943.66654
787.122	8219.19572
787.312	8188.37081
787.501	8391.73345
787.69	8219.19572
787.879	8332.18243
788.068	7947.78159
788.257	7947.78159
788.445	7766.64117
788.634	8389.68023
788.823	8052.68782
789.012	8056.80072
789.201	8052.68782
789.39	7937.49381
789.579	7657.4672
789.768	7842.82204
789.957	7931.32089
790.145	7990.98469
790.334	7875.75631
790.523	7927.20551
790.712	7805.76464
790.9	7953.95402
791.089	7661.58805
791.278	8028.00876
791.467	7826.35292
791.655	8178.09485
791.844	7988.92761
792.033	7797.52875
792.221	7628.61888
792.41	7846.93912
792.599	7725.45039
792.787	7937.49381
792.976	7830.47033
793.164	7974.52743
793.353	7577.09366
793.541	7587.39977
793.73	7591.52207
793.918	8001.26982
794.107	7694.55179
794.295	8019.78176
794.484	7805.76464
794.672	7768.70048
794.861	7768.70048
795.049	7698.67188
795.238	7418.31172
795.426	7735.74887
795.614	7748.10636
795.803	7752.22535
795.991	7593.58318
796.179	7624.49736
796.368	7605.94943
796.556	7612.13226
796.744	7459.56608
796.932	7410.05981
797.121	7178.86407
797.309	7486.37677
797.497	7329.58539
797.685	7467.81591
797.874	7189.1912
798.062	7445.12804
798.25	7149.94515
798.438	7401.80755
798.626	7220.16928
798.814	7362.60455
799.002	7079.6953
799.19	7232.55911
799.378	7131.35211
799.566	7139.6159
799.755	7162.3395
799.943	7112.75727
800.131	7131.35211
800.318	7166.47078
800.506	7265.59479
800.694	7005.28493
800.882	7201.58303
801.07	7401.80755
801.258	7296.56062
801.446	7583.27739
801.634	7356.41388
801.822	7296.56062
802.01	6980.47501
802.197	7480.19001
802.385	7224.29931
802.573	7455.44103
802.761	7280.04612
802.949	7201.58303
803.136	7025.9574
803.324	7220.16928
803.512	7304.81734
803.699	7294.49638
803.887	7193.3219
804.075	7331.64925
804.262	7259.40103
804.45	7484.31454
804.638	6982.54262
804.825	7383.23868
805.013	7133.41809
805.201	7311.00964
805.388	7451.3159
805.576	7296.56062
805.763	7244.94815
805.951	7236.68888
806.138	7013.55419
806.326	7370.85846
806.513	7234.62401
806.701	7405.93372
806.888	7154.07669
807.075	7486.37677
807.263	7096.227
807.45	7083.82836
807.638	7038.3598
807.825	7383.23868
808.012	7030.09162
808.2	7218.10423
808.387	7418.31172
808.574	7379.11203
808.761	7222.2343
808.949	7327.5215
809.136	7182.99499
809.323	7335.7769
809.51	6852.23855
809.698	7154.07669
809.885	7271.78835
810.072	7147.87934
810.259	7385.30198
810.446	7432.75173
810.633	7164.40515
810.82	7469.87832
811.008	7315.13774
811.195	7525.55508
811.382	7050.76139
811.569	7354.35028
811.756	7211.90894
811.943	7337.8407
812.13	7379.11203
812.317	7453.37848
812.504	7397.68128
812.691	7504.93589
812.878	7216.03915
813.064	7337.8407
813.251	7418.31172
813.438	7531.74041
813.625	7067.29559
813.812	7255.27175
813.999	7114.82345
814.186	7315.13774
814.372	6893.61466
814.559	7152.01093
814.746	6963.93325
814.933	7025.9574
815.12	7125.15403
815.306	7125.15403
815.493	6988.74534
815.68	7418.31172
815.866	7207.77864
816.053	7374.98529
816.24	7379.11203
816.426	7478.12772
816.613	6912.23095
816.799	7166.47078
816.986	7230.4942
817.173	7383.23868
817.359	7090.02778
817.546	7321.32972
817.732	7025.9574
817.919	7255.27175
818.105	6885.34017
818.292	7069.36227
818.478	7071.42892
818.665	7075.56216
818.851	6848.10044
819.037	6843.96224
819.224	6678.35929
819.41	7032.1587
819.597	6668.00423
819.783	7164.40515
819.969	6823.26987
820.156	6928.77723
820.342	6939.11791
820.528	6966.00105
820.714	6827.40852
820.901	7042.49375
821.087	6957.72972
821.273	7199.51778
821.459	6779.80846
821.646	7059.02867
821.832	6883.27149
822.018	7038.3598
822.204	6810.85335
822.39	7050.76139
822.576	6831.54709
822.762	6632.79275
822.948	6659.71978
823.134	6750.82859
823.32	6653.50619
823.507	6794.29671
823.693	6477.36831
823.879	6786.01785
824.065	6483.58779
824.25	6678.35929
824.436	6817.06171
824.622	6740.47755
824.808	6707.35038
824.994	6464.92872
825.18	6236.72101
825.366	6487.73399
825.552	6332.18769
825.738	6628.64978
825.923	6489.80706
826.109	6744.61804
826.295	6680.43023
826.481	6618.29197
826.667	6398.57013
826.852	6728.05555
827.038	6396.49604
827.224	6475.2951
827.409	6415.16201
827.595	6688.71377
827.781	6707.35038
827.966	6701.13838
828.152	6357.08391
828.338	6568.56642
828.523	6139.12776
828.709	6601.71826
828.894	6220.11305
829.08	6522.97297
829.266	6377.82819
829.451	6562.34979
829.637	6203.50359
829.822	6475.2951
830.008	6222.18913
830.193	6330.11285
830.378	6381.97676
830.564	6284.46054
830.749	6147.43559
830.935	6267.85689
831.12	6035.24817
831.305	6404.79226
831.491	6110.0474
831.676	6344.63622
831.861	5925.07155
832.047	6168.20351
832.232	5891.79766
832.417	6053.95084
832.602	5958.33939
832.788	6043.56071
832.973	5810.66727
833.158	6047.71683
833.343	5848.11653
833.528	6141.20475
833.714	5945.86466
833.899	6068.49604
834.084	5989.52252
834.269	6039.40449
834.454	5706.60143
834.639	5922.9921
834.824	5652.46388
835.009	6093.42799
835.194	5748.23485
835.379	5918.83315
835.564	5660.79377
835.749	5914.67411
835.934	5779.45371
836.119	5702.43757
836.304	5633.72024
836.489	6101.73788
836.674	5754.47904
836.859	5856.43754
837.044	5864.75819
837.228	5914.67411
837.413	5660.79377
837.598	5879.3184
837.783	5612.89173
837.968	5875.15846
838.152	5506.62969
838.337	6064.34039
838.522	5717.01067
838.707	5756.5604
838.891	5604.55967
839.076	5621.22342
839.261	5560.81015
839.445	5619.14053
839.63	5489.95557
839.815	5587.89441
839.999	5383.6227
840.184	5621.22342
840.368	5437.83926
840.553	5446.17885
840.737	5277.22878
840.922	5431.58431
841.106	5225.05267
841.291	5339.82082
841.475	5233.40183
841.66	5373.19462
841.844	5225.05267
842.029	5260.53402
842.213	5316.87286
842.397	5291.83548
842.582	5170.77404
842.766	5487.8712
842.951	5318.95915
843.135	5489.95557
843.319	5202.09056
843.504	5208.35323
843.688	5346.07887
843.872	5366.93749
844.056	5053.81281
844.241	5279.31553
844.425	5001.57452
844.609	5218.79056
844.793	5099.77054
844.977	5381.53713
845.161	5135.27565
845.346	5055.90204
845.53	5154.06975
845.714	5170.77404
845.898	5043.36631
846.082	5243.83775
846.266	5087.23773
846.45	5129.01053
846.634	4997.39483
846.818	4936.77902
847.002	4917.96328
847.186	5018.29234
847.37	4809.21383
847.554	5133.1873
847.738	4863.59628
847.922	5076.79308
848.106	4679.47068
848.29	4922.14471
848.473	4892.87274
848.657	4909.60013
848.841	4846.86486
849.025	4740.16782
849.209	4553.83046
849.392	4744.35313
849.576	4532.88263
849.76	4599.90788
849.944	4507.7423
850.127	4706.68209
850.311	4398.76424
850.495	4792.47767
850.678	4719.23991
850.862	4894.96374
851.046	4645.9745
851.229	4511.93257
851.413	4459.54779
851.596	4446.97339
851.78	4306.50597
851.964	4524.50287
852.147	4340.05929
852.331	4633.41195
852.514	4591.53097
852.698	4608.28443
852.881	4442.78175
853.065	4511.93257
853.248	4415.53395
853.431	4509.83745
853.615	4298.11678
853.798	4490.98031
853.982	4174.33649
854.165	4428.11032
854.348	4130.26129
854.532	4493.07564
854.715	4109.26985
854.898	4291.82466
855.081	4260.36118
855.265	4666.91028
855.448	4306.50597
855.631	4614.56661
855.814	4417.63007
855.997	4486.7896
856.181	4174.33649
856.364	4224.69674
856.547	4163.84324
856.73	4159.64579
856.913	4021.0831
857.096	4174.33649
857.279	3991.67942
857.462	4249.87228
857.645	4107.1706
857.828	4155.44826
858.011	4132.36032
858.194	4230.99091
858.377	3846.70321
858.56	4029.48341
858.743	3838.29587
858.926	3886.63375
859.109	3659.56578
859.292	3882.43088
859.475	3853.00851
859.658	4025.28329
859.841	3897.14059
860.023	3754.20508
860.206	3735.28034
860.389	3985.37811
860.572	3844.60141
860.755	3821.48023
860.937	3651.15152
861.12	3928.65809
861.303	3611.17966
861.486	3878.22792
861.668	3689.01329
861.851	3722.66298
862.034	3495.4337
862.216	3638.52957
862.399	3364.89061
862.581	3392.2682
862.764	3291.1671
862.947	3613.28361
863.129	3487.01365
863.312	3489.11869
863.494	3402.79726
863.677	3625.90693
863.859	3499.64362
864.042	3491.22371
864.224	3407.00875
864.406	3516.48257
864.589	3383.84464
864.771	3465.96224
864.954	3230.06608
865.136	3451.22518
865.318	3137.33443
865.501	3398.58569
865.683	3339.61636
865.865	3381.73871
866.048	3154.19708
866.23	3074.09038
866.412	2939.12308
866.594	3242.70883
866.777	3086.74033
866.959	3383.84464
867.141	3046.68022
867.323	3425.95961
867.505	3187.91926
867.687	3230.06608
867.869	2993.96104
868.052	3263.77874
868.234	3215.31545
868.416	3238.49465
868.598	3120.47075
868.78	3215.31545
868.962	3238.49465
869.144	3415.43154
869.326	3267.99252
869.508	3175.27393
869.69	2989.7431
869.872	3230.06608
870.054	3192.13424
870.236	3246.92295
870.417	3103.60604
870.599	3053.00587
870.781	2869.50672
870.963	3187.91926
871.145	2922.24784
871.327	3232.17325
871.508	2968.65247
871.69	3242.70883
871.872	3010.83222
872.054	3238.49465
872.235	2972.87072
872.417	3095.17331
872.599	2909.5908
872.78	3086.74033
872.962	2934.90436
873.144	3103.60604
873.325	2955.99737
873.507	2886.38486
873.689	2867.39689
873.87	2884.27514
874.052	2590.89195
874.233	3105.71419
874.415	2842.07781
874.596	3095.17331
874.778	2890.60425
874.959	2909.5908
875.141	2854.7376
875.322	3002.39675
875.503	2850.51773
875.685	3065.65676
875.866	2692.23279
876.048	2856.84752
876.229	2692.23279
876.41	2664.78916
876.592	2751.33469
876.773	3010.83222
876.954	2580.33398
877.136	2970.7616
877.317	2835.74772
877.498	2989.7431
877.679	2787.2129
877.86	2901.15248
878.042	2761.8875
878.223	2951.77889
878.404	2782.99213
878.585	3029.81112
878.766	2827.30741
878.947	2911.70034
879.128	2654.23335
879.309	2863.17719
879.49	2709.12009
879.672	2901.15248
879.853	2742.89219
880.034	2926.46674
880.215	2903.26208
880.396	2892.71392
880.576	2882.16541
880.757	3082.52374
880.938	2675.34466
881.119	3251.137
881.3	2903.26208
881.481	3181.59667
881.662	2993.96104
881.843	3046.68022
882.023	2918.02888
882.204	3040.35442
882.385	2818.86687
882.566	2955.99737
882.747	2939.12308
882.927	3105.71419
883.108	2901.15248
883.289	3095.17331
883.469	2831.52759
883.65	3036.13715
883.831	2726.00656
884.011	2890.60425
884.192	2738.67086
884.373	3128.90272
884.553	2884.27514
884.734	2993.96104
884.914	2793.54394
885.095	2962.32499
885.275	2736.56018
885.456	2996.06999
885.636	2825.1973
885.817	3147.87371
885.997	2858.95742
886.178	3086.74033
886.358	2915.91938
886.538	3053.00587
886.719	2848.40777
886.899	2896.93323
887.08	2911.70034
887.26	3152.0893
887.44	2941.23242
887.621	3232.17325
887.801	2875.83613
887.981	3122.57876
888.161	3109.93043
888.342	3141.55019
888.522	3019.26744
888.702	3154.19708
888.882	3019.26744
889.062	3053.00587
889.242	2892.71392
889.423	3004.50564
889.603	2894.82358
889.783	2983.41607
889.963	2850.51773
890.143	3061.43986
890.323	3019.26744
890.503	3023.48496
890.683	2757.66642
890.863	2983.41607
891.043	2844.18781
891.223	3038.24579
891.403	2924.3573
891.583	2996.06999
891.763	2814.64652
891.943	2905.37167
892.122	2732.33877
892.302	3015.04986
892.482	2685.89984
892.662	2993.96104
892.842	2901.15248
893.022	2869.50672
893.201	2766.10854
893.381	2789.32326
893.561	2774.55044
893.741	2920.13837
893.92	2677.45572
894.1	2884.27514
894.28	2597.22659
894.459	2742.89219
894.639	2827.30741
894.819	2814.64652
894.998	2749.22408
895.178	2964.43416
895.357	2768.21903
895.537	2953.88814
895.716	2782.99213
895.896	2747.11346
896.075	2546.54648
896.255	2736.56018
896.434	2462.0648
896.614	2854.7376
896.793	2601.44962
896.973	2892.71392
897.152	2497.97173
897.331	2698.56562
897.511	2595.11505
897.69	2639.45469
897.87	2447.27867
898.049	2690.12182
898.228	2481.07475
898.407	2533.87539
898.587	2470.51378
898.766	2793.54394
898.945	2411.3673
899.124	2571.88739
899.304	2293.05007
899.483	2546.54648
899.662	2440.9416
899.841	2544.43466
900.02	2343.76127
900.199	2525.42777
900.378	2128.20267
900.557	2322.63228
900.737	2295.16314
900.916	2282.48454
901.095	2227.54011
901.274	2476.8504
901.453	2250.78658
901.632	2210.63292
901.811	2115.52001
901.989	2128.20267
902.168	1980.22204
902.347	2216.97318
902.526	1906.21975
902.705	1937.93589
902.884	2005.59254
903.063	2244.44674
903.242	1921.02077
903.42	2107.06474
903.599	1952.73632
903.778	1931.59277
903.957	1667.25769
904.135	2123.97514
904.314	1878.73143
904.493	2030.96209
904.672	1637.64864
904.85	1777.22897
905.029	1684.17691
905.207	1925.24959
905.386	1711.67025
905.565	1891.41846
905.743	1624.95891
905.922	1737.04823
906.1	1493.82808
906.279	1718.01479
906.457	1514.97852
906.636	1677.83222
906.814	1514.97852
906.993	1576.31424
907.171	1506.51835
907.35	1620.72898
907.528	1479.02274
907.707	1660.91294
907.885	1390.19066
908.063	1464.21738
908.242	1356.35014
908.42	1468.44748
908.598	1263.29074
908.777	1502.28826
908.955	1407.11101
909.133	1426.14645
909.311	1269.63557
909.49	1390.19066
909.668	1320.39495
909.846	1400.76588
910.024	1254.831
910.202	1451.52707
910.38	1392.3057
910.559	1457.87222
910.737	1299.24506
910.915	1430.37655
911.093	1373.27037
911.271	1381.73051
911.449	1472.67759
911.627	1476.90769
911.805	1472.67759
911.983	1660.91294
912.161	1550.93407
912.339	1563.62418
912.517	1529.78378
912.695	1654.56816
912.872	1396.53579
913.05	1686.2918
913.228	1424.0314
913.406	1500.17322
913.584	1261.1758
913.762	1451.52707
913.939	1172.35107
914.117	1362.69522
914.295	1263.29074
914.473	1430.37655
914.65	1320.39495
914.828	1457.87222
915.006	1197.72897
915.184	1582.65925
915.361	1218.87761
915.539	1320.39495
915.716	1297.13008
915.894	1364.81025
916.072	1240.02656
916.249	1311.93497
916.427	1286.55522
916.604	1451.52707
916.782	1216.76273
916.959	1288.67019
917.137	1034.89837
917.314	1366.92527
917.492	1218.87761
917.669	1333.08496
917.847	1056.04355
918.024	1328.85495
918.201	1087.76234
918.379	1254.831
918.556	1087.76234
918.733	1176.58068
918.911	1072.96009
919.088	1178.6955
919.265	1180.81031
919.442	1303.47502
919.62	984.15239
919.797	1155.43277
919.974	1009.52493
920.151	1159.66232
920.328	1060.27265
920.506	1104.6795
920.683	1151.20324
920.86	1028.55493
921.037	1037.01286
921.214	1132.17054
921.391	853.07732
921.568	1134.28527
921.745	967.23788
921.922	1111.02352
922.099	927.06773
922.276	1075.07468
922.453	842.5081
922.63	958.78079
922.807	899.58443
922.984	918.61119
923.161	967.23788
923.338	922.83945
923.514	859.41896
923.691	857.30507
923.868	783.32462
924.045	903.81255
924.222	848.84961
924.399	992.6098
924.575	810.80176
924.752	846.73576
924.929	893.24232
925.105	918.61119
925.282	891.1283
925.459	901.69849
925.635	831.93909
925.812	931.29604
925.989	728.37539
926.165	781.21107
926.342	749.50889
926.518	889.01429
926.695	738.94201
926.871	736.82866
927.048	677.6594
927.224	713.58257
927.401	553.01184
927.577	779.09752
927.754	597.37286
927.93	736.82866
928.107	658.64259
928.283	762.18949
928.459	643.8524
928.636	757.96258
928.812	504.43287
928.988	686.11162
929.165	652.30387
929.341	751.6223
929.517	643.8524
929.693	605.82323
929.87	626.95005
930.046	614.27381
930.222	572.02299
930.398	565.68581
930.574	555.12413
930.751	648.07811
930.927	500.20897
931.103	588.92269
931.279	502.32091
931.455	550.89955
931.631	358.74385
931.807	536.11396
931.983	457.97321
932.159	500.20897
932.335	493.87323
932.511	419.96626
932.687	451.63837
932.863	400.96472
933.039	443.19213
933.215	510.76883
933.391	377.74241
933.566	453.74996
933.742	369.29844
933.918	417.85491
934.094	405.18717
934.27	394.63116
934.445	331.30395
934.621	464.30819
934.797	308.08789
934.973	369.29844
935.148	276.43317
935.324	365.07655
935.5	305.97745
935.675	316.52984
935.851	227.90414
936.027	322.8615
936.202	238.45306
936.378	415.74358
936.553	137.20416
936.729	335.52528
936.904	187.82274
937.08	126.66015
937.255	147.7487
937.431	217.35571
937.606	156.18471
937.782	206.80777
937.957	164.62107
938.133	175.16697
938.308	139.31302
938.483	149.85767
938.659	120.334
938.834	82.38126
939.009	154.07568
939.185	154.07568
939.36	128.76891
939.535	99.24826
939.71	137.20416
939.886	65.5157
940.061	10.7128
940.236	76.05651
940.411	82.38126
940.586	80.27299
940.761	114.00805
940.937	73.9483
941.112	187.82274
941.287	111.89944
941.462	164.62107
941.637	54.97546
941.812	52.86748
941.987	111.89944
942.162	164.62107
942.337	141.42191
942.512	4.39042
942.687	21.25059
942.862	52.86748
943.037	29.68125
943.212	40.22009
943.386	92.92297
943.561	61.29953
943.736	57.08346
943.911	97.13981
944.086	29.68125
944.26	84.48956
944.435	52.86748
944.61	54.97546
944.785	101.35674
944.959	107.68229
945.134	27.57355
945.309	61.29953
945.483	107.68229
945.658	103.46523
945.833	27.57355
946.007	21.25059
946.182	92.92297
946.357	23.35822
946.531	63.4076
946.706	-4.03909
946.88	116.11668
947.055	179.38548
947.229	120.334
947.404	120.334
947.578	88.70622
947.752	4.39042
947.927	120.334
948.101	44.4358
948.276	86.59788
948.45	99.24826
948.624	78.16474
948.799	78.16474
948.973	92.92297
949.147	69.73195
949.321	105.57375
949.496	145.63975
949.67	118.22533
949.844	88.70622
950.018	130.87769
950.193	105.57375
950.367	84.48956
950.541	78.16474
950.715	65.5157
950.889	61.29953
951.063	111.89944
951.237	103.46523
951.411	-6.14641
951.585	80.27299
951.759	38.11228
951.933	46.54368
952.107	103.46523
952.281	97.13981
952.455	69.73195
952.629	57.08346
952.803	90.81458
952.977	107.68229
953.151	86.59788
953.325	65.5157
953.499	86.59788
953.672	46.54368
953.846	124.55141
954.02	97.13981
954.194	137.20416
954.368	36.00449
954.541	137.20416
954.715	36.00449
954.889	122.44269
955.062	116.11668
955.236	128.76891
955.41	-4.03909
955.583	65.5157
955.757	78.16474
955.93	63.4076
956.104	19.14299
956.278	86.59788
956.451	31.78897
956.625	78.16474
956.798	21.25059
956.972	128.76891
957.145	59.19149
957.319	107.68229
957.492	97.13981
957.665	82.38126
957.839	132.98649
958.012	103.46523
958.185	38.11228
958.359	105.57375
958.532	59.19149
958.705	78.16474
958.879	120.334
959.052	71.84011
959.225	44.4358
959.398	40.22009
959.572	88.70622
959.745	78.16474
959.918	67.62381
960.091	105.57375
960.264	105.57375
960.438	54.97546
960.611	99.24826
960.784	177.27622
960.957	86.59788
961.13	44.4358
961.303	2.283
961.476	52.86748
961.649	6.49786
961.822	63.4076
961.995	71.84011
962.168	95.03138
962.341	63.4076
962.514	90.81458
962.686	168.83937
962.859	111.89944
963.032	61.29953
963.205	122.44269
963.378	135.09531
963.551	132.98649
963.723	139.31302
963.896	-20.89695
964.069	114.00805
964.242	25.46587
964.414	73.9483
964.587	78.16474
964.76	57.08346
964.932	63.4076
965.105	36.00449
965.278	40.22009
965.45	4.39042
965.623	27.57355
965.795	-18.7898
965.968	63.4076
966.14	44.4358
966.313	54.97546
966.485	137.20416
966.658	179.38548
966.83	80.27299
967.003	101.35674
967.175	23.35822
967.348	88.70622
967.52	12.82031
967.692	128.76891
967.865	71.84011
968.037	61.29953
968.209	124.55141
968.382	17.0354
968.554	12.82031
968.726	50.75953
968.898	40.22009
969.071	107.68229
969.243	57.08346
969.415	99.24826
969.587	-8.2537
969.759	65.5157
969.932	103.46523
970.104	103.46523
970.276	31.78897
970.448	-12.46822
970.62	61.29953
970.792	10.7128
970.964	107.68229
971.136	54.97546
971.308	14.92785
971.48	78.16474
971.652	107.68229
971.824	-65.14129
971.996	84.48956
972.168	6.49786
972.339	2.283
972.511	114.00805
972.683	103.46523
972.855	31.78897
973.027	36.00449
973.199	95.03138
973.37	128.76891
973.542	40.22009
973.714	14.92785
973.886	21.25059
974.057	46.54368
974.229	61.29953
974.401	80.27299
974.572	103.46523
974.744	10.7128
974.915	12.82031
975.087	61.29953
975.259	-10.36097
975.43	116.11668
975.602	12.82031
975.773	61.29953
975.945	88.70622
976.116	97.13981
976.288	10.7128
976.459	73.9483
976.63	19.14299
976.802	132.98649
976.973	48.65159
977.145	52.86748
977.316	61.29953
977.487	-65.14129
977.659	-14.57544
977.83	38.11228
978.001	-31.43231
978.172	78.16474
978.344	71.84011
978.515	31.78897
978.686	86.59788
978.857	12.82031
979.028	6.49786
979.2	-27.21824
979.371	116.11668
979.542	40.22009
979.713	38.11228
979.884	23.35822
980.055	122.44269
980.226	78.16474
980.397	19.14299
980.568	48.65159
980.739	54.97546
980.91	29.68125
981.081	2.283
981.252	38.11228
981.423	65.5157
981.594	-1.93175
981.765	86.59788
981.936	120.334
982.106	65.5157
982.277	97.13981
982.448	67.62381
982.619	82.38126
982.79	14.92785
982.96	122.44269
983.131	71.84011
983.302	29.68125
983.472	38.11228
983.643	31.78897
983.814	31.78897
983.984	4.39042
984.155	109.79086
984.326	-29.32529
984.496	128.76891
984.667	31.78897
984.837	78.16474
985.008	48.65159
985.178	48.65159
985.349	-33.53931
985.519	52.86748
985.69	-10.36097
985.86	73.9483
986.031	-44.07393
986.201	31.78897
986.371	61.29953
986.542	-14.57544
986.712	42.32793
986.882	31.78897
987.053	65.5157
987.223	2.283
987.393	12.82031
987.563	27.57355
987.734	25.46587
987.904	-35.64629
988.074	8.60532
988.244	46.54368
988.414	-37.75323
988.585	90.81458
988.755	69.73195
988.925	40.22009
989.095	4.39042
989.265	21.25059
989.435	-4.03909
989.605	-27.21824
989.775	-8.2537
989.945	27.57355
990.115	2.283
990.285	19.14299
990.455	-27.21824
990.625	21.25059
990.795	40.22009
990.965	-39.86016
991.134	44.4358
991.304	-4.03909
991.474	-23.00407
991.644	105.57375
991.814	-27.21824
991.984	-12.46822
992.153	-29.32529
992.323	-1.93175
992.493	40.22009
992.662	78.16474
992.832	-54.60793
993.002	38.11228
993.171	10.7128
993.341	21.25059
993.511	36.00449
993.68	6.49786
993.85	4.39042
994.019	-23.00407
994.189	44.4358
994.358	-1.93175
994.528	19.14299
994.697	-14.57544
994.867	-1.93175
995.036	-12.46822
995.206	-1.93175
995.375	78.16474
995.544	31.78897
995.714	-10.36097
995.883	-46.18078
996.052	21.25059
996.222	2.283
996.391	-31.43231
996.56	-1.93175
996.73	33.89672
996.899	-23.00407
997.068	19.14299
997.237	-20.89695
997.406	-6.14641
997.576	29.68125
997.745	-20.89695
997.914	19.14299
998.083	82.38126
998.252	65.5157
998.421	-86.2061
998.59	14.92785
998.759	14.92785
998.928	-37.75323
999.097	12.82031
999.266	10.7128
999.435	0.17561
999.604	44.4358
999.773	12.82031
999.942	27.57355
1000.111	-29.32529
1000.28	-39.86016
1000.448	-27.21824
1000.617	42.32793
1000.786	36.00449
1000.955	-35.64629
1001.124	4.39042
1001.292	36.00449
1001.461	54.97546
1001.63	10.7128
1001.798	65.5157
1001.967	52.86748
1002.136	2.283
1002.304	-29.32529
1002.473	6.49786
1002.642	44.4358
1002.81	-14.57544
1002.979	-4.03909
1003.147	52.86748
1003.316	52.86748
1003.484	-23.00407
1003.653	-69.35446
1003.821	-23.00407
1003.99	-12.46822
1004.158	-73.56752
1004.327	52.86748
1004.495	-18.7898
1004.663	-14.57544
1004.832	21.25059
1005	-10.36097
1005.168	82.38126
1005.337	6.49786
1005.505	-18.7898
1005.673	69.73195
1005.842	-56.71465
1006.01	14.92785
1006.178	31.78897
1006.346	-6.14641
1006.514	27.57355
1006.683	40.22009
1006.851	4.39042
1007.019	-79.88693
1007.187	12.82031
1007.355	-48.28761
1007.523	38.11228
1007.691	-10.36097
1007.859	14.92785
1008.027	40.22009
1008.195	-39.86016
1008.363	-29.32529
1008.531	14.92785
1008.699	2.283
1008.867	-16.68263
1009.035	-16.68263
1009.203	19.14299
1009.37	-16.68263
1009.538	-56.71465
1009.706	6.49786
1009.874	-60.92802
1010.042	27.57355
1010.209	21.25059
1010.377	-37.75323
1010.545	31.78897
1010.713	-54.60793
1010.88	-16.68263
1011.048	-6.14641
1011.216	-18.7898
1011.383	-6.14641
1011.551	27.57355
1011.718	-6.14641
1011.886	31.78897
1012.054	65.5157
1012.221	-52.50118
1012.389	86.59788
1012.556	-14.57544
1012.724	29.68125
1012.891	12.82031
1013.058	44.4358
1013.226	29.68125
1013.393	21.25059
1013.561	69.73195
1013.728	38.11228
1013.895	78.16474
1014.063	-35.64629
1014.23	44.4358
1014.397	-46.18078
1014.565	36.00449
1014.732	-6.14641
1014.899	-39.86016
1015.066	36.00449
1015.233	-56.71465
1015.401	38.11228
1015.568	29.68125
1015.735	-39.86016
1015.902	23.35822
1016.069	12.82031
1016.236	-27.21824
1016.403	-67.24789
1016.57	-39.86016
1016.737	-31.43231
1016.904	82.38126
1017.071	-14.57544
1017.238	4.39042
1017.405	44.4358
1017.572	-37.75323
1017.739	-44.07393
1017.906	-14.57544
1018.073	46.54368
1018.24	65.5157
1018.407	31.78897
1018.573	-10.36097
1018.74	29.68125
1018.907	27.57355
1019.074	-20.89695
1019.241	-44.07393
1019.407	-12.46822
1019.574	21.25059
1019.741	-46.18078
1019.907	-23.00407
1020.074	-46.18078
1020.241	-12.46822
1020.407	44.4358
1020.574	19.14299
1020.74	63.4076
1020.907	-73.56752
1021.073	-27.21824
1021.24	-39.86016
1021.406	-71.461
1021.573	44.4358
1021.739	95.03138
1021.906	31.78897
1022.072	61.29953
1022.239	-20.89695
1022.405	10.7128
1022.571	69.73195
1022.738	2.283
1022.904	4.39042
1023.07	-6.14641
1023.237	54.97546
1023.403	0.17561
1023.569	52.86748
1023.735	-23.00407
1023.902	21.25059
1024.068	2.283
1024.234	-18.7898
1024.4	-14.57544
1024.566	-48.28761
1024.732	4.39042
1024.898	31.78897
1025.065	67.62381
1025.231	10.7128
1025.397	19.14299
1025.563	2.283
1025.729	-23.00407
1025.895	61.29953
1026.061	73.9483
1026.227	12.82031
1026.392	-46.18078
1026.558	-73.56752
1026.724	61.29953
1026.89	21.25059
1027.056	19.14299
1027.222	36.00449
1027.388	-10.36097
1027.553	-60.92802
1027.719	21.25059
1027.885	-14.57544
1028.051	10.7128
1028.216	-20.89695
1028.382	-27.21824
1028.548	-31.43231
1028.713	52.86748
1028.879	-39.86016
1029.045	17.0354
1029.21	-46.18078
1029.376	2.283
1029.541	-8.2537
1029.707	2.283
1029.873	-20.89695
1030.038	63.4076
1030.204	4.39042
1030.369	-27.21824
1030.534	-1.93175
1030.7	-63.03467
1030.865	67.62381
1031.031	-29.32529
1031.196	-4.03909
1031.361	-23.00407
1031.527	-33.53931
1031.692	95.03138
1031.857	46.54368
1032.023	2.283
1032.188	14.92785
1032.353	-25.11117
1032.518	-27.21824
1032.684	-14.57544
1032.849	10.7128
1033.014	6.49786
1033.179	-23.00407
1033.344	-41.96706
1033.509	61.29953
1033.674	-65.14129
1033.839	-48.28761
1034.004	-69.35446
1034.17	-29.32529
1034.335	-10.36097
1034.5	-25.11117
1034.664	76.05651
1034.829	-79.88693
1034.994	19.14299
1035.159	-41.96706
1035.324	8.60532
1035.489	-44.07393
1035.654	61.29953
1035.819	-4.03909
1035.984	78.16474
1036.148	-18.7898
1036.313	-16.68263
1036.478	-44.07393
1036.643	-39.86016
1036.807	-41.96706
1036.972	29.68125
1037.137	48.65159
1037.301	23.35822
1037.466	-86.2061
1037.631	54.97546
1037.795	-1.93175
1037.96	-54.60793
1038.124	-35.64629
1038.289	27.57355
1038.454	4.39042
1038.618	-1.93175
1038.783	-14.57544
1038.947	44.4358
1039.111	44.4358
1039.276	38.11228
1039.44	19.14299
1039.605	61.29953
1039.769	25.46587
1039.933	-86.2061
1040.098	6.49786
1040.262	-14.57544
1040.426	50.75953
1040.591	52.86748
1040.755	14.92785
1040.919	23.35822
1041.083	-4.03909
1041.248	-29.32529
1041.412	8.60532
1041.576	-1.93175
1041.74	2.283
1041.904	-14.57544
1042.068	44.4358
1042.232	-56.71465
1042.397	-27.21824
1042.561	-79.88693
1042.725	78.16474
1042.889	25.46587
1043.053	-31.43231
1043.217	-54.60793
1043.381	-37.75323
1043.544	-14.57544
1043.708	21.25059
1043.872	-4.03909
1044.036	-6.14641
1044.2	4.39042
1044.364	-31.43231
1044.528	23.35822
1044.691	-39.86016
1044.855	-35.64629
1045.019	-4.03909
1045.183	-12.46822
1045.346	-29.32529
1045.51	-37.75323
1045.674	21.25059
1045.837	-67.24789
1046.001	-37.75323
1046.165	57.08346
1046.328	-29.32529
1046.492	61.29953
1046.655	6.49786
1046.819	-1.93175
1046.983	10.7128
1047.146	19.14299
1047.31	-65.14129
1047.473	19.14299
1047.636	-54.60793
1047.8	-27.21824
1047.963	-4.03909
1048.127	-6.14641
1048.29	10.7128
