Data from mixed_try1_USB4F045381__0__00065.txt Node

Date: Thu Apr 03 19:50:55 EDT 2025
User: mmckonesweet
Spectrometer: USB4F04538
Trigger mode: 4
Integration Time (sec): 2.700000E-3
Scans to average: 1
Electric dark correction enabled: true
Nonlinearity correction enabled: true
Boxcar width: 0
XAxis mode: Wavelengths
Number of Pixels in Spectrum: 3648
>>>>>Begin Spectral Data<<<<<
345.52	53.7458
345.736	53.7458
345.952	53.7458
346.168	36.88273
346.384	34.77495
346.6	-51.62336
346.816	-41.08919
347.032	-5.26836
347.248	1.05369
347.464	28.45175
347.68	-5.26836
347.896	32.66719
348.112	-17.91182
348.328	15.80599
348.544	1.05369
348.76	-34.76838
348.975	76.93493
349.191	28.45175
349.407	34.77495
349.623	53.7458
349.839	41.09836
350.055	70.61035
350.27	60.06984
350.486	-24.23321
350.702	-13.69743
350.918	5.26851
351.133	-13.69743
351.349	26.34407
351.565	17.91356
351.781	62.17789
351.996	53.7458
352.212	11.59093
352.428	34.77495
352.644	62.17789
352.859	-22.12611
353.075	15.80599
353.291	-15.80464
353.506	76.93493
353.722	68.5022
353.938	30.55946
354.153	-49.51657
354.369	89.5847
354.584	45.31408
354.8	79.04317
355.016	-5.26836
355.231	15.80599
355.447	-5.26836
355.662	7.37596
355.878	79.04317
356.093	-13.69743
356.309	22.12877
356.524	116.99528
356.74	91.69308
356.955	-13.69743
357.171	83.25972
357.386	-5.26836
357.602	49.5299
357.817	22.12877
358.033	24.2364
358.248	15.80599
358.464	66.39408
358.679	62.17789
358.895	34.77495
359.11	-28.44736
359.325	34.77495
359.541	68.5022
359.756	-62.1569
359.972	22.12877
360.187	7.37596
360.402	26.34407
360.618	95.90989
360.833	51.63784
361.048	83.25972
361.264	60.06984
361.479	-9.48295
361.694	57.9618
361.909	36.88273
362.125	45.31408
362.34	60.06984
362.555	-15.80464
362.77	66.39408
362.986	62.17789
363.201	20.02115
363.416	15.80599
363.631	20.02115
363.847	-41.08919
364.062	102.23527
364.277	-1.05368
364.492	-9.48295
364.707	41.09836
364.922	-51.62336
365.138	-7.37567
365.353	60.06984
365.568	41.09836
365.783	116.99528
365.998	-9.48295
366.213	-5.26836
366.428	79.04317
366.643	41.09836
366.858	110.66943
367.073	85.36802
367.288	45.31408
367.503	-1.05368
367.718	45.31408
367.933	-9.48295
368.148	66.39408
368.363	62.17789
368.578	32.66719
368.793	-26.3403
369.008	26.34407
369.223	32.66719
369.438	108.56086
369.653	34.77495
369.868	28.45175
370.083	121.21262
370.298	66.39408
370.513	43.20621
370.728	116.99528
370.943	36.88273
371.157	49.5299
371.372	7.37596
371.587	49.5299
371.802	28.45175
372.017	17.91356
372.232	9.48343
372.446	62.17789
372.661	34.77495
372.876	49.5299
373.091	-26.3403
373.306	-9.48295
373.52	83.25972
373.735	57.9618
373.95	15.80599
374.165	60.06984
374.379	3.16109
374.594	26.34407
374.809	41.09836
375.023	62.17789
375.238	20.02115
375.453	74.82672
375.667	26.34407
375.882	55.85379
376.097	57.9618
376.311	-1.05368
376.526	36.88273
376.741	17.91356
376.955	24.2364
377.17	28.45175
377.384	15.80599
377.599	38.99053
377.813	1.05369
378.028	129.64756
378.242	68.5022
378.457	83.25972
378.672	7.37596
378.886	49.5299
379.101	-15.80464
379.315	7.37596
379.53	7.37596
379.744	41.09836
379.958	11.59093
380.173	-1.05368
380.387	102.23527
380.602	34.77495
380.816	74.82672
381.031	17.91356
381.245	-32.6614
381.459	32.66719
381.674	68.5022
381.888	62.17789
382.103	26.34407
382.317	9.48343
382.531	-7.37567
382.746	-5.26836
382.96	91.69308
383.174	53.7458
383.388	9.48343
383.603	51.63784
383.817	79.04317
384.031	79.04317
384.246	-7.37567
384.46	7.37596
384.674	79.04317
384.888	49.5299
385.103	45.31408
385.317	36.88273
385.531	7.37596
385.745	79.04317
385.959	68.5022
386.174	76.93493
386.388	7.37596
386.602	41.09836
386.816	70.61035
387.03	62.17789
387.244	22.12877
387.458	68.5022
387.672	79.04317
387.887	41.09836
388.101	32.66719
388.315	89.5847
388.529	36.88273
388.743	-1.05368
388.957	28.45175
389.171	9.48343
389.385	68.5022
389.599	72.71852
389.813	49.5299
390.027	83.25972
390.241	32.66719
390.455	26.34407
390.669	34.77495
390.883	70.61035
391.097	100.12679
391.311	74.82672
391.525	36.88273
391.738	49.5299
391.952	57.9618
392.166	28.45175
392.38	49.5299
392.594	57.9618
392.808	30.55946
393.022	20.02115
393.236	60.06984
393.449	70.61035
393.663	-1.05368
393.877	-1.05368
394.091	49.5299
394.305	91.69308
394.518	-1.05368
394.732	20.02115
394.946	70.61035
395.16	87.47635
395.373	57.9618
395.587	7.37596
395.801	28.45175
396.015	41.09836
396.228	3.16109
396.442	7.37596
396.656	-7.37567
396.869	-62.1569
397.083	116.99528
397.297	49.5299
397.51	150.73642
397.724	28.45175
397.938	-1.05368
398.151	121.21262
398.365	26.34407
398.578	32.66719
398.792	76.93493
399.005	43.20621
399.219	-34.76838
399.433	32.66719
399.646	15.80599
399.86	70.61035
400.073	110.66943
400.287	85.36802
400.5	91.69308
400.714	-5.26836
400.927	62.17789
401.141	11.59093
401.354	43.20621
401.567	34.77495
401.781	15.80599
401.994	91.69308
402.208	53.7458
402.421	28.45175
402.635	83.25972
402.848	47.42198
403.061	7.37596
403.275	15.80599
403.488	79.04317
403.701	125.43005
403.915	28.45175
404.128	36.88273
404.341	41.09836
404.555	7.37596
404.768	24.2364
404.981	167.60902
405.195	17.91356
405.408	24.2364
405.621	7.37596
405.834	32.66719
406.048	24.2364
406.261	38.99053
406.474	60.06984
406.687	24.2364
406.9	24.2364
407.114	100.12679
407.327	11.59093
407.54	51.63784
407.753	83.25972
407.966	146.51847
408.179	34.77495
408.392	9.48343
408.605	133.86516
408.819	66.39408
409.032	-13.69743
409.245	49.5299
409.458	47.42198
409.671	57.9618
409.884	66.39408
410.097	28.45175
410.31	104.34378
410.523	85.36802
410.736	74.82672
410.949	32.66719
411.162	57.9618
411.375	57.9618
411.588	100.12679
411.801	89.5847
412.014	15.80599
412.227	110.66943
412.44	83.25972
412.653	62.17789
412.865	85.36802
413.078	127.53879
413.291	17.91356
413.504	74.82672
413.717	66.39408
413.93	70.61035
414.143	93.80147
414.356	102.23527
414.568	79.04317
414.781	55.85379
414.994	93.80147
415.207	49.5299
415.42	119.10394
415.632	76.93493
415.845	110.66943
416.058	91.69308
416.271	66.39408
416.483	91.69308
416.696	-17.91182
416.909	138.08285
417.121	116.99528
417.334	74.82672
417.547	83.25972
417.759	205.57721
417.972	72.71852
418.185	7.37596
418.397	110.66943
418.61	72.71852
418.823	119.10394
419.035	26.34407
419.248	85.36802
419.46	34.77495
419.673	85.36802
419.885	45.31408
420.098	45.31408
420.311	68.5022
420.523	70.61035
420.736	66.39408
420.948	108.56086
421.161	24.2364
421.373	100.12679
421.586	74.82672
421.798	81.15143
422.01	70.61035
422.223	62.17789
422.435	68.5022
422.648	138.08285
422.86	85.36802
423.073	68.5022
423.285	47.42198
423.497	98.01833
423.71	119.10394
423.922	161.28164
424.134	110.66943
424.347	100.12679
424.559	91.69308
424.771	150.73642
424.984	70.61035
425.196	152.84542
425.408	64.28597
425.621	112.77803
425.833	144.40954
426.045	150.73642
426.257	154.95444
426.47	74.82672
426.682	138.08285
426.894	133.86516
427.106	184.48295
427.318	127.53879
427.531	127.53879
427.743	148.62743
427.955	116.99528
428.167	144.40954
428.379	102.23527
428.591	146.51847
428.804	169.71819
429.016	195.02983
429.228	176.04582
429.44	222.45405
429.652	201.3582
429.864	203.46769
430.076	178.15507
430.288	163.39074
430.5	205.57721
430.712	201.3582
430.924	138.08285
431.136	186.59229
431.348	218.23472
431.56	201.3582
431.772	289.97385
431.984	226.67346
432.196	142.30062
432.408	173.93659
432.62	214.01547
432.832	218.23472
433.044	281.53282
433.256	304.74637
433.468	216.12509
433.679	235.11252
433.891	197.13926
434.103	237.22233
434.315	178.15507
434.527	256.21151
434.739	279.42261
434.95	260.43154
435.162	218.23472
435.374	311.07772
435.586	281.53282
435.798	268.87183
436.009	264.65165
436.221	270.98194
436.433	289.97385
436.645	195.02983
436.856	294.19448
437.068	294.19448
437.28	321.63033
437.491	256.21151
437.703	378.62201
437.915	382.84411
438.126	330.07274
438.338	372.28898
438.55	399.73318
438.761	334.29405
438.973	336.40473
439.184	376.51098
439.396	420.84599
439.608	281.53282
439.819	389.17739
440.031	458.85306
440.242	382.84411
440.454	351.18
440.665	382.84411
440.877	452.5182
441.088	403.95561
441.3	361.73427
441.511	353.29082
441.723	332.18339
441.934	372.28898
442.146	454.6298
442.357	484.19387
442.569	374.39997
442.78	420.84599
442.991	433.51445
443.203	374.39997
443.414	378.62201
443.626	450.40661
443.837	416.6233
444.048	422.95736
444.26	425.06875
444.471	484.19387
444.682	378.62201
444.894	522.20909
445.105	471.52319
445.316	581.35293
445.528	505.31286
445.739	536.99404
445.95	530.65755
446.161	471.52319
446.373	543.33065
446.584	515.8729
446.795	482.08206
447.006	553.89196
447.217	572.90316
447.429	545.44289
447.64	581.35293
447.851	629.94312
448.062	549.6674
448.273	577.12802
448.484	613.04142
448.695	600.36568
448.907	703.89708
449.118	568.67835
449.329	636.28146
449.54	758.84318
449.751	691.21826
449.962	659.52298
450.173	744.0493
450.384	686.99207
450.595	758.84318
450.806	699.67076
451.017	741.93593
451.228	716.57631
451.439	739.82257
451.65	659.52298
451.861	693.33136
452.072	834.93362
452.283	894.12316
452.494	902.57934
452.705	752.50288
452.915	868.75541
453.126	805.34143
453.337	944.86208
453.548	978.69036
453.759	906.80748
453.97	879.32516
454.181	1004.06271
454.391	902.57934
454.602	1050.58099
454.813	1006.17711
455.024	1029.43596
455.235	1056.92461
455.445	1130.93695
455.656	1027.32149
455.867	1065.38284
456.078	970.23313
456.288	1042.12291
456.499	1078.07036
456.71	1067.49742
456.921	1082.29957
457.131	1344.54128
457.342	1097.10198
457.553	1211.29931
457.763	1173.23224
457.974	1367.80654
458.184	1234.56305
458.395	1427.02772
458.606	1200.72501
458.816	1458.75349
459.027	1300.1263
459.237	1539.12517
459.448	1541.2402
459.659	1556.04537
459.869	1558.16039
460.08	1541.2402
460.29	1875.38344
460.501	1735.81459
460.711	1638.52987
460.922	1572.96548
461.132	1657.56431
461.343	1818.28939
461.553	1691.40277
461.764	1892.2995
461.974	1875.38344
462.184	1875.38344
462.395	2010.70176
462.605	2238.98737
462.816	1909.21522
463.026	1898.64293
463.236	1998.01672
463.447	2097.37627
463.657	2023.38656
463.867	2393.23442
464.078	2154.44784
464.288	2319.28677
464.498	2441.82175
464.709	2572.76725
464.919	2262.2333
465.129	2593.88332
465.339	2543.20276
465.55	2551.65
465.76	2488.29126
465.97	2595.99486
466.18	2585.43704
466.391	2876.71521
466.601	2638.22311
466.811	2766.98791
467.021	2832.40679
467.231	2942.1113
467.441	2906.25066
467.651	3140.3206
467.862	2975.8586
468.072	3148.75196
468.282	3070.7521
468.492	3235.15838
468.702	3323.64315
468.912	3652.02802
469.122	3437.36453
469.332	3656.23517
469.542	3532.09263
469.752	3736.15652
469.962	3786.61879
470.172	3853.88424
470.382	4005.1566
470.592	4076.55404
470.802	4063.95622
471.012	4017.75788
471.222	4269.62593
471.432	4072.35485
471.642	4366.09424
471.852	4506.52012
472.062	4422.69559
472.272	4661.50209
472.482	4638.47196
472.691	4906.28962
472.901	4571.45984
473.111	4724.2977
473.321	5075.5745
473.531	4998.2656
473.741	5177.9077
473.95	5205.04796
474.16	4931.37839
474.37	5357.37758
474.58	5517.9186
474.79	5526.25458
474.999	5559.59474
475.209	5567.92884
475.419	5828.17922
475.628	5930.09676
475.838	5536.67403
476.048	5890.58444
476.258	5873.94512
476.467	6546.63461
476.677	6291.55122
476.886	6501.03576
477.096	6631.58439
477.306	6745.48063
477.515	6339.27654
477.725	6745.48063
477.935	6755.83139
478.144	6855.16966
478.354	6803.43754
478.563	7026.8187
478.773	6977.20123
478.982	7516.10488
479.192	7324.25364
479.401	7396.47778
479.611	7421.23419
479.82	7769.55853
480.03	7804.56359
480.239	7917.77412
480.449	7742.78587
480.658	8156.34242
480.868	8252.92677
481.077	8398.74844
481.287	8115.22935
481.496	8423.38469
481.705	8443.91277
481.915	8837.68702
482.124	8690.1019
482.333	8888.90987
482.543	8770.05558
482.752	8915.54132
482.961	9030.22722
483.171	9046.60642
483.38	9013.8469
483.589	9437.33644
483.799	9361.6928
484.008	9619.19993
484.217	9531.34902
484.426	9876.45927
484.636	9729.48351
484.845	10104.93688
485.054	10113.09348
485.263	10162.02841
485.472	9933.59569
485.682	10208.91689
485.891	10227.26259
486.1	10363.80169
486.309	10585.80689
486.518	10709.98318
486.727	10579.69868
486.936	10891.07839
487.146	10919.55689
487.355	11011.07994
487.564	11049.71623
487.773	11352.5727
487.982	11218.45011
488.191	11604.44463
488.4	11431.80643
488.609	11474.4646
488.818	11523.21162
489.027	11774.98666
489.236	11858.20505
489.445	12134.14807
489.654	11841.96844
489.863	12261.92644
490.072	12192.97031
490.281	12482.93713
490.49	12519.42667
490.698	12351.15155
490.907	12223.39316
491.116	12855.84817
491.325	12807.21879
491.534	12681.57785
491.743	12632.93661
491.952	12847.74349
492.16	13052.36086
492.369	13173.89177
492.578	13137.43427
492.787	13088.82193
492.996	13305.53177
493.204	13526.24279
493.413	13273.12979
493.622	13593.05474
493.831	13433.10435
494.039	13793.46869
494.248	13534.34142
494.457	13999.92545
494.665	13945.27784
494.874	14176.00045
495.083	14060.64292
495.291	14105.16772
495.5	14147.66767
495.709	14376.34288
495.917	14463.35514
496.126	14418.83759
496.335	14319.68216
496.543	14811.38147
496.752	14627.25514
496.96	15003.59525
497.169	14570.59925
497.377	14673.79327
497.586	14827.56808
497.794	15147.24777
498.003	15088.57289
498.211	15385.99451
498.42	14997.5254
498.628	15319.22604
498.837	15141.17796
499.045	15343.50544
499.254	15388.0178
499.462	15622.72346
499.671	15727.93956
499.879	15792.68922
500.087	15879.69834
500.296	16422.0481
500.504	15958.61554
500.713	16203.475
500.921	16043.60558
501.129	16219.66487
501.338	15976.82748
501.546	16383.59383
501.754	16197.40382
501.962	16430.14382
502.171	16341.09256
502.379	16685.17653
502.587	16365.3789
502.795	16616.35474
503.004	16612.30648
503.212	16895.70733
503.42	16711.49144
503.628	17124.48875
503.837	16683.15232
504.045	16883.56059
504.253	16830.92578
504.461	17094.11753
504.669	17272.30451
504.877	17462.66597
505.085	17061.72225
505.294	17521.40003
505.502	17418.11086
505.71	17363.43164
505.918	17521.40003
506.126	17892.09567
506.334	17602.41693
506.542	17847.52519
506.75	17529.50149
506.958	17701.66974
507.166	18171.71312
507.374	18196.03093
507.582	18011.63395
507.79	18208.19004
507.998	18273.04083
508.206	18297.36086
508.414	18264.93427
508.622	18216.29618
508.83	18143.34301
509.037	18410.86147
509.245	18196.03093
509.453	18763.60082
509.661	18465.58922
509.869	18737.24264
510.077	18441.26543
510.285	18885.26263
510.492	18579.10754
510.7	18915.68033
510.908	18674.39122
511.116	18824.42993
511.324	18808.20849
511.531	19108.34683
511.739	18830.51304
511.947	18897.4296
512.155	19025.19154
512.362	19096.17733
512.57	19112.40336
512.778	19211.79345
512.985	19002.88275
513.193	19274.67798
513.401	19351.76764
513.608	19317.27943
513.816	19384.22823
514.024	19674.392
514.231	19522.19759
514.439	19603.36502
514.646	19639.89254
514.854	19889.53361
515.061	19501.90677
515.269	20005.24248
515.477	20224.5178
515.684	20039.75478
515.892	20293.55908
516.099	20007.27258
516.307	19980.88158
516.514	20055.99629
516.722	19954.49129
516.929	20332.14308
517.136	20208.2735
517.344	20543.36655
517.551	20476.33881
517.759	20504.77426
517.966	20218.42616
518.173	20486.49423
518.381	20447.90418
518.588	20468.21454
518.796	20691.65619
519.003	20927.34005
519.21	20868.41386
519.418	20988.30181
519.625	20673.3727
519.832	20955.78841
520.039	20894.82862
520.247	21333.82121
520.454	21144.78722
520.661	21502.55833
520.868	21035.04167
521.076	21876.72308
521.283	21524.92314
521.49	21250.47933
521.697	21659.12203
521.904	21626.58739
522.112	21939.77462
522.319	22029.27343
522.526	21551.35489
522.733	21943.84259
522.94	21768.93383
523.147	21939.77462
523.354	21939.77462
523.561	22428.03792
523.768	22332.40291
523.975	22120.81388
524.183	22002.82984
524.39	22293.74424
524.597	22476.8759
524.804	22877.83136
525.011	22232.70694
525.218	22478.91086
525.425	22535.89122
525.632	22655.9661
525.838	22771.98226
526.045	22706.84899
526.252	22845.26142
526.459	23150.63845
526.666	22769.94679
526.873	23384.81084
527.08	23225.97623
527.287	23394.99321
527.494	23036.62224
527.701	24087.57138
527.907	23614.95125
528.114	23376.66501
528.321	23282.99155
528.528	23394.99321
528.735	23547.73804
528.941	23498.8578
529.148	23535.51781
529.355	23726.98058
529.562	23282.99155
529.768	23871.61352
529.975	23720.86966
530.182	23834.94462
530.388	23447.94277
530.595	24006.07412
530.802	23423.50425
531.008	24385.07357
531.215	24399.3388
531.422	24112.02143
531.628	24515.50326
531.835	24142.58456
532.042	24256.6923
532.248	24431.94552
532.455	24356.54349
532.661	24843.66087
532.868	24986.35752
533.074	24725.43529
533.281	24660.21087
533.487	24684.66973
533.694	24957.81728
533.9	24986.35752
534.107	24843.66087
534.313	25275.86199
534.52	25222.85081
534.726	25426.74784
534.933	25385.96674
535.139	25171.8799
535.345	25461.41242
535.552	25328.87462
535.758	25952.89525
535.965	25565.40969
536.171	25365.57651
536.377	25653.09772
536.584	25763.22267
536.79	25312.56289
536.996	25934.53914
537.203	25746.90751
537.409	25706.12014
537.615	25708.15949
537.821	25600.07661
538.028	26489.3637
538.234	26179.29913
538.44	26203.77651
538.646	25577.64501
538.853	26122.1862
539.059	26071.19367
539.265	26313.92775
539.471	26711.73535
539.677	26146.66301
539.883	26505.68393
540.09	27021.86108
540.296	26721.93632
540.502	26848.4314
540.708	26730.09712
540.914	27076.95263
541.12	26699.49423
541.326	27003.49746
541.532	27305.49104
541.738	27015.73986
541.944	26881.0762
542.15	26876.99558
542.356	27125.92373
542.562	27697.30863
542.768	27199.38184
542.974	27480.98699
543.18	27623.83937
543.386	27905.47987
543.592	27823.84264
543.798	27872.82476
544.004	27836.08811
544.21	27923.8485
544.415	27476.90558
544.621	28062.6367
544.827	28144.27924
545.033	28679.08087
545.239	28289.1991
545.445	28521.89874
545.651	28189.18339
545.856	28109.58094
546.062	28383.09377
546.268	28552.51814
546.474	28040.18531
546.679	28085.08822
546.885	27483.0277
547.091	28191.2245
547.297	28205.51231
547.502	28597.42703
547.708	28264.70522
547.914	28530.06389
548.119	28650.50183
548.325	28217.75904
548.531	28260.62292
548.736	28807.68905
548.942	28954.67489
549.147	28615.799
549.353	28956.7164
549.559	29324.20473
549.764	28879.13983
549.97	28732.15676
550.175	29189.4551
550.381	29142.49796
550.586	28679.08087
550.792	29536.54677
550.997	29458.95893
551.203	29538.58857
551.408	29465.08423
551.614	29232.32949
551.819	29373.20573
552.025	29742.77458
552.23	29673.35013
552.435	30073.57922
552.641	30232.86619
552.846	29534.50496
553.052	29816.2842
553.257	29904.08923
553.462	30210.40221
553.668	30200.19136
553.873	30130.75834
554.078	30416.66785
554.283	30314.55461
554.489	30514.69947
554.694	30608.64917
554.899	30445.26011
555.105	30651.54016
555.31	30667.87974
555.515	30553.50445
555.72	31154.02227
555.925	30388.07583
556.131	30696.4742
556.336	30308.42791
556.541	30851.70585
556.746	31084.56839
556.951	30945.6657
557.156	31121.33788
557.361	31505.4046
557.567	31278.63508
557.772	30966.09215
557.977	30992.64675
558.182	31311.32137
558.387	31777.14667
558.592	31245.9492
558.797	31256.1635
559.002	31078.44019
559.207	31660.682
559.412	31107.03857
559.617	30770.00401
559.822	31219.39222
560.027	31196.92112
560.232	31576.9127
560.437	31309.27846
560.642	31088.65386
560.847	31102.95307
561.051	31305.19266
561.256	31147.89392
561.461	31458.41468
561.666	31689.28683
561.871	31505.4046
562.076	31454.32864
562.281	31836.40288
562.485	31337.87927
562.69	31621.86172
562.895	31650.46608
563.1	31621.86172
563.305	31640.2502
563.509	31903.83425
563.714	31781.23326
563.919	31852.74969
564.123	32030.5291
564.328	32220.58565
564.533	32277.81047
564.737	31893.61725
564.942	32238.97917
565.147	32067.31288
565.351	31881.3569
565.556	31640.2502
565.761	32645.72542
565.965	32343.2123
566.17	32433.14346
566.374	32247.15411
566.579	32719.31741
566.784	32484.24263
566.988	32670.25574
567.193	32445.40713
567.397	32057.0951
567.602	32660.03473
567.806	32533.29916
568.011	32833.80014
568.215	32925.80092
568.42	32778.60214
568.624	33093.46043
568.828	32991.2269
569.033	32844.0222
569.237	32891.04446
569.442	33486.10259
569.646	33077.10261
569.85	33700.87582
570.055	33889.08759
570.259	33576.09856
570.463	33418.60952
570.668	33737.69764
570.872	33150.71418
571.076	33486.10259
571.281	33557.6898
571.485	33273.40818
571.689	33316.35351
571.893	33181.38673
572.098	33015.76233
572.302	33457.46876
572.506	33473.83088
572.71	33338.8492
572.914	33911.59309
573.119	33461.55927
573.323	33606.78039
573.527	34007.7577
573.731	34460.0447
573.935	34365.88813
574.139	34341.32691
574.343	33271.3632
574.547	34093.69867
574.751	34611.53186
574.955	34300.3928
575.159	33932.05299
575.364	33876.81203
575.568	33754.06324
575.772	33899.31731
575.976	33887.04165
576.18	34054.81982
576.383	34607.43732
576.587	34367.93492
576.791	34226.71525
576.995	34159.1818
577.199	33702.92145
577.403	33299.99323
577.607	34378.16895
577.811	34773.27985
578.015	34374.07533
578.219	34284.01958
578.422	34351.56069
578.626	34754.85151
578.83	34505.07909
579.034	34482.56165
579.238	34634.05215
579.442	34992.39963
579.645	34859.28341
579.849	35057.94084
580.053	35100.95485
580.257	35430.79932
580.46	35244.34995
580.664	35727.97654
580.868	35250.49598
581.071	35615.24113
581.275	35615.24113
581.479	35270.98307
581.682	35475.88123
581.886	35465.63513
582.09	35559.90417
582.293	35330.3984
582.497	35264.83689
582.7	35359.08315
582.904	35523.01498
583.107	35123.48682
583.311	35305.81224
583.515	35570.15146
583.718	35469.73355
583.922	35289.42187
584.125	35279.17804
584.329	35295.56822
584.532	35758.7254
584.735	36456.04483
584.939	36010.91306
585.142	35779.22531
585.346	35947.34553
585.549	35797.67571
585.753	35711.57766
585.956	36597.64539
586.159	36220.11018
586.363	36343.19636
586.566	36529.91959
586.769	36218.05892
586.973	36359.60951
587.176	36819.34325
587.379	36453.99288
587.582	36521.71088
587.786	36439.62934
587.989	36985.66816
588.192	36312.42275
588.395	36952.81028
588.599	36523.76304
588.802	36328.83517
589.005	36624.32718
589.208	36954.86385
589.411	36924.06109
589.615	36681.7994
589.818	36880.93983
590.021	37043.17374
590.224	37084.25253
590.427	37156.14724
590.63	36938.43552
590.833	36924.06109
591.036	37125.33415
591.239	37156.14724
591.442	36646.90494
591.645	36743.3825
591.848	36993.88291
592.051	37330.78549
592.254	37063.71279
592.457	37709.01104
592.66	37523.97712
592.863	37612.37438
593.066	37924.96466
593.269	37912.62206
593.472	37519.86596
593.675	38464.21835
593.878	38350.96759
594.081	37746.02541
594.284	37848.85663
594.486	37674.05536
594.689	37894.10872
594.892	37976.39531
595.095	38213.04299
595.298	38336.55575
595.5	37873.5391
595.703	38180.11145
595.906	37857.08399
596.109	37818.00516
596.311	38085.4453
596.514	37505.47716
596.717	38233.62631
596.92	38709.34366
597.122	38186.28595
597.325	38315.96814
597.528	38108.08124
597.73	38486.87169
597.933	38066.92573
598.136	38993.76862
598.338	38622.81432
598.541	39035.00444
598.743	38977.27536
598.946	38311.85072
599.148	38779.40299
599.351	38538.36053
599.554	38952.5366
599.756	38909.24703
599.959	39383.60098
600.161	38810.3149
600.363	39117.4875
600.566	39303.13088
600.768	39484.72587
600.971	39358.83934
601.173	39113.36298
601.376	39301.06774
601.578	39026.75697
601.78	39604.45593
601.983	39435.19231
602.185	39119.54977
602.388	39451.70286
602.59	39435.19231
602.792	39346.45906
602.995	39090.67882
603.197	39251.55535
603.399	39006.13897
603.601	38890.69562
603.804	39158.73479
604.006	39146.36019
604.208	38847.41194
604.41	38956.65963
604.613	39235.05248
604.815	39061.80975
605.017	39513.62312
605.219	39672.59348
605.421	39212.36205
605.623	39556.9727
605.826	39703.56878
606.028	39563.16586
606.23	39554.90833
606.432	39563.16586
606.634	40040.31822
606.836	39406.3004
607.038	39602.39133
607.24	39468.21404
607.442	39360.90276
607.644	39288.68911
607.846	40100.26015
608.048	40211.90029
608.25	40085.79059
608.452	40139.53735
608.654	39965.92004
608.856	39773.78806
609.058	39996.91761
609.26	39802.70537
609.462	40174.68341
609.664	40346.32401
609.866	40329.77705
610.067	40207.76491
610.269	40569.77739
610.471	40191.22381
610.673	40317.3673
610.875	39718.02472
611.077	40127.1336
611.278	39600.32674
611.48	40145.73937
611.682	39831.62472
611.884	39941.12371
612.085	39980.38528
612.287	39883.27151
612.489	39850.21681
612.69	40147.80673
612.892	39670.52854
613.094	39978.31878
613.295	39600.32674
613.497	40029.98432
613.699	40276.0043
613.9	40106.46156
614.102	39974.18583
614.304	39936.99113
614.505	39670.52854
614.707	40019.65068
614.908	40108.52871
615.11	40083.72355
615.311	40437.34491
615.513	39955.58805
615.714	39866.74382
615.916	40170.54841
616.117	40300.82157
616.319	39728.35069
616.52	39447.57516
616.722	39480.59786
616.923	39994.85103
617.124	40269.80023
617.326	40125.06635
617.527	40607.0323
617.729	40727.10086
617.93	40001.0508
618.131	40832.71008
618.333	40094.05885
618.534	40120.93188
618.735	40288.41274
618.937	40091.99176
619.138	39777.91898
619.339	39782.04994
619.54	40559.42945
619.742	39848.15098
619.943	40058.91993
620.144	39963.85362
620.345	40224.3067
620.546	39784.11544
620.748	40189.15622
620.949	39645.75009
621.15	39936.99113
621.351	39629.23193
621.552	40356.66622
621.753	39949.38898
621.954	40495.27848
622.155	40160.21112
622.356	40251.1886
622.558	39982.45178
622.759	40170.54841
622.96	39618.90842
623.161	40174.68341
623.362	40063.05376
623.563	40946.63596
623.764	40677.41268
623.965	40575.98629
624.166	40538.73441
624.366	40125.06635
624.567	40143.67202
624.768	40025.85083
624.969	40226.37447
625.17	40675.34249
625.371	40156.07628
625.572	40526.31793
625.773	40424.9317
625.973	41081.32102
626.174	40969.42535
626.375	40932.13436
626.576	40826.49695
626.777	40760.22995
626.977	40114.73025
627.178	40756.08866
627.379	40449.75851
627.58	40067.18763
627.78	40122.99911
627.981	40712.60779
628.182	40679.48289
628.382	40731.24183
628.583	40526.31793
628.784	40536.66497
628.984	40052.71926
629.185	40565.63818
629.386	40187.08864
629.586	40766.44198
629.787	40493.20928
629.987	40536.66497
630.188	40607.0323
630.388	40472.51782
630.589	40309.09435
630.79	40321.50384
630.99	40853.42127
631.191	41126.91795
631.391	41483.60164
631.591	40489.0709
631.792	40526.31793
631.992	40685.69359
632.193	40569.77739
632.393	41112.40922
632.594	40909.34727
632.794	40814.07099
632.994	41052.30775
633.195	40843.06553
633.395	40869.99106
633.595	40919.70486
633.796	40778.86636
633.996	40956.9946
634.196	41342.5448
634.397	41247.1555
634.597	40596.68335
634.797	41058.52468
634.997	40793.36198
635.198	40874.13362
635.398	40571.84701
635.598	41247.1555
635.798	40990.14419
635.998	40994.2881
636.199	41365.35904
636.399	41433.8105
636.599	41151.79142
636.799	41923.72966
636.999	40758.1593
637.199	41118.62718
637.399	40992.21614
637.599	41091.68346
637.799	40658.78131
637.999	41052.30775
638.199	40575.98629
638.399	40420.79406
638.599	40799.57456
638.799	41274.11078
638.999	41523.02458
639.199	41448.33219
639.399	41628.86581
639.599	41873.87594
639.799	40828.56798
639.999	41145.57289
640.199	41118.62718
640.399	40832.71008
640.599	39744.87279
640.799	41740.96774
640.998	41689.06423
641.198	41257.52268
641.398	40762.30062
641.598	41133.13616
641.798	40685.69359
641.997	40650.50099
642.197	40290.48085
642.397	40942.49259
642.597	40988.07226
642.796	41019.15254
642.996	40927.99114
643.196	41651.69848
643.395	40946.63596
643.595	41415.14062
643.795	41282.40512
643.994	41776.26653
644.194	41249.22891
644.394	41568.67769
644.593	41209.83613
644.793	41249.22891
644.992	40710.5374
645.192	40840.99442
645.392	41151.79142
645.591	41612.26116
645.791	41711.90083
645.99	41467.00382
646.19	41147.64572
646.389	41367.43313
646.589	41788.72578
646.788	41716.05309
646.987	41317.65819
647.187	41348.76672
647.386	41848.95178
647.586	42297.86359
647.785	42052.5518
647.984	42000.60158
648.184	42212.60808
648.383	42237.55869
648.582	42356.09921
648.782	42472.60065
648.981	42239.63799
649.18	41734.73891
649.38	42283.30625
649.579	42183.50135
649.778	42262.51114
649.977	43026.53958
650.177	42406.02346
650.376	42152.31832
650.575	41498.12537
650.774	41576.97888
650.973	41718.12925
651.173	41298.99437
651.372	41568.67769
651.571	41660.00163
651.77	42281.22668
651.969	41828.18301
652.168	41836.49037
652.367	41902.9564
652.566	41851.02873
652.765	41890.49305
652.964	42198.0544
653.163	42214.68723
653.362	42312.42155
653.561	42114.90246
653.76	42173.10669
653.959	41986.05693
654.158	42229.24162
654.357	42212.60808
654.556	41994.36808
654.755	42480.92373
654.954	42445.55207
655.153	42121.13816
655.352	42004.75731
655.551	42281.22668
655.749	42580.81682
655.948	42164.79119
656.147	42289.54503
656.346	42957.76733
656.545	42609.95793
656.743	41871.79886
656.942	41797.03219
657.141	41905.03367
657.34	42056.70816
657.538	41701.52037
657.737	41695.29225
657.936	42474.6814
658.135	41902.9564
658.333	41772.11354
658.532	41961.12467
658.731	42010.991
658.929	42445.55207
659.128	42406.02346
659.326	42202.21253
659.525	42470.51991
659.724	42212.60808
659.922	42069.17753
660.121	41606.03462
660.319	41298.99437
660.518	42123.21675
660.716	42243.79663
660.915	41971.51289
661.113	42560.00329
661.312	42545.4346
661.51	42541.27223
661.709	42391.46145
661.907	42749.45431
662.105	42075.41239
662.304	42187.6593
662.502	42148.1608
662.701	41734.73891
662.899	41840.64412
663.097	42123.21675
663.296	42483.00453
663.494	42322.82048
663.692	41838.56724
663.891	42100.35296
664.089	41967.35756
664.287	42096.19607
664.485	42314.50131
664.684	42489.24702
664.882	42420.58609
665.08	42824.43185
665.278	42886.92613
665.476	42587.06113
665.675	42135.68855
665.873	42406.02346
666.071	42722.38327
666.269	42924.4284
666.467	41838.56724
666.665	42401.86282
666.863	42187.6593
667.061	42075.41239
667.259	41944.50416
667.457	42181.42239
667.655	41410.99189
667.853	41508.49983
668.051	41772.11354
668.249	41936.19421
668.447	41803.26213
668.645	41442.10854
668.843	41491.90084
669.041	41591.50645
669.239	40712.60779
669.437	41178.73959
669.635	41491.90084
669.833	41645.47124
670.031	41361.21089
670.229	41413.06624
670.426	41603.95913
670.624	41108.26397
670.822	41073.03128
671.02	41896.72467
671.218	41367.43313
671.415	41560.37668
671.613	41890.49305
671.811	41990.21248
672.009	41913.34287
672.206	41948.65921
672.404	41664.15329
672.602	41025.36891
672.799	41481.52687
672.997	41657.92583
673.195	41959.04706
673.392	42580.81682
673.59	42202.21253
673.788	41622.63897
673.985	41120.69985
674.183	41462.85448
674.38	41325.95354
674.578	41591.50645
674.775	41437.95949
674.973	41259.59615
675.17	41079.24856
675.368	41321.80584
675.565	41471.1532
675.763	41440.03401
675.96	40594.61359
676.158	40679.48289
676.355	40495.27848
676.553	41884.26154
676.75	40896.91854
676.947	41440.03401
677.145	40631.87094
677.342	41124.84524
677.539	41066.81409
677.737	41191.17789
677.934	40783.00791
678.131	40814.07099
678.329	40621.52131
678.526	40478.72514
678.723	40830.63902
678.92	41338.39691
679.118	41288.626
679.315	41328.0274
679.512	41444.18308
679.709	41211.90933
679.906	40927.99114
680.104	41440.03401
680.301	41379.87795
680.498	40702.25595
680.695	40671.20212
680.892	40956.9946
681.089	40491.14008
681.286	40429.06939
681.483	39856.41436
681.68	39790.31199
681.877	39916.32889
682.075	40462.17251
682.272	40565.63818
682.469	41367.43313
682.665	40174.68341
682.862	40710.5374
683.059	40373.21432
683.256	40015.5173
683.453	39827.49326
683.65	39932.8586
683.847	40178.81844
684.044	39877.07354
684.241	40172.61591
684.438	40532.52612
684.635	40129.20087
684.831	40557.3599
685.028	39833.69046
685.225	39738.67693
685.422	39212.36205
685.619	39715.95955
685.815	40158.1437
686.012	40646.3609
686.209	39759.33017
686.405	39893.60165
686.602	39296.94149
686.799	39340.26906
686.996	39877.07354
687.192	39519.81564
687.389	38764.97815
687.586	39016.44785
687.782	39080.36822
687.979	39433.12854
688.175	39270.12184
688.372	39575.55245
688.568	39365.02962
688.765	39373.28346
688.962	39216.48749
689.158	39261.86997
689.355	39530.13672
689.551	39759.33017
689.748	39495.04609
689.944	38690.80031
690.14	38777.34227
690.337	39445.51133
690.533	40081.65652
690.73	39740.74221
690.926	39796.50863
691.123	38721.7063
691.319	39457.89448
691.515	39435.19231
691.712	38779.40299
691.908	38921.61505
692.104	39115.42523
692.301	39098.92747
692.497	38589.85495
692.693	38878.32843
692.889	38657.83617
693.086	38581.61547
693.282	38528.06232
693.478	38077.2143
693.674	38001.08384
693.87	38400.38285
694.067	38608.39431
694.263	38447.74386
694.459	38495.10953
694.655	38445.68459
694.851	38272.73697
695.047	38412.73745
695.243	38476.57458
695.439	37943.4791
695.635	38342.7322
695.831	38081.32978
696.027	38233.62631
696.224	38136.89209
696.42	37980.50998
696.615	38773.22086
696.811	38087.50307
697.007	38178.0533
697.203	37896.16572
697.399	38628.99445
697.595	38363.32093
697.791	38068.98343
697.987	37723.40521
698.183	38250.09358
698.379	38118.37064
698.575	38202.75165
698.77	38338.61455
698.966	38178.0533
699.162	38427.15155
699.358	38694.92099
699.554	38215.10128
699.749	38023.71603
699.945	38237.74307
700.141	38542.47988
700.337	38484.81225
700.532	38732.00876
700.728	38591.91484
700.924	37715.17992
701.119	38050.46447
701.315	37289.68939
701.511	37125.33415
701.706	38077.2143
701.902	37686.3924
702.097	37887.93775
702.293	37772.75961
702.489	37852.97029
702.684	37312.29188
702.88	37741.91258
703.075	37643.21399
703.271	37147.93026
703.466	37277.36113
703.662	37000.04404
703.857	37347.22476
704.053	37486.97782
704.248	37447.92567
704.443	37684.33621
704.639	37386.26992
704.834	37445.87037
705.03	37519.86596
705.225	37244.48707
705.42	37166.41863
705.616	37172.58155
705.811	36891.20653
706.006	37472.58987
706.202	37762.47707
706.397	37182.85322
706.592	37367.77451
706.787	37517.8104
706.983	37186.96194
707.178	37406.82109
707.373	37351.33465
707.568	36618.16974
707.763	36934.32851
707.959	36813.18393
708.154	37008.25899
708.349	36603.80263
708.544	37162.31005
708.739	36835.76841
708.934	36523.76304
709.129	36646.90494
709.324	35791.52553
709.519	36320.62891
709.714	36218.05892
709.909	37039.06602
710.104	36595.59299
710.299	36246.77699
710.494	36312.42275
710.689	35963.74953
710.884	36376.02306
711.079	37032.90449
711.274	35787.42543
711.469	36550.44182
711.664	36148.31993
711.859	35910.43787
712.054	35906.33713
712.249	36035.52132
712.443	36185.23972
712.638	36211.90521
712.833	35154.21315
713.028	36000.65986
713.223	36041.67352
713.417	36209.85398
713.612	36269.34202
713.807	36737.22392
714.002	35850.97936
714.196	35555.80528
714.391	35738.22603
714.586	35865.33098
714.78	35162.40703
714.975	35293.51943
715.17	35143.97092
715.364	35976.05276
715.559	36273.44483
715.754	36008.8624
715.948	35976.05276
716.143	36148.31993
716.337	35293.51943
716.532	36355.50619
716.726	35707.47799
716.921	35982.20446
717.115	35850.97936
717.31	35908.3875
717.504	36152.42204
717.699	36254.98237
717.893	35998.60923
718.088	35889.9344
718.282	35281.2268
718.476	34820.37608
718.671	34443.66904
718.865	35199.28039
719.059	35006.73637
719.254	35383.67086
719.448	34928.91106
719.642	34685.23651
719.837	34294.25281
720.031	34703.66353
720.225	33932.05299
720.419	34451.85684
720.614	34529.64413
720.808	34738.47107
721.002	34046.63497
721.196	34736.42353
721.39	34187.83186
721.585	34484.60867
721.779	34724.1384
721.973	34998.54392
722.167	34232.85486
722.361	34187.83186
722.555	34245.13418
722.749	33932.05299
722.943	34079.37473
723.137	33970.92778
723.331	33983.20429
723.525	34310.62618
723.719	34443.66904
723.913	34509.17323
724.107	34492.79679
724.301	34826.51923
724.495	34259.46022
724.689	34226.71525
724.883	33351.11972
725.077	34153.0426
725.271	33592.46212
725.465	33596.55304
725.659	33700.87582
725.853	33917.73102
726.046	33901.36326
726.24	33688.60212
726.434	33353.16482
726.628	33833.84857
726.822	33948.42117
727.015	34122.34708
727.209	33518.8277
727.403	33864.53661
727.596	33347.02954
727.79	34230.80832
727.984	34079.37473
728.177	34652.47822
728.371	34769.18463
728.565	34277.87969
728.758	33633.37189
728.952	33817.48193
729.146	33158.89347
729.339	34110.0691
729.533	34296.29947
729.726	33997.52705
729.92	34009.80384
730.113	34277.87969
730.307	33950.46721
730.5	33465.64979
730.694	33375.66109
730.887	33799.06972
731.081	34054.81982
731.274	33805.2071
731.468	33414.51914
731.661	33406.3384
731.854	33424.74512
732.048	33310.21839
732.241	33177.29702
732.435	32983.0485
732.628	33028.03019
732.821	33295.90319
733.014	33369.52571
733.208	33547.46283
733.401	33347.02954
733.594	33185.47645
733.788	33612.91684
733.981	33197.74568
734.174	33496.3291
734.367	33277.49816
734.56	33516.78236
734.754	33477.92143
734.947	33447.24254
735.14	33355.20992
735.333	32837.88896
735.526	32641.63707
735.719	32805.17873
735.912	32232.84798
736.105	32653.90215
736.298	32821.53376
736.491	32337.08079
736.684	32690.69793
736.877	32866.51094
737.07	32921.71189
737.263	32858.33318
737.456	32970.78099
737.649	33070.96847
737.842	33516.78236
738.035	33332.71398
738.228	33066.87906
738.421	33005.53919
738.614	33246.82361
738.807	33140.49014
739	32831.75574
739.192	33537.23593
739.385	33496.3291
739.578	33453.37826
739.771	33428.83553
739.964	33238.64384
740.156	33398.15772
740.349	33396.11256
740.542	33537.23593
740.735	33210.01501
740.927	33293.85818
741.12	33025.98554
741.313	32455.62692
741.505	33030.07485
741.698	32909.44485
741.891	32666.16733
742.083	32770.42481
742.276	32764.29184
742.468	32613.01887
742.661	32756.11458
742.854	32373.87018
743.046	32220.58565
743.239	31832.3162
743.431	32001.91994
743.624	31965.13729
743.816	32496.50664
744.009	32774.51347
744.201	32516.94684
744.393	32490.37462
744.586	32006.00694
744.778	32406.57245
744.971	32300.2921
745.163	31889.53046
745.355	31644.33654
745.548	31666.81158
745.74	31809.83956
745.932	32012.13745
746.125	32510.81475
746.317	32302.3359
746.509	31858.87978
746.702	32183.79914
746.894	31728.10821
747.086	31583.04207
747.278	31779.18997
747.471	31781.23326
747.663	31493.14627
747.855	31503.36154
748.047	31975.35463
748.239	31670.89797
748.431	32042.79029
748.623	31918.13814
748.815	31497.23238
749.008	31865.00988
749.2	31672.94117
749.392	31777.14667
749.584	31417.55458
749.776	31450.24261
749.968	31074.35473
750.16	31241.8635
750.352	30745.49388
750.544	30953.83626
750.736	30710.77152
750.928	30966.09215
751.12	31041.67125
751.311	31599.38711
751.503	31331.7505
751.695	30723.02643
751.887	30702.60162
752.079	31160.15064
752.271	30737.32388
752.463	31252.07778
752.654	30653.5826
752.846	31170.36461
753.038	30816.9823
753.23	30669.92219
753.421	30586.18269
753.613	30659.70994
753.805	30790.42926
753.997	30637.2431
754.188	30535.12309
754.38	30500.40301
754.572	30563.71637
754.763	30453.42937
754.955	30126.67409
755.146	30477.93727
755.338	30330.89252
755.53	30388.07583
755.721	30339.06151
755.913	30283.92123
756.104	30620.90368
756.296	30800.64194
756.487	30433.00625
756.679	30598.43712
756.87	29706.0203
757.062	29902.04722
757.253	30261.45692
757.445	30047.03207
757.636	30330.89252
757.827	30218.57092
758.019	30275.75237
758.21	30051.11624
758.401	29552.88124
758.593	29448.75012
758.784	29828.53594
758.975	29752.98416
759.167	29775.44534
759.358	29773.40341
759.549	29738.69075
759.74	29512.04518
759.932	29150.66438
760.123	29222.12126
760.314	29073.08406
760.505	29056.75155
760.696	28862.80811
760.888	28864.84957
761.079	28446.37189
761.27	28707.66011
761.461	29015.92058
761.652	29438.54133
761.843	29026.12828
762.034	29044.50222
762.225	28934.25987
762.416	28846.47646
762.607	28487.19703
762.798	28811.77192
762.989	28352.47569
763.18	28515.77489
763.371	28458.61939
763.562	28662.74997
763.753	28964.88244
763.944	28807.68905
764.135	28466.78441
764.326	29638.63837
764.517	29050.62688
764.708	28732.15676
764.899	27972.83197
765.089	28017.73406
765.28	27750.37073
765.471	28227.96468
765.662	27878.94757
765.853	27401.40045
766.043	27334.0595
766.234	27360.58759
766.425	27525.8828
766.615	27648.32895
766.806	27670.77788
766.997	27895.27512
767.187	28019.77508
767.378	28252.45833
767.569	27993.24195
767.759	27915.68465
767.95	27717.71703
768.141	27756.49333
768.331	27287.12573
768.522	27419.76641
768.712	27732.00299
768.903	27360.58759
769.093	27393.23784
769.284	27074.91218
769.474	27146.32859
769.665	26750.49923
769.855	27111.64041
770.046	27021.86108
770.236	26899.43906
770.426	26838.22997
770.617	26819.8675
770.807	26746.41879
770.998	26770.90148
771.188	26895.35842
771.378	27207.54396
771.569	27178.97664
771.759	26750.49923
771.949	26579.1262
772.139	26836.18969
772.33	26044.67798
772.52	26024.2815
772.71	26420.00387
772.9	26242.53287
773.09	26273.13042
773.281	25975.33069
773.471	26158.9015
773.661	26095.66995
773.851	25712.2382
774.041	25477.72537
774.231	25534.82171
774.421	25801.97167
774.611	25563.37048
774.802	25194.30693
774.992	25724.47436
775.182	25838.68187
775.372	25940.65782
775.562	25736.7106
775.752	25824.40561
775.942	25516.46914
776.131	25308.48497
776.321	25031.20737
776.511	25424.70876
776.701	25082.17445
776.891	25171.8799
777.081	25471.608
777.271	25561.33127
777.461	25192.2681
777.651	25773.41971
777.84	25347.22548
778.03	25367.61552
778.22	24876.27624
778.41	24949.66301
778.599	24825.315
778.789	24892.58415
778.979	24866.08387
779.169	24684.66973
779.358	24876.27624
779.548	25177.99634
779.738	24929.27749
779.927	24927.23895
780.117	24770.27853
780.307	24383.03569
780.496	24287.25832
780.686	24770.27853
780.875	24211.86324
781.065	24637.79056
781.254	24407.49042
781.444	24507.35109
781.633	24413.60416
781.823	24297.44712
782.012	24607.21789
782.202	24289.29607
782.391	23953.10331
782.581	24152.7724
782.77	24126.28415
782.96	23623.09853
783.149	23492.74789
783.338	23390.92025
783.528	23619.02488
783.717	23619.02488
783.906	23576.25233
784.096	23490.71126
784.285	23568.10533
784.474	23684.20468
784.663	23737.16551
784.853	23643.46695
785.042	24010.14887
785.231	23665.87255
785.42	23564.03185
785.61	23462.19878
785.799	23680.13085
785.988	23376.66501
786.177	22808.62128
786.366	22989.79716
786.555	22609.15578
786.744	22674.28369
786.933	22505.36567
787.122	23148.60236
787.312	23403.13916
787.501	23217.83139
787.69	22839.15465
787.879	23052.90963
788.068	22859.51066
788.257	22719.0612
788.445	22476.8759
788.634	22702.77827
788.823	22234.74146
789.012	22409.72421
789.201	21921.46896
789.39	22069.95713
789.579	21840.11419
789.768	22647.82504
789.957	22218.46538
790.145	23164.8912
790.334	23056.98151
790.523	22592.87437
790.712	22792.33713
790.9	22570.4878
791.089	21760.79923
791.278	21834.01283
791.467	22069.95713
791.655	22474.84094
791.844	21901.12969
792.033	21695.7247
792.221	21480.194
792.41	21773.00115
792.599	21368.37958
792.787	21951.97857
792.976	22027.23929
793.164	21880.79081
793.353	21911.29927
793.541	22015.03449
793.73	21764.86652
793.918	21714.02651
794.107	21366.3467
794.295	21350.08383
794.484	21872.65536
794.672	21703.8588
794.861	21634.72096
795.049	21823.84398
795.238	21665.22239
795.426	21821.81022
795.614	21561.52113
795.803	21285.0349
795.991	21409.03797
796.179	21823.84398
796.368	21956.04659
796.556	21907.23143
796.744	21270.80599
796.932	21716.06006
797.121	21376.51113
797.309	21311.46053
797.497	21205.7621
797.685	21354.14952
797.874	20984.23758
798.062	20846.06346
798.25	20982.20547
798.438	20972.04498
798.626	20913.11617
798.814	21287.06761
799.002	21008.62322
799.19	20478.36989
799.378	21057.39628
799.566	20841.99981
799.755	20850.12713
799.943	21079.75138
800.131	21234.21829
800.318	21244.38141
800.506	21089.91295
800.694	20976.10916
800.882	20328.08153
801.07	20827.77714
801.258	20405.25377
801.446	20472.27667
801.634	19997.12211
801.822	20667.27828
802.01	20277.31363
802.197	20799.33242
802.385	20657.121
802.573	20535.24173
802.761	20665.24682
802.949	20638.83815
803.136	20449.93519
803.324	20921.24407
803.512	21081.78369
803.699	20724.16099
803.887	20748.54029
804.075	20768.85683
804.262	20443.84215
804.45	20212.33455
804.638	20289.49769
804.825	20462.12139
805.013	20045.84532
805.201	20293.55908
805.388	20456.02827
805.576	20443.84215
805.763	20368.69774
805.951	20488.52533
806.138	20776.98356
806.326	20492.58754
806.513	20667.27828
806.701	20590.08554
806.888	20405.25377
807.075	20669.30975
807.263	20125.02569
807.45	20547.42898
807.638	20610.39884
807.825	21006.59106
808.012	20841.99981
808.2	20947.66022
808.387	20616.49291
808.574	20907.02028
808.761	20736.35056
808.949	20874.50952
809.136	20364.63605
809.323	20445.87316
809.51	20586.02293
809.698	20299.65119
809.885	20848.0953
810.072	20608.36749
810.259	20598.21081
810.446	20577.89777
810.633	20789.17378
810.82	20604.30481
811.008	20588.05424
811.195	20848.0953
811.382	20480.40097
811.569	21030.97724
811.756	20866.38199
811.943	20868.41386
812.13	21069.58991
812.317	20577.89777
812.504	20456.02827
812.691	20959.85253
812.878	20868.41386
813.064	20770.88851
813.251	20423.53229
813.438	20567.7414
813.625	20125.02569
813.812	20257.00721
813.999	20246.85415
814.186	20019.45328
814.372	20120.96501
814.559	20354.48188
814.746	19997.12211
814.933	20039.75478
815.12	20269.19101
815.306	20163.60307
815.493	19850.96702
815.68	20246.85415
815.866	20129.0864
816.053	20456.02827
816.24	20265.12973
816.426	20356.5127
816.613	20088.48011
816.799	20596.17949
816.986	20512.89883
817.173	20590.08554
817.359	19978.85153
817.546	20468.21454
817.732	20285.43632
817.919	20460.09035
818.105	19948.40133
818.292	19958.55129
818.478	20153.45098
818.665	20248.88476
818.851	19850.96702
819.037	19954.49129
819.224	19812.40195
819.41	20161.57264
819.597	19625.68724
819.783	20037.72461
819.969	19682.5097
820.156	19818.49107
820.342	19818.49107
820.528	19885.4739
820.714	19309.16473
820.901	19739.33545
821.087	20009.30268
821.273	19879.38436
821.459	19745.42412
821.646	19974.79145
821.832	20271.22166
822.018	20153.45098
822.204	19696.71583
822.39	20003.21238
822.576	19706.86319
822.762	19861.11598
822.948	19325.39419
823.134	19451.18155
823.32	18783.87679
823.507	19185.42369
823.693	19315.25075
823.879	19439.00789
824.065	19278.73518
824.25	19240.19243
824.436	19248.30657
824.622	19221.93585
824.808	19116.4599
824.994	19313.22207
825.18	18881.20701
825.366	19090.09264
825.552	19110.37509
825.738	19457.26844
825.923	19246.27803
826.109	19047.50083
826.295	18680.47345
826.481	18840.65164
826.667	18568.97148
826.852	18508.15717
827.038	18242.64155
827.224	18773.73876
827.409	18560.86271
827.595	18564.91709
827.781	18570.99868
827.966	18976.51844
828.152	18718.99507
828.338	18950.15482
828.523	18315.60123
828.709	18623.70734
828.894	18382.48521
829.08	18674.39122
829.266	18613.57085
829.451	18804.15317
829.637	18390.59263
829.822	18463.56221
830.008	18171.71312
830.193	18485.85946
830.378	18293.30748
830.564	18593.29818
830.749	18329.7884
830.935	18518.29265
831.12	18200.08395
831.305	18289.25412
831.491	17881.96587
831.676	18027.84347
831.861	17468.74178
832.047	17914.38154
832.232	17839.42165
832.417	17963.00673
832.602	18135.2374
832.788	18098.76285
832.973	17973.13723
833.158	18350.0561
833.343	18090.65756
833.528	18123.07909
833.714	17796.87894
833.899	18021.76487
834.084	18204.13699
834.269	18094.7102
834.454	17934.64179
834.639	17612.54441
834.824	17407.98491
835.009	17723.95208
835.194	17096.14226
835.379	17088.04336
835.564	17106.26594
835.749	17377.60752
835.934	17124.48875
836.119	17132.58784
836.304	16984.78628
836.489	17294.57947
836.674	17466.71651
836.859	17349.2559
837.044	17086.01864
837.228	17158.91023
837.413	17379.63265
837.598	17476.84291
837.783	17245.98002
837.968	17513.29862
838.152	17201.43202
838.337	17013.13066
838.522	16749.95243
838.707	17039.45091
838.891	16500.98282
839.076	16743.87958
839.261	16733.75822
839.445	16869.38951
839.63	16527.2951
839.815	16569.80031
839.999	16634.57202
840.184	16956.44243
840.368	16930.1236
840.553	17570.00955
840.737	17365.45675
840.922	16960.49152
841.106	16511.10288
841.291	16590.04122
841.475	16602.18588
841.66	16588.01712
841.844	15984.92172
842.029	16146.81128
842.213	16114.43259
842.397	16436.21564
842.582	16029.4404
842.766	15889.81583
842.951	15831.13485
843.135	16130.62188
843.319	15843.27566
843.504	15827.08792
843.688	15752.22056
843.872	16015.27529
844.056	16231.80735
844.241	16001.11025
844.425	15513.4629
844.609	15723.89274
844.793	15673.30783
844.977	15721.86934
845.161	15355.64516
845.346	15566.06958
845.53	15185.68991
845.714	15557.97621
845.898	14981.33912
846.082	15418.36725
846.266	15193.78299
846.45	15309.10964
846.634	15177.59683
846.818	15347.55201
847.002	15250.43461
847.186	15600.46651
847.37	15183.66664
847.554	15851.36956
847.738	15557.97621
847.922	15968.73327
848.106	15796.73611
848.29	15549.88286
848.473	15432.53036
848.657	14938.85003
848.841	15106.78235
849.025	15175.57356
849.209	14997.5254
849.392	15005.61853
849.576	14902.43066
849.76	15098.68926
849.944	14866.01113
850.127	15019.7815
850.311	14766.86805
850.495	14726.40098
850.678	14592.85703
850.862	14609.04441
851.046	14526.08327
851.229	14708.19069
851.413	14718.30752
851.596	14779.00811
851.78	14752.70461
851.964	15009.66509
852.147	14863.98781
852.331	15035.96773
852.514	14754.72796
852.698	14439.07293
852.881	14260.99641
853.065	14376.34288
853.248	13975.63785
853.431	14125.40591
853.615	13591.03019
853.798	13714.52148
853.982	13945.27784
854.165	14036.35619
854.348	14107.19155
854.532	14422.88467
854.715	14060.64292
854.898	13898.72468
855.081	13692.25346
855.265	14218.49886
855.448	14022.18877
855.631	14252.9017
855.814	14030.28445
855.997	14068.73842
856.181	13862.29078
856.364	13669.98505
856.547	13752.98352
856.73	13724.64318
856.913	13390.58193
857.096	13591.03019
857.279	13791.44446
857.462	13591.03019
857.645	13317.68224
857.828	13258.95357
858.011	13184.01859
858.194	13070.59159
858.377	12999.69208
858.56	13287.30579
858.743	13321.73236
858.926	13295.40627
859.109	13086.79635
859.292	13159.71403
859.475	13015.89821
859.658	12786.9556
859.841	12681.57785
860.023	12776.8238
860.206	12470.77348
860.389	12620.77576
860.572	12414.00666
860.755	12341.01301
860.937	12229.47754
861.12	12326.81877
861.303	12497.12775
861.486	12521.45381
861.668	12345.06845
861.851	12434.28112
862.034	12535.64358
862.216	12628.88302
862.399	12363.31756
862.581	12124.00567
862.764	12221.36502
862.947	12243.67416
863.129	12229.47754
863.312	12158.48907
863.494	12081.40551
863.677	12073.29081
863.859	11858.20505
864.042	12024.60001
864.224	11862.26412
864.406	11992.13696
864.589	11864.29365
864.771	11872.41165
864.954	11919.08761
865.136	11874.44113
865.318	11466.33956
865.501	11655.20778
865.683	11569.92241
865.865	11645.0556
866.048	11569.92241
866.23	11366.79525
866.412	11273.32381
866.594	11683.63268
866.777	11476.49583
866.959	11456.18305
867.141	11492.74537
867.323	11311.93417
867.505	11356.63634
867.687	11399.3021
867.869	11309.90213
868.052	11385.08066
868.234	11216.4176
868.416	11673.48113
868.598	11474.4646
868.78	11659.26859
868.962	11837.9092
869.144	11657.23819
869.326	11118.84504
869.508	11464.30828
869.69	11297.70972
869.872	11281.45261
870.054	11334.28586
870.236	11228.61247
870.417	11015.1471
870.599	11393.20725
870.781	10948.03316
870.963	11051.74961
871.145	11116.81202
871.327	10992.77714
871.508	11238.77458
871.69	11141.20757
871.872	11033.4488
872.054	11039.54917
872.235	10968.37201
872.417	11102.58056
872.599	10819.87226
872.78	11047.68284
872.962	11021.24777
873.144	11194.05937
873.325	10781.21153
873.507	11228.61247
873.689	10945.99922
873.87	11433.83787
874.052	10988.70973
874.233	11177.79804
874.415	10927.6932
874.596	10927.6932
874.778	10504.35474
874.959	10620.41799
875.141	10846.32191
875.322	10854.45986
875.503	11171.69986
875.685	11336.31777
875.866	11017.18067
876.048	11019.21422
876.229	10815.80291
876.41	10807.66407
876.592	10825.9762
876.773	10844.28739
876.954	10677.41675
877.136	10866.66645
877.317	10632.63282
877.498	10752.72194
877.679	10650.95424
877.86	10705.91255
878.042	10661.13237
878.223	11232.67735
878.404	11155.43761
878.585	10866.66645
878.766	10760.86206
878.947	10775.10681
879.128	10884.97556
879.309	10880.90695
879.49	10703.87721
879.672	11033.4488
879.853	11072.08281
880.034	11181.86343
880.215	10988.70973
880.396	11291.61338
880.576	11126.97702
880.757	11228.61247
880.938	11053.78298
881.119	11224.54756
881.3	10830.04543
881.481	11338.34967
881.662	11131.04294
881.843	11504.93213
882.023	11200.15719
882.204	10758.82705
882.385	10821.90692
882.566	10838.18376
882.747	10874.80395
882.927	11285.51695
883.108	11037.51573
883.289	11269.25935
883.469	10984.64227
883.65	10962.27047
883.831	10943.96526
884.011	10954.13494
884.192	10791.38582
884.373	10988.70973
884.553	10998.87817
884.734	11135.10883
884.914	10958.20273
885.095	11139.17467
885.275	11068.01625
885.456	11433.83787
885.636	11084.2822
885.817	11458.21437
885.997	11311.93417
886.178	11232.67735
886.358	11043.61603
886.538	10952.10102
886.719	10862.59764
886.899	11110.71288
887.08	11257.06572
887.26	11403.36527
887.44	11352.5727
887.621	11622.72002
887.801	10943.96526
887.981	11326.15811
888.161	11230.64491
888.342	11387.11232
888.522	11206.25492
888.702	11299.74182
888.882	11228.61247
889.062	11202.18978
889.242	10978.54101
889.423	11277.38823
889.603	11035.48227
889.783	11151.37193
889.963	10777.14173
890.143	11222.51508
890.323	10626.52546
890.503	11131.04294
890.683	10891.07839
890.863	10927.6932
891.043	10608.20272
891.223	11242.83935
891.403	10901.24954
891.583	10842.25286
891.763	10939.89731
891.943	11013.11352
892.122	10846.32191
892.302	11145.27335
892.482	10970.40583
892.662	11230.64491
892.842	11155.43761
893.022	11049.71623
893.201	10990.74344
893.381	11253.00109
893.561	11068.01625
893.741	11307.87009
893.92	10943.96526
894.1	11106.64674
894.28	10541.0107
894.459	10866.66645
894.639	10766.96702
894.819	11025.31482
894.998	10673.34573
895.178	10834.11462
895.357	10655.02553
895.537	10754.75699
895.716	10756.79202
895.896	11025.31482
896.075	10960.23661
896.255	10874.80395
896.434	10418.80807
896.614	10712.01848
896.793	10212.99381
896.973	10477.87843
897.152	10164.06719
897.331	10785.28128
897.511	10836.1492
897.69	10720.15955
897.87	10504.35474
898.049	10813.76822
898.228	10455.47371
898.407	10325.08775
898.587	10255.79814
898.766	10308.7857
898.945	10115.1326
899.124	10398.43645
899.304	10106.97605
899.483	10396.39921
899.662	10147.75655
899.841	10106.97605
900.02	9915.23166
900.199	10296.55861
900.378	9886.66305
900.557	10217.07067
900.737	10058.03204
900.916	10131.44502
901.095	10188.53149
901.274	10102.89769
901.453	9927.47448
901.632	10066.18994
901.811	9553.82528
901.989	10051.91346
902.168	9960.11941
902.347	10288.40695
902.526	10002.96025
902.705	10111.05435
902.884	10231.33926
903.063	10481.95185
903.242	10088.623
903.42	10522.68324
903.599	10031.51729
903.778	10080.46572
903.957	9949.91827
904.135	9839.72261
904.314	9649.83878
904.493	9723.35782
904.672	9296.25315
904.85	9545.65232
905.029	9519.08843
905.207	9749.90148
905.386	9598.77208
905.565	10157.9508
905.743	9676.38962
905.922	9557.91167
906.1	9238.97949
906.279	9353.51377
906.457	9171.46145
906.636	9333.06503
906.814	9238.97949
906.993	9216.47552
907.171	9251.25352
907.35	9253.29913
907.528	8831.53952
907.707	8927.83175
907.885	8698.30356
908.063	8944.21799
908.242	9034.32212
908.42	8825.39186
908.598	8804.89849
908.777	8833.58871
908.955	8974.93913
909.133	9114.1589
909.311	8976.98707
909.49	8903.25026
909.668	8618.32467
909.846	8718.80643
910.024	8437.75455
910.202	8755.70697
910.38	8503.43341
910.559	8608.06892
910.737	8505.48555
910.915	8579.35033
911.093	8626.52894
911.271	8858.17751
911.449	8460.33386
911.627	8630.63096
911.805	8057.65756
911.983	8240.59929
912.161	8020.63876
912.339	8287.85079
912.517	8002.12689
912.695	8195.39243
912.872	8139.89815
913.05	8501.38124
913.228	8111.1176
913.406	8230.32585
913.584	8215.94219
913.762	7895.13702
913.939	7839.56264
914.117	8028.86572
914.295	7827.21072
914.473	8263.19913
914.65	8049.43172
914.828	8158.39786
915.006	7874.55567
915.184	7864.26423
915.361	7678.92903
915.539	7823.09325
915.716	7584.13623
915.894	7744.84543
916.072	7612.99097
916.249	7687.16976
916.427	7643.90214
916.604	7810.74033
916.782	7522.29051
916.959	7689.22989
917.137	7662.44655
917.314	7505.79506
917.492	7303.61325
917.669	7417.10834
917.847	7260.26129
918.024	7202.44354
918.201	7103.28698
918.379	7357.27371
918.556	6894.47657
918.733	7051.62258
918.911	6637.79871
919.088	6697.85974
919.265	6538.34474
919.442	6554.9241
919.62	6586.00641
919.797	6764.11159
919.974	6465.79261
920.151	6716.49545
920.328	6407.73042
920.506	6762.04157
920.683	6355.87375
920.86	6274.94821
921.037	6139.99317
921.214	6283.24991
921.391	6235.51006
921.568	6465.79261
921.745	6447.13175
921.922	6357.9483
922.099	6455.4257
922.276	6482.37846
922.453	6115.06755
922.63	6019.48797
922.807	6117.14482
922.984	6295.70174
923.161	6011.17434
923.338	6187.75783
923.514	6098.44859
923.691	6002.86034
923.868	5757.42762
924.045	6052.73869
924.222	5680.40223
924.399	6075.59506
924.575	5807.37275
924.752	6123.37647
924.929	5565.84535
925.105	5903.06293
925.282	5551.26027
925.459	5661.66144
925.635	5449.13237
925.812	5599.17835
925.989	5332.34566
926.165	5624.17413
926.342	5309.39677
926.518	5449.13237
926.695	5219.66031
926.871	5315.65584
927.048	5111.08417
927.224	5136.14579
927.401	4851.9193
927.577	5140.3224
927.754	4885.37979
927.93	5048.41552
928.107	4678.24956
928.283	4883.28868
928.459	4820.54478
928.636	4797.53354
928.812	4724.2977
928.988	4910.47131
929.165	4669.87601
929.341	4772.42724
929.517	4722.20484
929.693	4634.28437
929.87	4324.1571
930.046	4607.06287
930.222	4254.94198
930.398	4326.25416
930.574	4202.49077
930.751	4345.12675
930.927	4164.71769
931.103	4586.12069
931.279	4160.52026
931.455	4212.98208
931.631	4028.25838
931.807	4280.11382
931.983	4032.45844
932.159	3927.43249
932.335	3658.33872
932.511	3984.15284
932.687	3914.82597
932.863	3982.05235
933.039	3843.37535
933.215	3998.85569
933.391	3969.44899
933.566	4135.33391
933.742	3647.82079
933.918	3797.13035
934.094	3597.32818
934.27	3704.61193
934.445	3302.57807
934.621	3475.26017
934.797	3091.83529
934.973	3340.49398
935.148	3193.01236
935.324	3466.83942
935.5	3060.20992
935.675	2866.16615
935.851	2792.31291
936.027	2914.68883
936.202	2661.44653
936.378	2669.89103
936.553	2543.20276
936.729	2593.88332
936.904	2293.93052
937.08	2397.45963
937.255	2031.84296
937.431	2359.4313
937.606	1917.67295
937.782	2014.93006
937.957	1803.48668
938.133	1824.63334
938.308	1744.27381
938.483	1706.20687
938.659	1482.01906
938.834	1539.12517
939.009	1310.70122
939.185	1515.85979
939.36	1405.87723
939.535	1482.01906
939.71	1141.51062
939.886	1372.0366
940.061	1173.23224
940.236	1207.06958
940.411	1097.10198
940.586	1249.36744
940.761	1004.06271
940.937	1183.80631
941.112	923.72034
941.287	987.14771
941.462	963.89027
941.637	906.80748
941.812	980.80469
941.987	921.6062
942.162	818.02358
942.337	809.56877
942.512	779.97816
942.687	868.75541
942.862	777.86462
943.037	803.22777
943.212	648.95847
943.386	834.93362
943.561	680.65288
943.736	642.61991
943.911	636.28146
944.086	763.0701
944.26	619.37947
944.435	710.23665
944.61	644.73275
944.785	811.68246
944.959	676.4268
945.134	837.04742
945.309	648.95847
945.483	686.99207
945.658	661.63592
945.833	735.59588
946.007	653.18424
946.182	632.05589
946.357	657.41006
946.531	794.77323
946.706	701.78392
946.88	684.87899
947.055	725.02935
947.229	651.07135
947.404	640.50708
947.578	657.41006
947.752	648.95847
947.927	858.18586
948.101	782.09171
948.276	879.32516
948.45	699.67076
948.624	826.47853
948.799	674.31378
948.973	750.38947
949.147	653.18424
949.321	786.31885
949.496	722.91607
949.67	811.68246
949.844	699.67076
950.018	623.60489
950.193	640.50708
950.367	860.29975
950.541	750.38947
950.715	794.77323
950.889	763.0701
951.063	894.12316
951.237	716.57631
951.411	822.25103
951.585	837.04742
951.759	883.55312
951.933	729.25593
952.107	843.38886
952.281	729.25593
952.455	847.61653
952.629	843.38886
952.803	868.75541
952.977	767.29705
953.151	885.66711
953.325	822.25103
953.499	934.29112
953.672	775.75109
953.846	966.00455
954.02	737.70922
954.194	860.29975
954.368	602.47827
954.541	788.43243
954.715	784.20528
954.889	942.74787
955.062	801.11412
955.236	1023.09256
955.41	826.47853
955.583	927.94863
955.757	801.11412
955.93	902.57934
956.104	769.41055
956.278	879.32516
956.451	716.57631
956.625	771.52405
956.798	710.23665
956.972	710.23665
957.145	767.29705
957.319	818.02358
957.492	699.67076
957.665	853.9581
957.839	750.38947
958.012	866.64148
958.185	682.76593
958.359	788.43243
958.532	710.23665
958.705	868.75541
958.879	727.14263
959.052	877.21119
959.225	733.48255
959.398	940.63367
959.572	735.59588
959.745	841.27503
959.918	809.56877
960.091	837.04742
960.264	769.41055
960.438	917.37796
960.611	744.0493
960.784	843.38886
960.957	684.87899
961.13	845.50269
961.303	746.16268
961.476	727.14263
961.649	746.16268
961.822	748.27607
961.995	598.2531
962.168	750.38947
962.341	615.15409
962.514	648.95847
962.686	629.94312
962.859	623.60489
963.032	610.92877
963.205	708.12345
963.378	659.52298
963.551	674.31378
963.723	634.16867
963.896	691.21826
964.069	602.47827
964.242	640.50708
964.414	556.00426
964.587	725.02935
964.76	621.49217
964.932	653.18424
965.105	640.50708
965.278	581.35293
965.45	498.97701
965.623	678.53983
965.795	667.9748
965.968	763.0701
966.14	539.10623
966.313	640.50708
966.485	566.56597
966.658	602.47827
966.83	572.90316
967.003	703.89708
967.175	604.59088
967.348	581.35293
967.52	621.49217
967.692	667.9748
967.865	556.00426
968.037	606.70349
968.209	541.21844
968.382	665.86183
968.554	556.00426
968.726	623.60489
968.898	513.76086
969.071	575.01558
969.243	448.29503
969.415	577.12802
969.587	509.53683
969.759	488.41755
969.932	353.29082
970.104	444.07193
970.276	454.6298
970.448	433.51445
970.62	543.33065
970.792	651.07135
970.964	534.88186
971.136	606.70349
971.308	479.97025
971.48	615.15409
971.652	467.29976
971.824	446.18347
971.996	507.42484
972.168	581.35293
972.339	505.31286
972.511	617.26677
972.683	446.18347
972.855	429.29157
973.027	431.403
973.199	378.62201
973.37	353.29082
973.542	422.95736
973.714	319.51977
973.886	359.62338
974.057	319.51977
974.229	344.84764
974.401	389.17739
974.572	361.73427
974.744	294.19448
974.915	361.73427
975.087	277.31241
975.259	496.86509
975.43	334.29405
975.602	382.84411
975.773	422.95736
975.945	406.06685
976.116	361.73427
976.288	420.84599
976.459	294.19448
976.63	355.40166
976.802	406.06685
976.973	412.40067
977.145	412.40067
977.316	294.19448
977.487	321.63033
977.659	327.96211
977.83	338.51543
978.001	283.64305
978.172	378.62201
978.344	403.95561
978.515	319.51977
978.686	279.42261
978.857	279.42261
979.028	260.43154
979.2	209.7963
979.371	403.95561
979.542	239.33216
979.713	315.29871
979.884	279.42261
980.055	256.21151
980.226	289.97385
980.397	275.20224
980.568	279.42261
980.739	270.98194
980.91	186.59229
981.081	359.62338
981.252	279.42261
981.423	382.84411
981.594	251.99156
981.765	332.18339
981.936	180.26435
982.106	243.55189
982.277	251.99156
982.448	292.08415
982.619	182.37364
982.79	285.7533
982.96	268.87183
983.131	245.66178
983.302	171.82738
983.472	273.09208
983.643	203.46769
983.814	327.96211
983.984	138.08285
984.155	311.07772
984.326	254.10153
984.496	306.8568
984.667	311.07772
984.837	226.67346
985.008	251.99156
985.178	138.08285
985.349	260.43154
985.519	235.11252
985.69	197.13926
985.86	140.19172
986.031	121.21262
986.201	150.73642
986.371	241.44201
986.542	188.70164
986.712	211.90588
986.882	192.92041
987.053	165.49987
987.223	159.17255
987.393	148.62743
987.563	142.30062
987.734	260.43154
987.904	150.73642
988.074	167.60902
988.244	144.40954
988.414	159.17255
988.585	133.86516
988.755	184.48295
988.925	127.53879
989.095	144.40954
989.265	163.39074
989.435	142.30062
989.605	169.71819
989.775	203.46769
989.945	93.80147
990.115	152.84542
990.285	133.86516
990.455	159.17255
990.625	228.7832
990.795	154.95444
990.965	66.39408
991.134	159.17255
991.304	146.51847
991.474	203.46769
991.644	110.66943
991.814	110.66943
991.984	83.25972
992.153	127.53879
992.323	150.73642
992.493	91.69308
992.662	74.82672
992.832	129.64756
993.002	49.5299
993.171	53.7458
993.341	32.66719
993.511	184.48295
993.68	173.93659
993.85	89.5847
994.019	186.59229
994.189	91.69308
994.358	159.17255
994.528	108.56086
994.697	142.30062
994.867	68.5022
995.036	125.43005
995.206	167.60902
995.375	142.30062
995.544	100.12679
995.714	66.39408
995.883	133.86516
996.052	148.62743
996.222	100.12679
996.391	110.66943
996.56	79.04317
996.73	87.47635
996.899	169.71819
997.068	60.06984
997.237	146.51847
997.406	24.2364
997.576	91.69308
997.745	89.5847
997.914	140.19172
998.083	-5.26836
998.252	171.82738
998.421	70.61035
998.59	66.39408
998.759	133.86516
998.928	81.15143
999.097	131.75635
999.266	93.80147
999.435	53.7458
999.604	49.5299
999.773	66.39408
999.942	93.80147
1000.111	57.9618
1000.28	114.88664
1000.448	116.99528
1000.617	49.5299
1000.786	20.02115
1000.955	66.39408
1001.124	57.9618
1001.292	199.24872
1001.461	108.56086
1001.63	152.84542
1001.798	108.56086
1001.967	142.30062
1002.136	116.99528
1002.304	57.9618
1002.473	1.05369
1002.642	43.20621
1002.81	159.17255
1002.979	116.99528
1003.147	131.75635
1003.316	74.82672
1003.484	98.01833
1003.653	26.34407
1003.821	81.15143
1003.99	74.82672
1004.158	51.63784
1004.327	11.59093
1004.495	83.25972
1004.663	7.37596
1004.832	66.39408
1005	116.99528
1005.168	70.61035
1005.337	133.86516
1005.505	83.25972
1005.673	85.36802
1005.842	85.36802
1006.01	57.9618
1006.178	70.61035
1006.346	26.34407
1006.514	15.80599
1006.683	70.61035
1006.851	34.77495
1007.019	100.12679
1007.187	74.82672
1007.355	41.09836
1007.523	74.82672
1007.691	57.9618
1007.859	38.99053
1008.027	108.56086
1008.195	68.5022
1008.363	116.99528
1008.531	93.80147
1008.699	100.12679
1008.867	-5.26836
1009.035	66.39408
1009.203	76.93493
1009.37	87.47635
1009.538	24.2364
1009.706	57.9618
1009.874	72.71852
1010.042	-26.3403
1010.209	9.48343
1010.377	70.61035
1010.545	-3.16104
1010.713	62.17789
1010.88	81.15143
1011.048	20.02115
1011.216	57.9618
1011.383	95.90989
1011.551	51.63784
1011.718	112.77803
1011.886	163.39074
1012.054	91.69308
1012.221	79.04317
1012.389	-7.37567
1012.556	32.66719
1012.724	81.15143
1012.891	32.66719
1013.058	91.69308
1013.226	68.5022
1013.393	32.66719
1013.561	74.82672
1013.728	1.05369
1013.895	26.34407
1014.063	24.2364
1014.23	100.12679
1014.397	112.77803
1014.565	28.45175
1014.732	83.25972
1014.899	-38.98228
1015.066	15.80599
1015.233	72.71852
1015.401	-64.26353
1015.568	70.61035
1015.735	83.25972
1015.902	9.48343
1016.069	41.09836
1016.236	79.04317
1016.403	57.9618
1016.57	17.91356
1016.737	74.82672
1016.904	62.17789
1017.071	45.31408
1017.238	66.39408
1017.405	53.7458
1017.572	66.39408
1017.739	146.51847
1017.906	17.91356
1018.073	24.2364
1018.24	62.17789
1018.407	-7.37567
1018.573	91.69308
1018.74	34.77495
1018.907	62.17789
1019.074	9.48343
1019.241	-17.91182
1019.407	60.06984
1019.574	76.93493
1019.741	60.06984
1019.907	66.39408
1020.074	60.06984
1020.241	-32.6614
1020.407	70.61035
1020.574	41.09836
1020.74	34.77495
1020.907	-1.05368
1021.073	133.86516
1021.24	41.09836
1021.406	119.10394
1021.573	55.85379
1021.739	45.31408
1021.906	-17.91182
1022.072	74.82672
1022.239	32.66719
1022.405	32.66719
1022.571	110.66943
1022.738	20.02115
1022.904	7.37596
1023.07	76.93493
1023.237	5.26851
1023.403	76.93493
1023.569	36.88273
1023.735	68.5022
1023.902	26.34407
1024.068	24.2364
1024.234	49.5299
1024.4	32.66719
1024.566	-15.80464
1024.732	34.77495
1024.898	24.2364
1025.065	17.91356
1025.231	-17.91182
1025.397	89.5847
1025.563	-49.51657
1025.729	32.66719
1025.895	60.06984
1026.061	1.05369
1026.227	49.5299
1026.392	43.20621
1026.558	43.20621
1026.724	38.99053
1026.89	66.39408
1027.056	3.16109
1027.222	47.42198
1027.388	74.82672
1027.553	20.02115
1027.719	91.69308
1027.885	34.77495
1028.051	66.39408
1028.216	15.80599
1028.382	11.59093
1028.548	17.91356
1028.713	57.9618
1028.879	22.12877
1029.045	95.90989
1029.21	32.66719
1029.376	91.69308
1029.541	55.85379
1029.707	91.69308
1029.873	41.09836
1030.038	28.45175
1030.204	36.88273
1030.369	13.69845
1030.534	7.37596
1030.7	45.31408
1030.865	83.25972
1031.031	53.7458
1031.196	51.63784
1031.361	-11.5902
1031.527	36.88273
1031.692	43.20621
1031.857	123.32132
1032.023	95.90989
1032.188	49.5299
1032.353	-17.91182
1032.518	20.02115
1032.684	43.20621
1032.849	-11.5902
1033.014	43.20621
1033.179	41.09836
1033.344	114.88664
1033.509	34.77495
1033.674	51.63784
1033.839	76.93493
1034.004	11.59093
1034.17	55.85379
1034.335	-1.05368
1034.5	95.90989
1034.664	53.7458
1034.829	66.39408
1034.994	-13.69743
1035.159	49.5299
1035.324	91.69308
1035.489	51.63784
1035.654	-1.05368
1035.819	1.05369
1035.984	-43.19607
1036.148	64.28597
1036.313	49.5299
1036.478	-26.3403
1036.643	49.5299
1036.807	3.16109
1036.972	49.5299
1037.137	55.85379
1037.301	-26.3403
1037.466	32.66719
1037.631	127.53879
1037.795	43.20621
1037.96	62.17789
1038.124	20.02115
1038.289	15.80599
1038.454	3.16109
1038.618	45.31408
1038.783	43.20621
1038.947	79.04317
1039.111	-9.48295
1039.276	-11.5902
1039.44	74.82672
1039.605	53.7458
1039.769	51.63784
1039.933	24.2364
1040.098	15.80599
1040.262	36.88273
1040.426	24.2364
1040.591	49.5299
1040.755	70.61035
1040.919	53.7458
1041.083	93.80147
1041.248	49.5299
1041.412	7.37596
1041.576	-43.19607
1041.74	32.66719
1041.904	11.59093
1042.068	41.09836
1042.232	79.04317
1042.397	64.28597
1042.561	55.85379
1042.725	15.80599
1042.889	79.04317
1043.053	93.80147
1043.217	66.39408
1043.381	15.80599
1043.544	7.37596
1043.708	68.5022
1043.872	66.39408
1044.036	104.34378
1044.2	49.5299
1044.364	-9.48295
1044.528	24.2364
1044.691	87.47635
1044.855	-22.12611
1045.019	-3.16104
1045.183	17.91356
1045.346	13.69845
1045.51	-32.6614
1045.674	1.05369
1045.837	47.42198
1046.001	66.39408
1046.165	41.09836
1046.328	36.88273
1046.492	15.80599
1046.655	3.16109
1046.819	57.9618
1046.983	49.5299
1047.146	108.56086
1047.31	45.31408
1047.473	119.10394
1047.636	62.17789
1047.8	24.2364
1047.963	57.9618
1048.127	15.80599
1048.29	-30.55439
