Data from mixed_try1_USB4F045381__37__00102.txt Node

Date: Thu Apr 03 19:57:39 EDT 2025
User: mmckonesweet
Spectrometer: USB4F04538
Trigger mode: 4
Integration Time (sec): 2.700000E-3
Scans to average: 1
Electric dark correction enabled: true
Nonlinearity correction enabled: true
Boxcar width: 0
XAxis mode: Wavelengths
Number of Pixels in Spectrum: 3648
>>>>>Begin Spectral Data<<<<<
345.52	-60.05024
345.736	-60.05024
345.952	-60.05024
346.168	-13.69743
346.384	-49.51657
346.6	70.61035
346.816	13.69845
347.032	-51.62336
347.248	3.16109
347.464	20.02115
347.68	-22.12611
347.896	-45.30293
348.112	-5.26836
348.328	-5.26836
348.544	13.69845
348.76	-11.5902
348.975	20.02115
349.191	11.59093
349.407	7.37596
349.623	32.66719
349.839	53.7458
350.055	9.48343
350.27	7.37596
350.486	-13.69743
350.702	13.69845
350.918	-11.5902
351.133	-24.23321
351.349	-5.26836
351.565	-95.85994
351.781	-9.48295
351.996	64.28597
352.212	-62.1569
352.428	11.59093
352.644	38.99053
352.859	38.99053
353.075	57.9618
353.291	-62.1569
353.506	-13.69743
353.722	57.9618
353.938	-26.3403
354.153	43.20621
354.369	-22.12611
354.584	-30.55439
354.8	-26.3403
355.016	49.5299
355.231	-97.96616
355.447	-53.73012
355.662	-7.37567
355.878	20.02115
356.093	-34.76838
356.309	28.45175
356.524	30.55946
356.74	20.02115
356.955	36.88273
357.171	57.9618
357.386	5.26851
357.602	20.02115
357.817	22.12877
358.033	22.12877
358.248	-22.12611
358.464	-1.05368
358.679	20.02115
358.895	20.02115
359.11	36.88273
359.325	5.26851
359.541	13.69845
359.756	64.28597
359.972	-22.12611
360.187	-32.6614
360.402	30.55946
360.618	20.02115
360.833	83.25972
361.048	53.7458
361.264	-7.37567
361.479	24.2364
361.694	7.37596
361.909	36.88273
362.125	57.9618
362.34	3.16109
362.555	95.90989
362.77	22.12877
362.986	-43.19607
363.201	49.5299
363.416	-47.40976
363.631	121.21262
363.847	-28.44736
364.062	5.26851
364.277	24.2364
364.492	-30.55439
364.707	-64.26353
364.922	-11.5902
365.138	20.02115
365.353	45.31408
365.568	-28.44736
365.783	26.34407
365.998	-15.80464
366.213	1.05369
366.428	-47.40976
366.643	-13.69743
366.858	-1.05368
367.073	38.99053
367.288	36.88273
367.503	-13.69743
367.718	-30.55439
367.933	5.26851
368.148	28.45175
368.363	-22.12611
368.578	-3.16104
368.793	45.31408
369.008	79.04317
369.223	22.12877
369.438	49.5299
369.653	70.61035
369.868	70.61035
370.083	11.59093
370.298	20.02115
370.513	-81.11567
370.728	36.88273
370.943	53.7458
371.157	28.45175
371.372	45.31408
371.587	22.12877
371.802	7.37596
372.017	-7.37567
372.232	20.02115
372.446	47.42198
372.661	-13.69743
372.876	15.80599
373.091	62.17789
373.306	22.12877
373.52	17.91356
373.735	1.05369
373.95	15.80599
374.165	28.45175
374.379	43.20621
374.594	26.34407
374.809	53.7458
375.023	36.88273
375.238	28.45175
375.453	5.26851
375.667	22.12877
375.882	-43.19607
376.097	-20.01897
376.311	36.88273
376.526	-3.16104
376.741	45.31408
376.955	-51.62336
377.17	55.85379
377.384	123.32132
377.599	13.69845
377.813	11.59093
378.028	53.7458
378.242	15.80599
378.457	22.12877
378.672	11.59093
378.886	-20.01897
379.101	9.48343
379.315	-5.26836
379.53	11.59093
379.744	-41.08919
379.958	62.17789
380.173	-7.37567
380.387	11.59093
380.602	51.63784
380.816	-5.26836
381.031	3.16109
381.245	17.91356
381.459	-106.39078
381.674	49.5299
381.888	98.01833
382.103	11.59093
382.317	7.37596
382.531	7.37596
382.746	11.59093
382.96	3.16109
383.174	45.31408
383.388	53.7458
383.603	-47.40976
383.817	-3.16104
384.031	-38.98228
384.246	-22.12611
384.46	-13.69743
384.674	-43.19607
384.888	28.45175
385.103	-57.94356
385.317	-5.26836
385.531	-13.69743
385.745	-3.16104
385.959	76.93493
386.174	15.80599
386.388	119.10394
386.602	32.66719
386.816	-5.26836
387.03	-38.98228
387.244	36.88273
387.458	-36.87534
387.672	30.55946
387.887	41.09836
388.101	-11.5902
388.315	5.26851
388.529	3.16109
388.743	26.34407
388.957	13.69845
389.171	-28.44736
389.385	-9.48295
389.599	28.45175
389.813	-3.16104
390.027	-17.91182
390.241	36.88273
390.455	-5.26836
390.669	13.69845
390.883	20.02115
391.097	-7.37567
391.311	-43.19607
391.525	-51.62336
391.738	45.31408
391.952	28.45175
392.166	47.42198
392.38	28.45175
392.594	49.5299
392.808	36.88273
393.022	-13.69743
393.236	11.59093
393.449	74.82672
393.663	89.5847
393.877	15.80599
394.091	-11.5902
394.305	-28.44736
394.518	49.5299
394.732	95.90989
394.946	3.16109
395.16	70.61035
395.373	45.31408
395.587	72.71852
395.801	30.55946
396.015	41.09836
396.228	62.17789
396.442	15.80599
396.656	55.85379
396.869	20.02115
397.083	70.61035
397.297	7.37596
397.51	-11.5902
397.724	7.37596
397.938	11.59093
398.151	53.7458
398.365	57.9618
398.578	11.59093
398.792	108.56086
399.005	32.66719
399.219	-26.3403
399.433	70.61035
399.646	38.99053
399.86	-3.16104
400.073	22.12877
400.287	-47.40976
400.5	60.06984
400.714	3.16109
400.927	32.66719
401.141	76.93493
401.354	-11.5902
401.567	-34.76838
401.781	47.42198
401.994	36.88273
402.208	9.48343
402.421	-26.3403
402.635	79.04317
402.848	15.80599
403.061	-5.26836
403.275	-28.44736
403.488	-9.48295
403.701	-22.12611
403.915	3.16109
404.128	49.5299
404.341	-13.69743
404.555	11.59093
404.768	87.47635
404.981	70.61035
405.195	28.45175
405.408	-9.48295
405.621	47.42198
405.834	-17.91182
406.048	-47.40976
406.261	-38.98228
406.474	5.26851
406.687	28.45175
406.9	15.80599
407.114	3.16109
407.327	13.69845
407.54	34.77495
407.753	-22.12611
407.966	62.17789
408.179	24.2364
408.392	7.37596
408.605	-17.91182
408.819	20.02115
409.032	79.04317
409.245	-26.3403
409.458	3.16109
409.671	22.12877
409.884	20.02115
410.097	13.69845
410.31	28.45175
410.523	38.99053
410.736	28.45175
410.949	3.16109
411.162	43.20621
411.375	-13.69743
411.588	32.66719
411.801	53.7458
412.014	20.02115
412.227	104.34378
412.44	15.80599
412.653	-13.69743
412.865	-30.55439
413.078	45.31408
413.291	30.55946
413.504	70.61035
413.717	38.99053
413.93	13.69845
414.143	3.16109
414.356	-72.68981
414.568	36.88273
414.781	45.31408
414.994	83.25972
415.207	5.26851
415.42	62.17789
415.632	-47.40976
415.845	81.15143
416.058	3.16109
416.271	32.66719
416.483	36.88273
416.696	57.9618
416.909	76.93493
417.121	5.26851
417.334	53.7458
417.547	-34.76838
417.759	36.88273
417.972	11.59093
418.185	-17.91182
418.397	70.61035
418.61	22.12877
418.823	55.85379
419.035	-20.01897
419.248	45.31408
419.46	55.85379
419.673	95.90989
419.885	20.02115
420.098	64.28597
420.311	-9.48295
420.523	-15.80464
420.736	-1.05368
420.948	91.69308
421.161	11.59093
421.373	45.31408
421.586	95.90989
421.798	-3.16104
422.01	-5.26836
422.223	41.09836
422.435	-45.30293
422.648	83.25972
422.86	32.66719
423.073	11.59093
423.285	57.9618
423.497	20.02115
423.71	100.12679
423.922	112.77803
424.134	-11.5902
424.347	43.20621
424.559	70.61035
424.771	53.7458
424.984	41.09836
425.196	53.7458
425.408	32.66719
425.621	51.63784
425.833	74.82672
426.045	-3.16104
426.257	57.9618
426.47	-5.26836
426.682	83.25972
426.894	-7.37567
427.106	-22.12611
427.318	74.82672
427.531	11.59093
427.743	7.37596
427.955	28.45175
428.167	36.88273
428.379	53.7458
428.591	26.34407
428.804	1.05369
429.016	49.5299
429.228	30.55946
429.44	28.45175
429.652	81.15143
429.864	38.99053
430.076	5.26851
430.288	28.45175
430.5	49.5299
430.712	53.7458
430.924	36.88273
431.136	-26.3403
431.348	9.48343
431.56	62.17789
431.772	-22.12611
431.984	22.12877
432.196	129.64756
432.408	11.59093
432.62	57.9618
432.832	87.47635
433.044	62.17789
433.256	28.45175
433.468	87.47635
433.679	5.26851
433.891	38.99053
434.103	-22.12611
434.315	-22.12611
434.527	7.37596
434.739	79.04317
434.95	20.02115
435.162	55.85379
435.374	89.5847
435.586	3.16109
435.798	30.55946
436.009	3.16109
436.221	20.02115
436.433	70.61035
436.645	-38.98228
436.856	79.04317
437.068	53.7458
437.28	70.61035
437.491	-5.26836
437.703	70.61035
437.915	51.63784
438.126	32.66719
438.338	20.02115
438.55	121.21262
438.761	108.56086
438.973	32.66719
439.184	47.42198
439.396	98.01833
439.608	38.99053
439.819	51.63784
440.031	3.16109
440.242	20.02115
440.454	20.02115
440.665	3.16109
440.877	100.12679
441.088	11.59093
441.3	32.66719
441.511	79.04317
441.723	-41.08919
441.934	45.31408
442.146	13.69845
442.357	70.61035
442.569	22.12877
442.78	28.45175
442.991	-43.19607
443.203	74.82672
443.414	47.42198
443.626	91.69308
443.837	70.61035
444.048	-45.30293
444.26	-20.01897
444.471	20.02115
444.682	53.7458
444.894	20.02115
445.105	62.17789
445.316	30.55946
445.528	47.42198
445.739	5.26851
445.95	20.02115
446.161	-22.12611
446.373	55.85379
446.584	57.9618
446.795	34.77495
447.006	57.9618
447.217	36.88273
447.429	43.20621
447.64	57.9618
447.851	72.71852
448.062	22.12877
448.273	-74.79631
448.484	121.21262
448.695	28.45175
448.907	81.15143
449.118	129.64756
449.329	70.61035
449.54	49.5299
449.751	24.2364
449.962	129.64756
450.173	93.80147
450.384	41.09836
450.595	47.42198
450.806	36.88273
451.017	34.77495
451.228	112.77803
451.439	-62.1569
451.65	55.85379
451.861	-28.44736
452.072	64.28597
452.283	142.30062
452.494	-17.91182
452.705	64.28597
452.915	38.99053
453.126	3.16109
453.337	79.04317
453.548	53.7458
453.759	51.63784
453.97	-13.69743
454.181	47.42198
454.391	36.88273
454.602	95.90989
454.813	98.01833
455.024	49.5299
455.235	114.88664
455.445	106.45231
455.656	95.90989
455.867	-20.01897
456.078	64.28597
456.288	32.66719
456.499	60.06984
456.71	36.88273
456.921	66.39408
457.131	3.16109
457.342	57.9618
457.553	47.42198
457.763	146.51847
457.974	51.63784
458.184	104.34378
458.395	45.31408
458.606	64.28597
458.816	53.7458
459.027	47.42198
459.237	13.69845
459.448	22.12877
459.659	72.71852
459.869	49.5299
460.08	76.93493
460.29	106.45231
460.501	89.5847
460.711	127.53879
460.922	64.28597
461.132	64.28597
461.343	98.01833
461.553	87.47635
461.764	57.9618
461.974	112.77803
462.184	100.12679
462.395	114.88664
462.605	76.93493
462.816	47.42198
463.026	100.12679
463.236	119.10394
463.447	165.49987
463.657	72.71852
463.867	119.10394
464.078	83.25972
464.288	79.04317
464.498	66.39408
464.709	28.45175
464.919	129.64756
465.129	70.61035
465.339	180.26435
465.55	38.99053
465.76	74.82672
465.97	87.47635
466.18	119.10394
466.391	127.53879
466.601	140.19172
466.811	95.90989
467.021	89.5847
467.231	138.08285
467.441	121.21262
467.651	108.56086
467.862	98.01833
468.072	163.39074
468.282	148.62743
468.492	114.88664
468.702	104.34378
468.912	146.51847
469.122	116.99528
469.332	201.3582
469.542	165.49987
469.752	154.95444
469.962	140.19172
470.172	188.70164
470.382	173.93659
470.592	188.70164
470.802	192.92041
471.012	144.40954
471.222	186.59229
471.432	184.48295
471.642	116.99528
471.852	146.51847
472.062	277.31241
472.272	207.68674
472.482	214.01547
472.691	239.33216
472.901	273.09208
473.111	239.33216
473.321	197.13926
473.531	283.64305
473.741	233.00273
473.95	285.7533
474.16	233.00273
474.37	264.65165
474.58	325.8515
474.79	338.51543
474.999	359.62338
475.209	374.39997
475.419	315.29871
475.628	365.95611
475.838	298.41518
476.048	296.30482
476.258	342.73688
476.467	431.403
476.677	370.17801
476.886	389.17739
477.096	463.07638
477.306	420.84599
477.515	399.73318
477.725	477.85847
477.935	450.40661
478.144	547.55513
478.354	484.19387
478.563	591.91544
478.773	458.85306
478.982	517.98495
479.192	532.7697
479.401	594.02798
479.611	524.32118
479.82	653.18424
480.03	581.35293
480.239	644.73275
480.449	589.80291
480.658	676.4268
480.868	712.34986
481.077	773.63756
481.287	737.70922
481.496	796.88685
481.705	822.25103
481.915	813.79616
482.124	733.48255
482.333	923.72034
482.543	767.29705
482.752	900.46529
482.961	824.36477
483.171	1016.74922
483.38	788.43243
483.589	1008.29152
483.799	993.49078
484.008	1008.29152
484.217	987.14771
484.426	1209.18444
484.636	1120.3634
484.845	1319.1612
485.054	1173.23224
485.263	1291.6664
485.472	1120.3634
485.682	1317.0462
485.891	1177.46186
486.1	1384.72681
486.309	1329.7362
486.518	1482.01906
486.727	1355.11638
486.936	1422.79762
487.146	1342.42626
487.355	1482.01906
487.564	1397.41706
487.773	1482.01906
487.982	1575.08049
488.191	1630.07006
488.4	1704.09201
488.609	1704.09201
488.818	1676.59853
489.027	1784.45431
489.236	1575.08049
489.445	1879.61248
489.654	1697.7474
489.863	1966.30312
490.072	1847.89414
490.281	1873.2689
490.49	1811.94539
490.698	1998.01672
490.907	1873.2689
491.116	2074.12331
491.325	1917.67295
491.534	2253.78036
491.743	1921.90178
491.952	2120.62833
492.16	2101.60399
492.369	2124.85588
492.578	2116.40076
492.787	2190.37879
492.996	2277.0256
493.204	2323.51267
493.413	2312.94783
493.622	2401.68479
493.831	2329.85146
494.039	2486.17912
494.248	2549.53821
494.457	2393.23442
494.665	2384.78389
494.874	2505.18792
495.083	2606.55238
495.291	2587.54863
495.5	2507.29996
495.709	2842.95698
495.917	2503.07588
496.126	2728.99679
496.335	2659.33537
496.543	2887.2639
496.752	2817.63594
496.96	2963.20381
497.169	2737.43963
497.377	2883.04447
497.586	3026.47233
497.794	2967.42214
498.003	2674.1132
498.211	2977.96768
498.42	2910.46977
498.628	3125.56509
498.837	3015.92853
499.045	3037.01575
499.254	3045.45021
499.462	3093.94352
499.671	3205.65686
499.879	3226.7297
500.087	3199.33468
500.296	3391.03978
500.504	3199.33468
500.713	3264.65662
500.921	3329.96234
501.129	3412.09755
501.338	3369.98026
501.546	3603.64035
501.754	3281.51128
501.962	3593.11997
502.171	3635.19866
502.379	3677.26979
502.587	3563.66044
502.795	3508.94027
503.004	3483.68063
503.212	3700.40566
503.42	3437.36453
503.628	3780.31162
503.837	3588.91169
504.045	3816.04991
504.253	3778.20919
504.461	3845.47716
504.669	3801.33483
504.877	3805.53924
505.085	3645.71715
505.294	4017.75788
505.502	3837.06977
505.71	3975.75076
505.918	3927.43249
506.126	3973.65019
506.334	3675.16641
506.542	4223.47285
506.75	3763.49165
506.958	4338.83608
507.166	4074.45445
507.374	4273.82115
507.582	4145.82859
507.79	4053.45748
507.998	4076.55404
508.206	4233.96309
508.414	4093.34995
508.622	4269.62593
508.83	4206.68736
509.037	4200.39245
509.245	4156.32275
509.453	4363.99759
509.661	4275.91873
509.869	4246.55068
510.077	4298.99067
510.285	4493.94868
510.492	4298.99067
510.7	4479.28101
510.908	4273.82115
511.116	4586.12069
511.324	4525.37578
511.531	4642.65946
511.739	4477.18554
511.947	4642.65946
512.155	4340.933
512.362	4659.40855
512.57	4623.81501
512.778	4661.50209
512.985	4577.74319
513.193	4761.96531
513.401	4594.49783
513.608	4715.92612
513.816	4663.5956
514.024	4470.89899
514.231	4686.62276
514.439	4826.82009
514.646	4634.28437
514.854	4946.01198
515.061	4701.27499
515.269	5056.77255
515.477	4847.73632
515.684	5040.05813
515.892	4994.08584
516.099	4843.55326
516.307	5102.72956
516.514	5094.37457
516.722	5040.05813
516.929	5165.38011
517.136	5037.96872
517.344	5257.22967
517.551	4969.00535
517.759	5255.14268
517.966	5169.55607
518.173	5282.2717
518.381	5138.2341
518.588	5280.18499
518.796	5238.44593
519.003	5344.86204
519.21	5163.29209
519.418	5530.42243
519.625	5388.66273
519.832	5403.26066
520.039	5286.44505
520.247	5503.32972
520.454	5642.91874
520.661	5609.59367
520.868	5319.82844
521.076	5880.18504
521.283	5728.28668
521.49	5603.34455
521.697	5303.13749
521.904	5751.18352
522.112	5592.92887
522.319	5857.3043
522.526	5615.84258
522.733	5915.54058
522.94	5846.90301
523.147	5805.29198
523.354	5580.42928
523.561	5792.80683
523.768	5719.95985
523.975	5963.3637
524.183	5711.63264
524.39	5928.01738
524.597	6169.06879
524.804	6063.1283
525.011	5971.67949
525.218	5982.0737
525.425	6121.29928
525.632	5982.0737
525.838	5988.30994
526.045	6135.83914
526.252	6027.80121
526.459	6202.29243
526.666	6231.35819
526.873	6210.5974
527.08	6260.41935
527.287	6434.69013
527.494	6270.79723
527.701	6322.67783
527.907	6380.76677
528.114	6633.65585
528.321	6418.10001
528.528	6658.5116
528.735	6306.07763
528.941	6380.76677
529.148	6223.05415
529.355	6606.72506
529.562	6320.60289
529.768	6554.9241
529.975	6301.92734
530.182	6498.96282
530.388	6592.22224
530.595	6606.72506
530.802	6561.14098
531.008	6865.51438
531.215	6873.78975
531.422	7103.28698
531.628	6908.956
531.835	6791.01971
532.042	6882.06475
532.248	6848.96256
532.455	6774.46132
532.661	6944.11571
532.868	6911.0244
533.074	6981.33652
533.281	7130.14694
533.487	7142.54258
533.694	6844.82437
533.9	7262.32589
534.107	6942.04767
534.313	7322.1897
534.52	7006.14633
534.726	7336.63682
534.933	7136.34486
535.139	7289.16367
535.345	7111.55198
535.552	7322.1897
535.758	7173.52817
535.965	7445.98748
536.171	7361.40082
536.377	7685.10961
536.584	7247.87323
536.79	7194.18245
536.996	7666.5673
537.203	7349.01922
537.409	7190.05177
537.615	7402.66717
537.821	7454.23788
538.028	7652.14431
538.234	7419.17127
538.44	7662.44655
538.646	7509.91905
538.853	7633.59895
539.059	7497.54682
539.265	7654.2048
539.471	7627.41678
539.677	7505.79506
539.883	7849.85533
540.09	7753.08346
540.296	7641.84155
540.502	7800.44566
540.708	7753.08346
540.914	7954.81128
541.12	7759.26177
541.326	8026.80901
541.532	7853.97226
541.738	8037.09237
541.944	7831.32811
542.15	7835.44541
542.356	7736.60706
542.562	8065.88307
542.768	8032.97909
542.974	8152.23147
543.18	8014.46832
543.386	8275.52531
543.592	8234.43528
543.798	8102.89387
544.004	8084.38928
544.21	8521.90207
544.415	8139.89815
544.621	8324.82298
544.827	8181.00642
545.033	8244.70853
545.239	8333.03817
545.445	8482.91086
545.651	8394.64213
545.856	8683.95045
546.062	8620.37577
546.268	8480.8585
546.474	8374.10941
546.679	8497.27684
546.885	8339.19935
547.091	8404.90776
547.297	8402.85467
547.502	8341.25304
547.708	8482.91086
547.914	8534.21366
548.119	8464.43894
548.325	8642.93657
548.531	8468.54395
548.736	8431.59615
548.942	8503.43341
549.147	8593.71008
549.353	8925.78339
549.559	8716.75623
549.764	8786.4529
549.97	8987.22648
550.175	8626.52894
550.381	8960.6031
550.586	8837.68702
550.792	9028.17974
550.997	8841.78526
551.203	9028.17974
551.408	8698.30356
551.614	9058.89009
551.819	9091.6435
552.025	9185.785
552.23	9067.07886
552.435	9335.10998
552.641	9255.34473
552.846	9271.7089
553.052	9216.47552
553.257	9404.62842
553.462	9228.75066
553.668	9420.98295
553.873	9373.96085
554.078	9455.73288
554.283	9357.60332
554.489	9414.85012
554.694	9506.82727
554.899	9639.62622
555.105	9392.36183
555.31	9470.04032
555.515	9488.43444
555.72	9741.73447
555.925	9247.16224
556.131	9800.93978
556.336	9373.96085
556.541	9474.12802
556.746	9427.11563
556.951	9660.05095
557.156	9220.5673
557.361	9743.77625
557.567	9664.13571
557.772	9843.8047
557.977	9639.62622
558.182	9588.55757
558.387	9641.66876
558.592	9823.39366
558.797	9700.89578
559.002	9670.26274
559.207	9582.42867
559.412	9933.59569
559.617	9615.11448
559.822	9802.98112
560.027	9666.17807
560.232	9564.04113
560.437	9770.31794
560.642	9880.54083
560.847	9872.37766
561.051	10178.33827
561.256	9807.06375
561.461	9884.62232
561.666	9864.21425
561.871	10113.09348
562.076	9921.35314
562.281	10060.07153
562.485	9892.78514
562.69	10078.42636
562.895	9688.64298
563.1	10037.63629
563.305	10088.623
563.509	9996.84052
563.714	10035.59664
563.919	10239.49243
564.123	10027.43789
564.328	10259.87443
564.533	10019.27891
564.737	10278.21706
564.942	9939.71676
565.147	10422.88223
565.351	10325.08775
565.556	10257.83629
565.761	10274.14102
565.965	10386.21285
566.17	10239.49243
566.374	10483.98854
566.579	10176.29959
566.784	10382.13821
566.988	10196.68582
567.193	10406.58525
567.397	10170.18345
567.602	10439.17839
567.806	10125.32796
568.011	10577.66258
568.215	10143.67875
568.42	10437.14141
568.624	10508.42783
568.828	10428.99339
569.033	10286.369
569.237	10520.64679
569.442	10524.71967
569.646	10598.02298
569.85	10608.20272
570.055	10642.81151
570.259	10638.74007
570.463	10685.55865
570.668	10504.35474
570.872	10773.07188
571.076	10555.26469
571.281	10848.35641
571.485	10652.98989
571.689	10771.03694
571.893	10803.59457
572.098	10921.59098
572.302	10691.66494
572.506	10789.35098
572.71	10724.23002
572.914	10626.52546
573.119	10964.30433
573.323	10852.42539
573.527	10614.31041
573.731	10974.47344
573.935	10945.99922
574.139	11098.51433
574.343	10821.90692
574.547	11126.97702
574.751	11110.71288
574.955	11053.78298
575.159	10858.52877
575.364	11047.68284
575.568	11163.56882
575.772	11287.54911
575.976	10907.35209
576.18	10880.90695
576.383	11248.93643
576.587	11419.6176
576.791	11100.54745
576.995	11259.09802
577.199	11187.96145
577.403	11267.2271
577.607	11360.69993
577.811	11470.4021
578.015	11322.09418
578.219	11667.39009
578.422	11340.38156
578.626	11218.45011
578.83	11295.67762
579.034	11480.55827
579.238	11196.09199
579.442	11462.27698
579.645	11378.98561
579.849	11720.17641
580.053	11448.05766
580.257	11454.15172
580.46	11261.1303
580.664	11387.11232
580.868	11376.95391
581.071	11362.73171
581.275	11502.90102
581.479	11543.52127
581.682	11679.57208
581.886	12063.14726
582.09	11466.33956
582.293	11657.23819
582.497	11764.8371
582.7	11841.96844
582.904	12006.33979
583.107	11819.64221
583.311	11797.31496
583.515	11821.67191
583.718	11535.39752
583.922	11789.1957
584.125	11823.7016
584.329	11874.44113
584.532	11754.68731
584.735	12158.48907
584.939	11663.32936
585.142	11870.38216
585.346	11856.17551
585.549	11963.73012
585.753	11933.29247
585.956	12089.52009
586.159	11963.73012
586.363	12162.54579
586.566	12061.11853
586.769	12203.11144
586.973	12065.17599
587.176	12300.45713
587.379	12036.77313
587.582	12328.84654
587.786	12255.84241
587.989	12426.17142
588.192	12097.63454
588.395	12363.31756
588.599	12399.81414
588.802	12288.28982
589.005	12199.05501
589.208	12582.26494
589.411	12304.51284
589.615	12365.34521
589.818	12300.45713
590.021	12324.79099
590.224	12178.77241
590.427	12525.50806
590.63	12395.75907
590.833	12604.56095
591.036	12414.00666
591.239	12801.13989
591.442	12474.82806
591.645	12564.0222
591.848	12472.80077
592.051	12740.34814
592.254	12624.8294
592.457	12598.4803
592.66	12604.56095
592.863	12588.34575
593.066	12647.124
593.269	12766.69186
593.472	12561.99519
593.675	12703.87061
593.878	12799.11358
594.081	12878.13559
594.284	12462.66425
594.486	12788.98195
594.689	12892.31815
594.892	12870.03115
595.095	12714.00344
595.298	13123.25595
595.5	12880.16168
595.703	12949.04581
595.906	13226.55
596.109	13017.92396
596.311	12878.13559
596.514	12938.91617
596.717	13074.64281
596.92	13344.00774
597.122	13236.67623
597.325	13009.82095
597.528	12880.16168
597.73	13285.28066
597.933	12833.5601
598.136	13171.86639
598.338	13074.64281
598.541	13315.65717
598.743	13175.91714
598.946	13404.75626
599.148	13036.15544
599.351	12890.29208
599.554	13252.87799
599.756	13337.93269
599.959	13392.60684
600.161	13323.75742
600.363	13473.6003
600.566	13722.61884
600.768	13242.75192
600.971	13275.15494
601.173	13495.87243
601.376	13568.75993
601.578	13123.25595
601.78	13370.33254
601.983	13341.98273
602.185	13341.98273
602.388	13208.32249
602.59	13346.03275
602.792	13192.11996
602.995	13684.1559
603.197	13335.90766
603.399	13738.81342
603.601	13350.08275
603.804	13722.61884
604.006	13530.29211
604.208	13603.17743
604.41	13609.251
604.613	13601.1529
604.815	13684.1559
605.017	13629.49602
605.219	13360.2077
605.421	13629.49602
605.623	13627.47153
605.826	13706.42406
606.028	13368.30758
606.23	13372.3575
606.432	13653.7896
606.634	13846.09764
606.836	13390.58193
607.038	13738.81342
607.24	13459.42689
607.442	13862.29078
607.644	13856.21837
607.846	13876.45962
608.048	13657.83848
608.25	13755.00781
608.452	13757.03209
608.654	14155.76279
608.856	13755.00781
609.058	13649.7407
609.26	13914.91724
609.462	13949.32588
609.664	13827.88015
609.866	13821.8076
610.067	13961.46992
610.269	13819.78341
610.471	13433.10435
610.673	13888.60424
610.875	13795.49292
611.077	13726.66751
611.278	13584.95653
611.48	13763.10493
611.682	13789.42023
611.884	13773.22626
612.085	13669.98505
612.287	13957.42191
612.489	13811.68663
612.69	14159.81034
612.892	13985.75773
613.094	14252.9017
613.295	13512.07006
613.497	13740.83773
613.699	13975.63785
613.9	14161.83411
614.102	14042.4279
614.304	13900.74876
614.505	13617.34905
614.707	14277.18573
614.908	13499.92186
615.11	13941.22979
615.311	13799.54136
615.513	13797.51714
615.714	13896.7006
615.916	14133.50113
616.117	13635.56946
616.319	14097.07239
616.52	13825.85597
616.722	14121.35829
616.923	14010.04518
617.124	13945.27784
617.326	13880.50784
617.527	13894.67651
617.729	13900.74876
617.93	14153.73902
618.131	14074.81002
618.333	13918.96536
618.534	13916.9413
618.735	14238.73589
618.937	14014.09306
619.138	14228.6174
619.339	14010.04518
619.54	13985.75773
619.742	14155.76279
619.943	14321.70578
620.144	13852.17009
620.345	14194.21416
620.546	14107.19155
620.748	14224.56999
620.949	13781.32326
621.15	14236.7122
621.351	13953.3739
621.552	13959.44592
621.753	13957.42191
621.954	13951.34989
622.155	13829.90433
622.356	14026.23662
622.558	14068.73842
622.759	14232.6648
622.96	13916.9413
623.161	14180.04795
623.362	14228.6174
623.563	14327.77663
623.764	13880.50784
623.965	14420.86113
624.166	14198.26163
624.366	14301.4695
624.567	14250.87802
624.768	14277.18573
624.969	14176.00045
625.17	14303.49314
625.371	14050.52349
625.572	14095.04855
625.773	13995.87754
625.973	14315.63491
626.174	14263.02008
626.375	14337.89468
626.576	14228.6174
626.777	14082.90546
626.977	13963.49392
627.178	14406.69631
627.379	14105.16772
627.58	14362.17782
627.78	14157.78657
627.981	14256.94906
628.182	14167.90541
628.382	14366.22499
628.583	14343.96549
628.784	14629.27854
628.984	13979.68581
629.185	14099.09622
629.386	14070.76229
629.586	14368.24857
629.787	14572.62269
629.987	14489.66065
630.188	14072.78616
630.388	14503.82505
630.589	14143.6201
630.79	14362.17782
630.99	14406.69631
631.191	14758.77466
631.391	14613.09125
631.591	14479.54317
631.792	14364.20141
631.992	14607.02099
632.193	14542.27097
632.393	14847.80129
632.594	14520.01286
632.794	14781.03145
632.994	14957.05966
633.195	14811.38147
633.395	14408.71986
633.595	14275.16207
633.796	14382.4136
633.996	14643.44237
634.196	14382.4136
634.397	14756.75131
634.597	14352.05987
634.797	14633.32536
634.997	14754.72796
635.198	14671.76988
635.398	14459.30812
635.598	14584.76331
635.798	14380.39003
635.998	14281.23305
636.199	14313.61129
636.399	14953.01308
636.599	14380.39003
636.799	14532.15367
636.999	14186.1192
637.199	14511.91897
637.399	14119.33448
637.599	14463.35514
637.799	14074.81002
637.999	14673.79327
638.199	14487.63715
638.399	14590.8336
638.599	14380.39003
638.799	14596.90388
638.999	14839.70801
639.199	15050.13067
639.399	14762.82136
639.599	14914.57047
639.799	14348.01268
639.999	14651.53597
640.199	14475.49617
640.399	14896.36075
640.599	14038.3801
640.799	14969.1994
640.998	15050.13067
641.198	14906.47726
641.398	14598.92731
641.598	14793.17147
641.798	14362.17782
641.997	14683.91018
642.197	14623.20832
642.397	14791.14814
642.597	14641.41897
642.796	14831.61473
642.996	14872.08106
643.196	14823.52143
643.395	14779.00811
643.595	15127.01506
643.795	14874.10437
643.994	15183.66664
644.194	14835.66137
644.394	15094.64271
644.593	14611.06783
644.793	15015.73494
644.992	14957.05966
645.192	14997.5254
645.392	14908.50057
645.591	15278.76047
645.791	14825.54476
645.99	14902.43066
646.19	14944.91991
646.389	15086.54962
646.589	14912.54717
646.788	15074.40998
646.987	15074.40998
647.187	14959.08295
647.386	15094.64271
647.586	15177.59683
647.785	14969.1994
647.984	15290.90013
648.184	14888.26753
648.383	15181.64337
648.582	14878.15099
648.782	15151.29431
648.981	14855.89456
649.18	15226.15534
649.38	15171.52702
649.579	15074.40998
649.778	14965.15282
649.977	15369.80818
650.177	15042.03756
650.376	15211.99243
650.575	14714.26079
650.774	14944.91991
650.973	15114.87543
651.173	14916.59377
651.372	14979.31583
651.571	15149.27104
651.77	15050.13067
651.969	15076.43325
652.168	15122.96852
652.367	15406.22746
652.566	14973.24597
652.765	15169.50374
652.964	15236.2717
653.163	15414.32065
653.362	15185.68991
653.561	15258.52771
653.76	15452.76341
653.959	15452.76341
654.158	15511.43958
654.357	15238.29497
654.556	15388.0178
654.755	15402.18086
654.954	15068.34015
655.153	15021.80478
655.352	15092.61944
655.551	15361.71502
655.749	15539.76618
655.948	15519.53288
656.147	15276.73719
656.346	15475.01983
656.545	15161.41066
656.743	15220.08552
656.942	15418.36725
657.141	15270.66736
657.34	15197.82953
657.538	15394.08768
657.737	14924.68696
657.936	15444.67018
658.135	15203.89935
658.333	15351.59858
658.532	15296.96996
658.731	15434.55366
658.929	14916.59377
659.128	15207.94589
659.326	15357.66845
659.525	15851.36956
659.724	15452.76341
659.922	15479.06646
660.121	15341.48216
660.319	15349.5753
660.518	15203.89935
660.716	15098.68926
660.915	15361.71502
661.113	15671.28444
661.312	15232.22515
661.51	15262.57426
661.709	15090.59617
661.907	15489.18304
662.105	15193.78299
662.304	15313.1562
662.502	15197.82953
662.701	15381.94792
662.899	15228.17861
663.097	15452.76341
663.296	15187.71318
663.494	15408.25075
663.692	15268.64409
663.891	15359.69173
664.089	15337.43559
664.287	15537.74285
664.485	15661.16753
664.684	15608.55994
664.882	15675.33121
665.08	15523.57954
665.278	15713.77571
665.476	15555.95287
665.675	15426.46045
665.873	15513.4629
666.071	15313.1562
666.269	15452.76341
666.467	15398.13427
666.665	15290.90013
666.863	15104.75907
667.061	15357.66845
667.259	15373.85476
667.457	15325.29589
667.655	15365.7616
667.853	15264.59753
668.051	15355.64516
668.249	15359.69173
668.447	15185.68991
668.645	15339.45887
668.843	15400.15757
669.041	15578.20965
669.239	15205.92262
669.437	15369.80818
669.635	15373.85476
669.833	15388.0178
670.031	15406.22746
670.229	15596.4198
670.426	15462.87996
670.624	14890.29083
670.822	14855.89456
671.02	15335.4123
671.218	15375.87805
671.415	15462.87996
671.613	15037.99101
671.811	15250.43461
672.009	15398.13427
672.206	15262.57426
672.404	15572.13961
672.602	15153.31758
672.799	15209.96916
672.997	15414.32065
673.195	15303.0398
673.392	15345.52873
673.59	15114.87543
673.788	15189.73645
673.985	15252.45789
674.183	15503.34628
674.38	15377.90134
674.578	15404.20416
674.775	15450.7401
674.973	15432.53036
675.17	15272.69064
675.368	15390.04109
675.565	15207.94589
675.763	15264.59753
675.96	15072.3867
676.158	15272.69064
676.355	14841.73133
676.553	15260.55098
676.75	15048.1074
676.947	15254.48116
677.145	14924.68696
677.342	15272.69064
677.539	15151.29431
677.737	15102.7358
677.934	15084.52635
678.131	15628.79356
678.329	15131.0616
678.526	15426.46045
678.723	15201.87608
678.92	15566.06958
679.118	15325.29589
679.315	15050.13067
679.512	15129.03833
679.709	15240.31825
679.906	14702.12057
680.104	15175.57356
680.301	14971.22269
680.498	14714.26079
680.695	14868.03444
680.892	15118.92198
681.089	14916.59377
681.286	14904.45396
681.483	14906.47726
681.68	15009.66509
681.877	15080.4798
682.075	15197.82953
682.272	14815.42813
682.469	14922.66366
682.665	14880.1743
682.862	14940.87332
683.059	14732.47106
683.256	14876.12768
683.453	14781.03145
683.65	15042.03756
683.847	14756.75131
684.044	14689.98032
684.241	14345.98909
684.438	14948.9665
684.635	14685.93356
684.831	14979.31583
685.028	14716.28416
685.225	15100.71253
685.422	14720.33089
685.619	14602.97415
685.815	14530.1302
686.012	15023.82806
686.209	14517.98939
686.405	14813.4048
686.602	14631.30195
686.799	14645.46577
686.996	14526.08327
687.192	14774.96142
687.389	14645.46577
687.586	14532.15367
687.782	14815.42813
687.979	14855.89456
688.175	14293.37494
688.372	14683.91018
688.568	14289.32765
688.765	14420.86113
688.962	14428.95528
689.158	14418.83759
689.355	14354.08347
689.551	14621.1849
689.748	14621.1849
689.944	14661.65294
690.14	14313.61129
690.337	14517.98939
690.533	14588.81017
690.73	14465.37865
690.926	14665.69972
691.123	14491.68414
691.319	14532.15367
691.515	14580.71644
691.712	14283.2567
691.908	14345.98909
692.104	14303.49314
692.301	14329.80024
692.497	14028.26054
692.693	14283.2567
692.889	14173.97669
693.086	14374.31931
693.282	14378.36645
693.478	14445.1435
693.674	14115.28685
693.87	14329.80024
694.067	14307.5404
694.263	14515.96592
694.459	14291.3513
694.655	14617.13808
694.851	14309.56403
695.047	14184.09545
695.243	14244.80697
695.439	14507.87201
695.635	14210.40399
695.831	14524.0598
696.027	14313.61129
696.224	14293.37494
696.42	13842.04933
696.615	14358.13065
696.811	14048.4996
697.007	14202.30909
697.203	13937.18174
697.399	13787.39599
697.595	14117.31066
697.791	14014.09306
697.987	13576.85826
698.183	13981.70979
698.379	13943.25382
698.575	14080.8816
698.77	14056.59515
698.966	14329.80024
699.162	13850.14594
699.358	14186.1192
699.554	14099.09622
699.749	14018.14092
699.945	13951.34989
700.141	13987.7817
700.337	14305.51677
700.532	14447.16702
700.728	14119.33448
700.924	14054.57127
701.119	13787.39599
701.315	14058.61904
701.511	13755.00781
701.706	13997.9015
701.902	13690.22907
702.097	13823.83179
702.293	13910.86912
702.489	13939.20577
702.684	13831.9285
702.88	13965.51791
703.075	14034.33228
703.271	13835.97684
703.466	13819.78341
703.662	13732.74048
703.857	13815.73502
704.053	14056.59515
704.248	14026.23662
704.443	14335.87107
704.639	14299.44586
704.834	14236.7122
705.03	13665.93621
705.225	14010.04518
705.42	13878.48373
705.616	13898.72468
705.811	13748.93494
706.006	13935.15771
706.202	14153.73902
706.397	13771.202
706.592	13566.73534
706.787	13609.251
706.983	13578.88283
707.178	13669.98505
707.373	13238.70147
707.568	13520.16878
707.763	13305.53177
707.959	13771.202
708.154	13773.22626
708.349	13503.97127
708.544	13449.30291
708.739	13451.32771
708.934	13508.02067
709.129	13512.07006
709.324	13609.251
709.519	13499.92186
709.714	13374.38245
709.909	13556.61234
710.104	13321.73236
710.299	13536.36606
710.494	13309.58195
710.689	13404.75626
710.884	13188.06928
711.079	13471.57554
711.274	13491.82298
711.469	13759.05637
711.664	13910.86912
711.859	13682.1315
712.054	13637.59393
712.249	13489.79826
712.443	13295.40627
712.638	13471.57554
712.833	12940.94211
713.028	13682.1315
713.223	13390.58193
713.417	13184.01859
713.612	13540.41535
713.807	13240.7267
714.002	13222.49947
714.196	13305.53177
714.391	13265.02912
714.586	13422.98012
714.78	13305.53177
714.975	13479.67456
715.17	13169.84101
715.364	13669.98505
715.559	13252.87799
715.754	13212.37308
715.948	13192.11996
716.143	13331.8576
716.337	13145.53607
716.532	13489.79826
716.726	13425.00497
716.921	13489.79826
717.115	13269.07946
717.31	13184.01859
717.504	13331.8576
717.699	13752.98352
717.893	13244.77715
718.088	13380.45729
718.282	13279.20524
718.476	12995.64049
718.671	12835.58631
718.865	13123.25595
719.059	12537.67067
719.254	12782.9029
719.448	12912.5785
719.642	13131.35788
719.837	12632.93661
720.031	13179.96787
720.225	12622.80259
720.419	13005.76942
720.614	12630.90982
720.808	13070.59159
721.002	12912.5785
721.196	13078.69401
721.39	12632.93661
721.585	12886.23994
721.779	12878.13559
721.973	12823.42893
722.167	12525.50806
722.361	12756.55977
722.555	12803.1662
722.749	12734.26868
722.943	12821.40269
723.137	12697.79084
723.331	12697.79084
723.525	13119.20496
723.719	12718.05654
723.913	12914.60451
724.107	12529.56229
724.301	13044.25819
724.495	12630.90982
724.689	12782.9029
724.883	12803.1662
725.077	12949.04581
725.271	12837.61252
725.465	12586.31882
725.659	12539.69775
725.853	12645.09725
726.046	12377.51094
726.24	12192.97031
726.434	12221.36502
726.628	12482.93713
726.822	12434.28112
727.015	12493.07332
727.209	12493.07332
727.403	12742.37461
727.596	12476.85533
727.79	12531.58939
727.984	12590.37267
728.177	12748.454
728.371	12594.4265
728.565	12501.18216
728.758	12604.56095
728.952	12756.55977
729.146	12499.15496
729.339	12641.04373
729.533	12472.80077
729.726	12308.56853
729.92	12549.83304
730.113	12620.77576
730.307	12466.71888
730.5	12636.99018
730.694	12318.70762
730.887	12470.77348
731.081	12474.82806
731.274	12403.86918
731.468	12387.64886
731.661	12513.34523
731.854	12239.61802
732.048	12274.0943
732.241	12486.99163
732.435	12669.41787
732.628	12316.67982
732.821	12357.23459
733.014	12219.33688
733.208	12336.95755
733.401	12416.03414
733.594	12292.34562
733.788	12296.40139
733.981	12225.4213
734.174	12304.51284
734.367	12150.37552
734.56	12359.26225
734.754	12336.95755
734.947	12426.17142
735.14	12420.08907
735.333	12458.6096
735.526	12683.6045
735.719	12393.73153
735.912	12255.84241
736.105	12180.8007
736.298	12134.14807
736.491	12053.00352
736.684	12055.03229
736.877	12243.67416
737.07	12010.39768
737.263	12103.7203
737.456	12416.03414
737.649	12395.75907
737.842	12385.62129
738.035	12440.36333
738.228	12199.05501
738.421	12156.46069
738.614	12182.82899
738.807	12420.08907
739	12101.69172
739.192	11870.38216
739.385	12093.57733
739.578	12397.78661
739.771	12138.20498
739.964	12148.34712
740.156	12140.23342
740.349	12004.31084
740.542	12190.94206
740.735	11986.04991
740.927	12182.82899
741.12	12174.7158
741.313	12217.30872
741.505	12055.03229
741.698	12034.7443
741.891	11862.26412
742.083	11971.84652
742.276	12014.45552
742.468	12304.51284
742.661	11963.73012
742.854	11878.50007
743.046	11945.46775
743.239	11643.02514
743.431	11884.58841
743.624	11876.47061
743.816	11716.11613
744.009	11777.01655
744.201	11525.24262
744.393	11817.6125
744.586	11598.35266
744.778	11582.10703
744.971	11441.96352
745.163	11626.78111
745.355	11651.14693
745.548	11707.99548
745.74	11429.77498
745.932	11774.98666
746.125	11770.92686
746.317	11977.93374
746.509	11807.46384
746.702	11886.61784
746.894	11701.9049
747.086	11632.87269
747.278	11289.58125
747.471	11675.51146
747.663	11689.7235
747.855	11695.81424
748.047	11539.45941
748.239	11925.17546
748.431	11647.08605
748.623	11819.64221
748.815	11557.73746
749.008	11988.07894
749.2	11705.9653
749.392	11882.55897
749.584	11454.15172
749.776	12028.65775
749.968	11435.8693
750.16	11736.41715
750.352	11521.1806
750.544	11728.29685
750.736	11866.32316
750.928	11762.80716
751.12	11677.54177
751.311	11653.17736
751.503	11758.74725
751.695	11573.98399
751.887	11559.76831
752.079	11614.59771
752.271	11448.05766
752.463	11647.08605
752.654	11569.92241
752.846	11551.64486
753.038	11273.32381
753.23	11346.47718
753.421	11318.0302
753.613	11224.54756
753.805	11561.79915
753.997	11366.79525
754.188	11301.7739
754.38	11338.34967
754.572	11007.01272
754.763	10982.60853
754.955	11143.24047
755.146	11177.79804
755.338	11102.58056
755.53	11163.56882
755.721	11232.67735
755.913	11354.60453
756.104	11021.24777
756.296	11378.98561
756.487	11131.04294
756.679	11187.96145
756.87	11196.09199
757.062	11133.07589
757.253	11074.11607
757.445	11204.22236
757.636	10919.55689
757.827	11041.5826
758.019	11212.35256
758.21	11179.83074
758.401	11303.80597
758.593	10901.24954
758.784	10728.30044
758.975	10697.77113
759.167	10610.23863
759.358	11078.18255
759.549	10687.59409
759.74	10909.38625
759.932	10673.34573
760.123	10705.91255
760.314	10575.62647
760.505	10709.98318
760.696	10422.88223
760.888	10866.66645
761.079	10400.47367
761.27	10866.66645
761.461	10817.83759
761.652	10699.8065
761.843	10655.02553
762.034	10882.94126
762.225	10532.86529
762.416	10701.84186
762.607	10467.69466
762.798	10677.41675
762.989	10640.77579
763.18	10626.52546
763.371	10469.73144
763.562	10463.62106
763.753	10229.30093
763.944	10573.59035
764.135	10481.95185
764.326	10585.80689
764.517	10483.98854
764.708	10433.06743
764.899	10153.87314
765.089	10565.44574
765.28	10306.74789
765.471	10357.68928
765.662	10157.9508
765.853	10369.91398
766.043	10109.01521
766.234	10376.02616
766.425	9896.86646
766.615	10170.18345
766.806	10153.87314
766.997	10125.32796
767.187	10055.99253
767.378	10471.76821
767.569	10255.79814
767.759	10388.25015
767.95	10343.42653
768.141	10202.80142
768.331	9929.5149
768.522	10168.14471
768.712	9843.8047
768.903	10019.27891
769.093	9892.78514
769.284	9447.55685
769.474	9925.43405
769.665	9847.88673
769.855	9951.95853
770.046	10029.4776
770.236	9917.27217
770.426	9988.68068
770.617	9851.9687
770.807	10041.71556
770.998	10051.91346
771.188	10170.18345
771.378	9704.97993
771.569	9672.30505
771.759	9717.23199
771.949	9629.41327
772.139	9805.02244
772.33	9692.72731
772.52	9621.24263
772.71	9725.39973
772.9	9839.72261
773.09	9925.43405
773.281	9849.92772
773.471	10060.07153
773.661	9621.24263
773.851	9604.9006
774.041	9378.05008
774.231	9290.11731
774.421	9052.74834
774.611	9112.11213
774.802	8964.69919
774.992	9189.87729
775.182	9083.45556
775.372	9259.43587
775.562	8903.25026
775.752	9208.29176
775.942	9001.56092
776.131	9388.27284
776.321	9376.00547
776.511	9243.0709
776.701	9308.52437
776.891	9234.88801
777.081	9214.4296
777.271	9130.53243
777.461	9349.42415
777.651	9294.20788
777.84	8849.98153
778.03	9050.70105
778.22	9040.46435
778.41	9116.20565
778.599	8759.80667
778.789	9185.785
778.979	9161.22984
779.169	9048.65374
779.358	9024.08473
779.548	8999.51319
779.738	8974.93913
779.927	9081.40854
780.117	8911.44437
780.307	8862.27539
780.496	8864.3243
780.686	9046.60642
780.875	8893.00721
781.065	8919.6382
781.254	8653.19074
781.444	8776.20471
781.633	8657.29227
781.823	8890.95855
782.012	8972.89118
782.202	8872.51978
782.391	8979.03499
782.581	8839.73615
782.77	8829.49032
782.96	8808.99731
783.149	8634.7329
783.338	8811.04669
783.528	8530.10987
783.717	8564.98965
783.906	8854.07955
784.096	8478.80613
784.285	8343.30671
784.474	8308.39168
784.663	8464.43894
784.853	8359.73536
785.042	8119.34102
785.231	8526.00601
785.42	8152.23147
785.61	8466.49146
785.799	8257.03577
785.988	8053.54468
786.177	8267.30794
786.366	8386.42927
786.555	8275.52531
786.744	8333.03817
786.933	8224.16154
787.122	8439.80731
787.312	8181.00642
787.501	8341.25304
787.69	8178.9512
787.879	8417.22588
788.068	8100.83788
788.257	7995.9559
788.445	7983.61337
788.634	8055.60113
788.823	8187.17198
789.012	8257.03577
789.201	7940.40873
789.39	8020.63876
789.579	7670.68796
789.768	7866.32256
789.957	7946.58138
790.145	7878.67211
790.334	7864.26423
790.523	8063.82672
790.712	7954.81128
790.9	8049.43172
791.089	7678.92903
791.278	7958.92611
791.467	7893.07898
791.655	8131.67554
791.844	7800.44566
792.033	7926.00518
792.221	7726.30862
792.41	8094.66981
792.599	7402.66717
792.787	7814.85805
792.976	7775.73633
793.164	7697.4702
793.353	7779.85476
793.541	7833.38677
793.73	7858.08911
793.918	8061.77035
794.107	7691.29
794.295	7559.40026
794.484	7650.0838
794.672	7740.72628
794.861	7528.47595
795.049	7761.32116
795.238	7538.78459
795.426	7895.13702
795.614	7798.38667
795.803	7872.49743
795.991	7641.84155
796.179	7509.91905
796.368	7726.30862
796.556	7596.50306
796.744	7410.9194
796.932	7569.70728
797.121	7334.57301
797.309	7575.89125
797.497	7536.72291
797.685	7648.02327
797.874	7258.19667
798.062	7427.4228
798.25	7142.54258
798.438	7499.60891
798.626	7239.61408
798.814	7305.67739
799.002	7412.9824
799.19	7433.61122
799.378	7028.88582
799.566	7315.99775
799.755	6931.70714
799.943	7190.05177
800.131	6931.70714
800.318	7262.32589
800.506	7223.09473
800.694	7371.71823
800.882	7113.61818
801.07	7505.79506
801.258	7231.35458
801.446	7369.65479
801.634	7369.65479
801.822	7270.58406
802.01	7206.57396
802.197	7476.9247
802.385	7121.88274
802.573	7382.03509
802.761	7181.79015
802.949	7282.97067
803.136	7247.87323
803.324	7320.12574
803.512	7136.34486
803.699	7204.50876
803.887	7289.16367
804.075	7318.06175
804.262	7221.02971
804.45	7412.9824
804.638	7346.95554
804.825	7522.29051
805.013	7101.22067
805.201	7179.72469
805.388	7206.57396
805.576	7650.0838
805.763	7045.42192
805.951	7419.17127
806.138	6995.8093
806.326	7384.09839
806.513	7408.85637
806.701	7511.98102
806.888	7223.09473
807.075	7431.54844
807.263	7010.28098
807.45	7128.08092
807.638	7078.48981
807.825	7501.67098
808.012	7163.20019
808.2	7043.35498
808.387	7163.20019
808.574	7382.03509
808.761	7086.75589
808.949	7282.97067
809.136	7107.41952
809.323	7090.8888
809.51	7097.08799
809.698	7382.03509
809.885	7202.44354
810.072	7429.48563
810.259	7332.50918
810.446	7487.23603
810.633	7181.79015
810.82	7254.06736
811.008	7150.80589
811.195	7388.22494
811.382	7233.41949
811.569	7357.27371
811.756	7415.04538
811.943	7427.4228
812.13	7157.00314
812.317	7439.79945
812.504	7394.4146
812.691	7563.52313
812.878	7363.46435
813.064	7346.95554
813.251	7115.68435
813.438	7497.54682
813.625	7295.35648
813.812	7287.09936
813.999	7026.8187
814.186	7501.67098
814.372	7175.5937
814.559	7221.02971
814.746	6898.61366
814.933	7254.06736
815.12	7192.11712
815.306	7101.22067
815.493	7049.55572
815.68	7225.15972
815.866	7105.35326
816.053	7423.29708
816.24	7390.28818
816.426	7225.15972
816.613	6981.33652
816.799	7260.26129
816.986	7229.28965
817.173	7344.89184
817.359	7146.67428
817.546	7439.79945
817.732	7233.41949
817.919	7231.35458
818.105	6952.38763
818.292	6948.25171
818.478	6898.61366
818.665	7049.55572
818.851	7214.83452
819.037	6875.85853
819.224	6824.13209
819.41	6985.47171
819.597	6935.84342
819.783	6987.53927
819.969	6902.75067
820.156	7064.02331
820.342	6906.88758
820.528	7148.7401
820.714	6685.43491
820.901	7076.42324
821.087	6625.36987
821.273	7002.01159
821.459	7022.68441
821.646	7212.76941
821.832	6968.93039
822.018	6923.43432
822.204	6623.29832
822.39	6939.97961
822.576	6706.14251
822.762	6683.36402
822.948	6730.9886
823.134	6799.29835
823.32	6530.05451
823.507	6855.16966
823.693	6824.13209
823.879	6670.93822
824.065	6617.08352
824.25	6759.97154
824.436	6571.50198
824.622	6658.5116
824.808	6716.49545
824.994	6859.30762
825.18	6397.36025
825.366	6484.45159
825.552	6457.49913
825.738	6652.29797
825.923	6602.58151
826.109	6832.40928
826.295	6592.22224
826.481	6718.56597
826.667	6374.54383
826.852	6527.98189
827.038	6411.87832
827.224	6724.77739
827.409	6621.22674
827.595	6699.93047
827.781	6565.28545
827.966	6739.2699
828.152	6488.59777
828.338	6463.71927
828.523	6256.26804
828.709	6650.22672
828.894	6393.21202
829.08	6469.93921
829.266	6281.17452
829.451	6428.46901
829.637	6164.91541
829.822	6343.42598
830.008	6085.98338
830.193	6418.10001
830.378	6031.95769
830.564	6328.90252
830.749	6422.24768
830.935	6378.69248
831.12	6318.52792
831.305	6519.69119
831.491	6272.87273
831.676	6191.91069
831.861	5952.96843
832.047	6193.98708
832.232	6031.95769
832.417	6061.05043
832.602	5711.63264
832.788	5915.54058
832.973	5728.28668
833.158	6029.87946
833.343	5919.69961
833.528	6073.51733
833.714	6027.80121
833.899	6144.14712
834.084	5925.93797
834.269	6166.99211
834.454	5707.46889
834.639	5911.38146
834.824	6002.86034
835.009	5911.38146
835.194	5699.14111
835.379	5855.22409
835.564	5667.90859
835.749	5809.45351
835.934	5840.66196
836.119	5886.42475
836.304	5834.42069
836.489	5959.20566
836.674	5722.04159
836.859	5786.56393
837.044	5911.38146
837.228	5865.6249
837.413	5713.71447
837.598	5882.26497
837.783	5715.79629
837.968	5905.1426
838.152	5672.07323
838.337	6052.73869
838.522	5722.04159
838.707	5911.38146
838.891	5617.9255
839.076	5730.36833
839.261	5703.30505
839.445	5520.00263
839.63	5432.45307
839.815	5422.02773
839.999	5388.66273
840.184	5686.64874
840.368	5405.34598
840.553	5532.50632
840.737	5694.97708
840.922	5419.9426
841.106	5202.96038
841.291	5378.23493
841.475	5271.83793
841.66	5399.08994
841.844	5031.70036
842.029	5228.00971
842.213	5161.20405
842.397	5367.80655
842.582	5125.70385
842.766	5674.15552
842.951	5259.31663
843.135	5190.43446
843.319	5230.097
843.504	5357.37758
843.688	5086.01922
843.872	5280.18499
844.056	5296.878
844.241	5298.96452
844.425	5177.9077
844.609	5436.62303
844.793	5113.17277
844.977	5056.77255
845.161	4895.83499
845.346	5017.07338
845.53	5002.44527
845.714	5182.08338
845.898	4969.00535
846.082	5298.96452
846.266	5086.01922
846.45	5113.17277
846.634	4937.65007
846.818	4943.92154
847.002	4868.65027
847.186	4902.10784
847.37	4849.82782
847.554	4962.73471
847.738	4839.37011
847.922	4954.37353
848.106	4908.38048
848.29	5065.1292
848.473	4964.82494
848.657	4985.72605
848.841	4952.28318
849.025	4831.00352
849.209	4669.87601
849.392	4644.75317
849.576	4458.32531
849.76	4705.46114
849.944	4496.04398
850.127	4897.92596
850.311	4625.90893
850.495	4979.45596
850.678	4709.6472
850.862	4755.68789
851.046	4625.90893
851.229	4544.22965
851.413	4491.85337
851.596	4594.49783
851.78	4336.73915
851.964	4607.06287
852.147	4424.79163
852.331	4676.15621
852.514	4439.46331
852.698	4636.37818
852.881	4366.09424
853.065	4646.84687
853.248	4466.70785
853.431	4634.28437
853.615	4540.04005
853.798	4563.08172
853.982	4158.42152
854.165	4343.02988
854.348	4288.50375
854.532	4366.09424
854.715	4416.40734
854.898	4533.7555
855.081	4361.90091
855.265	4445.75084
855.448	4382.86667
855.631	4638.47196
855.814	4110.14454
855.997	4303.18529
856.181	4215.08027
856.364	4194.09735
856.547	4296.89333
856.73	4353.51401
856.913	4139.53185
857.096	4292.69858
857.279	3950.54257
857.462	3996.75534
857.645	4063.95622
857.828	4120.64048
858.011	4166.81638
858.194	4296.89333
858.377	3870.69743
858.56	4219.2766
858.743	3769.79928
858.926	4040.8583
859.109	3975.75076
859.292	3839.17165
859.475	3630.99113
859.658	3837.06977
859.841	3778.20919
860.023	3933.73548
860.206	3706.71504
860.389	4005.1566
860.572	3771.90179
860.755	3828.66206
860.937	3696.19931
861.12	3921.12932
861.303	3645.71715
861.486	3807.64141
861.668	3616.26418
861.851	3826.56009
862.034	3426.83693
862.216	3628.88734
862.399	3344.70652
862.581	3731.95083
862.764	3428.94249
862.947	3685.6831
863.129	3483.68063
863.312	3513.14995
863.494	3437.36453
863.677	3391.03978
863.859	3205.65686
864.042	3517.35956
864.224	3544.72025
864.406	3559.45164
864.589	3361.55596
864.771	3321.53672
864.954	3317.32381
865.136	3517.35956
865.318	3374.1923
865.501	3416.30889
865.683	3188.79739
865.865	3348.91898
866.048	3058.10144
866.23	3418.41454
866.412	3201.44209
866.594	3391.03978
866.777	3209.87156
866.959	3344.70652
867.141	3405.78041
867.323	3428.94249
867.505	3216.19349
867.687	3384.72211
867.869	3013.81972
868.052	3376.2983
868.234	2931.56449
868.416	3226.7297
868.598	3066.53527
868.78	3252.01492
868.962	3226.7297
869.144	3382.61618
869.326	3015.92853
869.508	3163.50622
869.69	3104.48444
869.872	3327.85597
870.054	3039.12439
870.236	3222.51527
870.417	3053.88442
870.599	3369.98026
870.781	2952.65774
870.963	3087.61877
871.145	2940.00197
871.327	3256.22889
871.508	2925.23623
871.69	3222.51527
871.872	2965.31298
872.054	3205.65686
872.235	2927.34567
872.417	3224.62249
872.599	2944.22062
872.78	3155.07531
872.962	2910.46977
873.144	3096.05173
873.325	2769.0984
873.507	3024.3636
873.689	2868.27599
873.87	2999.05765
874.052	2697.33425
874.233	2910.46977
874.415	2937.89262
874.596	3020.1461
874.778	2851.39687
874.959	3003.27546
875.141	2847.17695
875.322	3115.02497
875.503	2885.15419
875.685	2994.83978
875.866	2811.30537
876.048	2994.83978
876.229	2705.77788
876.41	3070.7521
876.592	3001.16656
876.773	3102.37629
876.954	2648.77939
877.136	2923.12678
877.317	2720.55373
877.498	3020.1461
877.679	2760.65636
877.86	2872.49563
878.042	2794.42324
878.223	2980.07675
878.404	2731.10752
878.585	2813.41558
878.766	2775.4298
878.947	2927.34567
879.128	2629.77785
879.309	2935.78326
879.49	2697.33425
879.672	3028.58105
879.853	2821.85625
880.034	2914.68883
880.215	2794.42324
880.396	2999.05765
880.576	2952.65774
880.757	3024.3636
880.938	2859.83655
881.119	3037.01575
881.3	3022.25486
881.481	3197.22725
881.662	2982.1858
881.843	3064.42684
882.023	2870.38581
882.204	3150.85976
882.385	2828.18662
882.566	2946.32992
882.747	2954.76699
882.927	3003.27546
883.108	2969.53128
883.289	3039.12439
883.469	2933.67388
883.65	2999.05765
883.831	2821.85625
884.011	2838.73694
884.192	2845.06697
884.373	3074.96886
884.553	2769.0984
884.734	3003.27546
884.914	2766.98791
885.095	2940.00197
885.275	2859.83655
885.456	3081.29389
885.636	2766.98791
885.817	3070.7521
885.997	2872.49563
886.178	3230.94407
886.358	2773.31935
886.538	3252.01492
886.719	2836.62691
886.899	2921.01732
887.08	2937.89262
887.26	3129.78103
887.44	3102.37629
887.621	3285.72477
887.801	3093.94352
887.981	3155.07531
888.161	3087.61877
888.342	3003.27546
888.522	2935.78326
888.702	3142.42846
888.882	3053.88442
889.062	3070.7521
889.242	2800.75414
889.423	2923.12678
889.603	2872.49563
889.783	3161.39852
889.963	2910.46977
890.143	2999.05765
890.323	2739.55031
890.503	3039.12439
890.683	2927.34567
890.863	3152.96754
891.043	2859.83655
891.223	3165.61391
891.403	3020.1461
891.583	3064.42684
891.763	2657.2242
891.943	2870.38581
892.122	2809.19515
892.302	2996.94872
892.482	2726.88604
892.662	2935.78326
892.842	2798.64386
893.022	2878.82497
893.201	2807.08492
893.381	2977.96768
893.561	2623.44378
893.741	2861.94643
893.92	2811.30537
894.1	2876.71521
894.28	2564.32049
894.459	2868.27599
894.639	2718.44293
894.819	3009.60206
894.998	2684.66842
895.178	3133.99691
895.357	2617.1096
895.537	2819.74611
895.716	2648.77939
895.896	2754.32468
896.075	2741.66097
896.255	2804.97467
896.434	2560.09704
896.614	2726.88604
896.793	2479.84265
896.973	2701.55609
897.152	2465.05717
897.331	2714.2213
897.511	2642.44566
897.69	2707.88875
897.87	2386.89654
898.049	2653.00182
898.228	2431.25977
898.407	2538.97908
898.587	2372.10778
898.766	2581.21382
898.945	2505.18792
899.124	2572.76725
899.304	2477.73047
899.483	2589.6602
899.662	2433.37218
899.841	2469.28165
900.02	2389.00918
900.199	2448.15881
900.378	2287.59124
900.557	2439.70938
900.737	2205.17319
900.916	2515.74797
901.095	2310.83484
901.274	2437.59699
901.453	2222.08056
901.632	2141.76576
901.811	1847.89414
901.989	2190.37879
902.168	2048.75544
902.347	2213.62694
902.526	1938.81688
902.705	2262.2333
902.884	1881.727
903.063	2025.50067
903.242	2006.47344
903.42	2152.33418
903.599	1947.27429
903.778	2055.0975
903.957	1902.87186
904.135	2027.61478
904.314	1769.65113
904.493	2040.29926
904.672	1847.89414
904.85	1921.90178
905.029	1748.5034
905.207	1976.87447
905.386	1691.40277
905.565	1885.95601
905.743	1752.73298
905.922	1816.17473
906.1	1704.09201
906.279	1864.81073
906.457	1496.8244
906.636	1678.71343
906.814	1498.93944
906.993	1600.46045
907.171	1465.09865
907.35	1592.00049
907.528	1418.56752
907.707	1761.19208
907.885	1393.18697
908.063	1632.18502
908.242	1407.99228
908.42	1545.47026
908.598	1342.42626
908.777	1431.25782
908.955	1484.13411
909.133	1361.46145
909.311	1228.21836
909.49	1287.43646
909.668	1380.49674
909.846	1456.63844
910.024	1281.09157
910.202	1336.08123
910.38	1363.57648
910.559	1342.42626
910.737	1114.01932
910.915	1363.57648
911.093	1283.20653
911.271	1427.02772
911.449	1541.2402
911.627	1517.97483
911.805	1355.11638
911.983	1473.55886
912.161	1431.25782
912.339	1668.1389
912.517	1488.36421
912.695	1534.89511
912.872	1566.62045
913.05	1583.5405
913.228	1359.34643
913.406	1401.64714
913.584	1346.6563
913.762	1405.87723
913.939	1285.32149
914.117	1422.79762
914.295	1300.1263
914.473	1507.39962
914.65	1380.49674
914.828	1439.71802
915.006	1312.81621
915.184	1424.91267
915.361	1202.83986
915.539	1399.5321
915.716	1158.4287
915.894	1549.7003
916.072	1353.00136
916.249	1384.72681
916.427	1312.81621
916.604	1405.87723
916.782	1314.93121
916.959	1530.66505
917.137	1230.33325
917.314	1418.56752
917.492	1287.43646
917.669	1298.01132
917.847	1204.95472
918.024	1433.37287
918.201	1099.21663
918.379	1323.39119
918.556	1145.74011
918.733	1221.87369
918.911	1105.56061
919.088	1291.6664
919.265	894.12316
919.442	1198.61016
919.62	1075.95576
919.797	1238.79286
919.974	997.71953
920.151	1232.44815
920.328	1063.26828
920.506	1245.1376
920.683	1061.15372
920.86	1130.93695
921.037	1044.23742
921.214	1033.66492
921.391	1111.90463
921.568	1035.77941
921.745	991.37642
921.922	1154.19916
922.099	991.37642
922.276	1118.2487
922.453	985.03336
922.63	1103.44595
922.807	881.43914
922.984	991.37642
923.161	839.16122
923.338	944.86208
923.514	892.00914
923.691	1016.74922
923.868	887.78111
924.045	961.776
924.222	860.29975
924.399	966.00455
924.575	927.94863
924.752	1035.77941
924.929	796.88685
925.105	1010.40594
925.282	820.1373
925.459	1029.43596
925.635	832.81983
925.812	1016.74922
925.989	807.4551
926.165	898.35124
926.342	746.16268
926.518	870.86934
926.695	786.31885
926.871	841.27503
927.048	712.34986
927.224	779.97816
927.401	606.70349
927.577	790.54602
927.754	741.93593
927.93	796.88685
928.107	720.80281
928.283	710.23665
928.459	703.89708
928.636	729.25593
928.812	667.9748
928.988	746.16268
929.165	505.31286
929.341	636.28146
929.517	680.65288
929.693	701.78392
929.87	587.69039
930.046	697.55762
930.222	517.98495
930.398	617.26677
930.574	606.70349
930.751	602.47827
930.927	640.50708
931.103	636.28146
931.279	477.85847
931.455	606.70349
931.631	439.84889
931.807	517.98495
931.983	452.5182
932.159	613.04142
932.335	494.75318
932.511	450.40661
932.687	456.74142
932.863	494.75318
933.039	446.18347
933.215	484.19387
933.391	444.07193
933.566	460.96471
933.742	410.28938
933.918	416.6233
934.094	460.96471
934.27	349.06919
934.445	372.28898
934.621	344.84764
934.797	311.07772
934.973	361.73427
935.148	357.51251
935.324	374.39997
935.5	296.30482
935.675	332.18339
935.851	249.88161
936.027	264.65165
936.202	167.60902
936.378	321.63033
936.553	186.59229
936.729	243.55189
936.904	340.62615
937.08	268.87183
937.255	199.24872
937.431	289.97385
937.606	150.73642
937.782	201.3582
937.957	230.89295
938.133	233.00273
938.308	140.19172
938.483	129.64756
938.659	152.84542
938.834	167.60902
939.009	83.25972
939.185	104.34378
939.36	123.32132
939.535	138.08285
939.71	171.82738
939.886	55.85379
940.061	49.5299
940.236	129.64756
940.411	106.45231
940.586	116.99528
940.761	129.64756
940.937	47.42198
941.112	70.61035
941.287	165.49987
941.462	104.34378
941.637	87.47635
941.812	53.7458
941.987	93.80147
942.162	100.12679
942.337	87.47635
942.512	32.66719
942.687	45.31408
942.862	49.5299
943.037	89.5847
943.212	98.01833
943.386	28.45175
943.561	55.85379
943.736	148.62743
943.911	87.47635
944.086	79.04317
944.26	70.61035
944.435	148.62743
944.61	34.77495
944.785	53.7458
944.959	142.30062
945.134	66.39408
945.309	66.39408
945.483	89.5847
945.658	43.20621
945.833	36.88273
946.007	70.61035
946.182	87.47635
946.357	121.21262
946.531	116.99528
946.706	72.71852
946.88	49.5299
947.055	142.30062
947.229	95.90989
947.404	79.04317
947.578	116.99528
947.752	112.77803
947.927	125.43005
948.101	72.71852
948.276	41.09836
948.45	89.5847
948.624	121.21262
948.799	100.12679
948.973	171.82738
949.147	47.42198
949.321	188.70164
949.496	24.2364
949.67	133.86516
949.844	89.5847
950.018	95.90989
950.193	68.5022
950.367	83.25972
950.541	81.15143
950.715	45.31408
950.889	17.91356
951.063	62.17789
951.237	72.71852
951.411	135.97399
951.585	100.12679
951.759	53.7458
951.933	125.43005
952.107	13.69845
952.281	91.69308
952.455	89.5847
952.629	110.66943
952.803	22.12877
952.977	74.82672
953.151	87.47635
953.325	87.47635
953.499	45.31408
953.672	89.5847
953.846	89.5847
954.02	106.45231
954.194	57.9618
954.368	93.80147
954.541	173.93659
954.715	57.9618
954.889	148.62743
955.062	89.5847
955.236	95.90989
955.41	148.62743
955.583	93.80147
955.757	41.09836
955.93	121.21262
956.104	127.53879
956.278	83.25972
956.451	51.63784
956.625	154.95444
956.798	72.71852
956.972	146.51847
957.145	123.32132
957.319	112.77803
957.492	-28.44736
957.665	87.47635
957.839	79.04317
958.012	125.43005
958.185	131.75635
958.359	91.69308
958.532	68.5022
958.705	108.56086
958.879	121.21262
959.052	85.36802
959.225	104.34378
959.398	131.75635
959.572	72.71852
959.745	79.04317
959.918	74.82672
960.091	112.77803
960.264	104.34378
960.438	146.51847
960.611	72.71852
960.784	20.02115
960.957	98.01833
961.13	163.39074
961.303	209.7963
961.476	100.12679
961.649	72.71852
961.822	81.15143
961.995	159.17255
962.168	89.5847
962.341	104.34378
962.514	62.17789
962.686	114.88664
962.859	114.88664
963.032	89.5847
963.205	95.90989
963.378	34.77495
963.551	62.17789
963.723	45.31408
963.896	146.51847
964.069	106.45231
964.242	106.45231
964.414	62.17789
964.587	108.56086
964.76	81.15143
964.932	102.23527
965.105	64.28597
965.278	3.16109
965.45	24.2364
965.623	66.39408
965.795	146.51847
965.968	100.12679
966.14	13.69845
966.313	93.80147
966.485	87.47635
966.658	95.90989
966.83	62.17789
967.003	68.5022
967.175	47.42198
967.348	60.06984
967.52	62.17789
967.692	125.43005
967.865	36.88273
968.037	129.64756
968.209	62.17789
968.382	55.85379
968.554	55.85379
968.726	60.06984
968.898	100.12679
969.071	81.15143
969.243	-17.91182
969.415	45.31408
969.587	45.31408
969.759	22.12877
969.932	95.90989
970.104	36.88273
970.276	76.93493
970.448	112.77803
970.62	70.61035
970.792	57.9618
970.964	104.34378
971.136	79.04317
971.308	38.99053
971.48	129.64756
971.652	43.20621
971.824	79.04317
971.996	38.99053
972.168	57.9618
972.339	104.34378
972.511	104.34378
972.683	70.61035
972.855	11.59093
973.027	121.21262
973.199	123.32132
973.37	89.5847
973.542	13.69845
973.714	121.21262
973.886	112.77803
974.057	112.77803
974.229	53.7458
974.401	104.34378
974.572	66.39408
974.744	20.02115
974.915	89.5847
975.087	70.61035
975.259	30.55946
975.43	70.61035
975.602	70.61035
975.773	87.47635
975.945	20.02115
976.116	13.69845
976.288	-13.69743
976.459	81.15143
976.63	108.56086
976.802	45.31408
976.973	68.5022
977.145	1.05369
977.316	64.28597
977.487	62.17789
977.659	112.77803
977.83	104.34378
978.001	125.43005
978.172	104.34378
978.344	28.45175
978.515	20.02115
978.686	-9.48295
978.857	36.88273
979.028	49.5299
979.2	81.15143
979.371	-1.05368
979.542	-22.12611
979.713	70.61035
979.884	79.04317
980.055	20.02115
980.226	30.55946
980.397	100.12679
980.568	45.31408
980.739	64.28597
980.91	70.61035
981.081	-13.69743
981.252	53.7458
981.423	15.80599
981.594	28.45175
981.765	38.99053
981.936	28.45175
982.106	53.7458
982.277	28.45175
982.448	72.71852
982.619	5.26851
982.79	62.17789
982.96	45.31408
983.131	102.23527
983.302	55.85379
983.472	62.17789
983.643	38.99053
983.814	11.59093
983.984	38.99053
984.155	81.15143
984.326	87.47635
984.496	-26.3403
984.667	53.7458
984.837	26.34407
985.008	28.45175
985.178	45.31408
985.349	74.82672
985.519	146.51847
985.69	22.12877
985.86	20.02115
986.031	62.17789
986.201	41.09836
986.371	72.71852
986.542	74.82672
986.712	45.31408
986.882	20.02115
987.053	85.36802
987.223	95.90989
987.393	11.59093
987.563	-15.80464
987.734	62.17789
987.904	72.71852
988.074	95.90989
988.244	62.17789
988.414	-5.26836
988.585	106.45231
988.755	47.42198
988.925	11.59093
989.095	-15.80464
989.265	98.01833
989.435	-3.16104
989.605	83.25972
989.775	87.47635
989.945	32.66719
990.115	45.31408
990.285	62.17789
990.455	62.17789
990.625	28.45175
990.795	64.28597
990.965	38.99053
991.134	79.04317
991.304	22.12877
991.474	129.64756
991.644	-11.5902
991.814	-43.19607
991.984	87.47635
992.153	62.17789
992.323	28.45175
992.493	15.80599
992.662	74.82672
992.832	20.02115
993.002	108.56086
993.171	26.34407
993.341	64.28597
993.511	-43.19607
993.68	41.09836
993.85	47.42198
994.019	81.15143
994.189	30.55946
994.358	20.02115
994.528	45.31408
994.697	-28.44736
994.867	62.17789
995.036	-57.94356
995.206	11.59093
995.375	102.23527
995.544	9.48343
995.714	-11.5902
995.883	121.21262
996.052	-7.37567
996.222	7.37596
996.391	72.71852
996.56	89.5847
996.73	5.26851
996.899	-5.26836
997.068	62.17789
997.237	76.93493
997.406	9.48343
997.576	38.99053
997.745	-13.69743
997.914	-95.85994
998.083	74.82672
998.252	66.39408
998.421	11.59093
998.59	55.85379
998.759	45.31408
998.928	-36.87534
999.097	45.31408
999.266	20.02115
999.435	11.59093
999.604	11.59093
999.773	55.85379
999.942	28.45175
1000.111	-28.44736
1000.28	70.61035
1000.448	20.02115
1000.617	55.85379
1000.786	70.61035
1000.955	-24.23321
1001.124	32.66719
1001.292	22.12877
1001.461	38.99053
1001.63	49.5299
1001.798	20.02115
1001.967	36.88273
1002.136	5.26851
1002.304	30.55946
1002.473	-17.91182
1002.642	28.45175
1002.81	11.59093
1002.979	100.12679
1003.147	3.16109
1003.316	91.69308
1003.484	57.9618
1003.653	5.26851
1003.821	-11.5902
1003.99	28.45175
1004.158	-24.23321
1004.327	55.85379
1004.495	95.90989
1004.663	36.88273
1004.832	-30.55439
1005	72.71852
1005.168	36.88273
1005.337	17.91356
1005.505	-22.12611
1005.673	-26.3403
1005.842	11.59093
1006.01	-22.12611
1006.178	-34.76838
1006.346	13.69845
1006.514	20.02115
1006.683	49.5299
1006.851	-17.91182
1007.019	43.20621
1007.187	49.5299
1007.355	104.34378
1007.523	70.61035
1007.691	38.99053
1007.859	28.45175
1008.027	13.69845
1008.195	20.02115
1008.363	11.59093
1008.531	32.66719
1008.699	53.7458
1008.867	36.88273
1009.035	53.7458
1009.203	20.02115
1009.37	30.55946
1009.538	45.31408
1009.706	32.66719
1009.874	66.39408
1010.042	28.45175
1010.209	53.7458
1010.377	15.80599
1010.545	62.17789
1010.713	45.31408
1010.88	64.28597
1011.048	20.02115
1011.216	28.45175
1011.383	-1.05368
1011.551	3.16109
1011.718	55.85379
1011.886	-15.80464
1012.054	45.31408
1012.221	43.20621
1012.389	62.17789
1012.556	11.59093
1012.724	11.59093
1012.891	32.66719
1013.058	24.2364
1013.226	36.88273
1013.393	13.69845
1013.561	11.59093
1013.728	53.7458
1013.895	41.09836
1014.063	3.16109
1014.23	5.26851
1014.397	89.5847
1014.565	-5.26836
1014.732	57.9618
1014.899	36.88273
1015.066	-64.26353
1015.233	70.61035
1015.401	45.31408
1015.568	22.12877
1015.735	53.7458
1015.902	11.59093
1016.069	62.17789
1016.236	-22.12611
1016.403	36.88273
1016.57	11.59093
1016.737	95.90989
1016.904	64.28597
1017.071	17.91356
1017.238	-47.40976
1017.405	-3.16104
1017.572	70.61035
1017.739	-5.26836
1017.906	20.02115
1018.073	-45.30293
1018.24	-20.01897
1018.407	32.66719
1018.573	-20.01897
1018.74	15.80599
1018.907	-3.16104
1019.074	-3.16104
1019.241	62.17789
1019.407	28.45175
1019.574	70.61035
1019.741	24.2364
1019.907	55.85379
1020.074	38.99053
1020.241	62.17789
1020.407	-20.01897
1020.574	53.7458
1020.74	102.23527
1020.907	-13.69743
1021.073	-26.3403
1021.24	-20.01897
1021.406	62.17789
1021.573	49.5299
1021.739	-17.91182
1021.906	22.12877
1022.072	-36.87534
1022.239	47.42198
1022.405	-30.55439
1022.571	-3.16104
1022.738	7.37596
1022.904	-24.23321
1023.07	36.88273
1023.237	62.17789
1023.403	100.12679
1023.569	-20.01897
1023.735	41.09836
1023.902	41.09836
1024.068	62.17789
1024.234	51.63784
1024.4	5.26851
1024.566	36.88273
1024.732	-30.55439
1024.898	36.88273
1025.065	34.77495
1025.231	-49.51657
1025.397	47.42198
1025.563	-17.91182
1025.729	9.48343
1025.895	-64.26353
1026.061	-9.48295
1026.227	-51.62336
1026.392	129.64756
1026.558	-38.98228
1026.724	-15.80464
1026.89	3.16109
1027.056	13.69845
1027.222	79.04317
1027.388	66.39408
1027.553	32.66719
1027.719	87.47635
1027.885	17.91356
1028.051	26.34407
1028.216	60.06984
1028.382	41.09836
1028.548	-83.22208
1028.713	49.5299
1028.879	-13.69743
1029.045	-38.98228
1029.21	70.61035
1029.376	22.12877
1029.541	36.88273
1029.707	-38.98228
1029.873	22.12877
1030.038	20.02115
1030.204	-47.40976
1030.369	22.12877
1030.534	49.5299
1030.7	-47.40976
1030.865	-47.40976
1031.031	-26.3403
1031.196	-5.26836
1031.361	95.90989
1031.527	30.55946
1031.692	24.2364
1031.857	28.45175
1032.023	55.85379
1032.188	15.80599
1032.353	49.5299
1032.518	-30.55439
1032.684	45.31408
1032.849	20.02115
1033.014	45.31408
1033.179	-9.48295
1033.344	87.47635
1033.509	-20.01897
1033.674	53.7458
1033.839	-5.26836
1034.004	45.31408
1034.17	-5.26836
1034.335	47.42198
1034.5	-97.96616
1034.664	-36.87534
1034.829	30.55946
1034.994	-45.30293
1035.159	7.37596
1035.324	36.88273
1035.489	36.88273
1035.654	20.02115
1035.819	32.66719
1035.984	20.02115
1036.148	66.39408
1036.313	-3.16104
1036.478	22.12877
1036.643	7.37596
1036.807	28.45175
1036.972	11.59093
1037.137	55.85379
1037.301	-13.69743
1037.466	3.16109
1037.631	32.66719
1037.795	66.39408
1037.96	64.28597
1038.124	62.17789
1038.289	-20.01897
1038.454	-9.48295
1038.618	-11.5902
1038.783	-15.80464
1038.947	62.17789
1039.111	49.5299
1039.276	-1.05368
1039.44	-26.3403
1039.605	-1.05368
1039.769	47.42198
1039.933	89.5847
1040.098	7.37596
1040.262	45.31408
1040.426	-28.44736
1040.591	64.28597
1040.755	-24.23321
1040.919	76.93493
1041.083	11.59093
1041.248	11.59093
1041.412	26.34407
1041.576	3.16109
1041.74	45.31408
1041.904	150.73642
1042.068	41.09836
1042.232	30.55946
1042.397	3.16109
1042.561	-45.30293
1042.725	17.91356
1042.889	45.31408
1043.053	15.80599
1043.217	20.02115
1043.381	20.02115
1043.544	53.7458
1043.708	26.34407
1043.872	-3.16104
1044.036	45.31408
1044.2	-60.05024
1044.364	5.26851
1044.528	22.12877
1044.691	-1.05368
1044.855	28.45175
1045.019	32.66719
1045.183	-1.05368
1045.346	53.7458
1045.51	28.45175
1045.674	62.17789
1045.837	47.42198
1046.001	3.16109
1046.165	36.88273
1046.328	28.45175
1046.492	30.55946
1046.655	49.5299
1046.819	24.2364
1046.983	24.2364
1047.146	7.37596
1047.31	-22.12611
1047.473	-11.5902
1047.636	-64.26353
1047.8	-5.26836
1047.963	-5.26836
1048.127	-22.12611
1048.29	3.16109
