Data from mixed_try1_USB4F045381__11__00076.txt Node

Date: Thu Apr 03 19:51:51 EDT 2025
User: mmckonesweet
Spectrometer: USB4F04538
Trigger mode: 4
Integration Time (sec): 2.700000E-3
Scans to average: 1
Electric dark correction enabled: true
Nonlinearity correction enabled: true
Boxcar width: 0
XAxis mode: Wavelengths
Number of Pixels in Spectrum: 3648
>>>>>Begin Spectral Data<<<<<
345.52	86.42218
345.736	86.42218
345.952	86.42218
346.168	-37.92881
346.384	6.32224
346.6	33.72107
346.816	18.96735
347.032	0
347.248	35.82884
347.464	-10.53658
347.68	-23.17966
347.896	-14.75104
348.112	-54.78349
348.328	-4.2147
348.544	23.18258
348.76	-48.46317
348.975	44.26014
349.191	18.96735
349.407	27.39791
349.623	31.61332
349.839	10.53718
350.055	44.26014
350.27	-54.78349
350.486	-4.2147
350.702	-6.32202
350.918	10.53718
351.133	42.15228
351.349	37.93663
351.565	-33.71489
351.781	12.64469
351.996	2.10739
352.212	27.39791
352.428	48.47593
352.644	46.36803
352.859	-14.75104
353.075	46.36803
353.291	14.75222
353.506	12.64469
353.722	42.15228
353.938	-33.71489
354.153	80.0973
354.369	10.53718
354.584	27.39791
354.8	-25.28676
355.016	14.75222
355.231	10.53718
355.447	-56.89021
355.662	2.10739
355.878	-18.9654
356.093	44.26014
356.309	10.53718
356.524	4.2148
356.74	-10.53658
356.955	-10.53658
357.171	2.10739
357.386	46.36803
357.602	-4.2147
357.817	-14.75104
358.033	-14.75104
358.248	-8.42931
358.464	-44.2495
358.679	65.34002
358.895	-10.53658
359.11	40.04444
359.325	46.36803
359.541	71.66443
359.756	-4.2147
359.972	-23.17966
360.187	-2.10736
360.402	54.79979
360.618	33.72107
360.833	40.04444
361.048	-27.39383
361.264	52.69182
361.479	35.82884
361.694	50.58386
361.909	-16.85823
362.125	-44.2495
362.34	35.82884
362.555	44.26014
362.77	27.39791
362.986	14.75222
363.201	18.96735
363.416	-4.2147
363.631	86.42218
363.847	2.10739
364.062	21.07496
364.277	40.04444
364.492	-14.75104
364.707	-6.32202
364.922	18.96735
365.138	52.69182
365.353	44.26014
365.568	0
365.783	-33.71489
365.998	-6.32202
366.213	-4.2147
366.428	-4.2147
366.643	6.32224
366.858	10.53718
367.073	10.53718
367.288	128.59318
367.503	61.12386
367.718	52.69182
367.933	-4.2147
368.148	69.55627
368.363	37.93663
368.578	-12.64382
368.793	-10.53658
369.008	42.15228
369.223	12.64469
369.438	44.26014
369.653	-6.32202
369.868	16.85977
370.083	96.96411
370.298	77.98905
370.513	31.61332
370.728	4.2148
370.943	8.4297
371.157	-46.35635
371.372	52.69182
371.587	42.15228
371.802	48.47593
372.017	65.34002
372.232	-10.53658
372.446	14.75222
372.661	73.77262
372.876	-18.9654
373.091	65.34002
373.306	-4.2147
373.52	29.5056
373.735	44.26014
373.95	77.98905
374.165	-23.17966
374.379	48.47593
374.594	35.82884
374.809	27.39791
375.023	27.39791
375.238	-21.07254
375.453	69.55627
375.667	40.04444
375.882	6.32224
376.097	10.53718
376.311	27.39791
376.526	61.12386
376.741	-23.17966
376.955	-31.6079
377.17	10.53718
377.384	-73.74306
377.599	-6.32202
377.813	35.82884
378.028	-10.53658
378.242	18.96735
378.457	6.32224
378.672	-6.32202
378.886	4.2148
379.101	86.42218
379.315	-29.50088
379.53	35.82884
379.744	-37.92881
379.958	-29.50088
380.173	6.32224
380.387	-16.85823
380.602	61.12386
380.816	-35.82187
381.031	63.23193
381.245	61.12386
381.459	-2.10736
381.674	-29.50088
381.888	10.53718
382.103	46.36803
382.317	-40.03573
382.531	-2.10736
382.746	40.04444
382.96	18.96735
383.174	-2.10736
383.388	-10.53658
383.603	-2.10736
383.817	-31.6079
384.031	35.82884
384.246	35.82884
384.46	18.96735
384.674	-2.10736
384.888	37.93663
385.103	52.69182
385.317	-35.82187
385.531	29.5056
385.745	23.18258
385.959	18.96735
386.174	21.07496
386.388	-6.32202
386.602	-18.9654
386.816	2.10739
387.03	21.07496
387.244	56.90779
387.458	29.5056
387.672	69.55627
387.887	33.72107
388.101	120.15828
388.315	4.2148
388.529	21.07496
388.743	14.75222
388.957	88.53052
389.171	-4.2147
389.385	12.64469
389.599	-16.85823
389.813	-12.64382
390.027	27.39791
390.241	18.96735
390.455	-14.75104
390.669	27.39791
390.883	18.96735
391.097	2.10739
391.311	4.2148
391.525	-6.32202
391.738	-63.21022
391.952	42.15228
392.166	21.07496
392.38	52.69182
392.594	-23.17966
392.808	40.04444
393.022	10.53718
393.236	69.55627
393.449	-12.64382
393.663	50.58386
393.877	-31.6079
394.091	29.5056
394.305	-4.2147
394.518	6.32224
394.732	96.96411
394.946	63.23193
395.16	-69.53
395.373	69.55627
395.587	52.69182
395.801	63.23193
396.015	71.66443
396.228	-10.53658
396.442	52.69182
396.656	12.64469
396.869	-21.07254
397.083	29.5056
397.297	-18.9654
397.51	18.96735
397.724	65.34002
397.938	40.04444
398.151	48.47593
398.365	44.26014
398.578	-23.17966
398.792	-61.10358
399.005	12.64469
399.219	35.82884
399.433	-50.56997
399.646	10.53718
399.86	21.07496
400.073	48.47593
400.287	4.2148
400.5	10.53718
400.714	16.85977
400.927	86.42218
401.141	48.47593
401.354	4.2148
401.567	-37.92881
401.781	46.36803
401.994	50.58386
402.208	44.26014
402.421	96.96411
402.635	21.07496
402.848	46.36803
403.061	44.26014
403.275	63.23193
403.488	75.88082
403.701	2.10739
403.915	-37.92881
404.128	-65.31684
404.341	37.93663
404.555	12.64469
404.768	-48.46317
404.981	4.2148
405.195	-6.32202
405.408	-27.39383
405.621	37.93663
405.834	73.77262
406.048	-12.64382
406.261	44.26014
406.474	8.4297
406.687	8.4297
406.9	-18.9654
407.114	-4.2147
407.327	-12.64382
407.54	-58.9969
407.753	2.10739
407.966	-18.9654
408.179	35.82884
408.392	37.93663
408.605	73.77262
408.819	10.53718
409.032	48.47593
409.245	44.26014
409.458	10.53718
409.671	48.47593
409.884	4.2148
410.097	31.61332
410.31	-4.2147
410.523	61.12386
410.736	40.04444
410.949	52.69182
411.162	46.36803
411.375	6.32224
411.588	25.29023
411.801	69.55627
412.014	4.2148
412.227	-12.64382
412.44	35.82884
412.653	40.04444
412.865	35.82884
413.078	69.55627
413.291	71.66443
413.504	61.12386
413.717	10.53718
413.93	86.42218
414.143	2.10739
414.356	-2.10736
414.568	-31.6079
414.781	-48.46317
414.994	-52.67674
415.207	21.07496
415.42	48.47593
415.632	-4.2147
415.845	4.2148
416.058	-14.75104
416.271	48.47593
416.483	-27.39383
416.696	-14.75104
416.909	-65.31684
417.121	-12.64382
417.334	31.61332
417.547	44.26014
417.759	-44.2495
417.972	86.42218
418.185	23.18258
418.397	-10.53658
418.61	-14.75104
418.823	-65.31684
419.035	73.77262
419.248	35.82884
419.46	2.10739
419.673	46.36803
419.885	48.47593
420.098	10.53718
420.311	84.31387
420.523	-14.75104
420.736	-10.53658
420.948	111.72373
421.161	46.36803
421.373	14.75222
421.586	54.79979
421.798	61.12386
422.01	27.39791
422.223	37.93663
422.435	2.10739
422.648	-4.2147
422.86	27.39791
423.073	23.18258
423.285	-21.07254
423.497	35.82884
423.71	-18.9654
423.922	-37.92881
424.134	61.12386
424.347	-29.50088
424.559	-61.10358
424.771	-44.2495
424.984	-23.17966
425.196	2.10739
425.408	69.55627
425.621	-23.17966
425.833	12.64469
426.045	18.96735
426.257	-4.2147
426.47	69.55627
426.682	37.93663
426.894	69.55627
427.106	-25.28676
427.318	-2.10736
427.531	12.64469
427.743	86.42218
427.955	2.10739
428.167	63.23193
428.379	35.82884
428.591	73.77262
428.804	-6.32202
429.016	37.93663
429.228	16.85977
429.44	115.94096
429.652	73.77262
429.864	37.93663
430.076	-23.17966
430.288	10.53718
430.5	56.90779
430.712	69.55627
430.924	-10.53658
431.136	46.36803
431.348	46.36803
431.56	52.69182
431.772	48.47593
431.984	2.10739
432.196	35.82884
432.408	-48.46317
432.62	-12.64382
432.832	59.01582
433.044	40.04444
433.256	23.18258
433.468	-21.07254
433.679	61.12386
433.891	18.96735
434.103	12.64469
434.315	4.2148
434.527	48.47593
434.739	-37.92881
434.95	2.10739
435.162	75.88082
435.374	-48.46317
435.586	77.98905
435.798	44.26014
436.009	46.36803
436.221	115.94096
436.433	37.93663
436.645	4.2148
436.856	44.26014
437.068	-12.64382
437.28	35.82884
437.491	16.85977
437.703	8.4297
437.915	94.85568
438.126	88.53052
438.338	4.2148
438.55	40.04444
438.761	10.53718
438.973	-16.85823
439.184	61.12386
439.396	40.04444
439.608	-10.53658
439.819	-10.53658
440.031	-2.10736
440.242	14.75222
440.454	27.39791
440.665	65.34002
440.877	23.18258
441.088	18.96735
441.3	86.42218
441.511	29.5056
441.723	44.26014
441.934	29.5056
442.146	27.39791
442.357	18.96735
442.569	10.53718
442.78	-8.42931
442.991	-27.39383
443.203	-90.59428
443.414	14.75222
443.626	-10.53658
443.837	37.93663
444.048	40.04444
444.26	-4.2147
444.471	2.10739
444.682	-40.03573
444.894	25.29023
445.105	4.2148
445.316	10.53718
445.528	44.26014
445.739	86.42218
445.95	44.26014
446.161	14.75222
446.373	-14.75104
446.584	23.18258
446.795	80.0973
447.006	-35.82187
447.217	31.61332
447.429	4.2148
447.64	6.32224
447.851	8.4297
448.062	77.98905
448.273	59.01582
448.484	18.96735
448.695	-63.21022
448.907	46.36803
449.118	-56.89021
449.329	-23.17966
449.54	44.26014
449.751	-23.17966
449.962	73.77262
450.173	56.90779
450.384	52.69182
450.595	40.04444
450.806	52.69182
451.017	90.63889
451.228	8.4297
451.439	27.39791
451.65	-56.89021
451.861	61.12386
452.072	18.96735
452.283	-8.42931
452.494	27.39791
452.705	27.39791
452.915	2.10739
453.126	27.39791
453.337	25.29023
453.548	29.5056
453.759	52.69182
453.97	-18.9654
454.181	-2.10736
454.391	-10.53658
454.602	4.2148
454.813	-10.53658
455.024	-44.2495
455.235	16.85977
455.445	-40.03573
455.656	92.74727
455.867	-27.39383
456.078	103.28953
456.288	23.18258
456.499	10.53718
456.71	2.10739
456.921	65.34002
457.131	46.36803
457.342	52.69182
457.553	48.47593
457.763	77.98905
457.974	128.59318
458.184	2.10739
458.395	18.96735
458.606	77.98905
458.816	-12.64382
459.027	14.75222
459.237	-4.2147
459.448	69.55627
459.659	-37.92881
459.869	29.5056
460.08	10.53718
460.29	46.36803
460.501	-6.32202
460.711	25.29023
460.922	44.26014
461.132	52.69182
461.343	46.36803
461.553	65.34002
461.764	-2.10736
461.974	27.39791
462.184	-10.53658
462.395	40.04444
462.605	46.36803
462.816	-6.32202
463.026	111.72373
463.236	92.74727
463.447	-23.17966
463.657	35.82884
463.867	-10.53658
464.078	-16.85823
464.288	44.26014
464.498	37.93663
464.709	-35.82187
464.919	-31.6079
465.129	71.66443
465.339	35.82884
465.55	44.26014
465.76	35.82884
465.97	6.32224
466.18	35.82884
466.391	2.10739
466.601	6.32224
466.811	8.4297
467.021	31.61332
467.231	-50.56997
467.441	71.66443
467.651	44.26014
467.862	-6.32202
468.072	2.10739
468.282	25.29023
468.492	14.75222
468.702	56.90779
468.912	12.64469
469.122	2.10739
469.332	44.26014
469.542	59.01582
469.752	27.39791
469.962	120.15828
470.172	46.36803
470.382	-37.92881
470.592	-23.17966
470.802	23.18258
471.012	52.69182
471.222	12.64469
471.432	84.31387
471.642	94.85568
471.852	31.61332
472.062	77.98905
472.272	-6.32202
472.482	4.2148
472.691	141.24617
472.901	23.18258
473.111	44.26014
473.321	48.47593
473.531	29.5056
473.741	-18.9654
473.95	-27.39383
474.16	59.01582
474.37	86.42218
474.58	46.36803
474.79	27.39791
474.999	46.36803
475.209	-29.50088
475.419	2.10739
475.628	54.79979
475.838	35.82884
476.048	-27.39383
476.258	61.12386
476.467	6.32224
476.677	50.58386
476.886	10.53718
477.096	40.04444
477.306	27.39791
477.515	23.18258
477.725	69.55627
477.935	10.53718
478.144	8.4297
478.354	18.96735
478.563	35.82884
478.773	71.66443
478.982	2.10739
479.192	65.34002
479.401	-18.9654
479.611	90.63889
479.82	46.36803
480.03	46.36803
480.239	14.75222
480.449	46.36803
480.658	82.20557
480.868	44.26014
481.077	31.61332
481.287	44.26014
481.496	77.98905
481.705	92.74727
481.915	12.64469
482.124	21.07496
482.333	-31.6079
482.543	18.96735
482.752	40.04444
482.961	48.47593
483.171	56.90779
483.38	73.77262
483.589	86.42218
483.799	12.64469
484.008	-6.32202
484.217	88.53052
484.426	73.77262
484.636	14.75222
484.845	80.0973
485.054	73.77262
485.263	-42.14263
485.472	67.44814
485.682	73.77262
485.891	2.10739
486.1	61.12386
486.309	-46.35635
486.518	18.96735
486.727	86.42218
486.936	86.42218
487.146	-8.42931
487.355	6.32224
487.564	69.55627
487.773	37.93663
487.982	69.55627
488.191	6.32224
488.4	69.55627
488.609	128.59318
488.818	40.04444
489.027	-12.64382
489.236	77.98905
489.445	29.5056
489.654	56.90779
489.863	67.44814
490.072	61.12386
490.281	6.32224
490.49	88.53052
490.698	-10.53658
490.907	35.82884
491.116	63.23193
491.325	103.28953
491.534	44.26014
491.743	52.69182
491.952	42.15228
492.16	35.82884
492.369	4.2148
492.578	141.24617
492.787	12.64469
492.996	113.83233
493.204	84.31387
493.413	10.53718
493.622	35.82884
493.831	94.85568
494.039	35.82884
494.248	69.55627
494.457	61.12386
494.665	40.04444
494.874	84.31387
495.083	65.34002
495.291	99.07256
495.5	35.82884
495.709	14.75222
495.917	29.5056
496.126	137.02842
496.335	69.55627
496.543	50.58386
496.752	137.02842
496.96	37.93663
497.169	-6.32202
497.377	128.59318
497.586	44.26014
497.794	103.28953
498.003	73.77262
498.211	42.15228
498.42	113.83233
498.628	-10.53658
498.837	105.39804
499.045	-35.82187
499.254	18.96735
499.462	52.69182
499.671	137.02842
499.879	37.93663
500.087	120.15828
500.296	33.72107
500.504	37.93663
500.713	40.04444
500.921	103.28953
501.129	113.83233
501.338	107.50658
501.546	99.07256
501.754	6.32224
501.962	73.77262
502.171	88.53052
502.379	103.28953
502.587	103.28953
502.795	120.15828
503.004	120.15828
503.212	77.98905
503.42	82.20557
503.628	37.93663
503.837	92.74727
504.045	115.94096
504.253	137.02842
504.461	124.37568
504.669	94.85568
504.877	132.81075
505.085	187.64696
505.294	111.72373
505.502	94.85568
505.71	-6.32202
505.918	82.20557
506.126	130.70195
506.334	130.70195
506.542	113.83233
506.75	37.93663
506.958	77.98905
507.166	128.59318
507.374	120.15828
507.582	77.98905
507.79	128.59318
507.998	69.55627
508.206	111.72373
508.414	172.88198
508.622	130.70195
508.83	69.55627
509.037	69.55627
509.245	120.15828
509.453	77.98905
509.661	75.88082
509.869	141.24617
510.077	128.59318
510.285	137.02842
510.492	132.81075
510.7	128.59318
510.908	151.79091
511.116	107.50658
511.324	122.26697
511.531	107.50658
511.739	88.53052
511.947	99.07256
512.155	139.13728
512.362	56.90779
512.57	124.37568
512.778	132.81075
512.985	147.57295
513.193	221.39921
513.401	137.02842
513.608	147.57295
513.816	120.15828
514.024	208.74152
514.231	181.31899
514.439	126.48442
514.646	172.88198
514.854	156.00896
515.061	149.68192
515.269	172.88198
515.477	212.96067
515.684	153.89993
515.892	215.07028
516.099	193.97512
516.307	170.77278
516.514	217.1799
516.722	139.13728
516.929	185.53762
517.136	255.15652
517.344	179.20971
517.551	120.15828
517.759	137.02842
517.966	132.81075
518.173	90.63889
518.381	269.92688
518.588	238.27725
518.796	259.37653
519.003	179.20971
519.21	215.07028
519.418	177.10045
519.625	174.9912
519.832	137.02842
520.039	132.81075
520.247	255.15652
520.454	234.05762
520.661	191.86571
520.868	219.28955
521.076	120.15828
521.283	234.05762
521.49	229.83807
521.697	284.69817
521.904	284.69817
522.112	183.42829
522.319	272.03701
522.526	196.08454
522.733	229.83807
522.94	280.47771
523.147	215.07028
523.354	196.08454
523.561	242.49695
523.768	170.77278
523.975	217.1799
524.183	172.88198
524.39	212.96067
524.597	255.15652
524.804	299.47036
525.011	255.15652
525.218	284.69817
525.425	284.69817
525.632	263.59661
525.838	280.47771
526.045	250.93658
526.252	183.42829
526.459	212.96067
526.666	191.86571
526.873	267.81677
527.08	240.38709
527.287	305.80158
527.494	299.47036
527.701	297.36
527.907	282.58793
528.114	263.59661
528.321	272.03701
528.528	276.25732
528.735	240.38709
528.941	375.45547
529.148	362.78973
529.355	301.58075
529.562	305.80158
529.768	350.12459
529.975	229.83807
530.182	367.01157
530.388	274.14716
530.595	337.46008
530.802	335.34939
531.008	299.47036
531.215	333.23872
531.422	299.47036
531.628	364.90064
531.835	453.574
532.042	369.12252
532.248	364.90064
532.455	350.12459
532.661	381.78858
532.868	356.45708
533.074	424.01305
533.281	459.90888
533.487	428.23586
533.694	415.56764
533.9	419.79031
534.107	320.57505
534.313	502.14492
534.52	390.23295
534.726	329.01742
534.933	424.01305
535.139	419.79031
535.345	453.574
535.552	451.4624
535.758	392.34408
535.965	472.57906
536.171	381.78858
536.377	502.14492
536.584	375.45547
536.79	451.4624
536.996	457.79724
537.203	525.37723
537.409	453.574
537.615	470.46733
537.821	432.45872
538.028	584.52165
538.234	500.03297
538.44	493.69724
538.646	470.46733
538.853	529.60148
539.059	462.02054
539.265	535.93795
539.471	538.05013
539.677	550.72353
539.883	485.24979
540.09	599.30939
540.296	592.97171
540.502	516.92892
540.708	554.94811
540.914	704.95367
541.12	527.48935
541.326	677.48332
541.532	516.92892
541.738	603.53457
541.944	643.67633
542.15	654.24069
542.356	576.0718
542.562	552.83581
542.768	525.37723
542.974	669.03129
543.18	643.67633
543.386	658.46652
543.592	698.61419
543.798	774.69432
544.004	662.69239
544.21	641.5635
544.415	639.45067
544.621	723.97271
544.827	662.69239
545.033	745.10599
545.239	601.42197
545.445	736.65255
545.651	681.7094
545.856	721.85944
546.062	749.33277
546.268	774.69432
546.474	681.7094
546.679	762.01336
546.885	677.48332
547.091	730.31258
547.297	713.40647
547.502	751.44618
547.708	698.61419
547.914	656.3536
548.119	707.06685
548.325	846.55961
548.531	755.67302
548.736	774.69432
548.942	688.04861
549.147	793.71643
549.353	800.0573
549.559	871.92631
549.764	831.76294
549.97	905.75044
550.175	816.96672
550.381	890.95213
550.586	909.9786
550.792	1009.34873
550.997	888.83812
551.203	952.26187
551.408	876.15421
551.614	918.43502
551.819	865.58452
552.025	964.94741
552.23	914.20679
552.435	952.26187
552.641	787.37564
552.846	1060.09644
553.052	954.37611
553.257	1047.4092
553.462	1022.03534
553.668	912.09269
553.873	948.03341
554.078	1144.68274
554.283	916.3209
554.489	1134.10904
554.694	990.31924
554.899	1011.46315
555.105	950.14763
555.31	1136.22377
555.515	1112.96198
555.72	1176.40445
555.925	1049.52372
556.131	1108.73262
556.336	1085.4715
556.541	1153.14177
556.746	1051.63825
556.951	1064.32556
557.156	1121.42075
557.361	1347.71381
557.567	1294.83886
557.772	1184.86372
557.977	1110.84729
558.182	1231.3907
558.387	1138.33851
558.592	1286.37898
558.797	1184.86372
559.002	1153.14177
559.207	1269.45932
559.412	1296.95383
559.617	1303.29877
559.822	1309.64373
560.027	1244.08014
560.232	1339.25374
560.437	1227.16091
560.642	1260.99955
560.847	1305.41376
561.051	1421.74009
561.256	1267.34438
561.461	1421.74009
561.666	1244.08014
561.871	1375.20915
562.076	1453.46586
562.281	1523.26242
562.485	1231.3907
562.69	1430.20029
562.895	1210.24188
563.1	1398.47458
563.305	1345.59879
563.509	1544.41274
563.714	1489.42173
563.919	1472.50133
564.123	1455.58092
564.328	1430.20029
564.533	1489.42173
564.737	1495.76687
564.942	1311.75872
565.147	1622.6677
565.351	1489.42173
565.556	1461.92607
565.761	1474.61638
565.965	1514.80227
566.17	1434.43039
566.374	1472.50133
566.579	1616.32279
566.784	1612.09285
566.988	1457.69597
567.193	1675.54108
567.397	1483.07658
567.602	1514.80227
567.806	1387.89937
568.011	1561.33292
568.215	1459.81102
568.42	1724.18306
568.624	1603.63293
568.828	1785.51167
569.033	1688.23045
569.237	1709.37915
569.442	1506.3421
569.646	1709.37915
569.85	1707.2643
570.055	1802.42933
570.259	1432.31534
570.463	1963.13168
570.668	1796.08524
570.872	1857.40976
571.076	1709.37915
571.281	1857.40976
571.485	1872.21164
571.689	1975.81735
571.893	1629.01258
572.098	1747.446
572.302	1802.42933
572.506	1980.04585
572.71	1703.03457
572.914	1986.38856
573.119	1817.23206
573.323	2054.0405
573.527	1819.34672
573.731	1958.90308
573.935	1901.81463
574.139	2132.25401
574.343	1870.0971
574.547	1956.78876
574.751	1876.4407
574.955	2136.48148
575.159	1984.27433
575.364	2041.35629
575.568	1789.74111
575.772	2100.54706
575.976	2035.01409
576.18	1920.84457
576.383	2123.799
576.587	2089.9777
576.791	1876.4407
576.995	2130.14027
577.199	1982.1601
577.403	2109.00242
577.607	2056.15451
577.811	2227.364
578.015	1990.61701
578.219	2174.52719
578.422	2066.72445
578.626	2043.47034
578.83	2073.06634
579.034	2170.30002
579.238	2174.52719
579.442	2047.69842
579.645	2119.57144
579.849	2299.21318
580.053	2117.45765
580.257	2254.83699
580.46	2225.25063
580.664	2208.34336
580.868	2218.91047
581.071	2290.76089
581.275	2225.25063
581.479	2307.66532
581.682	2111.11624
581.886	2318.23028
582.09	2318.23028
582.293	2303.43927
582.497	2259.06347
582.7	2379.50222
582.904	2406.96619
583.107	2455.55193
583.311	2275.96902
583.515	2453.43962
583.718	2343.5852
583.922	2292.87398
584.125	2284.42157
584.329	2632.94484
584.532	2354.14933
584.735	2749.0482
584.939	2516.80396
585.142	2512.57999
585.346	2472.44998
585.549	2715.27671
585.753	2470.33776
585.956	2622.38809
586.159	2529.47561
586.363	2784.92666
586.566	2474.56218
586.769	2459.77651
586.973	2461.88878
587.176	2723.7199
587.379	2554.81766
587.582	2787.03703
587.786	2590.71599
587.989	2818.69103
588.192	2499.90779
588.395	2742.7163
588.599	2563.26463
588.802	2723.7199
589.005	2630.83352
589.208	2863.00136
589.411	2626.61083
589.615	2827.13157
589.818	2694.16783
590.021	2763.82215
590.224	2675.16874
590.427	2852.45185
590.63	2757.49054
590.833	2943.16596
591.036	2772.26412
591.239	2928.40038
591.442	2892.53812
591.645	2924.18151
591.848	2751.1588
592.051	2909.415
592.254	2789.14739
592.457	3141.37453
592.66	2818.69103
592.863	3139.26666
593.066	2915.74359
593.269	3208.81789
593.472	2943.16596
593.675	3352.07828
593.878	2917.85309
594.081	3267.81695
594.284	3014.87413
594.486	3189.85114
594.689	3029.6354
594.892	3208.81789
595.095	3069.6979
595.298	3223.56888
595.5	3094.99763
595.703	3238.31906
595.906	3054.93868
596.109	3250.96142
596.311	2951.60312
596.514	3215.13984
596.717	3170.88306
596.92	3305.73794
597.122	3090.78116
597.325	3427.88971
597.528	3191.95862
597.73	3189.85114
597.933	3151.91365
598.136	3451.04974
598.338	3305.73794
598.541	3389.98685
598.743	3408.939
598.946	3398.4102
599.148	3124.5111
599.351	3394.19856
599.554	3341.54712
599.756	3381.56321
599.959	3284.67141
600.161	3429.99526
600.363	3469.99723
600.566	3676.2181
600.768	3383.66915
600.971	3448.94437
601.173	3524.72621
601.376	3768.74802
601.578	3448.94437
601.78	3558.39943
601.983	3406.83328
602.185	3684.63145
602.388	3573.12997
602.59	3653.07982
602.792	3495.25829
602.995	3831.81499
603.197	3625.73161
603.399	3642.56165
603.601	3499.46821
603.804	3520.51672
604.006	3573.12997
604.208	3812.89676
604.41	3552.08606
604.613	3680.42482
604.815	3535.24959
605.017	3878.0528
605.219	3589.96377
605.421	3812.89676
605.623	3579.44279
605.826	3779.26041
606.028	3676.2181
606.23	3875.95129
606.432	3804.48814
606.634	3787.66997
606.836	3549.98156
607.038	3697.25091
607.24	3617.31614
607.442	3955.79451
607.644	3730.89939
607.846	4008.30699
608.048	3945.29049
608.25	4014.60763
608.452	3735.10511
608.654	4031.40843
608.856	3745.61905
609.058	4144.77915
609.26	3812.89676
609.462	4071.30504
609.664	3997.80552
609.866	3970.49929
610.067	3903.26935
610.269	3783.46523
610.471	3928.483
610.673	4174.16161
610.875	4117.49175
611.077	4138.48237
611.278	3962.09668
611.48	4041.90826
611.682	3974.70048
611.884	4012.50744
612.085	3970.49929
612.287	3989.40397
612.489	3831.81499
612.69	4167.86571
612.892	3945.29049
613.094	4203.53993
613.295	3871.74821
613.497	4025.10829
613.699	3936.88691
613.9	4071.30504
614.102	3999.90585
614.304	4180.45731
614.505	4031.40843
614.707	4327.30269
614.908	3911.67422
615.11	4308.42845
615.311	4039.80834
615.513	4232.91409
615.714	4077.60382
615.916	4176.26019
616.117	4016.7078
616.319	4262.28408
616.52	4058.70692
616.722	4130.08637
616.923	4050.30775
617.124	4260.18636
617.326	4130.08637
617.527	4446.79874
617.729	4172.063
617.93	4230.81608
618.131	4197.24492
618.333	4235.01209
618.534	4293.74728
618.735	4356.65914
618.937	4300.03934
619.138	4344.07832
619.339	4255.99087
619.54	4369.23917
619.742	4151.07574
619.943	4381.81843
620.144	4226.61998
620.345	4197.24492
620.546	4169.96436
620.748	4568.31808
620.949	4316.81721
621.15	4474.04229
621.351	4148.97689
621.552	4484.51959
621.753	4197.24492
621.954	4427.93565
622.155	4331.49673
622.356	4528.51821
622.558	4274.86994
622.759	4308.42845
622.96	4230.81608
623.161	4432.1276
623.362	4308.42845
623.563	4545.27703
623.764	4297.942
623.965	4601.82754
624.166	4490.8057
624.366	4488.71035
624.567	4398.58955
624.768	4587.16785
624.969	4245.50174
625.17	4685.57613
625.371	4591.35645
625.572	4591.35645
625.773	4279.06505
625.973	4624.86197
626.174	4595.54495
626.375	4712.78669
626.576	4683.48286
626.777	4771.38107
626.977	4526.42326
627.178	4786.02689
627.379	4649.98736
627.58	4610.20401
627.78	4612.29807
627.981	4689.76262
628.182	4725.34412
628.382	4804.8556
628.583	4589.26216
628.784	4800.6716
628.984	4566.22355
629.185	4631.14362
629.386	4383.9149
629.586	4769.28872
629.787	4545.27703
629.987	4719.0655
630.188	4455.18177
630.388	4875.96962
630.589	4719.0655
630.79	4834.14103
630.99	4549.46651
631.191	4681.38956
631.391	4708.6007
631.591	4767.19635
631.792	4863.422
631.992	4934.51426
632.193	4700.22844
632.393	5070.35192
632.594	4641.61259
632.794	5101.68521
632.994	4744.17874
633.195	5051.54945
633.395	4673.01613
633.595	4729.52975
633.796	4982.59103
633.996	5051.54945
634.196	4691.85583
634.397	4963.77983
634.597	4545.27703
634.797	4844.59904
634.997	4756.73414
635.198	5168.51209
635.398	4794.39543
635.598	5147.63124
635.798	4940.78583
635.998	5107.95124
636.199	4896.88048
636.399	5158.07195
636.599	4926.15184
636.799	5168.51209
636.999	4804.8556
637.199	4959.59931
637.399	4775.5657
637.599	5026.47657
637.799	4901.06238
637.999	5018.1182
638.199	5043.19219
638.399	5005.57996
638.599	5168.51209
638.799	5260.36011
638.999	4963.77983
639.199	5310.43996
639.399	5080.79693
639.599	5208.17927
639.799	4806.94756
639.999	5110.03987
640.199	5034.83457
640.399	5341.73303
640.599	4903.15329
640.799	5414.72965
640.998	5045.28154
641.198	5233.22789
641.398	4921.97049
641.598	5300.00777
641.798	5126.74807
641.997	5212.35427
642.197	5018.1182
642.397	5285.40172
642.597	5212.35427
642.796	5168.51209
642.996	5195.6537
643.196	5218.6166
643.395	5347.99101
643.595	5558.55295
643.795	5304.18072
643.994	5485.61311
644.194	5345.90504
644.394	5162.24808
644.593	5379.27774
644.793	5199.82898
644.992	5195.6537
645.192	5404.30333
645.392	5389.70548
645.591	5245.75094
645.791	5287.48837
645.99	5489.78187
646.19	5293.74818
646.389	5593.97046
646.589	5485.61311
646.788	5552.3021
646.987	5295.83473
647.187	5368.84942
647.386	5247.83804
647.586	5598.13678
647.785	5370.93513
647.984	5573.13746
648.184	5345.90504
648.383	5754.3056
648.582	5427.24047
648.782	5646.04266
648.981	5297.92126
649.18	5662.70265
649.38	5537.71594
649.579	5687.6898
649.778	5535.63211
649.977	5764.71213
650.177	5541.88353
650.376	5906.18243
650.575	5446.00512
650.774	5521.04463
650.973	5693.93606
651.173	5627.29837
651.372	5535.63211
651.571	5897.86366
651.77	5666.86741
651.969	5860.42457
652.168	5443.92025
652.367	5685.60767
652.566	5404.30333
652.765	5777.19919
652.964	5668.94976
653.163	5935.29512
653.362	5568.97057
653.561	5789.68541
653.76	5550.21843
653.959	5833.38046
654.158	5471.02168
654.357	5883.30492
654.556	5729.32751
654.755	5872.90511
654.954	5443.92025
655.153	5752.22422
655.352	5804.25158
655.551	6055.85563
655.749	5935.29512
655.948	6057.93357
656.147	5839.62176
656.346	6217.86394
656.545	5704.34602
656.743	5902.02309
656.942	5841.70215
657.141	5881.22501
657.34	5870.82508
657.538	5700.1821
657.737	5775.11808
657.936	6134.80062
658.135	5860.42457
658.333	5885.38481
658.532	5833.38046
658.731	5985.19184
658.929	5974.79781
659.128	5804.25158
659.326	5885.38481
659.525	5920.73935
659.724	5643.96005
659.922	5843.78251
660.121	5781.36136
660.319	5858.34439
660.518	5737.65391
660.716	6103.64218
660.915	5560.63652
661.113	6149.33941
661.312	5721.00072
661.51	6138.95467
661.709	6101.56476
661.907	6097.40986
662.105	6060.01148
662.304	6321.64036
662.502	5893.70414
662.701	6369.35789
662.899	5985.19184
663.097	6232.39616
663.296	6126.49222
663.494	6209.5593
663.692	6138.95467
663.891	6209.5593
664.089	5868.74503
664.287	6296.73936
664.485	6078.71162
664.684	6414.98919
664.882	6176.33697
665.08	6201.25428
665.278	6114.02891
665.476	6122.33788
665.675	6043.38753
665.873	6080.7893
666.071	5889.54452
666.269	6271.83498
666.467	6026.76208
666.665	6192.94889
666.863	5926.97768
667.061	6234.4721
667.259	6008.05664
667.457	6203.33057
667.655	5785.52343
667.853	6269.75947
668.051	6111.95161
668.249	6321.64036
668.447	6118.18344
668.645	6294.66412
668.843	6062.08937
669.041	6259.38153
669.239	6070.40068
669.437	6358.98556
669.635	5893.70414
669.833	6305.04007
670.031	5735.57235
670.229	6120.26067
670.426	6018.44878
670.624	6076.63392
670.822	6111.95161
671.02	6213.71167
671.218	6003.89961
671.415	6261.45717
671.613	5989.34929
671.811	6228.24422
672.009	6163.87705
672.206	6259.38153
672.404	5995.58528
672.602	6159.72356
672.799	6315.41543
672.997	6313.3404
673.195	6201.25428
673.392	6558.03256
673.59	6188.79605
673.788	6271.83498
673.985	6043.38753
674.183	6396.3232
674.38	6311.26535
674.578	6481.34189
674.775	6180.49009
674.973	6504.14513
675.17	6219.94004
675.368	6246.92724
675.565	6182.56662
675.763	6408.7674
675.96	6032.9968
676.158	6533.16339
676.355	6045.46561
676.553	6549.74321
676.75	6265.60836
676.947	6570.4659
677.145	6491.70735
677.342	6300.88976
677.539	6168.03045
677.737	6305.04007
677.934	6118.18344
678.131	6379.72963
678.329	6491.70735
678.526	6497.92634
678.723	6398.39729
678.92	6742.37529
679.118	6487.56123
679.315	6317.49043
679.512	6188.79605
679.709	6315.41543
679.906	5995.58528
680.104	6437.80062
680.301	6101.56476
680.498	6151.41629
680.695	6197.10163
680.892	6512.43653
681.089	6481.34189
681.286	6458.53583
681.483	6145.18559
681.68	6263.53278
681.877	6419.13693
682.075	6327.86509
682.272	6074.5562
682.469	6417.06307
682.665	6178.41354
682.862	6317.49043
683.059	6251.07876
683.256	6338.23916
683.453	5912.42125
683.65	6149.33941
683.847	5951.92887
684.044	6226.16821
684.241	6045.46561
684.438	6495.85337
684.635	6068.32289
684.831	6396.3232
685.028	6186.7196
685.225	6037.15316
685.422	6111.95161
685.619	6209.5593
685.815	6157.64677
686.012	6292.58886
686.209	6116.10619
686.405	6394.24909
686.602	6107.79694
686.799	6275.98595
686.996	6186.7196
687.192	6344.46333
687.389	6001.82107
687.586	6182.56662
687.782	6124.41506
687.979	6255.2302
688.175	5985.19184
688.372	6265.60836
688.568	6068.32289
688.765	6209.5593
688.962	6084.94458
689.158	6392.17495
689.355	6122.33788
689.551	6327.86509
689.748	6020.52714
689.944	6414.98919
690.14	5910.34167
690.337	6373.50665
690.533	6184.64312
690.73	6136.87766
690.926	6230.3202
691.123	6087.02218
691.319	6319.56541
691.515	6093.25486
691.712	6078.71162
691.908	6234.4721
692.104	6070.40068
692.301	6114.02891
692.497	5862.50472
692.693	6361.06007
692.889	6128.56935
693.086	6371.43228
693.282	6109.87429
693.478	6294.66412
693.674	6199.17797
693.87	6155.56997
694.067	6051.69969
694.263	6408.7674
694.459	6045.46561
694.655	6342.38863
694.851	5912.42125
695.047	6325.7902
695.243	6109.87429
695.439	6111.95161
695.635	6141.03167
695.831	6116.10619
696.027	6089.09977
696.224	6305.04007
696.42	5987.27058
696.615	6145.18559
696.811	6076.63392
697.007	6269.75947
697.203	6055.85563
697.399	5987.27058
697.595	6176.33697
697.791	6278.06139
697.987	6101.56476
698.183	6361.06007
698.379	6199.17797
698.575	6111.95161
698.77	6039.23131
698.966	6138.95467
699.162	6053.77768
699.358	6327.86509
699.554	6275.98595
699.749	6419.13693
699.945	5970.64003
700.141	6433.65329
700.337	6271.83498
700.532	6203.33057
700.728	6047.54366
700.924	6402.54541
701.119	6288.43827
701.315	6246.92724
701.511	5870.82508
701.706	6030.91858
701.902	5945.69139
702.097	6151.41629
702.293	6001.82107
702.489	6325.7902
702.684	6327.86509
702.88	6300.88976
703.075	6203.33057
703.271	6043.38753
703.466	6172.18376
703.662	5976.87667
703.857	6051.69969
704.053	6159.72356
704.248	6035.07499
704.443	6417.06307
704.639	6120.26067
704.834	6111.95161
705.03	6209.5593
705.225	6317.49043
705.42	5983.11308
705.616	6249.00301
705.811	5854.18397
706.006	6249.00301
706.202	6116.10619
706.397	6126.49222
706.592	6249.00301
706.787	6348.61265
706.983	6290.51358
707.178	6203.33057
707.373	6182.56662
707.568	6280.13682
707.763	6120.26067
707.959	6230.3202
708.154	6174.26038
708.349	6286.36294
708.544	6116.10619
708.739	6195.02527
708.934	6039.23131
709.129	6168.03045
709.324	6076.63392
709.519	6408.7674
709.714	5954.00798
709.909	6051.69969
710.104	5835.46092
710.299	6172.18376
710.494	5775.11808
710.689	6039.23131
710.884	6074.5562
711.079	6251.07876
711.274	6076.63392
711.469	6460.60923
711.664	5951.92887
711.859	6049.62169
712.054	5993.50664
712.249	6128.56935
712.443	5933.21579
712.638	6226.16821
712.833	5743.89847
713.028	6141.03167
713.223	6064.16723
713.417	6315.41543
713.612	6060.01148
713.807	6222.01612
714.002	6350.68728
714.196	6143.10864
714.391	5926.97768
714.586	6143.10864
714.78	6126.49222
714.975	6286.36294
715.17	5768.87458
715.364	6236.54802
715.559	6049.62169
715.754	6159.72356
715.948	6134.80062
716.143	6209.5593
716.337	6055.85563
716.532	6078.71162
716.726	6014.292
716.921	6151.41629
717.115	5902.02309
717.31	6109.87429
717.504	5960.24518
717.699	6267.68393
717.893	6101.56476
718.088	6170.10712
718.282	5906.18243
718.476	5908.26206
718.671	5704.34602
718.865	6178.41354
719.059	5770.95577
719.254	5906.18243
719.448	5852.10373
719.642	6209.5593
719.837	5608.55216
720.031	6105.71957
720.225	5825.0584
720.419	5829.21948
720.614	5877.06511
720.808	5999.7425
721.002	5648.12524
721.196	6057.93357
721.39	5972.71894
721.585	6035.07499
721.779	5879.14507
721.973	6057.93357
722.167	5618.96696
722.361	5748.06139
722.555	5908.26206
722.749	5889.54452
722.943	5845.86285
723.137	5926.97768
723.331	5770.95577
723.525	6116.10619
723.719	5954.00798
723.913	6257.30588
724.107	5837.54135
724.301	6005.97814
724.495	5789.68541
724.689	5954.00798
724.883	5995.58528
725.077	6180.49009
725.271	5843.78251
725.465	6003.89961
725.659	5943.61218
725.853	5991.42798
726.046	5895.78391
726.24	5822.97782
726.434	5589.80405
726.628	6136.87766
726.822	5777.19919
727.015	6099.48732
727.209	5760.54959
727.403	5989.34929
727.596	5872.90511
727.79	6134.80062
727.984	5962.3242
728.177	6093.25486
728.371	5910.34167
728.565	5879.14507
728.758	5762.63087
728.952	6018.44878
729.146	5641.87743
729.339	6093.25486
729.533	5822.97782
729.726	6217.86394
729.92	5978.9555
730.113	5962.3242
730.307	5947.77057
730.5	6251.07876
730.694	6068.32289
730.887	5920.73935
731.081	6028.84034
731.274	6026.76208
731.468	5810.49387
731.661	5920.73935
731.854	5525.2126
732.048	6103.64218
732.241	5733.49076
732.435	5868.74503
732.628	5920.73935
732.821	5931.13645
733.014	5935.29512
733.208	5993.50664
733.401	6012.21357
733.594	5920.73935
733.788	5912.42125
733.981	5976.87667
734.174	6030.91858
734.367	6317.49043
734.56	5976.87667
734.754	5918.65986
734.947	5956.08707
735.14	5668.94976
735.333	5766.79337
735.526	5814.65528
735.719	5710.59171
735.912	5974.79781
736.105	5926.97768
736.298	5918.65986
736.491	5926.97768
736.684	5960.24518
736.877	5798.00908
737.07	5795.9282
737.263	5646.04266
737.456	5972.71894
737.649	5970.64003
737.842	6084.94458
738.035	5854.18397
738.228	5822.97782
738.421	5912.42125
738.614	5822.97782
738.807	6024.68379
739	5862.50472
739.192	5677.2789
739.385	5837.54135
739.578	5795.9282
739.771	5943.61218
739.964	5933.21579
740.156	6070.40068
740.349	5787.60443
740.542	5976.87667
740.735	5914.50081
740.927	5976.87667
741.12	5729.32751
741.313	5877.06511
741.505	6111.95161
741.698	5981.0343
741.891	5789.68541
742.083	5985.19184
742.276	5962.3242
742.468	5902.02309
742.661	5777.19919
742.854	5981.0343
743.046	5856.26419
743.239	5791.76636
743.431	5972.71894
743.624	5716.83719
743.816	5752.22422
744.009	5847.94317
744.201	5775.11808
744.393	5727.24584
744.586	5712.67356
744.778	5877.06511
744.971	5573.13746
745.163	5866.66495
745.355	5656.45533
745.548	5710.59171
745.74	5683.52551
745.932	5887.46468
746.125	5698.10011
746.317	5933.21579
746.509	5818.8166
746.702	5899.94339
746.894	5768.87458
747.086	5460.59852
747.278	5598.13678
747.471	5575.22086
747.663	5581.47094
747.855	5891.62435
748.047	5533.54825
748.239	5716.83719
748.431	5650.2078
748.623	5731.40914
748.815	5752.22422
749.008	5748.06139
749.2	5731.40914
749.392	5785.52343
749.584	5712.67356
749.776	5931.13645
749.968	5646.04266
750.16	5646.04266
750.352	5637.7121
750.544	5629.38116
750.736	5646.04266
750.928	5760.54959
751.12	5660.62023
751.311	5899.94339
751.503	5781.36136
751.695	5852.10373
751.887	5518.96062
752.079	5679.36113
752.271	5496.03485
752.463	5633.54668
752.654	5635.6294
752.846	5646.04266
753.038	5693.93606
753.23	5698.10011
753.421	5764.71213
753.613	5664.78504
753.805	5698.10011
753.997	5870.82508
754.188	5743.89847
754.38	5777.19919
754.572	5414.72965
754.763	5631.46393
754.955	5423.07029
755.146	5643.96005
755.338	5389.70548
755.53	5735.57235
755.721	5350.07695
755.913	5493.95055
756.104	5589.80405
756.296	5575.22086
756.487	5535.63211
756.679	5343.81904
756.87	5454.34435
757.062	5433.49557
757.253	5423.07029
757.445	5425.1554
757.636	5539.79975
757.827	5558.55295
758.019	5573.13746
758.21	5452.25957
758.401	5312.52633
758.593	5356.33465
758.784	5195.6537
758.975	5377.19212
759.167	5172.68797
759.358	5535.63211
759.549	5583.55425
759.74	5671.03208
759.932	5491.86622
760.123	5385.53445
760.314	5370.93513
760.505	5364.67792
760.696	5218.6166
760.888	5343.81904
761.079	5254.09918
761.27	5350.07695
761.461	5387.61998
761.652	5310.43996
761.843	5350.07695
762.034	5168.51209
762.225	5201.91659
762.416	5235.31513
762.607	5099.59648
762.798	5356.33465
762.989	5443.92025
763.18	5366.76368
763.371	5070.35192
763.562	5264.53394
763.753	5197.74135
763.944	5193.56602
764.135	5087.06366
764.326	5214.44174
764.517	5297.92126
764.708	5226.96605
764.899	5001.40036
765.089	5210.26678
765.28	5105.86258
765.471	5208.17927
765.662	4863.422
765.853	5247.83804
766.043	5001.40036
766.234	5226.96605
766.425	4829.95767
766.615	4934.51426
766.806	5139.27825
766.997	5149.71943
767.187	5095.41897
767.378	5110.03987
767.569	5051.54945
767.759	5095.41897
767.95	4955.4187
768.141	5009.75947
768.331	5009.75947
768.522	5039.01343
768.712	5087.06366
768.903	5133.01327
769.093	4806.94756
769.284	4947.0572
769.474	5084.97477
769.665	5043.19219
769.855	4963.77983
770.046	5076.619
770.236	4467.75565
770.426	5013.93888
770.617	4898.97144
770.807	5153.89574
770.998	4976.32084
771.188	4963.77983
771.378	5009.75947
771.569	5026.47657
771.759	4777.65799
771.949	4867.60463
772.139	4842.50748
772.33	4905.24418
772.52	4700.22844
772.71	4886.42533
772.9	4555.75057
773.09	4685.57613
773.281	4750.45654
773.471	4829.95767
773.661	4662.54885
773.851	4679.29623
774.041	4641.61259
774.231	4758.82663
774.421	4633.23746
774.611	4633.23746
774.802	4444.70293
774.992	4486.61498
775.182	4599.73336
775.372	4635.33128
775.562	4499.18688
775.752	4608.10993
775.942	4771.38107
776.131	4593.45071
776.321	4492.90103
776.511	4499.18688
776.701	4595.54495
776.891	4578.7904
777.081	4390.20416
777.271	4572.50708
777.461	4696.04218
777.651	4564.129
777.84	4494.99633
778.03	4637.42507
778.22	4373.43235
778.41	4549.46651
778.599	4377.62543
778.789	4702.32154
778.979	4398.58955
779.169	4549.46651
779.358	4432.1276
779.548	4507.5677
779.738	4507.5677
779.927	4356.65914
780.117	4402.78211
780.307	4559.93983
780.496	4356.65914
780.686	4423.74362
780.875	4235.01209
781.065	4314.72005
781.254	4203.53993
781.444	4486.61498
781.633	4358.75587
781.823	4469.85122
782.012	4272.77235
782.202	4474.04229
782.391	4209.83474
782.581	4329.39972
782.77	4239.20801
782.96	4417.45539
783.149	4333.59371
783.338	4237.11006
783.528	4247.59961
783.717	4205.63822
783.906	4310.52567
784.096	4341.98144
784.285	4104.89638
784.474	4260.18636
784.663	4180.45731
784.853	4037.70839
785.042	4100.69775
785.231	4148.97689
785.42	4104.89638
785.61	4111.19416
785.799	3989.40397
785.988	4023.0082
786.177	3785.56761
786.366	4088.10137
786.555	3997.80552
786.744	4008.30699
786.933	3997.80552
787.122	4140.58132
787.312	4079.70337
787.501	4216.12936
787.69	4071.30504
787.879	4148.97689
788.068	3953.69375
788.257	4020.90809
788.445	3783.46523
788.634	4029.3084
788.823	3924.28093
789.012	3863.34181
789.201	4031.40843
789.39	3920.07877
789.579	3802.38594
789.768	4035.60842
789.957	3747.72178
790.145	4010.40723
790.334	3999.90585
790.523	3899.06679
790.712	3741.41353
790.9	4056.60716
791.089	3669.90789
791.278	4006.20674
791.467	3814.99887
791.655	3894.86415
791.844	3888.56004
792.033	3905.3706
792.221	3743.5163
792.41	3947.39134
792.599	3493.1533
792.787	3777.15797
792.976	3836.01883
793.164	3938.98784
793.353	3613.10829
793.541	3823.40709
793.73	3751.92719
793.918	3787.66997
794.107	3613.10829
794.295	3804.48814
794.484	3785.56761
794.672	3888.56004
794.861	3539.45882
795.049	3970.49929
795.238	3539.45882
795.426	3913.77539
795.614	3602.58833
795.803	3756.13251
795.991	3619.42003
796.179	3745.61905
796.368	3640.45796
796.556	3745.61905
796.744	3581.54702
796.932	3699.35408
797.121	3457.36573
797.309	3754.02986
797.497	3526.83092
797.685	3634.14678
797.874	3558.39943
798.062	3627.83543
798.25	3674.11472
798.438	3627.83543
798.626	3474.20759
798.814	3661.49401
799.002	3707.76659
799.19	3861.24016
799.378	3585.75543
799.566	3802.38594
799.755	3415.25606
799.943	3613.10829
800.131	3722.48773
800.318	3676.2181
800.506	3507.88783
800.694	3718.28179
800.882	3381.56321
801.07	3703.56037
801.258	3444.73358
801.446	3560.50385
801.634	3465.78681
801.822	3602.58833
802.01	3333.12188
802.197	3684.63145
802.385	3432.10079
802.573	3634.14678
802.761	3295.20489
802.949	3512.09754
803.136	3554.19053
803.324	3619.42003
803.512	3411.04471
803.699	3655.18339
803.887	3575.23426
804.075	3680.42482
804.262	3455.26042
804.45	3611.00433
804.638	3543.66797
804.825	3583.65124
805.013	3429.99526
805.201	3613.10829
805.388	3476.31274
805.576	3566.81699
805.763	3552.08606
805.951	3537.35422
806.138	3545.77252
806.326	3806.59033
806.513	3524.72621
806.701	3558.39943
806.888	3398.4102
807.075	3604.69236
807.263	3427.88971
807.45	3568.92134
807.638	3455.26042
807.825	3541.56341
808.012	3427.88971
808.2	3644.66532
808.387	3440.52272
808.574	3768.74802
808.761	3465.78681
808.949	3608.90036
809.136	3360.5029
809.323	3749.82449
809.51	3640.45796
809.698	3642.56165
809.885	3451.04974
810.072	3606.79637
810.259	3619.42003
810.446	3810.79464
810.633	3535.24959
810.82	3938.98784
811.008	3579.44279
811.195	3796.07921
811.382	3592.06791
811.569	3823.40709
811.756	3436.31179
811.943	3693.0445
812.13	3528.93562
812.317	3501.57314
812.504	3469.99723
812.691	3890.66143
812.878	3697.25091
813.064	3768.74802
813.251	3690.94127
813.438	3751.92719
813.625	3541.56341
813.812	3730.89939
813.999	3423.67857
814.186	3772.95304
814.372	3621.52391
814.559	3703.56037
814.746	3581.54702
814.933	3678.32147
815.12	3617.31614
815.306	3509.99269
815.493	3455.26042
815.68	3636.25053
815.866	3415.25606
816.053	3693.0445
816.24	3482.62809
816.426	3831.81499
816.613	3417.36172
816.799	3547.87705
816.986	3469.99723
817.173	3535.24959
817.359	3429.99526
817.546	3482.62809
817.732	3465.78681
817.919	3543.66797
818.105	3322.58994
818.292	3507.88783
818.478	3509.99269
818.665	3573.12997
818.851	3217.24713
819.037	3516.30717
819.224	3543.66797
819.41	3669.90789
819.597	3482.62809
819.783	3640.45796
819.969	3442.62816
820.156	3695.14771
820.342	3507.88783
820.528	3499.46821
820.714	3333.12188
820.901	3613.10829
821.087	3501.57314
821.273	3716.17879
821.459	3556.29499
821.646	3777.15797
821.832	3680.42482
822.018	3596.27613
822.204	3482.62809
822.39	3661.49401
822.576	3415.25606
822.762	3491.04829
822.948	3354.18446
823.134	3499.46821
823.32	3250.96142
823.507	3377.35129
823.693	3240.42616
823.879	3461.5763
824.065	3335.22822
824.25	3290.99155
824.436	3238.31906
824.622	3316.27057
824.808	3301.52477
824.994	3436.31179
825.18	3107.64664
825.366	3385.77507
825.552	3339.44084
825.738	3457.36573
825.923	3280.45789
826.109	3579.44279
826.295	3288.88485
826.481	3305.73794
826.667	3316.27057
826.852	3368.92723
827.038	3019.09171
827.224	3611.00433
827.409	3352.07828
827.595	3478.41788
827.781	3280.45789
827.966	3501.57314
828.152	3290.99155
828.338	3423.67857
828.523	3027.52669
828.709	3128.72705
828.894	3187.74364
829.08	3213.03254
829.266	3080.23973
829.451	3206.71054
829.637	2993.7853
829.822	3187.74364
830.008	2962.14922
830.193	3194.06609
830.378	2873.55053
830.564	3347.86587
830.749	3170.88306
830.935	3145.59023
831.12	2928.40038
831.305	3196.17354
831.491	3031.74409
831.676	3073.91468
831.861	2998.00319
832.047	3099.21403
832.232	3073.91468
832.417	3419.46735
832.602	3122.4031
832.788	3196.17354
832.973	3261.49625
833.158	3111.86285
833.343	3012.76531
833.528	3035.96143
833.714	2875.66032
833.899	3267.81695
834.084	2827.13157
834.269	3154.02143
834.454	2886.20905
834.639	3175.0983
834.824	2987.45835
835.009	3156.12919
835.194	3274.1375
835.379	3383.66915
835.564	3183.52859
835.749	3097.10584
835.934	3023.30923
836.119	2850.3419
836.304	2837.68193
836.489	2951.60312
836.674	2742.7163
836.859	2850.3419
837.044	2744.82695
837.228	2856.67169
837.413	2711.05504
837.598	3002.22101
837.783	2858.7816
837.968	2964.2584
838.152	2683.61291
838.337	2867.22107
838.522	2896.75743
838.707	3002.22101
838.891	2841.90197
839.076	2911.52454
839.261	2749.0482
839.445	2886.20905
839.63	2749.0482
839.815	2995.89425
839.999	2660.39095
840.184	2850.3419
840.368	2689.9459
840.553	2884.09933
840.737	2903.08628
840.922	2774.37457
841.106	2550.5941
841.291	2757.49054
841.475	2504.1319
841.66	2578.04638
841.844	2521.02789
842.029	2702.61154
842.213	2607.60812
842.397	2742.7163
842.582	2529.47561
842.766	2554.81766
842.951	2301.32623
843.135	2630.83352
843.319	2411.19126
843.504	2561.15291
843.688	2573.82309
843.872	2491.45944
844.056	2588.60442
844.241	2563.26463
844.425	2229.47736
844.609	2645.61254
844.793	2294.98706
844.977	2537.92315
845.161	2299.21318
845.346	2613.94246
845.53	2546.3705
845.714	2461.88878
845.898	2316.11731
846.082	2480.89874
846.266	2237.93071
846.45	2527.3637
846.634	2457.66422
846.818	2360.48769
847.002	2294.98706
847.186	2411.19126
847.37	2385.84021
847.554	2512.57999
847.738	2360.48769
847.922	2487.23519
848.106	2299.21318
848.29	2278.08217
848.473	2254.83699
848.657	2339.35948
848.841	2288.64779
849.025	2461.88878
849.209	2360.48769
849.392	2235.81739
849.576	2233.70405
849.76	2263.28991
849.944	2261.17669
850.127	2527.3637
850.311	2187.20851
850.495	2394.29073
850.678	2379.50222
850.862	2301.32623
851.046	2113.23005
851.229	2305.5523
851.413	2060.38251
851.596	2318.23028
851.78	2231.59071
851.964	2451.32731
852.147	2140.70891
852.331	2254.83699
852.514	2151.27734
852.698	2117.45765
852.881	2005.41636
853.065	2081.52208
853.248	1961.01738
853.431	2117.45765
853.615	1937.7597
853.798	2047.69842
853.982	1783.39695
854.165	2003.30218
854.348	1899.70017
854.532	2159.73195
854.715	1743.21641
854.898	1967.36026
855.081	2015.98712
855.265	2087.86381
855.448	1922.95898
855.631	2064.61048
855.814	1827.8053
855.997	2204.11646
856.181	2030.78592
856.364	2039.24223
856.547	1950.44579
856.73	2104.77476
856.913	1878.55522
857.096	2049.81245
857.279	1832.03457
857.462	1967.36026
857.645	1821.46137
857.828	1884.89876
858.011	1770.70851
858.194	1967.36026
858.377	1810.88806
858.56	1844.72225
858.743	1738.9868
858.926	1897.5857
859.109	1677.65598
859.292	1874.32617
859.475	1590.943
859.658	1941.98842
859.841	1550.75782
860.023	1861.63889
860.206	1791.85583
860.389	1743.21641
860.572	1662.85161
860.755	1793.97054
860.937	1565.56294
861.12	1717.83855
861.303	1599.40296
861.486	1840.49304
861.668	1540.18269
861.851	1590.943
862.034	1612.09285
862.216	1726.29789
862.399	1571.90798
862.581	1724.18306
862.764	1544.41274
862.947	1645.93217
863.129	1616.32279
863.312	1796.08524
863.494	1582.483
863.677	1743.21641
863.859	1637.4724
864.042	1779.16748
864.224	1550.75782
864.406	1590.943
864.589	1409.0498
864.771	1624.78266
864.954	1451.35081
865.136	1669.19636
865.318	1497.88192
865.501	1457.69597
865.683	1455.58092
865.865	1514.80227
866.048	1616.32279
866.23	1616.32279
866.412	1381.55426
866.594	1565.56294
866.777	1612.09285
866.959	1540.18269
867.141	1476.73143
867.323	1607.86289
867.505	1275.80418
867.687	1457.69597
867.869	1373.09412
868.052	1411.16485
868.234	1324.4487
868.416	1495.76687
868.598	1364.63399
868.78	1421.74009
868.962	1497.88192
869.144	1758.01993
869.326	1409.0498
869.508	1629.01258
869.69	1417.50999
869.872	1504.22705
870.054	1373.09412
870.236	1559.2179
870.417	1271.57427
870.599	1459.81102
870.781	1377.32418
870.963	1430.20029
871.145	1239.85032
871.327	1508.45714
871.508	1273.68922
871.69	1466.15618
871.872	1288.49394
872.054	1472.50133
872.235	1153.14177
872.417	1282.14905
872.599	1286.37898
872.78	1362.51897
872.962	1239.85032
873.144	1480.96153
873.325	1176.40445
873.507	1337.13873
873.689	1301.18379
873.87	1396.35953
874.052	1307.52874
874.233	1337.13873
874.415	1258.88462
874.596	1417.50999
874.778	1062.211
874.959	1231.3907
875.141	1060.09644
875.322	1244.08014
875.503	1199.66758
875.685	1269.45932
875.866	1271.57427
876.048	1315.9887
876.229	1146.79749
876.41	1303.29877
876.592	1377.32418
876.773	1362.51897
876.954	1250.4249
877.136	1354.05887
877.317	1199.66758
877.498	1440.77555
877.679	1220.81625
877.86	1294.83886
878.042	1100.27396
878.223	1330.79371
878.404	1174.28964
878.585	1337.13873
878.766	1244.08014
878.947	1260.99955
879.128	1214.47162
879.309	1519.03235
879.49	1195.43789
879.672	1502.11201
879.853	1142.56799
880.034	1430.20029
880.215	1186.97855
880.396	1311.75872
880.576	1256.76969
880.757	1392.12945
880.938	1151.02701
881.119	1370.97908
881.3	1241.96523
881.481	1354.05887
881.662	1392.12945
881.843	1404.81971
882.023	1383.66929
882.204	1442.8906
882.385	1332.90871
882.566	1394.24449
882.747	1277.91913
882.927	1542.29771
883.108	1222.93113
883.289	1497.88192
883.469	1206.01215
883.65	1250.4249
883.831	1184.86372
884.011	1373.09412
884.192	1206.01215
884.373	1328.6787
884.553	1354.05887
884.734	1366.74902
884.914	1280.03409
885.095	1398.47458
885.275	1396.35953
885.456	1286.37898
885.636	1294.83886
885.817	1449.23576
885.997	1337.13873
886.178	1404.81971
886.358	1282.14905
886.538	1366.74902
886.719	1212.35674
886.899	1294.83886
887.08	1345.59879
887.26	1629.01258
887.44	1370.97908
887.621	1540.18269
887.801	1241.96523
887.981	1322.33369
888.161	1400.58962
888.342	1432.31534
888.522	1315.9887
888.702	1557.10288
888.882	1358.28891
889.062	1607.86289
889.242	1218.70137
889.423	1582.483
889.603	1178.51926
889.783	1455.58092
889.963	1201.78244
890.143	1345.59879
890.323	1379.43922
890.503	1451.35081
890.683	1282.14905
890.863	1383.66929
891.043	1280.03409
891.223	1565.56294
891.403	1252.53983
891.583	1440.77555
891.763	1176.40445
891.943	1396.35953
892.122	1193.32305
892.302	1421.74009
892.482	1275.80418
892.662	1311.75872
892.842	1260.99955
893.022	1366.74902
893.201	1233.5056
893.381	1303.29877
893.561	1288.49394
893.741	1256.76969
893.92	1260.99955
894.1	1349.82882
894.28	1231.3907
894.459	1373.09412
894.639	1125.65016
894.819	1330.79371
894.998	1163.71566
895.178	1345.59879
895.357	1235.6205
895.537	1390.01441
895.716	1271.57427
895.896	1305.41376
896.075	1117.19135
896.255	1233.5056
896.434	1157.37131
896.614	1375.20915
896.793	1013.57757
896.973	1263.11449
897.152	990.31924
897.331	1212.35674
897.511	1100.27396
897.69	1294.83886
897.87	1100.27396
898.049	1093.93002
898.228	937.46239
898.407	1178.51926
898.587	1070.66929
898.766	1153.14177
898.945	1041.06565
899.124	1068.55471
899.304	920.54914
899.483	1070.66929
899.662	1066.44013
899.841	1057.98188
900.02	998.77672
900.199	1112.96198
900.378	969.17598
900.557	1089.70075
900.737	1083.35688
900.916	986.09053
901.095	857.12892
901.274	1064.32556
901.453	871.92631
901.632	939.57658
901.811	878.26818
901.989	931.11986
902.168	804.2846
902.347	920.54914
902.526	787.37564
902.705	914.20679
902.884	721.85944
903.063	973.40458
903.242	838.10432
903.42	998.77672
903.599	804.2846
903.778	964.94741
903.957	732.42589
904.135	723.97271
904.314	588.74665
904.493	823.3079
904.672	772.5808
904.85	755.67302
905.029	707.06685
905.207	747.21937
905.386	671.14428
905.565	838.10432
905.743	652.12779
905.922	742.99261
906.1	603.53457
906.279	745.10599
906.457	635.22506
906.636	802.17095
906.814	666.91831
906.993	586.63414
907.171	656.3536
907.35	685.93553
907.528	576.0718
907.707	603.53457
907.885	527.48935
908.063	495.80913
908.242	495.80913
908.42	554.94811
908.598	576.0718
908.777	656.3536
908.955	519.04098
909.133	666.91831
909.311	462.02054
909.49	569.73455
909.668	497.92105
909.846	527.48935
910.024	434.57018
910.202	493.69724
910.38	559.17274
910.559	576.0718
910.737	550.72353
910.915	561.28507
911.093	535.93795
911.271	637.33786
911.449	516.92892
911.627	550.72353
911.805	544.38677
911.983	502.14492
912.161	476.80258
912.339	630.9995
912.517	491.58535
912.695	563.39742
912.872	514.81688
913.05	635.22506
913.228	538.05013
913.406	601.42197
913.584	592.97171
913.762	576.0718
913.939	554.94811
914.117	514.81688
914.295	559.17274
914.473	474.69081
914.65	630.9995
914.828	601.42197
915.006	552.83581
915.184	730.31258
915.361	500.03297
915.539	611.98509
915.716	529.60148
915.894	611.98509
916.072	609.87244
916.249	652.12779
916.427	468.35561
916.604	650.01491
916.782	576.0718
916.959	584.52165
917.137	508.48083
917.314	681.7094
917.492	354.34623
917.669	626.77399
917.847	502.14492
918.024	525.37723
918.201	525.37723
918.379	569.73455
918.556	459.90888
918.733	491.58535
918.911	453.574
919.088	493.69724
919.265	421.90167
919.442	552.83581
919.62	371.23349
919.797	468.35561
919.974	495.80913
920.151	559.17274
920.328	483.13796
920.506	466.24391
920.683	390.23295
920.86	407.12248
921.037	364.90064
921.214	466.24391
921.391	430.34728
921.568	470.46733
921.745	457.79724
921.922	584.52165
922.099	400.78878
922.276	483.13796
922.453	345.90302
922.63	462.02054
922.807	407.12248
922.984	466.24391
923.161	348.0138
923.338	432.45872
923.514	432.45872
923.691	440.90465
923.868	324.7962
924.045	419.79031
924.222	335.34939
924.399	417.67897
924.575	358.56795
924.752	407.12248
924.929	324.7962
925.105	457.79724
925.282	263.59661
925.459	383.89964
925.635	314.24345
925.812	434.57018
925.989	394.45523
926.165	400.78878
926.342	333.23872
926.518	318.4645
926.695	297.36
926.871	307.91202
927.048	318.4645
927.224	297.36
927.401	248.82665
927.577	326.9068
927.754	280.47771
927.93	426.12445
928.107	246.71673
928.283	305.80158
928.459	299.47036
928.636	278.36751
928.812	263.59661
928.988	263.59661
929.165	269.92688
929.341	307.91202
929.517	187.64696
929.693	229.83807
929.87	217.1799
930.046	339.57079
930.222	253.04654
930.398	246.71673
930.574	177.10045
930.751	316.35397
930.927	204.52245
931.103	253.04654
931.279	200.30345
931.455	229.83807
931.631	196.08454
931.807	204.52245
931.983	160.22709
932.159	206.63197
932.335	229.83807
932.511	272.03701
932.687	288.91871
932.863	234.05762
933.039	164.4453
933.215	120.15828
933.391	132.81075
933.566	210.85109
933.742	137.02842
933.918	145.464
934.094	137.02842
934.27	172.88198
934.445	132.81075
934.621	196.08454
934.797	111.72373
934.973	196.08454
935.148	215.07028
935.324	164.4453
935.5	149.68192
935.675	208.74152
935.851	101.18103
936.027	145.464
936.202	145.464
936.378	141.24617
936.553	122.26697
936.729	160.22709
936.904	130.70195
937.08	145.464
937.255	147.57295
937.431	82.20557
937.606	113.83233
937.782	59.01582
937.957	143.35507
938.133	130.70195
938.308	52.69182
938.483	35.82884
938.659	115.94096
938.834	69.55627
939.009	94.85568
939.185	137.02842
939.36	90.63889
939.535	94.85568
939.71	37.93663
939.886	37.93663
940.061	71.66443
940.236	86.42218
940.411	120.15828
940.586	65.34002
940.761	80.0973
940.937	103.28953
941.112	31.61332
941.287	94.85568
941.462	42.15228
941.637	44.26014
941.812	134.91958
941.987	86.42218
942.162	29.5056
942.337	50.58386
942.512	120.15828
942.687	147.57295
942.862	27.39791
943.037	96.96411
943.212	44.26014
943.386	40.04444
943.561	61.12386
943.736	-4.2147
943.911	56.90779
944.086	40.04444
944.26	94.85568
944.435	71.66443
944.61	88.53052
944.785	52.69182
944.959	96.96411
945.134	2.10739
945.309	65.34002
945.483	18.96735
945.658	35.82884
945.833	0
946.007	103.28953
946.182	120.15828
946.357	4.2148
946.531	29.5056
946.706	75.88082
946.88	35.82884
947.055	61.12386
947.229	48.47593
947.404	21.07496
947.578	-31.6079
947.752	54.79979
947.927	94.85568
948.101	63.23193
948.276	82.20557
948.45	73.77262
948.624	10.53718
948.799	25.29023
948.973	33.72107
949.147	27.39791
949.321	48.47593
949.496	46.36803
949.67	65.34002
949.844	37.93663
950.018	71.66443
950.193	111.72373
950.367	42.15228
950.541	35.82884
950.715	103.28953
950.889	69.55627
951.063	82.20557
951.237	82.20557
951.411	94.85568
951.585	44.26014
951.759	80.0973
951.933	61.12386
952.107	99.07256
952.281	52.69182
952.455	99.07256
952.629	35.82884
952.803	8.4297
952.977	101.18103
953.151	86.42218
953.325	-12.64382
953.499	80.0973
953.672	61.12386
953.846	-6.32202
954.02	33.72107
954.194	29.5056
954.368	46.36803
954.541	52.69182
954.715	77.98905
954.889	103.28953
955.062	63.23193
955.236	65.34002
955.41	88.53052
955.583	23.18258
955.757	80.0973
955.93	27.39791
956.104	42.15228
956.278	103.28953
956.451	160.22709
956.625	132.81075
956.798	44.26014
956.972	118.04961
957.145	63.23193
957.319	54.79979
957.492	54.79979
957.665	111.72373
957.839	99.07256
958.012	52.69182
958.185	21.07496
958.359	44.26014
958.532	128.59318
958.705	10.53718
958.879	63.23193
959.052	63.23193
959.225	103.28953
959.398	111.72373
959.572	63.23193
959.745	73.77262
959.918	103.28953
960.091	88.53052
960.264	103.28953
960.438	120.15828
960.611	96.96411
960.784	18.96735
960.957	54.79979
961.13	69.55627
961.303	86.42218
961.476	-14.75104
961.649	35.82884
961.822	44.26014
961.995	35.82884
962.168	113.83233
962.341	141.24617
962.514	73.77262
962.686	94.85568
962.859	80.0973
963.032	77.98905
963.205	113.83233
963.378	153.89993
963.551	35.82884
963.723	103.28953
963.896	90.63889
964.069	27.39791
964.242	88.53052
964.414	52.69182
964.587	69.55627
964.76	113.83233
964.932	35.82884
965.105	61.12386
965.278	35.82884
965.45	71.66443
965.623	23.18258
965.795	99.07256
965.968	86.42218
966.14	73.77262
966.313	56.90779
966.485	63.23193
966.658	52.69182
966.83	92.74727
967.003	120.15828
967.175	101.18103
967.348	96.96411
967.52	73.77262
967.692	71.66443
967.865	111.72373
968.037	23.18258
968.209	52.69182
968.382	96.96411
968.554	54.79979
968.726	69.55627
968.898	25.29023
969.071	2.10739
969.243	90.63889
969.415	122.26697
969.587	44.26014
969.759	86.42218
969.932	27.39791
970.104	54.79979
970.276	63.23193
970.448	90.63889
970.62	86.42218
970.792	29.5056
970.964	82.20557
971.136	23.18258
971.308	37.93663
971.48	46.36803
971.652	33.72107
971.824	14.75222
971.996	42.15228
972.168	61.12386
972.339	59.01582
972.511	10.53718
972.683	137.02842
972.855	128.59318
973.027	56.90779
973.199	63.23193
973.37	2.10739
973.542	-25.28676
973.714	46.36803
973.886	29.5056
974.057	31.61332
974.229	-14.75104
974.401	54.79979
974.572	18.96735
974.744	86.42218
974.915	80.0973
975.087	12.64469
975.259	122.26697
975.43	80.0973
975.602	46.36803
975.773	145.464
975.945	10.53718
976.116	120.15828
976.288	103.28953
976.459	65.34002
976.63	35.82884
976.802	35.82884
976.973	86.42218
977.145	113.83233
977.316	12.64469
977.487	94.85568
977.659	6.32224
977.83	118.04961
978.001	14.75222
978.172	40.04444
978.344	153.89993
978.515	35.82884
978.686	35.82884
978.857	99.07256
979.028	71.66443
979.2	52.69182
979.371	48.47593
979.542	56.90779
979.713	-23.17966
979.884	86.42218
980.055	10.53718
980.226	14.75222
980.397	86.42218
980.568	75.88082
980.739	52.69182
980.91	4.2148
981.081	8.4297
981.252	44.26014
981.423	27.39791
981.594	52.69182
981.765	67.44814
981.936	37.93663
982.106	18.96735
982.277	46.36803
982.448	-21.07254
982.619	23.18258
982.79	35.82884
982.96	80.0973
983.131	82.20557
983.302	-16.85823
983.472	71.66443
983.643	35.82884
983.814	-14.75104
983.984	31.61332
984.155	44.26014
984.326	23.18258
984.496	-6.32202
984.667	120.15828
984.837	73.77262
985.008	27.39791
985.178	94.85568
985.349	-61.10358
985.519	35.82884
985.69	14.75222
985.86	69.55627
986.031	27.39791
986.201	82.20557
986.371	-6.32202
986.542	10.53718
986.712	48.47593
986.882	35.82884
987.053	48.47593
987.223	86.42218
987.393	-21.07254
987.563	40.04444
987.734	128.59318
987.904	88.53052
988.074	107.50658
988.244	-4.2147
988.414	14.75222
988.585	18.96735
988.755	115.94096
988.925	-29.50088
989.095	82.20557
989.265	6.32224
989.435	37.93663
989.605	2.10739
989.775	21.07496
989.945	31.61332
990.115	6.32224
990.285	94.85568
990.455	-14.75104
990.625	12.64469
990.795	16.85977
990.965	75.88082
991.134	-6.32202
991.304	37.93663
991.474	67.44814
991.644	35.82884
991.814	35.82884
991.984	111.72373
992.153	18.96735
992.323	0
992.493	18.96735
992.662	94.85568
992.832	86.42218
993.002	-6.32202
993.171	88.53052
993.341	-37.92881
993.511	23.18258
993.68	27.39791
993.85	86.42218
994.019	54.79979
994.189	107.50658
994.358	80.0973
994.528	27.39791
994.697	27.39791
994.867	35.82884
995.036	65.34002
995.206	18.96735
995.375	77.98905
995.544	46.36803
995.714	86.42218
995.883	73.77262
996.052	61.12386
996.222	113.83233
996.391	-6.32202
996.56	94.85568
996.73	35.82884
996.899	-29.50088
997.068	16.85977
997.237	134.91958
997.406	61.12386
997.576	52.69182
997.745	27.39791
997.914	37.93663
998.083	27.39791
998.252	69.55627
998.421	0
998.59	-10.53658
998.759	44.26014
998.928	120.15828
999.097	29.5056
999.266	-27.39383
999.435	61.12386
999.604	2.10739
999.773	-14.75104
999.942	25.29023
1000.111	10.53718
1000.28	21.07496
1000.448	52.69182
1000.617	82.20557
1000.786	73.77262
1000.955	31.61332
1001.124	48.47593
1001.292	46.36803
1001.461	-4.2147
1001.63	2.10739
1001.798	-27.39383
1001.967	10.53718
1002.136	35.82884
1002.304	27.39791
1002.473	12.64469
1002.642	10.53718
1002.81	80.0973
1002.979	46.36803
1003.147	23.18258
1003.316	23.18258
1003.484	-6.32202
1003.653	-35.82187
1003.821	52.69182
1003.99	27.39791
1004.158	27.39791
1004.327	73.77262
1004.495	-10.53658
1004.663	56.90779
1004.832	23.18258
1005	27.39791
1005.168	8.4297
1005.337	56.90779
1005.505	-65.31684
1005.673	23.18258
1005.842	94.85568
1006.01	14.75222
1006.178	63.23193
1006.346	35.82884
1006.514	37.93663
1006.683	126.48442
1006.851	54.79979
1007.019	27.39791
1007.187	73.77262
1007.355	10.53718
1007.523	-10.53658
1007.691	-14.75104
1007.859	4.2148
1008.027	2.10739
1008.195	25.29023
1008.363	105.39804
1008.531	-2.10736
1008.699	10.53718
1008.867	52.69182
1009.035	61.12386
1009.203	27.39791
1009.37	73.77262
1009.538	8.4297
1009.706	107.50658
1009.874	29.5056
1010.042	-6.32202
1010.209	80.0973
1010.377	-27.39383
1010.545	44.26014
1010.713	-42.14263
1010.88	50.58386
1011.048	8.4297
1011.216	46.36803
1011.383	69.55627
1011.551	124.37568
1011.718	27.39791
1011.886	6.32224
1012.054	52.69182
1012.221	6.32224
1012.389	71.66443
1012.556	4.2148
1012.724	-21.07254
1012.891	48.47593
1013.058	94.85568
1013.226	-84.27527
1013.393	46.36803
1013.561	61.12386
1013.728	105.39804
1013.895	75.88082
1014.063	35.82884
1014.23	29.5056
1014.397	2.10739
1014.565	65.34002
1014.732	69.55627
1014.899	29.5056
1015.066	10.53718
1015.233	40.04444
1015.401	52.69182
1015.568	2.10739
1015.735	48.47593
1015.902	23.18258
1016.069	-12.64382
1016.236	37.93663
1016.403	27.39791
1016.57	21.07496
1016.737	-4.2147
1016.904	-10.53658
1017.071	46.36803
1017.238	65.34002
1017.405	-61.10358
1017.572	29.5056
1017.739	25.29023
1017.906	-46.35635
1018.073	-12.64382
1018.24	-18.9654
1018.407	69.55627
1018.573	14.75222
1018.74	88.53052
1018.907	50.58386
1019.074	46.36803
1019.241	-2.10736
1019.407	33.72107
1019.574	-6.32202
1019.741	27.39791
1019.907	29.5056
1020.074	52.69182
1020.241	-18.9654
1020.407	48.47593
1020.574	4.2148
1020.74	-21.07254
1020.907	-25.28676
1021.073	29.5056
1021.24	77.98905
1021.406	21.07496
1021.573	18.96735
1021.739	-2.10736
1021.906	46.36803
1022.072	59.01582
1022.239	-14.75104
1022.405	42.15228
1022.571	-54.78349
1022.738	23.18258
1022.904	54.79979
1023.07	14.75222
1023.237	-14.75104
1023.403	18.96735
1023.569	10.53718
1023.735	-10.53658
1023.902	35.82884
1024.068	-2.10736
1024.234	-14.75104
1024.4	44.26014
1024.566	82.20557
1024.732	44.26014
1024.898	54.79979
1025.065	88.53052
1025.231	2.10739
1025.397	-52.67674
1025.563	35.82884
1025.729	-6.32202
1025.895	12.64469
1026.061	4.2148
1026.227	-8.42931
1026.392	10.53718
1026.558	4.2148
1026.724	-10.53658
1026.89	-14.75104
1027.056	14.75222
1027.222	54.79979
1027.388	88.53052
1027.553	-65.31684
1027.719	86.42218
1027.885	52.69182
1028.051	23.18258
1028.216	18.96735
1028.382	-56.89021
1028.548	-4.2147
1028.713	10.53718
1028.879	21.07496
1029.045	-40.03573
1029.21	-52.67674
1029.376	-23.17966
1029.541	-4.2147
1029.707	44.26014
1029.873	75.88082
1030.038	73.77262
1030.204	56.90779
1030.369	6.32224
1030.534	-23.17966
1030.7	27.39791
1030.865	-6.32202
1031.031	61.12386
1031.196	10.53718
1031.361	113.83233
1031.527	54.79979
1031.692	-40.03573
1031.857	33.72107
1032.023	44.26014
1032.188	10.53718
1032.353	2.10739
1032.518	71.66443
1032.684	56.90779
1032.849	10.53718
1033.014	21.07496
1033.179	8.4297
1033.344	61.12386
1033.509	-46.35635
1033.674	44.26014
1033.839	-12.64382
1034.004	21.07496
1034.17	-63.21022
1034.335	-14.75104
1034.5	10.53718
1034.664	69.55627
1034.829	71.66443
1034.994	-2.10736
1035.159	65.34002
1035.324	35.82884
1035.489	-6.32202
1035.654	-8.42931
1035.819	2.10739
1035.984	88.53052
1036.148	6.32224
1036.313	44.26014
1036.478	16.85977
1036.643	21.07496
1036.807	-54.78349
1036.972	-18.9654
1037.137	-31.6079
1037.301	44.26014
1037.466	-65.31684
1037.631	27.39791
1037.795	-4.2147
1037.96	-29.50088
1038.124	-25.28676
1038.289	37.93663
1038.454	16.85977
1038.618	31.61332
1038.783	-14.75104
1038.947	52.69182
1039.111	4.2148
1039.276	29.5056
1039.44	44.26014
1039.605	82.20557
1039.769	52.69182
1039.933	44.26014
1040.098	18.96735
1040.262	115.94096
1040.426	37.93663
1040.591	29.5056
1040.755	46.36803
1040.919	63.23193
1041.083	-6.32202
1041.248	-40.03573
1041.412	-10.53658
1041.576	-31.6079
1041.74	23.18258
1041.904	21.07496
1042.068	23.18258
1042.232	-73.74306
1042.397	-63.21022
1042.561	18.96735
1042.725	-23.17966
1042.889	27.39791
1043.053	14.75222
1043.217	35.82884
1043.381	90.63889
1043.544	27.39791
1043.708	59.01582
1043.872	27.39791
1044.036	42.15228
1044.2	94.85568
1044.364	44.26014
1044.528	-21.07254
1044.691	56.90779
1044.855	-6.32202
1045.019	52.69182
1045.183	71.66443
1045.346	-61.10358
1045.51	44.26014
1045.674	-2.10736
1045.837	86.42218
1046.001	50.58386
1046.165	-46.35635
1046.328	-21.07254
1046.492	6.32224
1046.655	71.66443
1046.819	-40.03573
1046.983	-35.82187
1047.146	40.04444
1047.31	-21.07254
1047.473	69.55627
1047.636	63.23193
1047.8	44.26014
1047.963	59.01582
1048.127	12.64469
1048.29	-27.39383
