Data from mixed_try1_USB4F045381__35__00100.txt Node

Date: Thu Apr 03 19:57:15 EDT 2025
User: mmckonesweet
Spectrometer: USB4F04538
Trigger mode: 4
Integration Time (sec): 2.700000E-3
Scans to average: 1
Electric dark correction enabled: true
Nonlinearity correction enabled: true
Boxcar width: 0
XAxis mode: Wavelengths
Number of Pixels in Spectrum: 3648
>>>>>Begin Spectral Data<<<<<
345.52	11.76656
345.736	11.76656
345.952	11.76656
346.168	-15.62904
346.384	-5.09275
346.6	-106.21527
346.816	9.65906
347.032	-55.66129
347.248	60.24551
347.464	5.44413
347.68	-11.4146
347.896	43.38186
348.112	53.92147
348.328	-17.73622
348.544	85.54372
348.76	-11.4146
348.975	-55.66129
349.191	28.62739
349.407	9.65906
349.623	60.24551
349.839	34.9506
350.055	-5.09275
350.27	62.35357
350.486	20.19678
350.702	89.7604
350.918	9.65906
351.133	15.98162
351.349	-21.95051
351.565	-74.62077
351.781	43.38186
351.996	-19.84338
352.212	43.38186
352.428	3.33671
352.644	18.08919
352.859	45.48974
353.075	-5.09275
353.291	64.46165
353.506	-38.8067
353.722	28.62739
353.938	47.59764
354.153	9.65906
354.369	1.22931
354.584	11.76656
354.8	-19.84338
355.016	-2.98542
355.231	-7.20006
355.447	85.54372
355.662	26.51971
355.878	72.8942
356.093	45.48974
356.309	3.33671
356.524	62.35357
356.74	-11.4146
356.955	79.21886
357.171	18.08919
357.386	62.35357
357.602	47.59764
357.817	75.0024
358.033	9.65906
358.248	9.65906
358.464	-2.98542
358.679	-24.05762
358.895	-45.12736
359.11	-40.91361
359.325	1.22931
359.541	28.62739
359.756	13.87408
359.972	1.22931
360.187	77.11062
360.402	-5.09275
360.618	77.11062
360.833	43.38186
361.048	37.05838
361.264	-55.66129
361.479	20.19678
361.694	102.41098
361.909	22.3044
362.125	24.41204
362.34	62.35357
362.555	1.22931
362.77	5.44413
362.986	62.35357
363.201	51.8135
363.416	1.22931
363.631	39.16618
363.847	39.16618
364.062	81.32712
364.277	-7.20006
364.492	26.51971
364.707	30.7351
364.922	41.27401
365.138	18.08919
365.353	24.41204
365.568	1.22931
365.783	37.05838
365.998	56.02946
366.213	-7.20006
366.428	1.22931
366.643	41.27401
366.858	9.65906
367.073	22.3044
367.288	-13.52183
367.503	9.65906
367.718	39.16618
367.933	-24.05762
368.148	47.59764
368.363	34.9506
368.578	-28.27177
368.793	18.08919
369.008	1.22931
369.223	72.8942
369.438	34.9506
369.653	53.92147
369.868	20.19678
370.083	1.22931
370.298	3.33671
370.513	43.38186
370.728	77.11062
370.943	-61.98135
371.157	60.24551
371.372	22.3044
371.587	51.8135
371.802	-24.05762
372.017	-15.62904
372.232	3.33671
372.446	34.9506
372.661	32.84284
372.876	-11.4146
373.091	43.38186
373.306	11.76656
373.52	43.38186
373.735	1.22931
373.95	24.41204
374.165	62.35357
374.379	20.19678
374.594	22.3044
374.809	-24.05762
375.023	-19.84338
375.238	-47.2342
375.453	-11.4146
375.667	43.38186
375.882	81.32712
376.097	53.92147
376.311	-7.20006
376.526	28.62739
376.741	-45.12736
376.955	28.62739
377.17	26.51971
377.384	-15.62904
377.599	-38.8067
377.813	-2.98542
378.028	15.98162
378.242	64.46165
378.457	79.21886
378.672	9.65906
378.886	-7.20006
379.101	28.62739
379.315	-15.62904
379.53	-57.768
379.744	-19.84338
379.958	43.38186
380.173	60.24551
380.387	-21.95051
380.602	43.38186
380.816	43.38186
381.031	-2.98542
381.245	-47.2342
381.459	11.76656
381.674	-80.94014
381.888	7.55158
382.103	5.44413
382.317	28.62739
382.531	37.05838
382.746	3.33671
382.96	-5.09275
383.174	-17.73622
383.388	-40.91361
383.603	-17.73622
383.817	60.24551
384.031	22.3044
384.246	72.8942
384.46	-9.30734
384.674	39.16618
384.888	-36.69976
385.103	43.38186
385.317	3.33671
385.531	18.08919
385.745	26.51971
385.959	26.51971
386.174	26.51971
386.388	-15.62904
386.602	28.62739
386.816	51.8135
387.03	7.55158
387.244	75.0024
387.458	34.9506
387.672	60.24551
387.887	47.59764
388.101	77.11062
388.315	-19.84338
388.529	3.33671
388.743	26.51971
388.957	53.92147
389.171	5.44413
389.385	53.92147
389.599	85.54372
389.813	66.56975
390.027	125.60578
390.241	81.32712
390.455	58.13747
390.669	-36.69976
390.883	-43.0205
391.097	62.35357
391.311	26.51971
391.525	-13.52183
391.738	1.22931
391.952	22.3044
392.166	-7.20006
392.38	-49.34101
392.594	-11.4146
392.808	34.9506
393.022	1.22931
393.236	85.54372
393.449	-26.16471
393.663	98.19403
393.877	45.48974
394.091	13.87408
394.305	62.35357
394.518	-15.62904
394.732	-0.87807
394.946	70.78603
395.16	-2.98542
395.373	72.8942
395.587	77.11062
395.801	51.8135
396.015	-11.4146
396.228	85.54372
396.442	18.08919
396.656	56.02946
396.869	-13.52183
397.083	58.13747
397.297	-21.95051
397.51	60.24551
397.724	-61.98135
397.938	-45.12736
398.151	5.44413
398.365	70.78603
398.578	93.97717
398.792	-19.84338
399.005	41.27401
399.219	-36.69976
399.433	26.51971
399.646	1.22931
399.86	106.62802
400.073	-0.87807
400.287	20.19678
400.5	66.56975
400.714	-19.84338
400.927	20.19678
401.141	9.65906
401.354	-2.98542
401.567	98.19403
401.781	18.08919
401.994	20.19678
402.208	9.65906
402.421	5.44413
402.635	-7.20006
402.848	37.05838
403.061	37.05838
403.275	-64.08798
403.488	93.97717
403.701	43.38186
403.915	20.19678
404.128	56.02946
404.341	-21.95051
404.555	62.35357
404.768	13.87408
404.981	22.3044
405.195	45.48974
405.408	68.67788
405.621	28.62739
405.834	-5.09275
406.048	20.19678
406.261	-21.95051
406.474	1.22931
406.687	41.27401
406.9	43.38186
407.114	-19.84338
407.327	102.41098
407.54	-43.0205
407.753	108.73657
407.966	11.76656
408.179	-5.09275
408.392	-2.98542
408.605	28.62739
408.819	26.51971
409.032	77.11062
409.245	11.76656
409.458	70.78603
409.671	-7.20006
409.884	64.46165
410.097	30.7351
410.31	72.8942
410.523	-15.62904
410.736	26.51971
410.949	9.65906
411.162	60.24551
411.375	-32.48582
411.588	9.65906
411.801	30.7351
412.014	136.14973
412.227	62.35357
412.44	70.78603
412.653	-21.95051
412.865	70.78603
413.078	26.51971
413.291	30.7351
413.504	56.02946
413.717	79.21886
413.93	51.8135
414.143	134.0409
414.356	47.59764
414.568	-78.83371
414.781	39.16618
414.994	3.33671
415.207	43.38186
415.42	77.11062
415.632	136.14973
415.845	75.0024
416.058	-26.16471
416.271	34.9506
416.483	22.3044
416.696	110.84515
416.909	1.22931
417.121	66.56975
417.334	30.7351
417.547	51.8135
417.759	1.22931
417.972	-5.09275
418.185	43.38186
418.397	37.05838
418.61	20.19678
418.823	102.41098
419.035	-28.27177
419.248	64.46165
419.46	77.11062
419.673	26.51971
419.885	75.0024
420.098	34.9506
420.311	-15.62904
420.523	3.33671
420.736	-13.52183
420.948	20.19678
421.161	-2.98542
421.373	-21.95051
421.586	41.27401
421.798	-55.66129
422.01	-7.20006
422.223	56.02946
422.435	13.87408
422.648	85.54372
422.86	77.11062
423.073	77.11062
423.285	60.24551
423.497	43.38186
423.71	79.21886
423.922	155.13019
424.134	93.97717
424.347	62.35357
424.559	26.51971
424.771	62.35357
424.984	81.32712
425.196	85.54372
425.408	34.9506
425.621	112.95374
425.833	18.08919
426.045	70.78603
426.257	-24.05762
426.47	68.67788
426.682	9.65906
426.894	85.54372
427.106	89.7604
427.318	66.56975
427.531	45.48974
427.743	77.11062
427.955	77.11062
428.167	45.48974
428.379	43.38186
428.591	68.67788
428.804	-7.20006
429.016	13.87408
429.228	28.62739
429.44	104.51949
429.652	89.7604
429.864	91.86877
430.076	-24.05762
430.288	56.02946
430.5	34.9506
430.712	26.51971
430.924	20.19678
431.136	77.11062
431.348	13.87408
431.56	20.19678
431.772	58.13747
431.984	96.08559
432.196	51.8135
432.408	43.38186
432.62	85.54372
432.832	85.54372
433.044	195.20561
433.256	131.93208
433.468	39.16618
433.679	22.3044
433.891	119.27966
434.103	68.67788
434.315	66.56975
434.527	102.41098
434.739	136.14973
434.95	129.82329
435.162	3.33671
435.374	77.11062
435.586	115.06236
435.798	72.8942
436.009	72.8942
436.221	77.11062
436.433	89.7604
436.645	68.67788
436.856	79.21886
437.068	129.82329
437.28	70.78603
437.491	53.92147
437.703	112.95374
437.915	30.7351
438.126	127.71452
438.338	26.51971
438.55	45.48974
438.761	68.67788
438.973	127.71452
439.184	81.32712
439.396	51.8135
439.608	112.95374
439.819	60.24551
440.031	104.51949
440.242	102.41098
440.454	68.67788
440.665	110.84515
440.877	115.06236
441.088	161.45739
441.3	77.11062
441.511	117.171
441.723	77.11062
441.934	51.8135
442.146	163.5665
442.357	93.97717
442.569	172.00315
442.78	68.67788
442.991	89.7604
443.203	150.91217
443.414	121.38835
443.626	98.19403
443.837	127.71452
444.048	127.71452
444.26	51.8135
444.471	34.9506
444.682	148.80318
444.894	77.11062
445.105	119.27966
445.316	169.89395
445.528	176.22159
445.739	129.82329
445.95	159.34831
446.161	119.27966
446.373	112.95374
446.584	131.93208
446.795	70.78603
447.006	161.45739
447.217	110.84515
447.429	108.73657
447.64	148.80318
447.851	79.21886
448.062	207.86254
448.273	77.11062
448.484	193.0962
448.695	106.62802
448.907	148.80318
449.118	163.5665
449.329	205.753
449.54	195.20561
449.751	163.5665
449.962	172.00315
450.173	155.13019
450.384	112.95374
450.595	129.82329
450.806	127.71452
451.017	134.0409
451.228	186.76807
451.439	136.14973
451.65	153.02117
451.861	163.5665
452.072	195.20561
452.283	172.00315
452.494	121.38835
452.705	197.31505
452.915	197.31505
453.126	172.00315
453.337	153.02117
453.548	190.9868
453.759	174.11236
453.97	172.00315
454.181	203.64348
454.391	144.58528
454.602	195.20561
454.813	161.45739
455.024	250.05744
455.235	262.71742
455.445	212.08167
455.656	197.31505
455.867	271.15779
456.078	212.08167
456.288	157.23924
456.499	224.73956
456.71	209.9721
456.921	212.08167
457.131	247.94751
457.342	262.71742
457.553	262.71742
457.763	184.65873
457.974	180.44012
458.184	182.54942
458.395	245.8376
458.606	338.69132
458.816	340.80204
459.027	364.02109
459.237	277.48826
459.448	319.69565
459.659	338.69132
459.869	330.24862
460.08	338.69132
460.29	258.49735
460.501	368.24296
460.711	374.57589
460.922	370.35392
461.132	429.46752
461.343	357.68842
461.553	372.4649
461.764	383.02003
461.974	359.79929
462.184	330.24862
462.395	414.68792
462.605	431.57895
462.816	321.80621
463.026	446.35944
463.236	370.35392
463.447	492.81728
463.657	478.03445
463.867	516.0489
464.078	433.6904
464.288	524.49719
464.498	431.57895
464.709	562.51727
464.919	541.39445
465.129	465.36403
465.339	659.69906
465.55	560.40493
465.76	568.85439
465.97	613.21748
466.18	625.89368
466.391	710.41275
466.601	499.153
466.811	632.23195
467.021	613.21748
467.231	716.75241
467.441	642.79598
467.651	862.58981
467.862	771.70018
468.072	845.67884
468.282	847.79268
468.492	849.90653
468.702	824.54092
468.912	822.42718
469.122	794.94937
469.332	976.75224
469.542	938.69566
469.752	1101.50751
469.962	1025.38323
470.172	1109.96618
470.382	1057.10082
470.592	1143.80159
470.802	1048.64267
471.012	1086.70503
471.222	1162.8345
471.432	1171.29367
471.642	1219.93505
471.852	1270.69304
472.062	1224.16482
472.272	1395.47827
472.482	1437.77923
472.691	1594.29173
472.901	1520.26612
473.111	1564.68169
473.321	1509.69092
473.531	1746.56484
473.741	1623.90143
473.95	1822.69491
474.16	1649.28083
474.37	1814.23629
474.58	1943.22179
474.79	1974.9364
474.999	1905.16252
475.209	2040.47543
475.419	1979.16492
475.628	2268.74901
475.838	2086.98301
476.048	2249.72994
476.258	2228.59679
476.467	2363.8329
476.677	2537.04321
476.886	2553.93776
477.096	2553.93776
477.306	2545.49057
477.515	2568.71987
477.725	2672.17804
477.935	2640.51033
478.144	2938.0684
478.354	2646.8441
478.563	3056.16865
478.773	2748.16877
478.982	3115.20064
479.192	3087.79446
479.401	3195.29543
479.611	3121.52476
479.82	3296.43377
480.03	3262.72529
480.239	3469.12007
480.449	3281.68684
480.658	3675.3417
480.868	3763.66686
481.077	3603.81568
481.287	3420.69563
481.496	3793.10098
481.705	3954.9192
481.915	3917.1022
482.124	3841.44866
482.333	4091.42549
482.543	3683.75508
482.752	4169.08993
482.961	4171.18857
483.171	4399.81239
483.38	4162.79388
483.589	4380.9449
483.799	4473.16916
484.008	4550.68843
484.217	4347.39833
484.426	4757.95476
484.636	4661.67655
484.845	4847.91062
485.054	4521.36037
485.263	4885.55405
485.472	4824.90266
485.682	4864.64194
485.891	4766.32452
486.1	5033.96396
486.309	4967.08934
486.518	5146.76116
486.727	5255.3166
486.936	5347.12186
487.146	5434.71181
487.355	5301.22489
487.564	5397.17833
487.773	5676.4113
487.982	5618.09908
488.191	5584.76951
488.4	5684.74011
488.609	5867.87833
488.818	5699.31461
489.027	5971.85273
489.236	5811.70763
489.445	5951.06257
489.654	6057.06777
489.863	6349.82286
490.072	6086.15652
490.281	6156.78144
490.49	6208.69421
490.698	6364.34467
490.907	6376.79103
491.116	6693.89079
491.325	6436.9366
491.534	6611.04115
491.743	6457.67191
491.952	6524.00931
492.16	6741.51268
492.369	6915.33349
492.578	6751.86367
492.787	6954.62788
492.996	7035.25927
493.204	7206.74606
493.413	6938.08387
493.622	7386.33362
493.831	7200.55041
494.039	7031.12516
494.248	6987.71157
494.457	7233.59156
494.665	7565.75632
494.874	7642.01326
495.083	7516.27671
495.291	7644.07386
495.5	7576.06302
495.709	7685.28129
495.917	7602.85794
496.126	7714.12146
496.335	7740.89792
496.543	7932.34972
496.752	7722.36075
496.96	7967.32697
497.169	7742.9575
497.377	7833.55832
497.586	7866.49408
497.794	8014.63972
498.003	7771.78942
498.211	8070.16706
498.42	8111.28893
498.628	8275.69651
498.837	8191.4535
499.045	8415.34399
499.254	8080.44828
499.462	8522.07307
499.671	8561.0574
499.879	8712.82662
500.087	8710.77636
500.296	8768.17665
500.504	8593.88103
500.713	8647.2092
500.921	8653.36164
501.129	8889.08059
501.338	8526.177
501.546	8809.16809
501.754	8663.61533
501.962	9325.0555
502.171	8854.2503
502.379	9175.7245
502.587	8997.6361
502.795	9269.83389
503.004	9048.82435
503.212	9390.48772
503.42	9118.42294
503.628	9200.27822
503.837	9308.6948
504.045	9083.62615
504.253	9523.34564
504.461	9490.64846
504.669	9650.00898
504.877	9641.83897
505.085	9784.77868
505.294	10033.72695
505.502	9690.85533
505.71	9658.17875
505.918	9848.05681
506.126	10129.57593
506.334	9572.38379
506.542	9976.61049
506.75	9870.5069
506.958	9805.19255
507.166	9854.17974
507.374	10098.98921
507.582	10109.18514
507.79	10215.20212
507.998	10229.47079
508.206	9986.81068
508.414	10213.16368
508.622	10205.0098
508.83	10052.08343
509.037	10465.8276
509.245	10459.71715
509.453	10351.74655
509.661	10418.97783
509.869	10533.03499
510.077	10304.87988
510.285	10811.90307
510.492	10498.41473
510.7	10651.12387
510.908	10567.65159
511.116	10533.03499
511.324	10604.30052
511.531	10889.21364
511.739	10642.98115
511.947	10828.18037
512.155	10677.58637
512.362	10846.49145
512.57	10604.30052
512.778	10972.60912
512.985	10986.84548
513.193	11149.50849
513.401	11188.13083
513.608	11100.71688
513.816	11123.08047
514.024	11281.62196
514.231	11100.71688
514.439	11281.62196
514.646	11141.37698
514.854	11251.13813
515.061	11053.95243
515.269	11104.78308
515.477	11458.38364
515.684	11738.61637
515.892	11423.84987
516.099	11559.93755
516.307	11527.44287
516.514	11543.69051
516.722	11427.91281
516.929	11411.66081
517.136	11620.85867
517.344	11722.37571
517.551	11693.95319
517.759	11712.22501
517.966	11614.76693
518.173	11921.28601
518.381	11758.91641
518.588	12034.91337
518.796	11919.25672
519.003	11900.99274
519.21	12069.40247
519.418	12172.85651
519.625	12116.06066
519.832	12298.59825
520.039	12308.73752
520.247	12513.51416
520.454	12195.16757
520.661	12655.39984
520.868	12182.99801
521.076	12845.88616
521.283	12635.1323
521.49	12513.51416
521.697	12353.34821
521.904	12817.51903
522.112	12335.09879
522.319	12920.85133
522.526	12574.32603
522.733	12740.51701
522.94	12874.25222
523.147	12574.32603
523.354	12817.51903
523.561	12935.03311
523.768	12740.51701
523.975	13149.75572
524.183	12872.22611
524.39	12959.34414
524.597	13251.02155
524.804	13437.32275
525.011	13155.83199
525.218	13202.41535
525.425	13228.74402
525.632	13206.46597
525.838	13246.97113
526.045	13433.27308
526.252	13127.47571
526.459	13396.82541
526.666	13514.26347
526.873	13623.59126
527.08	13427.19856
527.287	13655.98274
527.494	13332.02635
527.701	13813.87951
527.907	13680.2758
528.114	13787.56468
528.321	13909.01373
528.528	13838.16969
528.735	13714.69017
528.941	13862.45946
529.148	13714.69017
529.355	14255.09402
529.562	13789.58891
529.768	14006.16596
529.975	13935.32638
530.182	14242.95192
530.388	14155.93144
530.595	14244.97561
530.802	14105.33638
531.008	14388.65293
531.215	14506.01716
531.422	14584.93193
531.628	14449.35917
531.835	14293.54358
532.042	14483.75879
532.248	14578.86163
532.455	14416.98268
532.661	14639.56419
532.868	14781.20006
533.074	14777.15338
533.281	14815.59674
533.487	14845.94658
533.694	14896.52936
533.9	15197.99814
534.107	14906.64587
534.313	14961.27485
534.52	15086.71823
534.726	15153.48619
534.933	14860.1098
535.139	15382.11653
535.345	15110.9975
535.552	15359.86034
535.758	15448.8854
535.965	15313.32481
536.171	15149.43965
536.377	15527.7948
536.584	15276.9058
536.79	15707.87412
536.996	15365.93021
537.203	15303.20841
537.409	15380.09324
537.615	15724.06136
537.821	15493.39829
538.028	16112.57757
538.234	15770.60003
538.44	15724.06136
538.646	15501.49157
538.853	16035.67982
539.059	15807.02197
539.265	15857.60861
539.471	16055.91586
539.677	16084.24656
539.883	16144.95624
540.09	16203.64364
540.296	16195.54874
540.502	16233.99975
540.708	16094.36474
540.914	16118.64854
541.12	16335.18967
541.326	16349.35663
541.532	16195.54874
541.738	16551.75234
541.944	16221.85726
542.15	16227.9285
542.356	16270.4276
542.562	16527.46377
542.768	16659.03068
542.974	16901.94944
543.18	16942.4394
543.386	17116.55842
543.592	16804.7777
543.798	16950.53752
544.004	16778.46135
544.21	17199.57588
544.415	16798.70466
544.621	16924.21879
544.827	17116.55842
545.033	17335.24908
545.239	17065.94035
545.445	17622.84076
545.651	17031.52104
545.856	17205.65052
546.062	17304.87332
546.268	17396.00263
546.474	17183.37698
546.679	17219.82477
546.885	16673.2
547.091	17175.27759
547.297	16930.2923
547.502	17314.9985
547.708	17254.24856
547.914	17474.9864
548.119	17663.35182
548.325	17353.47486
548.531	17003.17632
548.736	17254.24856
548.942	17677.531
549.147	17365.62551
549.353	17602.58572
549.559	17671.45419
549.764	17495.23941
549.97	17327.14881
550.175	17574.22921
550.381	18007.75045
550.586	17772.73831
550.792	18240.78384
550.997	18086.77379
551.203	18137.43266
551.408	17936.83667
551.614	18289.42301
551.819	18471.83917
552.025	18504.27193
552.23	18032.06474
552.435	18163.77618
552.641	18342.11787
552.846	18366.43943
553.052	18167.82908
553.257	18599.54888
553.462	18486.02838
553.668	18613.7398
553.873	18510.35318
554.078	18674.56017
554.283	18820.54352
554.489	18763.76978
554.694	18964.51953
554.899	18824.59891
555.105	18875.29258
555.31	19053.75428
555.515	18903.68213
555.72	18877.32038
555.925	18696.86186
556.131	18956.40766
556.336	19013.19205
556.541	18928.01666
556.746	19260.64695
556.951	18806.3498
557.156	18844.87608
557.361	19218.04792
557.567	19530.48312
557.772	19696.88495
557.977	19382.36848
558.182	19433.09018
558.387	19684.70826
558.592	19682.67882
558.797	19382.36848
559.002	19593.38783
559.207	19315.4198
559.412	19603.53413
559.617	19355.99422
559.822	19757.7707
560.027	19122.71378
560.232	19593.38783
560.437	19554.83286
560.642	19666.44349
560.847	19514.2503
561.051	20043.98432
561.256	19400.628
561.461	19826.77911
561.666	19455.40855
561.871	19757.7707
562.076	20080.52824
562.281	19808.5117
562.485	19477.72743
562.69	19875.49384
562.895	19360.05176
563.1	20019.62246
563.305	19774.00753
563.509	20007.44175
563.714	20039.92396
563.919	20133.31632
564.123	20295.759
564.328	20462.29064
564.533	19970.90055
564.737	19989.17098
564.942	20450.10445
565.147	20366.83613
565.351	20242.96218
565.556	20222.65646
565.761	19840.98732
565.965	20446.04241
566.17	20048.04469
566.374	20535.411
566.579	20462.29064
566.784	20409.48487
566.988	20468.3838
567.193	20864.51944
567.397	20202.35117
567.602	20502.91239
567.806	20157.681
568.011	20710.1093
568.215	20742.61471
568.42	20344.49705
568.624	20771.05781
568.828	20766.99446
569.033	20803.56521
569.237	21096.17931
569.442	21086.01767
569.646	20561.8169
569.85	20736.51987
570.055	21025.04999
570.259	20673.54199
570.463	20868.58319
570.668	21094.14697
570.872	20813.72399
571.076	20850.29645
571.281	21018.95343
571.485	21240.48554
571.689	21236.42029
571.893	21266.91002
572.098	21309.59716
572.302	21291.30245
572.506	21464.09875
572.71	21390.91091
572.914	21472.23106
573.119	21059.59789
573.323	21197.80128
573.527	21403.10852
573.731	21901.29918
573.935	21313.6627
574.139	21561.69057
574.343	21498.66148
574.547	21565.75709
574.751	21661.32493
574.955	21516.95985
575.159	21874.8587
575.364	21858.58796
575.568	21626.75684
575.772	21732.4981
575.976	21655.2246
576.18	21665.39184
576.383	21862.65563
576.587	22005.03345
576.791	21740.63248
576.995	21663.35839
577.199	21970.45426
577.403	22015.204
577.607	22375.30202
577.811	22322.39901
578.015	21712.16242
578.219	22214.56594
578.422	21630.82362
578.626	21773.17062
578.83	21974.52234
579.034	21937.91014
579.238	21659.29149
579.442	22200.32461
579.645	22472.97556
579.849	22477.04548
580.053	22578.79791
580.257	22597.1143
580.46	22403.78927
580.664	22475.01052
580.868	22407.85894
581.071	22517.74538
581.275	22668.3474
581.479	22947.21502
581.682	22601.18465
581.886	22373.26724
582.09	22574.72765
582.293	22477.04548
582.497	22507.57027
582.7	22798.61329
582.904	22627.64224
583.107	22670.38269
583.311	22375.30202
583.515	22749.76191
583.718	22696.84185
583.922	22831.18198
584.125	23020.50471
584.329	22969.60863
584.532	22816.93307
584.735	23301.48813
584.939	23272.97975
585.142	23549.94448
585.346	22994.03849
585.549	23401.27237
585.753	23433.85662
585.956	23725.11335
586.159	23187.45839
586.363	23456.25876
586.566	22845.43105
586.769	23444.03936
586.973	23305.56081
587.176	23767.89051
587.379	23030.68417
587.582	23313.7062
587.786	23340.17907
587.989	23560.1281
588.192	23572.34855
588.395	23989.94498
588.599	23604.93695
588.802	23843.26294
589.005	23657.89475
589.208	23784.18691
589.411	24020.5056
589.615	23961.42231
589.818	23928.82566
590.021	23833.07725
590.224	23672.15297
590.427	23973.64625
590.63	23969.57159
590.833	23554.01792
591.036	24112.19123
591.239	24303.73025
591.442	23859.56021
591.645	24370.97829
591.848	24570.70126
592.051	24521.78724
592.254	24222.22136
592.457	24554.39643
592.66	24242.59818
592.863	24878.48459
593.066	24326.14594
593.269	24399.50862
593.472	24589.0444
593.675	25139.42914
593.878	24346.52412
594.081	24737.83501
594.284	24692.99262
594.486	24796.94722
594.689	24519.74919
594.892	24417.84982
595.095	24546.24407
595.298	24790.83207
595.5	24803.06239
595.703	25131.27406
595.906	24517.71114
596.109	24833.63857
596.311	24095.89115
596.514	24536.05368
596.717	24943.71721
596.92	25290.30439
597.122	24876.44611
597.325	24849.94608
597.528	25102.73157
597.73	25141.46791
597.933	24947.79432
598.136	25322.92762
598.338	25143.50669
598.541	25343.31741
598.743	25414.68334
598.946	25559.46199
599.148	25600.24655
599.351	25059.91865
599.554	25063.99603
599.756	25239.33169
599.959	25753.19563
600.161	25394.29282
600.363	25612.48207
600.566	25791.94445
600.768	25730.76242
600.971	25363.70742
601.173	25449.34772
601.376	25249.52612
601.578	25561.5012
601.78	25557.42279
601.983	25510.52159
602.185	25388.1757
602.388	25492.16923
602.59	25500.32581
602.792	25659.38556
602.995	25304.57698
603.197	25991.81748
603.399	25851.0887
603.601	25716.48686
603.804	25508.48243
604.006	25965.3027
604.208	25718.52622
604.41	25508.48243
604.613	25496.24752
604.815	25767.47143
605.017	26008.13442
605.219	25467.69968
605.421	25828.65449
605.623	25775.62908
605.826	26069.32396
606.028	25490.13009
606.23	26250.86217
606.432	25806.22051
606.634	25745.03807
606.836	25514.59991
607.038	25938.78822
607.24	25773.58966
607.442	26016.29293
607.644	25885.7602
607.846	26091.76052
608.048	26358.97556
608.25	26289.61926
608.452	26444.6536
608.654	26803.71542
608.856	26067.28428
609.058	26642.53977
609.26	26436.49367
609.462	26505.85393
609.664	26530.33447
609.866	26334.49665
610.067	26232.50376
610.269	26401.81423
610.471	25885.7602
610.673	26497.69381
610.875	26146.83298
611.077	25871.48363
611.278	25887.79971
611.48	26354.89573
611.682	25861.28614
611.884	26432.41371
612.085	26130.51509
612.287	26269.22072
612.489	25961.22353
612.69	26671.10186
612.892	26744.54859
613.094	26685.38302
613.295	26291.65913
613.497	26332.45675
613.699	26630.29897
613.9	26758.83013
614.102	27015.90989
614.304	26261.06134
614.505	26212.10568
614.707	26277.38012
614.908	25824.57557
615.11	26248.82234
615.311	26063.20493
615.513	26089.72083
615.714	26346.73608
615.916	26452.81356
616.117	26409.97405
616.319	26493.61375
616.52	26226.38431
616.722	26281.45982
616.923	26395.69437
617.124	26683.34285
617.326	26067.28428
617.527	26646.62005
617.729	26214.14548
617.93	26758.83013
618.131	26766.99104
618.333	26797.59466
618.534	26648.66019
618.735	27064.88001
618.937	26477.2936
619.138	26626.21871
619.339	26685.38302
619.54	26901.64941
619.742	26616.0181
619.943	26924.09309
620.144	26569.09577
620.345	26611.93786
620.546	26699.66425
620.748	26942.45622
620.949	26601.7373
621.15	26493.61375
621.351	26748.62903
621.552	26689.46336
621.753	26212.10568
621.954	26820.03752
622.155	26528.29441
622.356	26787.39341
622.558	26748.62903
622.759	26720.06613
622.96	26701.70443
623.161	27126.09377
623.362	26828.19861
623.563	27383.20465
623.764	26938.37551
623.965	27097.5272
624.166	27030.19276
624.366	26693.54371
624.567	26422.21384
624.768	26877.1656
624.969	26387.53459
625.17	26920.01241
625.371	27052.63741
625.572	26630.29897
625.773	26762.91058
625.973	26946.53693
626.174	26991.42513
626.375	27103.64858
626.576	27191.38979
626.777	27495.44202
626.977	26897.56876
627.178	27273.01173
627.379	26518.09417
627.58	26913.8914
627.78	26718.02594
627.981	26879.20591
628.182	26987.34436
628.382	26789.43366
628.583	26671.10186
628.784	26730.26713
628.984	26807.79594
629.185	27401.57051
629.386	26844.52085
629.586	27132.21521
629.787	26695.58389
629.987	26697.62407
630.188	26905.73007
630.388	27107.72951
630.589	27134.2557
630.79	26940.41587
630.99	26889.40748
631.191	26873.08499
631.391	27117.93187
631.591	27309.74228
631.792	27195.47083
631.992	27489.31988
632.193	27440.3432
632.393	27385.2453
632.594	27089.36537
632.794	27199.55189
632.994	27287.29578
633.195	27373.00145
633.395	27264.84944
633.595	27315.86408
633.796	27507.68632
633.996	27656.66225
634.196	27458.70937
634.397	27511.76777
634.597	27142.41765
634.797	27593.3977
634.997	27383.20465
635.198	27134.2557
635.398	26989.38475
635.598	27285.2552
635.798	27328.10772
635.998	27775.03127
636.199	27934.22342
636.399	27634.21341
636.599	27489.31988
636.799	27462.79075
636.999	26936.33516
637.199	27356.67638
637.399	27368.92017
637.599	27642.3766
637.799	27264.84944
637.999	27368.92017
638.199	27311.78288
638.399	27558.70474
638.599	27501.56416
638.799	27383.20465
638.999	27742.37735
639.199	27877.07671
639.399	27742.37735
639.599	27405.65182
639.799	27672.98877
639.999	27658.70306
640.199	27797.48101
640.399	28187.31238
640.599	27107.72951
640.799	28250.58728
640.998	27772.99039
641.198	27672.98877
641.398	27499.52345
641.598	27738.29563
641.798	27401.57051
641.997	27570.94927
642.197	27181.18719
642.397	27579.11232
642.597	27560.74549
642.796	27477.07564
642.996	27615.84628
643.196	27811.76729
643.395	27864.8311
643.595	28195.47682
643.795	28064.84783
643.994	28195.47682
644.194	28021.98618
644.394	27515.84922
644.593	27230.15994
644.793	27875.03577
644.992	28068.92991
645.192	27989.33003
645.392	28289.3692
645.591	27973.00206
645.791	27797.48101
645.99	27824.01272
646.19	27624.00943
646.389	28317.94559
646.589	27891.3633
646.788	28075.05305
646.987	27754.62253
647.187	28060.76574
647.386	27852.58554
647.586	28393.46995
647.785	28640.4652
647.984	28428.17082
648.184	28399.59361
648.383	28448.58324
648.582	28448.58324
648.782	28679.25098
648.981	27958.71514
649.18	28170.98354
649.38	28117.91531
649.579	28640.4652
649.778	28303.65737
649.977	28395.51117
650.177	28475.11955
650.376	28495.53222
650.575	27858.70831
650.774	28134.24391
650.973	28189.35349
651.173	28089.34042
651.372	28326.11032
651.571	28148.5315
651.77	28397.55239
651.969	28217.92914
652.168	28044.43746
652.367	28522.06885
652.566	28338.35744
652.765	28466.95452
652.964	28252.62843
653.163	28656.79601
653.362	29030.3815
653.561	28454.70699
653.76	28605.76245
653.959	28203.64128
654.158	28311.82206
654.357	28268.95761
654.556	27813.80819
654.755	28244.46386
654.954	28166.90134
655.153	27995.45303
655.352	28305.69854
655.551	28244.46386
655.749	28385.30508
655.948	28595.55582
656.147	28279.16339
656.346	28697.62333
656.545	28932.3885
656.743	28705.78884
656.942	28801.73488
657.141	28697.62333
657.34	28528.19271
657.538	28520.02756
657.737	28634.34116
657.936	29079.3789
658.135	28195.47682
658.333	28487.36714
658.532	28417.96465
658.731	28273.03992
658.929	28446.542
659.128	28358.76939
659.326	28793.56917
659.525	29087.54519
659.724	28858.89531
659.922	28860.93677
660.121	28603.72112
660.319	28411.84096
660.518	28211.80576
660.716	28579.22526
660.915	28854.8124
661.113	28752.74087
661.312	28401.63483
661.51	28822.14922
661.709	28675.16825
661.907	28493.49095
662.105	28828.27355
662.304	28948.7205
662.502	28368.9754
662.701	29201.87501
662.899	28454.70699
663.097	28534.31658
663.296	28485.32587
663.494	29012.00763
663.692	28865.01969
663.891	28669.04416
664.089	28491.44968
664.287	28860.93677
664.485	28520.02756
664.684	29197.79175
664.882	28960.96954
665.08	29044.67235
665.278	29036.50614
665.476	28744.57526
665.675	28618.01045
665.873	28121.99745
666.071	28775.19638
666.269	28699.6647
666.467	28471.03703
666.665	28479.20208
666.863	28224.05252
667.061	28873.18555
667.259	28718.03714
667.457	28803.77631
667.655	28360.81059
667.853	28560.85347
668.051	28291.41036
668.249	28095.46359
668.447	27887.28141
668.645	28266.91646
668.843	28522.06885
669.041	28813.98347
669.239	28044.43746
669.437	28458.78949
669.635	28556.77086
669.833	28628.21714
670.031	28319.98677
670.229	28207.72352
670.426	28097.50465
670.624	28475.11955
670.822	28328.1515
671.02	28722.11992
671.218	28181.18905
671.415	28299.57503
671.613	28315.90442
671.811	28109.75103
672.009	28301.6162
672.206	28362.85179
672.404	28426.12959
672.602	28397.55239
672.799	28499.61477
672.997	28750.69946
673.195	28258.75186
673.392	28456.74824
673.59	28032.19129
673.788	28173.02464
673.985	28344.48101
674.183	28436.33578
674.38	28417.96465
674.578	28256.71072
674.775	27770.94951
674.973	28201.60017
675.17	28105.6689
675.368	28032.19129
675.565	28283.24571
675.763	28736.40966
675.96	28001.57605
676.158	28219.97026
676.355	27954.63318
676.553	29330.49997
676.75	28648.6306
676.947	28266.91646
677.145	28036.27334
677.342	28207.72352
677.539	28199.55905
677.737	28358.76939
677.934	28007.69908
678.131	28015.86313
678.329	28207.72352
678.526	28381.22266
678.723	28438.37702
678.92	28675.16825
679.118	28303.65737
679.315	28307.73971
679.512	28179.14795
679.709	28246.505
679.906	27962.79711
680.104	27958.71514
680.301	27581.15309
680.498	27383.20465
680.695	27358.71701
680.892	27646.45821
681.089	27966.87909
681.286	28315.90442
681.483	27717.8871
681.68	28034.23232
681.877	27911.77282
682.075	27646.45821
682.272	27572.99003
682.469	28358.76939
682.665	28038.31437
682.862	27977.08404
683.059	27703.60121
683.256	27270.97115
683.453	27303.62049
683.65	27217.91669
683.847	27024.07153
684.044	26875.1253
684.241	27015.90989
684.438	27658.70306
684.635	27740.33649
684.831	27889.32236
685.028	27281.17404
685.225	27721.9688
685.422	26915.93173
685.619	27179.14668
685.815	26958.7791
686.012	27291.37695
686.209	27056.71827
686.405	27542.37876
686.602	27166.90362
686.799	27036.31401
686.996	27215.87615
687.192	27321.9859
687.389	27403.61116
687.586	27389.32659
687.782	27087.32491
687.979	27056.71827
688.175	26463.01355
688.372	27268.93058
688.568	27026.11194
688.765	27024.07153
688.962	27122.01281
689.158	27254.64661
689.355	26826.15833
689.551	26936.33516
689.748	26391.61448
689.944	26871.04468
690.14	26738.42796
690.337	26589.49668
690.533	26632.3391
690.73	26691.50354
690.926	27168.94413
691.123	26395.69437
691.319	26638.4595
691.515	26948.57729
691.712	26826.15833
691.908	26873.08499
692.104	26420.17387
692.301	26873.08499
692.497	26634.37923
692.693	26652.74048
692.889	26440.57363
693.086	26720.06613
693.282	26891.4478
693.478	26620.09834
693.674	26497.69381
693.87	26477.2936
694.067	26518.09417
694.263	26799.63491
694.459	26197.82713
694.655	26938.37551
694.851	26393.65442
695.047	26424.25381
695.243	26373.25504
695.439	26307.9781
695.635	26244.74268
695.831	26342.65626
696.027	26087.68113
696.224	25753.19563
696.42	26312.05786
696.615	26618.05822
696.811	26295.73886
697.007	26381.41477
697.203	26106.03845
697.399	25895.9578
697.595	25995.8967
697.791	26152.95223
697.987	26169.27028
698.183	26436.49367
698.379	25987.73826
698.575	26744.54859
698.77	26646.62005
698.966	26520.13422
699.162	26297.77873
699.358	26709.86517
699.554	26071.36364
699.749	26648.66019
699.945	26330.41686
700.141	26507.89397
700.337	26689.46336
700.532	26214.14548
700.728	26552.77515
700.924	26338.57645
701.119	26203.9465
701.315	26261.06134
701.511	25877.60215
701.706	26328.37696
701.902	26097.87962
702.097	26030.5704
702.293	25716.48686
702.489	25859.24665
702.684	26095.83992
702.88	26089.72083
703.075	26152.95223
703.271	26361.01548
703.466	26334.49665
703.662	26203.9465
703.857	25787.8656
704.053	26161.11124
704.248	26050.96693
704.443	26336.53655
704.639	25867.40463
704.834	26008.13442
705.03	25683.85736
705.225	25834.77289
705.42	25245.44834
705.616	25810.29939
705.811	25437.11316
706.006	25999.97594
706.202	25753.19563
706.397	25755.23503
706.592	25893.91828
706.787	26006.0948
706.983	25900.03685
707.178	25710.36879
707.373	25490.13009
707.568	25135.35159
707.763	25329.04453
707.959	25673.66074
708.154	25100.69283
708.349	24986.5274
708.544	24931.48591
708.739	25019.14537
708.934	25547.22678
709.129	25139.42914
709.324	25141.46791
709.519	25190.39917
709.714	25149.62303
709.909	25577.81495
710.104	25265.83733
710.299	25308.65489
710.494	25324.96659
710.689	25114.96401
710.884	25231.17618
711.079	25375.94152
711.274	25188.36034
711.469	25598.2073
711.664	25453.42592
711.859	25090.4992
712.054	24892.75402
712.249	24823.44645
712.443	24974.29581
712.638	24856.06144
712.833	24478.98867
713.028	24839.75387
713.223	24562.54883
713.417	24674.64835
713.612	24546.24407
713.807	24856.06144
714.002	24884.60005
714.196	25355.55139
714.391	24766.37168
714.586	25212.82642
714.78	24762.29499
714.975	24986.5274
715.17	24717.45196
715.364	25098.6541
715.559	24931.48591
715.754	24741.91165
715.948	24957.98716
716.143	24642.0368
716.337	24692.99262
716.532	25047.68657
716.726	24803.06239
716.921	24847.90763
717.115	24603.31142
717.31	25025.2613
717.504	25037.49323
717.699	24813.25439
717.893	24344.48629
718.088	24776.56347
718.282	24558.47262
718.476	24566.62504
718.671	23879.93206
718.865	24301.69247
719.059	24291.50364
719.254	24407.66024
719.448	24544.20599
719.642	24611.46406
719.837	23806.59477
720.031	24338.37282
720.225	23898.26696
720.419	24320.03254
720.614	24091.81616
720.808	24393.39494
721.002	24083.66621
721.196	23947.16119
721.39	24348.56196
721.585	24511.59701
721.779	24735.79669
721.973	24487.1407
722.167	23802.52059
722.361	24352.63763
722.555	24305.76803
722.749	23700.66985
722.943	23270.94346
723.137	23291.30649
723.331	23287.23386
723.525	23596.78978
723.719	24157.01736
723.913	23849.3744
724.107	23409.41836
724.301	23867.70891
724.495	23668.07918
724.689	23975.68358
724.883	23444.03936
725.077	24136.64168
725.271	23690.48518
725.465	23936.97475
725.659	23611.04736
725.853	23203.74773
726.046	23285.19755
726.24	23399.23588
726.434	23146.73594
726.628	23743.44626
726.822	23340.17907
727.015	23395.16291
727.209	23240.39951
727.403	23517.3574
727.596	23731.22429
727.79	23806.59477
727.984	23336.10629
728.177	23613.08417
728.371	23604.93695
728.565	23556.05464
728.758	23598.82657
728.952	23494.95424
729.146	23635.48928
729.339	23706.78068
729.533	23476.62466
729.726	23362.57962
729.92	23623.26827
730.113	23857.52304
730.307	23423.67396
730.5	23382.94408
730.694	23513.28407
730.887	23366.65249
731.081	23346.28828
731.274	23081.58275
731.468	22696.84185
731.661	22904.46472
731.854	22875.96535
732.048	23150.80813
732.241	23317.77891
732.435	23666.04229
732.628	23413.49137
732.821	23476.62466
733.014	23602.90015
733.208	23578.45882
733.401	23291.30649
733.594	23478.66127
733.788	23456.25876
733.981	23586.60588
734.174	23835.11438
734.367	23474.58806
734.56	23433.85662
734.754	23531.61415
734.947	23580.49558
735.14	23509.21075
735.333	23812.70607
735.526	23670.11608
735.719	23480.69788
735.912	23114.15892
736.105	23220.03728
736.298	23071.40287
736.491	23158.95254
736.684	22798.61329
736.877	22869.85843
737.07	23244.47199
737.263	23002.18188
737.456	23008.28946
737.649	22761.97457
737.842	23036.79189
738.035	23124.33915
738.228	22847.46665
738.421	23325.92438
738.614	23305.56081
738.807	23049.00742
739	22965.53704
739.192	22892.25062
739.385	22647.99465
739.578	22503.50025
739.771	22863.75154
739.964	22729.40776
740.156	23057.15118
740.349	23171.16925
740.542	23246.50824
740.735	23264.83461
740.927	22994.03849
741.12	22792.50676
741.313	22633.74793
741.505	22772.15188
741.698	22757.90367
741.891	22615.43097
742.083	22572.69252
742.276	22650.02991
742.468	22460.76592
742.661	21978.59044
742.854	22269.49847
743.046	22214.56594
743.239	22472.97556
743.431	22454.66114
743.624	22297.98307
743.816	22379.37158
744.009	22249.15278
744.201	22458.73099
744.393	22340.71131
744.586	21897.23137
744.778	22306.12166
744.971	22151.49858
745.163	22241.0146
745.355	22310.19097
745.548	22133.18938
745.74	22442.45169
745.932	22295.94843
746.125	22267.46389
746.317	22448.5564
746.509	22092.50334
746.702	22637.8184
746.894	22397.6848
747.086	22238.98007
747.278	22084.36631
747.471	21819.94594
747.663	21968.42022
747.855	22043.68207
748.047	21848.41888
748.239	22306.12166
748.431	22202.35907
748.623	22560.48182
748.815	22336.64188
749.008	22245.08368
749.2	22415.99832
749.392	22194.22124
749.584	21836.2161
749.776	21931.80823
749.968	21671.49224
750.16	21754.8678
750.352	21726.39736
750.544	21803.67603
750.736	21779.27164
750.928	22043.68207
751.12	21667.4253
751.311	22013.16988
751.503	21622.69008
751.695	21399.04263
751.887	21333.99061
752.079	21919.60451
752.271	21706.06179
752.463	21880.96029
752.654	21161.2162
752.846	21553.55757
753.038	21425.47119
753.23	21706.06179
753.421	21252.68137
753.613	21464.09875
753.805	21681.65964
753.997	21470.19798
754.188	21787.40637
754.38	21023.0178
754.572	20978.3106
754.763	21112.43814
754.955	20838.10548
755.146	21004.72825
755.338	20726.36187
755.53	21122.60004
755.721	20823.88287
755.913	21124.63244
756.104	21305.53164
756.296	21555.59081
756.487	21323.8266
756.679	21399.04263
756.87	20793.40654
757.062	20880.77453
757.253	21033.1788
757.445	21053.50112
757.636	21134.79446
757.827	21073.82384
758.019	21207.96404
758.21	20911.25353
758.401	20537.4422
758.593	20525.25507
758.784	20336.37387
758.975	20299.82041
759.167	20405.42301
759.358	20590.25482
759.549	20815.75576
759.74	20283.57487
759.932	20574.00448
760.123	20291.6976
760.314	20139.40743
760.505	20048.04469
760.696	20163.77227
760.888	20301.85112
761.079	20385.11394
761.27	20208.44271
761.461	20326.22
761.652	20019.62246
761.843	20068.34678
762.034	20458.22856
762.225	19993.23113
762.416	20244.99277
762.607	20037.89379
762.798	20267.32959
762.989	20210.47324
763.18	20123.16454
763.371	19920.15115
763.562	19520.33758
763.753	19725.29783
763.944	20340.43545
764.135	19765.88908
764.326	20017.59233
764.517	20046.0145
764.708	19662.3847
764.899	19711.09129
765.089	19715.15028
765.28	19597.44634
765.471	19309.33378
765.662	19033.47296
765.853	19457.43752
766.043	19266.73268
766.234	19619.76842
766.425	19094.31812
766.615	19209.93402
766.806	19236.30443
766.997	19593.38783
767.187	19589.32934
767.378	19682.67882
767.569	19378.31086
767.759	19520.33758
767.95	19205.8771
768.141	19416.85896
768.331	19307.30512
768.522	19218.04792
768.712	19134.88359
768.903	18980.74344
769.093	18826.62661
769.284	18719.16403
769.474	18877.32038
769.665	18664.4232
769.855	18331.98405
770.046	18901.65428
770.236	18498.19071
770.426	18437.38043
770.617	18928.01666
770.807	18759.71464
770.998	18998.99566
771.188	19082.14879
771.378	18589.41263
771.569	18684.69725
771.759	18504.27193
771.949	18477.92024
772.139	18571.16762
772.33	18287.39634
772.52	18346.17143
772.71	18757.68707
772.9	18267.12979
773.09	18668.47798
773.281	18542.78712
773.471	18447.51524
773.661	18475.89321
773.851	18323.87706
774.041	18141.48547
774.231	18277.26302
774.421	17685.63346
774.611	17863.90127
774.802	17562.07662
774.992	17865.92719
775.182	17620.81524
775.372	17742.35219
775.562	17371.70088
775.752	17618.78972
775.942	17404.10331
776.131	17479.03698
776.321	17519.54345
776.511	17874.03092
776.701	17825.4094
776.891	18506.29901
777.081	18184.04084
777.271	18107.03707
777.461	17792.99615
777.651	17975.33218
777.84	17527.6449
778.03	17501.31538
778.22	17730.19796
778.41	17752.48082
778.599	17537.77178
778.789	17914.55037
778.979	17556.00037
779.169	17434.48131
779.358	17185.40183
779.548	17339.29923
779.738	17236.0241
779.927	17264.37336
780.117	17159.07896
780.307	17379.80142
780.496	17266.39833
780.686	17229.94933
780.875	17171.22792
781.065	17102.38519
781.254	17037.59498
781.444	17225.8995
781.633	17223.87459
781.823	17128.70702
782.012	16976.8567
782.202	17080.11323
782.391	16995.07793
782.581	16950.53752
782.77	16537.58397
782.96	16788.58297
783.149	16499.12748
783.338	16861.46051
783.528	16563.89675
783.717	16551.75234
783.906	16489.00748
784.096	16458.64778
784.285	16387.81027
784.474	16527.46377
784.663	16458.64778
784.853	16225.90475
785.042	15904.14898
785.231	15985.09035
785.42	16268.40382
785.61	16197.57247
785.799	16325.07048
785.988	16043.77421
786.177	15734.17842
786.366	15881.89046
786.555	15954.73709
786.744	15758.45945
786.933	15726.08477
787.122	16221.85726
787.312	15728.10818
787.501	16021.51467
787.69	15979.01967
787.879	16037.70341
788.068	15881.89046
788.257	15641.10239
788.445	15576.35491
788.634	15497.44493
788.823	15707.87412
789.012	15843.44428
789.201	15926.40764
789.39	16102.45932
789.579	15940.57233
789.768	16136.86153
789.957	15889.98445
790.145	16426.26462
790.334	16254.23738
790.523	16118.64854
790.712	16173.28791
790.9	15912.24302
791.089	15691.68695
791.278	15902.12547
791.467	15966.87835
791.655	15752.38918
791.844	15707.87412
792.033	15191.92833
792.221	15153.48619
792.41	15444.83879
792.599	14930.92546
792.787	15408.41936
792.976	15384.13982
793.164	15258.69632
793.353	15009.8337
793.541	15113.02077
793.73	15226.32394
793.918	15197.99814
794.107	14734.66303
794.295	15414.48926
794.484	15048.276
794.672	15280.95235
794.861	15161.57927
795.049	15351.76719
795.238	15218.23085
795.426	15410.44266
795.614	15226.32394
795.803	15380.09324
795.991	14849.99322
796.179	14720.4995
796.368	14552.55686
796.556	14595.04907
796.744	14564.69755
796.932	14872.24967
797.121	14706.33593
797.309	14696.21907
797.497	14586.95536
797.685	14845.94658
797.874	14639.56419
798.062	14542.43959
798.25	14584.93193
798.438	14597.0725
798.626	14825.71337
798.814	14939.01864
799.002	14760.96662
799.19	14586.95536
799.378	14621.35352
799.566	14582.90849
799.755	14348.18132
799.943	14667.89172
800.131	14572.79131
800.318	14643.61099
800.506	14607.18961
800.694	14115.4555
800.882	14329.96888
801.07	14281.40168
801.258	14473.6413
801.446	14481.73529
801.634	14016.28565
801.822	14279.37803
802.01	14285.44899
802.197	14275.33071
802.385	14194.38281
802.573	14360.32287
802.761	14344.13412
802.949	14532.32229
803.136	14214.62007
803.324	14692.17231
803.512	14678.00865
803.699	14497.92322
803.887	14671.9385
804.075	14631.47057
804.262	14449.35917
804.45	14595.04907
804.638	14524.22843
804.825	14839.87662
805.013	14283.42534
805.201	14558.62721
805.388	14319.85079
805.576	14497.92322
805.763	14170.09782
805.951	14232.83345
806.138	14309.73267
806.326	14552.55686
806.513	14342.11052
806.701	14117.47932
806.888	14281.40168
807.075	14493.87625
807.263	14182.24035
807.45	14271.28339
807.638	14376.51151
807.825	14485.78228
808.012	14396.74717
808.2	14414.95913
808.387	14495.89974
808.574	14421.02976
808.761	14528.27536
808.949	14524.22843
809.136	14591.00222
809.323	14813.57341
809.51	14421.02976
809.698	14287.47264
809.885	14449.35917
810.072	14574.81475
810.259	14364.37004
810.446	14566.72099
810.633	14528.27536
810.82	14578.86163
811.008	14748.82652
811.195	14251.04666
811.382	13935.32638
811.569	14607.18961
811.756	14105.33638
811.943	14334.0161
812.13	14251.04666
812.317	14325.92165
812.504	14287.47264
812.691	14441.26508
812.878	14010.21384
813.064	14477.6883
813.251	14202.47774
813.438	14273.30705
813.625	14149.8601
813.812	13911.03779
813.999	14327.94526
814.186	14340.08692
814.372	13985.92639
814.559	14249.02298
814.746	14170.09782
814.933	14210.57264
815.12	14380.55866
815.306	14246.99929
815.493	14022.35743
815.68	14576.83819
815.866	14370.44078
816.053	14678.00865
816.24	14194.38281
816.426	14269.25972
816.613	14240.92823
816.799	14147.83632
816.986	14441.26508
817.173	14629.44716
817.359	14372.46436
817.546	14621.35352
817.732	13967.71057
817.919	13937.35041
818.105	13939.37444
818.292	13601.32161
818.478	13577.02697
818.665	13882.70062
818.851	13842.21801
819.037	13749.10363
819.224	13991.99829
819.41	13967.71057
819.597	13965.68658
819.783	14004.14201
819.969	13913.06185
820.156	13643.83604
820.342	13617.51776
820.528	13858.41119
820.714	13421.124
820.901	13882.70062
821.087	13680.2758
821.273	13998.07016
821.459	13803.75848
821.646	14026.40528
821.832	13653.9583
822.018	13728.86053
822.204	13380.62603
822.39	13538.55943
822.576	13504.14
822.762	13753.15221
822.948	13238.87024
823.134	13362.40142
823.32	13044.427
823.507	13297.60014
823.693	13076.83721
823.879	13253.04675
824.065	13534.51014
824.25	13516.28815
824.436	13218.6177
824.622	13291.5248
824.808	13204.44066
824.994	13396.82541
825.18	13477.81854
825.366	13550.70721
825.552	13364.4264
825.738	13874.60419
825.923	13627.64024
826.109	13660.03162
826.295	13360.37645
826.481	13712.66582
826.667	13352.2765
826.852	13702.54403
827.038	13202.41535
827.224	13730.88485
827.409	13518.31283
827.595	13421.124
827.781	13163.93362
827.966	13267.22306
828.152	13082.91399
828.338	13261.14752
828.523	13024.16997
828.709	13370.50129
828.894	12999.86089
829.08	12760.78149
829.266	12726.33153
829.451	13125.45023
829.637	12513.51416
829.822	12568.2451
830.008	12675.66677
830.193	12983.65444
830.378	12677.69344
830.564	13238.87024
830.749	12554.05604
830.935	12776.99267
831.12	12592.56849
831.305	12809.41393
831.491	12525.67699
831.676	12766.86072
831.861	12262.09544
832.047	12539.86667
832.232	12335.09879
832.417	12511.487
832.602	12631.07872
832.788	12647.29289
832.973	12845.88616
833.158	12845.88616
833.343	12576.353
833.528	12685.80002
833.714	12452.69651
833.899	12669.58676
834.084	12296.57038
834.269	12554.05604
834.454	12012.59568
834.639	12444.58705
834.824	12278.31919
835.009	11986.219
835.194	12036.9422
835.379	11939.54925
835.564	11734.55626
835.749	12120.1177
835.934	12036.9422
836.119	12227.61843
836.304	11945.63685
836.489	11880.69865
836.674	11395.40818
836.859	11700.04387
837.044	11572.12244
837.228	11882.72809
837.413	11561.96839
837.598	11909.11015
837.783	11862.43325
837.968	12071.43117
838.152	11933.46158
838.337	12237.75894
838.522	11953.75354
838.707	12116.06066
838.891	11726.43593
839.076	11608.67511
839.261	11415.72387
839.445	11797.48411
839.63	11563.99922
839.815	11596.49121
839.999	11456.35232
840.184	11645.22481
840.368	11368.99631
840.553	11724.40582
840.737	11371.02805
840.922	11547.75233
841.106	11175.93472
841.291	11405.56615
841.475	11169.83651
841.66	11285.6863
841.844	11247.07344
842.029	11212.52194
842.213	11222.68446
842.397	10994.9803
842.582	11110.88231
842.766	11230.81428
842.951	11214.55446
843.135	11240.97633
843.319	10970.57531
843.504	10940.06681
843.688	11131.21236
843.872	11192.19612
844.056	11322.26351
844.241	11578.21476
844.425	11507.13248
844.609	11417.75538
844.793	10866.83599
844.977	10954.30443
845.161	10793.59021
845.346	10958.37222
845.53	10616.51594
845.714	10968.54149
845.898	10675.55087
846.082	10907.5216
846.266	10990.91291
846.45	10756.96161
846.634	10530.9986
846.818	10824.11112
847.002	10689.79914
847.186	11025.48428
847.37	10653.15952
847.554	10563.57924
847.738	10604.30052
847.922	10620.58765
848.106	10516.74356
848.29	10549.32561
848.473	10467.86439
848.657	10310.99332
848.841	10302.84204
849.025	10339.52114
849.209	9997.01052
849.392	9929.68493
849.576	9913.36119
849.76	10343.59633
849.944	10101.02843
850.127	10205.0098
850.311	10147.92646
850.495	10380.27065
850.678	10243.73879
850.862	10722.3644
851.046	10158.1207
851.229	10147.92646
851.413	9854.17974
851.596	10227.43245
851.78	10337.48352
851.964	10045.96473
852.147	9617.32744
852.331	9915.40171
852.514	9502.91038
852.698	9617.32744
852.881	9429.33017
853.065	9874.58854
853.248	9531.5193
853.431	9837.85163
853.615	9482.47353
853.798	9496.7795
853.982	9674.51753
854.165	9799.06855
854.348	9437.50678
854.532	9666.34826
854.715	9435.46266
854.898	9625.4982
855.081	9527.4325
855.265	9699.02386
855.448	9803.15123
855.631	9701.06596
855.814	9682.68656
855.997	9784.77868
856.181	9331.19048
856.364	9378.22046
856.547	9071.34373
856.73	9423.19754
856.913	8921.85732
857.096	9376.17586
857.279	8966.91789
857.462	9192.09392
857.645	9089.76712
857.828	9265.74292
858.011	9382.30961
858.194	9210.50822
858.377	8772.27612
858.56	8909.56658
858.743	8766.12689
858.926	8776.37552
859.109	8700.52479
859.292	8874.73934
859.475	8575.41833
859.658	8874.73934
859.841	8556.9541
860.023	8663.61533
860.206	8294.18444
860.389	8618.4956
860.572	8556.9541
860.755	8659.51391
860.937	8897.2752
861.12	8710.77636
861.303	8548.74729
861.486	8466.6625
861.668	8281.85933
861.851	8491.29113
862.034	8495.39564
862.216	8864.49504
862.399	8382.49384
862.581	8347.58512
862.764	8454.34715
862.947	8452.29453
863.129	8392.76004
863.312	8302.40079
863.494	8259.26145
863.677	8390.70684
863.859	8045.49006
864.042	8051.65959
864.224	7934.40737
864.406	8084.56063
864.589	7771.78942
864.771	8068.11075
864.954	7854.1438
865.136	8045.49006
865.318	8175.01196
865.501	7969.38427
865.683	7872.66895
865.865	7872.66895
866.048	7897.36654
866.23	7854.1438
866.412	7841.79276
866.594	7985.84194
866.777	7963.21231
866.959	7882.95997
867.141	8014.63972
867.323	8121.56814
867.505	7866.49408
867.687	7905.59842
867.869	7450.28461
868.052	8166.79071
868.234	7722.36075
868.416	7751.19561
868.598	7594.61373
868.78	7724.42052
868.962	7734.71905
869.144	7784.14471
869.326	7681.16093
869.508	7812.97078
869.69	7588.43035
869.872	7901.48252
870.054	7697.64187
870.236	7989.95615
870.417	7501.84282
870.599	7714.12146
870.781	7388.39688
870.963	7411.09131
871.145	7210.87638
871.327	7534.83301
871.508	7268.6916
871.69	7751.19561
871.872	7541.01806
872.054	7590.4915
872.235	7551.32604
872.417	7707.94177
872.599	7400.77599
872.78	7829.44098
872.962	7495.65655
873.144	7392.52334
873.325	7204.68086
873.507	7423.46899
873.689	7173.7003
873.87	7254.23941
874.052	7122.05491
874.233	7293.46426
874.415	7297.59273
874.596	7293.46426
874.778	6907.05995
874.959	7223.26681
875.141	6890.51177
875.322	7179.89681
875.503	6915.33349
875.685	7188.15851
875.866	7012.52055
876.048	7177.83133
876.229	7107.59171
876.41	7334.745
876.592	6995.98159
876.773	7262.49793
876.954	7109.65795
877.136	7462.65981
877.317	7122.05491
877.498	7380.1437
877.679	6971.17045
877.86	7198.48515
878.042	7132.3851
878.223	7392.52334
878.404	7179.89681
878.585	7413.15431
878.766	7314.10572
878.947	7289.3357
879.128	7229.46173
879.309	7312.04168
879.49	7322.3617
879.672	7487.40788
879.853	7198.48515
880.034	7369.82674
880.215	7361.57278
880.396	7644.07386
880.576	7283.1427
880.757	7565.75632
880.938	7369.82674
881.119	7580.18555
881.3	7340.93635
881.481	7431.72034
881.662	7295.5285
881.843	7384.27033
882.023	7417.28025
882.204	7380.1437
882.385	7411.09131
882.566	7301.72111
882.747	7417.28025
882.927	7312.04168
883.108	7276.9495
883.289	7316.16975
883.469	7002.18387
883.65	7237.72131
883.831	7064.19554
884.011	7272.82059
884.192	7245.98054
884.373	7215.00661
884.553	6989.77911
884.734	7119.98881
884.914	6832.58172
885.095	7260.43334
885.275	7167.50358
885.456	7266.62706
885.636	7345.06381
885.817	7351.25484
885.997	7355.38208
886.178	7462.65981
886.358	7215.00661
886.538	7567.8177
886.719	7252.17473
886.899	7376.01698
887.08	7419.34318
887.26	7660.55785
887.44	7446.15936
887.621	7812.97078
887.801	7369.82674
887.981	7658.49742
888.161	7144.78059
888.342	7254.23941
888.522	7361.57278
888.702	7450.28461
888.882	7468.84712
889.062	7559.57204
889.242	7262.49793
889.423	7349.19119
889.603	7295.5285
889.783	7625.52775
889.963	7179.89681
890.143	7483.28342
890.323	7456.4723
890.503	7592.55263
890.683	7229.46173
890.863	7458.53483
891.043	7136.51702
891.223	7516.27671
891.403	7243.91576
891.583	7773.84869
891.763	7219.13675
891.943	7376.01698
892.122	7169.56918
892.302	7464.72227
892.482	7309.97761
892.662	7359.50924
892.842	7144.78059
893.022	7274.88506
893.201	6907.05995
893.381	7262.49793
893.561	7024.92383
893.741	7320.29774
893.92	6981.50882
894.1	7029.05807
894.28	6840.85853
894.459	7049.72796
894.639	6828.44317
894.819	7041.46027
894.998	6840.85853
895.178	7115.85653
895.357	6913.26514
895.537	7324.42563
895.716	6991.84662
895.896	7105.52545
896.075	6739.44242
896.255	6813.95755
896.434	6741.51268
896.614	7055.92848
896.793	6708.38569
896.973	6637.97132
897.152	6468.0387
897.331	6789.12247
897.511	6588.25104
897.69	6751.86367
897.87	6536.44493
898.049	6592.3949
898.228	6530.22722
898.407	6526.08197
898.587	6343.59887
898.766	6623.47095
898.945	6453.52503
899.124	6567.53033
899.304	6486.69745
899.483	6484.62435
899.662	6258.51668
899.841	6287.57355
900.02	6061.22358
900.199	6295.87468
900.378	5946.90425
900.557	6025.89613
900.737	6025.89613
900.916	6065.37931
901.095	5969.77382
901.274	5953.14169
901.453	5728.46015
901.632	5826.27205
901.811	5743.03118
901.989	5976.01048
902.168	5478.49124
902.347	5822.11091
902.526	5582.68621
902.705	5786.73735
902.884	5768.00741
903.063	6005.11209
903.242	5844.99605
903.42	5973.93162
903.599	5574.35278
903.778	5774.25094
903.957	5493.08208
904.135	5609.76725
904.314	5102.90362
904.493	5411.77559
904.672	5059.03584
904.85	5232.3582
905.029	5184.34517
905.207	5347.12186
905.386	5117.52393
905.565	5203.13435
905.743	5010.97847
905.922	5320.00229
906.1	5036.05341
906.279	5338.7778
906.457	4904.37298
906.636	5025.60592
906.814	5006.79899
906.993	4973.35984
907.171	4789.33948
907.35	4992.17009
907.528	4680.51734
907.707	4611.42555
907.885	4387.23426
908.063	4517.1703
908.242	4179.58292
908.42	4531.83518
908.598	4200.56731
908.777	4427.06232
908.955	4257.21456
909.133	4510.88501
909.311	4372.55878
909.49	4401.90867
909.668	4246.7255
909.846	4292.87336
910.024	4181.68145
910.202	4303.36007
910.38	4183.77996
910.559	4393.52342
910.737	4196.3706
910.915	4301.26277
911.093	4273.99595
911.271	4473.16916
911.449	4276.09352
911.627	4437.54208
911.805	4315.9434
911.983	4565.35083
912.161	4561.16168
912.339	4831.17783
912.517	4546.49897
912.695	4592.5781
912.872	4527.64532
913.05	4657.48946
913.228	4401.90867
913.406	4674.23728
913.584	4479.45563
913.762	4667.95701
913.939	4181.68145
914.117	4271.89835
914.295	4177.48436
914.473	4374.65534
914.65	4248.82336
914.828	4584.20088
915.006	4208.96047
915.184	4339.01083
915.361	4171.18857
915.539	4661.67655
915.716	4232.03992
915.894	4554.8778
916.072	4219.45145
916.249	4395.61977
916.427	4238.33387
916.604	4129.21177
916.782	4150.20122
916.959	4030.53342
917.137	3877.17717
917.314	4187.97693
917.492	4101.92236
917.669	4198.46896
917.847	4003.23134
918.024	4223.64769
918.201	3973.82524
918.379	4206.86221
918.556	3744.74291
918.733	3826.73525
918.911	3669.03146
919.088	3862.46613
919.265	3599.60759
919.442	3759.46167
919.62	3515.43017
919.797	3885.58304
919.974	3854.05938
920.151	3990.62922
920.328	3889.78586
920.506	3877.17717
920.683	3767.87197
920.86	3759.46167
921.037	3671.13489
921.214	3925.50654
921.391	3780.48682
921.568	4032.63344
921.745	3532.26801
921.922	3801.51002
922.099	3481.75097
922.276	3603.81568
922.453	3557.52258
922.63	3660.61754
922.807	3498.59115
922.984	3612.23164
923.161	3431.22349
923.338	3500.69609
923.514	3300.64702
923.691	3591.19119
923.868	3174.22013
924.045	3485.96112
924.222	3153.14319
924.399	3328.0315
924.575	3110.98448
924.752	3298.5404
924.929	3332.24424
925.105	3203.7251
925.282	3043.51734
925.459	3311.17985
925.635	3087.79446
925.812	3319.60581
925.989	3163.68186
926.165	3250.08349
926.342	3064.60254
926.518	3224.79809
926.695	3047.7345
926.871	3030.86547
927.048	2832.58263
927.224	3035.08282
927.401	2665.84473
927.577	2910.64557
927.754	2944.3964
927.93	3172.11251
928.107	2727.06194
928.283	3068.8194
928.459	2756.61114
928.636	2950.72426
928.812	2598.28235
928.988	2674.28912
929.165	2452.55949
929.341	2541.26691
929.517	2425.09848
929.693	2560.27302
929.87	2097.55243
930.046	2537.04321
930.222	2156.73762
930.398	2490.57939
930.574	2120.80448
930.751	2465.23319
930.927	2173.64653
931.103	2431.4358
931.279	2046.81757
931.455	2353.269
931.631	2080.64128
931.807	2338.47912
931.983	2074.29947
932.159	2199.00891
932.335	1987.62186
932.511	2165.19214
932.687	1962.25072
932.863	2019.3345
933.039	1826.9242
933.215	2019.3345
933.391	1725.41671
933.566	1888.24672
933.742	1850.18495
933.918	2023.56274
934.094	1716.95736
934.27	1742.33524
934.445	1564.68169
934.621	1763.48308
934.797	1573.14173
934.973	1547.76153
935.148	1433.54912
935.324	1623.90143
935.5	1427.20397
935.675	1439.89428
935.851	1414.51368
936.027	1380.67299
936.202	1192.44187
936.378	1340.4875
936.553	1084.59041
936.729	1175.52328
936.904	953.49517
937.08	972.52362
937.255	839.33737
937.431	877.38736
937.606	773.81369
937.782	968.29503
937.957	668.15088
938.133	752.679
938.308	653.36032
938.483	687.16816
938.659	710.41275
938.834	634.34474
939.009	594.20402
939.185	615.33015
939.36	516.0489
939.535	484.36986
939.71	391.46444
939.886	431.57895
940.061	372.4649
940.236	431.57895
940.411	486.48169
940.586	524.49719
940.761	368.24296
940.937	518.16095
941.112	376.6869
941.287	380.90897
941.462	338.69132
941.637	440.02485
941.812	349.24509
941.987	406.24279
942.162	349.24509
942.337	313.36408
942.512	378.79793
942.687	357.68842
942.862	368.24296
943.037	359.79929
943.212	279.59846
943.386	298.59104
943.561	338.69132
943.736	376.6869
943.911	283.8189
944.086	296.48068
944.26	199.42451
944.435	271.15779
944.61	250.05744
944.785	256.38735
944.959	304.92223
945.134	220.52019
945.309	235.28834
945.483	193.0962
945.658	281.70867
945.833	283.8189
946.007	241.61784
946.182	252.16739
946.357	281.70867
946.531	241.61784
946.706	241.61784
946.88	279.59846
947.055	281.70867
947.229	290.14971
947.404	184.65873
947.578	203.64348
947.752	247.94751
947.927	271.15779
948.101	296.48068
948.276	313.36408
948.45	279.59846
948.624	330.24862
948.799	315.47458
948.973	300.70142
949.147	218.41053
949.321	345.02353
949.496	197.31505
949.67	281.70867
949.844	228.95901
950.018	317.58511
950.193	372.4649
950.367	266.93757
950.541	304.92223
950.715	338.69132
950.889	271.15779
951.063	288.03942
951.237	361.91018
951.411	359.79929
951.585	372.4649
951.759	378.79793
951.933	304.92223
952.107	330.24862
952.281	271.15779
952.455	330.24862
952.629	328.13799
952.803	378.79793
952.977	245.8376
953.151	283.8189
953.325	254.27736
953.499	328.13799
953.672	266.93757
953.846	355.57756
954.02	317.58511
954.194	397.79792
954.368	309.14312
954.541	283.8189
954.715	317.58511
954.889	467.47573
955.062	281.70867
955.236	387.2422
955.41	307.03267
955.583	364.02109
955.757	380.90897
955.93	368.24296
956.104	283.8189
956.278	323.91679
956.451	364.02109
956.625	292.26001
956.798	275.37808
956.972	288.03942
957.145	226.84928
957.319	330.24862
957.492	279.59846
957.665	338.69132
957.839	296.48068
958.012	357.68842
958.185	328.13799
958.359	304.92223
958.532	300.70142
958.705	355.57756
958.879	273.26793
959.052	241.61784
959.225	266.93757
959.398	347.1343
959.572	321.80621
959.745	279.59846
959.918	351.3559
960.091	351.3559
960.264	321.80621
960.438	250.05744
960.611	271.15779
960.784	353.46672
960.957	275.37808
961.13	304.92223
961.303	277.48826
961.476	298.59104
961.649	288.03942
961.822	281.70867
961.995	309.14312
962.168	374.57589
962.341	296.48068
962.514	313.36408
962.686	228.95901
962.859	247.94751
963.032	233.17854
963.205	323.91679
963.378	290.14971
963.551	332.35927
963.723	245.8376
963.896	323.91679
964.069	245.8376
964.242	332.35927
964.414	228.95901
964.587	239.50798
964.76	321.80621
964.932	271.15779
965.105	258.49735
965.278	298.59104
965.45	298.59104
965.623	228.95901
965.795	288.03942
965.968	311.25359
966.14	262.71742
966.313	271.15779
966.485	193.0962
966.658	178.33085
966.83	258.49735
967.003	237.39815
967.175	271.15779
967.348	364.02109
967.52	180.44012
967.692	288.03942
967.865	304.92223
968.037	237.39815
968.209	186.76807
968.382	199.42451
968.554	186.76807
968.726	245.8376
968.898	131.93208
969.071	188.87742
969.243	182.54942
969.415	188.87742
969.587	220.52019
969.759	165.67563
969.932	172.00315
970.104	207.86254
970.276	186.76807
970.448	228.95901
970.62	224.73956
970.792	203.64348
970.964	228.95901
971.136	271.15779
971.308	203.64348
971.48	228.95901
971.652	245.8376
971.824	228.95901
971.996	188.87742
972.168	228.95901
972.339	197.31505
972.511	243.72771
972.683	153.02117
972.855	176.22159
973.027	186.76807
973.199	188.87742
973.37	131.93208
973.542	216.30089
973.714	146.69422
973.886	199.42451
974.057	283.8189
974.229	207.86254
974.401	178.33085
974.572	129.82329
974.744	203.64348
974.915	184.65873
975.087	127.71452
975.259	119.27966
975.43	178.33085
975.602	77.11062
975.773	167.78478
975.945	148.80318
976.116	127.71452
976.288	140.36746
976.459	178.33085
976.63	182.54942
976.802	182.54942
976.973	197.31505
977.145	161.45739
977.316	129.82329
977.487	142.47636
977.659	125.60578
977.83	93.97717
978.001	136.14973
978.172	188.87742
978.344	98.19403
978.515	161.45739
978.686	140.36746
978.857	180.44012
979.028	106.62802
979.2	182.54942
979.371	136.14973
979.542	102.41098
979.713	121.38835
979.884	115.06236
980.055	121.38835
980.226	53.92147
980.397	174.11236
980.568	153.02117
980.739	161.45739
980.91	138.25859
981.081	136.14973
981.252	195.20561
981.423	157.23924
981.594	70.78603
981.765	155.13019
981.936	131.93208
982.106	102.41098
982.277	134.0409
982.448	144.58528
982.619	117.171
982.79	112.95374
982.96	161.45739
983.131	220.52019
983.302	106.62802
983.472	72.8942
983.643	169.89395
983.814	79.21886
983.984	138.25859
984.155	106.62802
984.326	93.97717
984.496	77.11062
984.667	70.78603
984.837	117.171
985.008	155.13019
985.178	13.87408
985.349	134.0409
985.519	93.97717
985.69	155.13019
985.86	60.24551
986.031	77.11062
986.201	110.84515
986.371	108.73657
986.542	102.41098
986.712	56.02946
986.882	161.45739
987.053	110.84515
987.223	89.7604
987.393	112.95374
987.563	127.71452
987.734	43.38186
987.904	117.171
988.074	93.97717
988.244	49.70556
988.414	49.70556
988.585	136.14973
988.755	81.32712
988.925	91.86877
989.095	131.93208
989.265	127.71452
989.435	47.59764
989.605	87.65205
989.775	89.7604
989.945	87.65205
990.115	79.21886
990.285	30.7351
990.455	64.46165
990.625	49.70556
990.795	153.02117
990.965	110.84515
991.134	125.60578
991.304	34.9506
991.474	85.54372
991.644	136.14973
991.814	146.69422
991.984	106.62802
992.153	98.19403
992.323	13.87408
992.493	26.51971
992.662	77.11062
992.832	96.08559
993.002	45.48974
993.171	89.7604
993.341	62.35357
993.511	3.33671
993.68	136.14973
993.85	119.27966
994.019	72.8942
994.189	51.8135
994.358	77.11062
994.528	79.21886
994.697	47.59764
994.867	102.41098
995.036	26.51971
995.206	28.62739
995.375	85.54372
995.544	68.67788
995.714	81.32712
995.883	87.65205
996.052	62.35357
996.222	108.73657
996.391	18.08919
996.56	121.38835
996.73	34.9506
996.899	136.14973
997.068	62.35357
997.237	51.8135
997.406	39.16618
997.576	121.38835
997.745	60.24551
997.914	70.78603
998.083	20.19678
998.252	77.11062
998.421	77.11062
998.59	-2.98542
998.759	-7.20006
998.928	144.58528
999.097	-7.20006
999.266	3.33671
999.435	34.9506
999.604	64.46165
999.773	96.08559
999.942	70.78603
1000.111	77.11062
1000.28	34.9506
1000.448	43.38186
1000.617	43.38186
1000.786	121.38835
1000.955	60.24551
1001.124	26.51971
1001.292	26.51971
1001.461	5.44413
1001.63	81.32712
1001.798	1.22931
1001.967	51.8135
1002.136	64.46165
1002.304	-13.52183
1002.473	98.19403
1002.642	56.02946
1002.81	51.8135
1002.979	100.3025
1003.147	85.54372
1003.316	66.56975
1003.484	91.86877
1003.653	39.16618
1003.821	56.02946
1003.99	64.46165
1004.158	30.7351
1004.327	3.33671
1004.495	51.8135
1004.663	68.67788
1004.832	18.08919
1005	53.92147
1005.168	49.70556
1005.337	60.24551
1005.505	-0.87807
1005.673	51.8135
1005.842	60.24551
1006.01	51.8135
1006.178	1.22931
1006.346	45.48974
1006.514	-2.98542
1006.683	60.24551
1006.851	-15.62904
1007.019	43.38186
1007.187	-15.62904
1007.355	119.27966
1007.523	66.56975
1007.691	37.05838
1007.859	60.24551
1008.027	-21.95051
1008.195	22.3044
1008.363	102.41098
1008.531	47.59764
1008.699	32.84284
1008.867	28.62739
1009.035	62.35357
1009.203	64.46165
1009.37	37.05838
1009.538	123.49705
1009.706	-11.4146
1009.874	85.54372
1010.042	47.59764
1010.209	77.11062
1010.377	26.51971
1010.545	-5.09275
1010.713	5.44413
1010.88	-5.09275
1011.048	26.51971
1011.216	79.21886
1011.383	68.67788
1011.551	-13.52183
1011.718	93.97717
1011.886	9.65906
1012.054	7.55158
1012.221	34.9506
1012.389	5.44413
1012.556	43.38186
1012.724	34.9506
1012.891	22.3044
1013.058	53.92147
1013.226	60.24551
1013.393	77.11062
1013.561	30.7351
1013.728	47.59764
1013.895	85.54372
1014.063	28.62739
1014.23	45.48974
1014.397	87.65205
1014.565	-19.84338
1014.732	5.44413
1014.899	110.84515
1015.066	89.7604
1015.233	30.7351
1015.401	47.59764
1015.568	123.49705
1015.735	56.02946
1015.902	47.59764
1016.069	39.16618
1016.236	28.62739
1016.403	37.05838
1016.57	43.38186
1016.737	9.65906
1016.904	72.8942
1017.071	53.92147
1017.238	89.7604
1017.405	-30.3788
1017.572	56.02946
1017.739	37.05838
1017.906	58.13747
1018.073	81.32712
1018.24	34.9506
1018.407	85.54372
1018.573	60.24551
1018.74	-32.48582
1018.907	1.22931
1019.074	5.44413
1019.241	66.56975
1019.407	13.87408
1019.574	-51.44779
1019.741	60.24551
1019.907	51.8135
1020.074	77.11062
1020.241	-2.98542
1020.407	43.38186
1020.574	39.16618
1020.74	49.70556
1020.907	62.35357
1021.073	45.48974
1021.24	20.19678
1021.406	18.08919
1021.573	-36.69976
1021.739	5.44413
1021.906	-45.12736
1022.072	51.8135
1022.239	79.21886
1022.405	43.38186
1022.571	-21.95051
1022.738	13.87408
1022.904	91.86877
1023.07	26.51971
1023.237	62.35357
1023.403	-30.3788
1023.569	68.67788
1023.735	89.7604
1023.902	70.78603
1024.068	93.97717
1024.234	62.35357
1024.4	106.62802
1024.566	77.11062
1024.732	-32.48582
1024.898	39.16618
1025.065	-5.09275
1025.231	51.8135
1025.397	47.59764
1025.563	28.62739
1025.729	53.92147
1025.895	1.22931
1026.061	20.19678
1026.227	9.65906
1026.392	9.65906
1026.558	-5.09275
1026.724	26.51971
1026.89	24.41204
1027.056	68.67788
1027.222	26.51971
1027.388	-11.4146
1027.553	-38.8067
1027.719	70.78603
1027.885	51.8135
1028.051	-2.98542
1028.216	43.38186
1028.382	1.22931
1028.548	11.76656
1028.713	34.9506
1028.879	53.92147
1029.045	56.02946
1029.21	43.38186
1029.376	53.92147
1029.541	13.87408
1029.707	45.48974
1029.873	85.54372
1030.038	64.46165
1030.204	77.11062
1030.369	20.19678
1030.534	9.65906
1030.7	51.8135
1030.865	-13.52183
1031.031	51.8135
1031.196	-32.48582
1031.361	18.08919
1031.527	18.08919
1031.692	37.05838
1031.857	1.22931
1032.023	51.8135
1032.188	68.67788
1032.353	-24.05762
1032.518	11.76656
1032.684	13.87408
1032.849	77.11062
1033.014	15.98162
1033.179	-66.19459
1033.344	1.22931
1033.509	-21.95051
1033.674	-7.20006
1033.839	24.41204
1034.004	18.08919
1034.17	-49.34101
1034.335	51.8135
1034.5	9.65906
1034.664	-11.4146
1034.829	-9.30734
1034.994	79.21886
1035.159	60.24551
1035.324	-0.87807
1035.489	-15.62904
1035.654	-30.3788
1035.819	-28.27177
1035.984	93.97717
1036.148	7.55158
1036.313	34.9506
1036.478	60.24551
1036.643	56.02946
1036.807	22.3044
1036.972	-19.84338
1037.137	28.62739
1037.301	30.7351
1037.466	-5.09275
1037.631	39.16618
1037.795	75.0024
1037.96	28.62739
1038.124	85.54372
1038.289	9.65906
1038.454	-57.768
1038.618	-2.98542
1038.783	20.19678
1038.947	15.98162
1039.111	26.51971
1039.276	45.48974
1039.44	-15.62904
1039.605	20.19678
1039.769	37.05838
1039.933	34.9506
1040.098	3.33671
1040.262	1.22931
1040.426	3.33671
1040.591	51.8135
1040.755	62.35357
1040.919	49.70556
1041.083	11.76656
1041.248	9.65906
1041.412	51.8135
1041.576	24.41204
1041.74	53.92147
1041.904	-26.16471
1042.068	58.13747
1042.232	49.70556
1042.397	81.32712
1042.561	18.08919
1042.725	70.78603
1042.889	-24.05762
1043.053	53.92147
1043.217	56.02946
1043.381	98.19403
1043.544	3.33671
1043.708	13.87408
1043.872	-7.20006
1044.036	49.70556
1044.2	18.08919
1044.364	-36.69976
1044.528	24.41204
1044.691	77.11062
1044.855	51.8135
1045.019	68.67788
1045.183	43.38186
1045.346	39.16618
1045.51	20.19678
1045.674	62.35357
1045.837	3.33671
1046.001	93.97717
1046.165	28.62739
1046.328	-47.2342
1046.492	1.22931
1046.655	43.38186
1046.819	70.78603
1046.983	20.19678
1047.146	77.11062
1047.31	43.38186
1047.473	34.9506
1047.636	24.41204
1047.8	110.84515
1047.963	81.32712
1048.127	-7.20006
1048.29	-5.09275
