Data from mixed_try1_USB4F045381__13__00078.txt Node

Date: Thu Apr 03 19:52:13 EDT 2025
User: mmckonesweet
Spectrometer: USB4F04538
Trigger mode: 4
Integration Time (sec): 2.700000E-3
Scans to average: 1
Electric dark correction enabled: true
Nonlinearity correction enabled: true
Boxcar width: 0
XAxis mode: Wavelengths
Number of Pixels in Spectrum: 3648
>>>>>Begin Spectral Data<<<<<
345.52	-19.141
345.736	-19.141
345.952	-19.141
346.168	35.65319
346.384	54.62413
346.6	10.36155
346.816	37.76098
347.032	20.89932
347.248	-33.89048
347.464	-44.42508
347.68	-0.17561
347.896	10.36155
348.112	-12.81942
348.328	-17.03383
348.544	-12.81942
348.76	12.46906
348.975	29.32996
349.191	23.00695
349.407	134.74384
349.623	-44.42508
349.839	-33.89048
350.055	-8.60492
350.27	79.92161
350.486	-6.49763
350.702	29.32996
350.918	31.43768
351.133	20.89932
351.349	-33.89048
351.565	23.00695
351.781	-42.31821
351.996	46.19237
352.212	-25.46235
352.428	16.68414
352.644	25.11459
352.859	12.46906
353.075	-12.81942
353.291	-25.46235
353.506	31.43768
353.722	8.25407
353.938	-42.31821
354.153	31.43768
354.369	-19.141
354.584	-2.28298
354.8	4.03918
355.016	-69.70555
355.231	-54.95905
355.447	46.19237
355.662	31.43768
355.878	10.36155
356.093	73.59693
356.309	96.7884
356.524	41.97663
356.74	8.25407
356.955	88.35483
357.171	-14.92664
357.386	37.76098
357.602	-10.71218
357.817	46.19237
358.033	-0.17561
358.248	12.46906
358.464	98.89685
358.679	-71.81209
358.895	12.46906
359.11	41.97663
359.325	56.73213
359.541	16.68414
359.756	-4.39031
359.972	-2.28298
360.187	14.57659
360.402	10.36155
360.618	37.76098
360.833	29.32996
361.048	37.76098
361.264	4.03918
361.479	-63.38577
361.694	63.05626
361.909	23.00695
362.125	-0.17561
362.34	33.54542
362.555	-6.49763
362.77	-21.24814
362.986	1.93177
363.201	67.27246
363.416	-10.71218
363.631	41.97663
363.847	-4.39031
364.062	-29.67646
364.277	-19.141
364.492	46.19237
364.707	10.36155
364.922	16.68414
365.138	90.46319
365.353	54.62413
365.568	-29.67646
365.783	35.65319
365.998	46.19237
366.213	-8.60492
366.428	12.46906
366.643	18.79172
366.858	-29.67646
367.073	12.46906
367.288	60.94819
367.503	37.76098
367.718	65.16435
367.933	44.08449
368.148	84.13817
368.363	52.51615
368.578	-23.35526
368.793	10.36155
369.008	-14.92664
369.223	37.76098
369.438	-4.39031
369.653	20.89932
369.868	39.86879
370.083	16.68414
370.298	48.30027
370.513	82.02988
370.728	14.57659
370.943	31.43768
371.157	-14.92664
371.372	16.68414
371.587	-10.71218
371.802	20.89932
372.017	-6.49763
372.232	12.46906
372.446	-59.17246
372.661	41.97663
372.876	33.54542
373.091	29.32996
373.306	41.97663
373.52	109.43943
373.735	4.03918
373.95	39.86879
374.165	56.73213
374.379	25.11459
374.594	10.36155
374.809	56.73213
375.023	-12.81942
375.238	12.46906
375.453	-42.31821
375.667	-2.28298
375.882	-23.35526
376.097	31.43768
376.311	-6.49763
376.526	46.19237
376.741	12.46906
376.955	31.43768
377.17	130.52622
377.384	71.48875
377.599	65.16435
377.813	37.76098
378.028	82.02988
378.242	4.03918
378.457	25.11459
378.672	16.68414
378.886	18.79172
379.101	1.93177
379.315	109.43943
379.53	4.03918
379.744	-48.63874
379.958	33.54542
380.173	4.03918
380.387	54.62413
380.602	-14.92664
380.816	-38.10439
381.031	88.35483
381.245	33.54542
381.459	84.13817
381.674	109.43943
381.888	20.89932
382.103	67.27246
382.317	-4.39031
382.531	39.86879
382.746	-63.38577
382.96	63.05626
383.174	37.76098
383.388	-29.67646
383.603	14.57659
383.817	-4.39031
384.031	56.73213
384.246	101.00532
384.46	-4.39031
384.674	29.32996
384.888	-21.24814
385.103	37.76098
385.317	-14.92664
385.531	8.25407
385.745	16.68414
385.959	20.89932
386.174	52.51615
386.388	12.46906
386.602	-71.81209
386.816	37.76098
387.03	-21.24814
387.244	-46.53192
387.458	-0.17561
387.672	20.89932
387.887	-27.56942
388.101	14.57659
388.315	-29.67646
388.529	20.89932
388.743	8.25407
388.957	79.92161
389.171	31.43768
389.385	27.22227
389.599	8.25407
389.813	29.32996
390.027	20.89932
390.241	23.00695
390.455	37.76098
390.669	48.30027
390.883	29.32996
391.097	84.13817
391.311	-29.67646
391.525	122.09124
391.738	16.68414
391.952	58.84015
392.166	31.43768
392.38	92.57157
392.594	-8.60492
392.808	84.13817
393.022	-4.39031
393.236	31.43768
393.449	86.24649
393.663	20.89932
393.877	63.05626
394.091	96.7884
394.305	33.54542
394.518	82.02988
394.732	-38.10439
394.946	37.76098
395.16	63.05626
395.373	-0.17561
395.587	8.25407
395.801	-0.17561
396.015	-0.17561
396.228	132.63502
396.442	-33.89048
396.656	130.52622
396.869	14.57659
397.083	48.30027
397.297	4.03918
397.51	41.97663
397.724	-25.46235
397.938	12.46906
398.151	-52.8523
398.365	98.89685
398.578	67.27246
398.792	37.76098
399.005	-2.28298
399.219	37.76098
399.433	-8.60492
399.646	18.79172
399.86	25.11459
400.073	-10.71218
400.287	12.46906
400.5	69.38059
400.714	14.57659
400.927	25.11459
401.141	31.43768
401.354	-17.03383
401.567	63.05626
401.781	37.76098
401.994	12.46906
402.208	52.51615
402.421	39.86879
402.635	65.16435
402.848	29.32996
403.061	37.76098
403.275	58.84015
403.488	-12.81942
403.701	46.19237
403.915	-10.71218
404.128	14.57659
404.341	4.03918
404.555	29.32996
404.768	88.35483
404.981	8.25407
405.195	20.89932
405.408	-14.92664
405.621	23.00695
405.834	39.86879
406.048	88.35483
406.261	37.76098
406.474	-27.56942
406.687	111.54801
406.9	-21.24814
407.114	56.73213
407.327	20.89932
407.54	29.32996
407.753	4.03918
407.966	58.84015
408.179	79.92161
408.392	54.62413
408.605	-8.60492
408.819	-35.99745
409.032	67.27246
409.245	41.97663
409.458	20.89932
409.671	33.54542
409.884	23.00695
410.097	-33.89048
410.31	39.86879
410.523	52.51615
410.736	71.48875
410.949	37.76098
411.162	-44.42508
411.375	63.05626
411.588	-2.28298
411.801	-78.13156
412.014	-12.81942
412.227	14.57659
412.44	-27.56942
412.653	-12.81942
412.865	6.14661
413.078	-6.49763
413.291	-21.24814
413.504	-25.46235
413.717	73.59693
413.93	73.59693
414.143	20.89932
414.356	12.46906
414.568	63.05626
414.781	8.25407
414.994	4.03918
415.207	50.4082
415.42	33.54542
415.632	71.48875
415.845	14.57659
416.058	-38.10439
416.271	-38.10439
416.483	6.14661
416.696	31.43768
416.909	20.89932
417.121	-10.71218
417.334	14.57659
417.547	56.73213
417.759	29.32996
417.972	63.05626
418.185	-25.46235
418.397	-4.39031
418.61	-8.60492
418.823	-54.95905
419.035	-63.38577
419.248	105.22233
419.46	-8.60492
419.673	82.02988
419.885	-21.24814
420.098	-6.49763
420.311	29.32996
420.523	12.46906
420.736	52.51615
420.948	16.68414
421.161	12.46906
421.373	29.32996
421.586	82.02988
421.798	29.32996
422.01	25.11459
422.223	-21.24814
422.435	96.7884
422.648	-2.28298
422.86	37.76098
423.073	8.25407
423.285	-25.46235
423.497	29.32996
423.71	-25.46235
423.922	41.97663
424.134	23.00695
424.347	-21.24814
424.559	113.65661
424.771	14.57659
424.984	-33.89048
425.196	-2.28298
425.408	6.14661
425.621	48.30027
425.833	44.08449
426.045	56.73213
426.257	-25.46235
426.47	-2.28298
426.682	84.13817
426.894	88.35483
427.106	33.54542
427.318	-12.81942
427.531	46.19237
427.743	4.03918
427.955	-4.39031
428.167	67.27246
428.379	39.86879
428.591	-6.49763
428.804	-21.24814
429.016	-12.81942
429.228	16.68414
429.44	12.46906
429.652	65.16435
429.864	20.89932
430.076	58.84015
430.288	-33.89048
430.5	25.11459
430.712	23.00695
430.924	16.68414
431.136	-12.81942
431.348	-0.17561
431.56	50.4082
431.772	58.84015
431.984	37.76098
432.196	-31.78348
432.408	10.36155
432.62	10.36155
432.832	84.13817
433.044	50.4082
433.256	63.05626
433.468	4.03918
433.679	20.89932
433.891	-12.81942
434.103	10.36155
434.315	25.11459
434.527	67.27246
434.739	12.46906
434.95	16.68414
435.162	-12.81942
435.374	25.11459
435.586	29.32996
435.798	54.62413
436.009	18.79172
436.221	-12.81942
436.433	-10.71218
436.645	27.22227
436.856	1.93177
437.068	56.73213
437.28	122.09124
437.491	20.89932
437.703	23.00695
437.915	6.14661
438.126	46.19237
438.338	54.62413
438.55	67.27246
438.761	12.46906
438.973	25.11459
439.184	63.05626
439.396	33.54542
439.608	63.05626
439.819	52.51615
440.031	31.43768
440.242	20.89932
440.454	79.92161
440.665	6.14661
440.877	98.89685
441.088	-8.60492
441.3	4.03918
441.511	23.00695
441.723	16.68414
441.934	-12.81942
442.146	-52.8523
442.357	46.19237
442.569	90.46319
442.78	79.92161
442.991	41.97663
443.203	46.19237
443.414	20.89932
443.626	4.03918
443.837	-21.24814
444.048	46.19237
444.26	6.14661
444.471	41.97663
444.682	39.86879
444.894	12.46906
445.105	29.32996
445.316	25.11459
445.528	-0.17561
445.739	79.92161
445.95	88.35483
446.161	-52.8523
446.373	46.19237
446.584	33.54542
446.795	-23.35526
447.006	25.11459
447.217	4.03918
447.429	50.4082
447.64	31.43768
447.851	-8.60492
448.062	25.11459
448.273	-42.31821
448.484	63.05626
448.695	56.73213
448.907	54.62413
449.118	29.32996
449.329	25.11459
449.54	98.89685
449.751	88.35483
449.962	37.76098
450.173	65.16435
450.384	-29.67646
450.595	63.05626
450.806	39.86879
451.017	-12.81942
451.228	-2.28298
451.439	29.32996
451.65	4.03918
451.861	46.19237
452.072	31.43768
452.283	-2.28298
452.494	60.94819
452.705	14.57659
452.915	63.05626
453.126	4.03918
453.337	29.32996
453.548	4.03918
453.759	29.32996
453.97	12.46906
454.181	73.59693
454.391	39.86879
454.602	-2.28298
454.813	-25.46235
455.024	37.76098
455.235	37.76098
455.445	84.13817
455.656	71.48875
455.867	-82.34441
456.078	20.89932
456.288	41.97663
456.499	27.22227
456.71	50.4082
456.921	-8.60492
457.131	35.65319
457.342	14.57659
457.553	33.54542
457.763	54.62413
457.974	6.14661
458.184	-10.71218
458.395	103.11382
458.606	41.97663
458.816	29.32996
459.027	39.86879
459.237	54.62413
459.448	79.92161
459.659	37.76098
459.869	96.7884
460.08	86.24649
460.29	75.70514
460.501	46.19237
460.711	50.4082
460.922	-4.39031
461.132	79.92161
461.343	31.43768
461.553	20.89932
461.764	48.30027
461.974	79.92161
462.184	136.85268
462.395	4.03918
462.605	54.62413
462.816	18.79172
463.026	6.14661
463.236	29.32996
463.447	41.97663
463.657	16.68414
463.867	4.03918
464.078	29.32996
464.288	-14.92664
464.498	23.00695
464.709	-38.10439
464.919	-8.60492
465.129	65.16435
465.339	-27.56942
465.55	46.19237
465.76	33.54542
465.97	-23.35526
466.18	-4.39031
466.391	29.32996
466.601	37.76098
466.811	54.62413
467.021	44.08449
467.231	31.43768
467.441	-73.91861
467.651	37.76098
467.862	4.03918
468.072	-46.53192
468.282	48.30027
468.492	18.79172
468.702	35.65319
468.912	88.35483
469.122	-10.71218
469.332	96.7884
469.542	94.67998
469.752	-17.03383
469.962	37.76098
470.172	4.03918
470.382	46.19237
470.592	41.97663
470.802	10.36155
471.012	37.76098
471.222	65.16435
471.432	44.08449
471.642	52.51615
471.852	12.46906
472.062	29.32996
472.272	33.54542
472.482	107.33087
472.691	12.46906
472.901	20.89932
473.111	54.62413
473.321	-4.39031
473.531	71.48875
473.741	50.4082
473.95	75.70514
474.16	37.76098
474.37	6.14661
474.58	-19.141
474.79	-10.71218
474.999	20.89932
475.209	29.32996
475.419	20.89932
475.628	71.48875
475.838	6.14661
476.048	37.76098
476.258	31.43768
476.467	92.57157
476.677	29.32996
476.886	39.86879
477.096	37.76098
477.306	25.11459
477.515	79.92161
477.725	73.59693
477.935	63.05626
478.144	-4.39031
478.354	6.14661
478.563	138.96154
478.773	79.92161
478.982	71.48875
479.192	-21.24814
479.401	-44.42508
479.611	10.36155
479.82	65.16435
480.03	115.76524
480.239	98.89685
480.449	115.76524
480.658	65.16435
480.868	105.22233
481.077	33.54542
481.287	4.03918
481.496	71.48875
481.705	63.05626
481.915	46.19237
482.124	58.84015
482.333	60.94819
482.543	98.89685
482.752	79.92161
482.961	88.35483
483.171	96.7884
483.38	79.92161
483.589	39.86879
483.799	88.35483
484.008	29.32996
484.217	50.4082
484.426	65.16435
484.636	79.92161
484.845	109.43943
485.054	65.16435
485.263	86.24649
485.472	122.09124
485.682	48.30027
485.891	79.92161
486.1	63.05626
486.309	54.62413
486.518	37.76098
486.727	35.65319
486.936	115.76524
487.146	187.47118
487.355	63.05626
487.564	115.76524
487.773	105.22233
487.982	103.11382
488.191	65.16435
488.4	147.39721
488.609	52.51615
488.818	138.96154
489.027	82.02988
489.236	132.63502
489.445	27.22227
489.654	90.46319
489.863	18.79172
490.072	134.74384
490.281	12.46906
490.49	82.02988
490.698	52.51615
490.907	35.65319
491.116	88.35483
491.325	88.35483
491.534	33.54542
491.743	98.89685
491.952	75.70514
492.16	132.63502
492.369	98.89685
492.578	174.81543
492.787	86.24649
492.996	113.65661
493.204	124.19996
493.413	149.50617
493.622	4.03918
493.831	117.87389
494.039	149.50617
494.248	143.17933
494.457	60.94819
494.665	160.05133
494.874	172.70621
495.083	181.14322
495.291	143.17933
495.5	88.35483
495.709	128.41744
495.917	98.89685
496.126	149.50617
496.335	166.37868
496.543	153.72418
496.752	122.09124
496.96	122.09124
497.169	117.87389
497.377	92.57157
497.586	122.09124
497.794	179.03394
498.003	96.7884
498.211	122.09124
498.42	157.94226
498.628	181.14322
498.837	153.72418
499.045	181.14322
499.254	189.58055
499.462	155.83321
499.671	181.14322
499.879	122.09124
500.087	124.19996
500.296	200.12766
500.504	206.45618
500.713	151.61516
500.921	166.37868
501.129	160.05133
501.338	172.70621
501.546	244.431
501.754	254.98069
501.962	181.14322
502.171	204.34665
502.379	189.58055
502.587	172.70621
502.795	210.67529
503.004	149.50617
503.212	257.09068
503.42	204.34665
503.628	208.56572
503.837	208.56572
504.045	248.65082
504.253	193.79933
504.461	257.09068
504.669	151.61516
504.877	198.0182
505.085	240.21127
505.294	292.96345
505.502	265.53084
505.71	295.07378
505.918	252.87071
506.126	261.31072
506.334	231.77202
506.542	242.32113
506.75	244.431
506.958	217.0041
507.166	252.87071
507.374	183.25252
507.582	269.75104
507.79	307.73615
507.998	265.53084
508.206	257.09068
508.414	223.33309
508.622	257.09068
508.83	219.11374
509.037	269.75104
509.245	273.97131
509.453	280.30186
509.661	233.8818
509.869	286.63257
510.077	280.30186
510.285	265.53084
510.492	282.41208
510.7	362.61382
510.908	263.42077
511.116	314.06758
511.324	265.53084
511.531	248.65082
511.739	214.89448
511.947	299.2945
512.155	316.17809
512.362	324.62032
512.57	333.06283
512.778	358.39204
512.985	358.39204
513.193	352.0595
513.401	392.16815
513.608	347.8379
513.816	337.28419
514.024	394.2793
514.231	309.84661
514.439	421.72573
514.646	343.61636
514.854	292.96345
515.061	311.95708
515.269	436.5057
515.477	436.5057
515.684	349.94869
515.892	326.73092
516.099	438.61718
516.307	404.83529
516.514	425.9485
516.722	276.08147
516.929	432.28277
517.136	383.72372
517.344	463.95624
517.551	377.39057
517.759	394.2793
517.966	470.29135
518.173	425.9485
518.381	493.52124
518.588	489.29749
518.796	478.73838
519.003	442.8402
519.21	508.30483
519.418	474.51483
519.625	409.05781
519.832	459.73291
520.039	472.40309
520.247	578.0082
520.454	476.6266
520.661	531.53761
520.868	523.08913
521.076	563.22139
521.283	518.86497
521.49	533.64976
521.697	533.64976
521.904	516.75291
522.112	472.40309
522.319	527.31334
522.526	550.54751
522.733	613.9217
522.94	510.41683
523.147	569.55852
523.354	529.42547
523.561	689.98561
523.768	544.21075
523.975	687.87252
524.183	639.27461
524.39	689.98561
524.597	624.48519
524.804	649.83884
525.011	628.71068
525.218	664.62926
525.425	687.87252
525.632	654.06461
525.838	704.77757
526.045	799.88117
526.252	673.0812
526.459	649.83884
526.666	654.06461
526.873	831.58679
527.08	742.8165
527.287	675.19421
527.494	785.08593
527.701	867.52228
527.907	848.4973
528.114	801.99481
528.321	730.13647
528.528	723.7966
528.735	740.70313
528.941	789.31309
529.148	751.27006
529.355	878.09201
529.562	850.61115
529.768	840.04198
529.975	770.29117
530.182	850.61115
530.388	804.10846
530.595	971.11408
530.802	757.61034
531.008	884.43395
531.215	880.20598
531.422	949.97145
531.628	878.09201
531.835	926.71537
532.042	918.25884
532.248	977.45701
532.455	899.23209
532.661	1055.69112
532.868	988.02869
533.074	1072.60766
533.281	1045.11847
533.487	992.2574
533.694	1000.71491
533.9	1095.86844
534.107	1007.05811
534.313	1021.85913
534.52	1062.03478
534.726	1053.57658
534.933	1102.2124
535.139	1089.52453
535.345	962.65695
535.552	1207.95077
535.758	1013.40137
535.965	1188.91714
536.171	1007.05811
536.377	1250.24866
536.584	1186.80231
536.79	1237.55917
536.996	1034.54595
537.203	1237.55917
537.409	1199.49135
537.615	1191.03198
537.821	1284.08777
538.028	1415.21869
538.234	1161.42464
538.44	1400.41337
538.646	1229.09956
538.853	1372.91786
539.059	1271.39803
539.265	1425.79394
539.471	1265.05319
539.677	1355.99764
539.883	1366.57277
540.09	1415.21869
540.296	1402.52841
540.502	1468.09497
540.708	1222.75489
540.914	1548.46654
541.12	1408.87355
541.326	1387.72312
541.532	1432.13909
541.738	1533.66134
541.944	1375.0329
542.15	1611.9166
542.356	1298.89256
542.562	1504.0508
542.768	1546.35152
542.974	1622.49145
543.18	1611.9166
543.386	1753.61414
543.592	1554.81161
543.798	1652.10074
544.004	1594.99673
544.21	1635.1812
544.415	1628.83634
544.621	1823.3998
544.827	1499.82071
545.033	1791.6796
545.239	1768.41752
545.445	1802.25311
545.651	1694.39885
545.856	1901.63843
546.062	1624.60641
546.268	1857.23355
546.474	1664.79029
546.679	1762.07324
546.885	1753.61414
547.091	1886.83705
547.297	1658.44552
547.502	1823.3998
547.708	1872.03543
547.914	1988.3266
548.119	1719.77715
548.325	1927.01159
548.531	1793.79431
548.736	2020.03921
548.942	1647.87087
549.147	1863.57724
549.353	2053.86433
549.559	1829.74372
549.764	1800.13841
549.97	1960.84119
550.175	1971.41263
550.381	2066.54829
550.586	2049.63629
550.792	2159.55581
550.997	2015.81095
551.203	2151.1012
551.408	2100.37091
551.614	2075.00412
551.819	2032.72383
552.025	2396.22728
552.23	2079.23199
552.435	2176.46464
552.641	2189.14591
552.846	2231.4146
553.052	2144.76016
553.257	2170.12389
553.462	2269.45341
553.668	2280.01922
553.873	2330.73184
554.078	2396.22728
554.283	2176.46464
554.489	2411.01522
554.694	2254.66088
554.899	2261.00059
555.105	2311.71525
555.31	2296.92403
555.515	2337.07053
555.72	2307.48924
555.925	2235.64127
556.131	2522.96385
556.336	2364.53715
556.541	2628.54623
556.746	2324.39307
556.951	2617.98935
557.156	2246.20781
557.361	2546.19451
557.567	2577.87041
557.772	2668.65955
557.977	2487.05918
558.182	2622.21214
558.387	2472.27396
558.592	2742.54041
558.797	2750.98292
559.002	2611.65507
559.207	2584.20527
559.412	2666.54844
559.617	2586.31687
559.822	2776.30915
560.027	2423.69018
560.232	2674.99282
560.437	2558.86519
560.642	2782.6404
560.847	2742.54041
561.051	2592.65158
561.256	2584.20527
561.461	2841.72614
561.666	2598.98619
561.871	2907.12964
562.076	2658.10385
562.281	2938.77152
562.485	2710.87914
562.69	2805.85395
562.895	2708.76828
563.1	3040.00299
563.305	2784.75079
563.509	2949.31808
563.714	2894.47198
563.919	3082.17235
564.123	2721.43323
564.328	3023.1335
564.533	2911.34875
564.737	2928.22459
564.942	2926.11516
565.147	3033.67705
565.351	2928.22459
565.556	2957.75506
565.761	2974.6283
565.965	3147.5224
566.17	2911.34875
566.374	3069.5222
566.579	2928.22459
566.784	3124.33543
566.988	3166.49211
567.193	3107.47096
567.397	2991.50058
567.602	3075.84735
567.806	2955.64583
568.011	3141.19888
568.215	3096.93015
568.42	3343.47787
568.624	3242.35766
568.828	3332.94635
569.033	3265.53449
569.237	3421.3975
569.442	3343.47787
569.646	3265.53449
569.85	3107.47096
570.055	3507.71243
570.259	3118.01137
570.463	3370.85777
570.668	3316.09503
570.872	3370.85777
571.076	3391.91723
571.281	3349.79657
571.485	3400.34052
571.689	3583.47588
571.893	3164.38443
572.098	3514.02696
572.302	3328.73363
572.506	3492.97788
572.71	3511.92213
572.914	3394.02308
573.119	3322.41441
573.323	3543.49259
573.527	3476.13731
573.731	3686.55947
573.935	3455.08498
574.139	3697.07564
574.343	3394.02308
574.547	3638.17895
574.751	3541.38803
574.955	3694.97244
575.159	3543.49259
575.364	3829.53788
575.568	3509.81729
575.772	3842.14928
575.976	3596.10079
576.18	3848.4547
576.383	3795.90402
576.587	3947.21627
576.791	3579.26743
576.995	3888.38493
577.199	3741.2383
577.403	3781.18763
577.607	3787.49477
577.811	4006.03172
578.015	3610.829
578.219	3747.54656
578.422	3804.31296
578.626	3945.11542
578.83	3762.26514
579.034	4024.93328
579.238	3932.50991
579.442	3966.12298
579.645	3852.65822
579.849	3999.73083
580.053	3968.22362
580.257	4022.83319
580.46	4008.13197
580.664	4203.36507
580.868	4071.13007
581.071	4039.63334
581.275	4066.93077
581.479	4325.03088
581.682	4148.80199
581.886	4173.98672
582.09	3974.52543
582.293	4218.05268
582.497	4268.4023
582.7	4228.5432
582.904	4140.40641
583.107	4369.06446
583.311	4024.93328
583.515	4352.29089
583.718	4167.69082
583.922	4325.03088
584.125	4358.58114
584.329	4446.62409
584.532	4425.66498
584.735	4620.4996
584.939	4165.59215
585.142	4413.08846
585.346	4266.30465
585.549	4568.14354
585.753	4241.13112
585.956	4383.74019
586.159	4410.99229
586.363	4270.49994
586.566	4551.38666
586.769	4515.77358
586.973	4268.4023
587.176	4622.59355
587.379	4444.52828
587.582	4729.35535
587.786	4461.29417
587.989	4679.12179
588.192	4327.12793
588.395	4691.6814
588.599	4589.08764
588.802	4603.74718
589.005	4599.55885
589.208	4861.15637
589.411	4576.52145
589.615	4787.94471
589.818	4536.72323
590.021	4683.30841
590.224	4689.58818
590.427	4946.88299
590.63	4911.34249
590.833	4882.06885
591.036	4685.40169
591.239	4955.2445
591.442	4748.18958
591.645	5005.40581
591.848	4787.94471
592.051	4992.86673
592.254	4831.87506
592.457	5011.67504
592.66	4854.88218
592.863	5078.53389
593.066	4928.06826
593.269	5030.48149
593.472	5099.42242
593.675	5180.86549
593.878	4879.97771
594.081	5220.53005
594.284	5059.73224
594.486	5187.12887
594.689	5101.51115
594.892	5151.63358
595.095	5187.12887
595.298	5347.81718
595.5	5153.72173
595.703	5589.63045
595.906	4965.69587
596.109	5107.77718
596.311	5028.39198
596.514	5082.71178
596.717	5114.04301
596.92	5527.12289
597.122	5203.83021
597.325	5331.12875
597.528	5212.18032
597.73	5450.00104
597.933	5316.52514
598.136	5412.47067
598.338	5475.01706
598.541	5487.5238
598.743	5506.28232
598.946	5489.60818
599.148	5420.81141
599.351	5516.7029
599.554	5304.00685
599.756	5645.86911
599.959	5554.2121
600.161	5612.54457
600.363	5420.81141
600.566	5862.33137
600.768	5982.93985
600.971	5783.26899
601.173	5608.37858
601.376	5697.92661
601.578	5637.53854
601.78	5768.70115
601.983	5525.03894
602.185	5743.72501
602.388	5643.7865
602.59	5687.51629
602.792	5756.21351
602.995	5870.65174
603.197	5787.43101
603.399	5995.41207
603.601	5583.38065
603.804	5656.28179
604.006	5662.52912
604.208	5847.76981
604.41	5695.8446
604.613	5955.91381
604.815	5579.21399
605.017	6111.7785
605.219	5906.00912
605.421	5924.72497
605.623	5822.80444
605.826	5955.91381
606.028	5889.37121
606.23	5951.75561
606.432	5995.41207
606.634	6063.99408
606.836	5774.94465
607.038	5866.4916
607.24	5700.00861
607.442	6174.08733
607.644	5781.18794
607.846	6009.96191
608.048	5995.41207
608.25	6103.46906
608.452	5974.62457
608.654	6219.76704
608.856	6132.55046
609.058	6275.81299
609.26	6003.7264
609.462	6199.00494
609.664	6103.46906
609.866	6219.76704
610.067	5812.4012
610.269	6120.08757
610.471	6024.5106
610.673	6304.86714
610.875	6016.1972
611.077	6145.01251
611.278	6300.71683
611.48	6309.01736
611.682	6030.7454
611.884	6238.45092
612.085	6132.55046
612.287	6302.79199
612.489	6041.13626
612.69	6288.26533
612.892	6020.35395
613.094	6286.19
613.295	6219.76704
613.497	6362.96169
613.699	6315.24251
613.9	6437.62781
614.102	6186.54656
614.304	6445.92219
614.505	6479.09596
614.707	6530.91809
614.908	6039.05813
615.11	6545.42569
615.311	6317.31751
615.513	6394.07624
615.714	6292.41592
615.916	6646.94718
616.117	6130.47337
616.319	6342.21574
616.52	6365.03616
616.722	6543.35324
616.923	6439.70144
617.124	6271.66202
617.326	6371.25942
617.527	6535.06323
617.729	6335.9915
617.93	6447.99572
618.131	6327.69218
618.333	6559.93216
618.534	6586.86973
618.735	6775.32377
618.937	6566.14887
619.138	6543.35324
619.339	6385.77954
619.54	6582.72574
619.742	6702.86396
619.943	6622.0899
620.144	6485.31538
620.345	6389.92794
620.546	6389.92794
620.748	6588.94169
620.949	6723.56963
621.15	6593.08554
621.351	6588.94169
621.552	6566.14887
621.753	6578.58166
621.954	6812.57791
622.155	6611.73172
622.356	6924.29609
622.558	6649.01847
622.759	6630.37603
622.96	6564.07665
623.161	6824.99432
623.362	6501.89948
623.563	6707.00528
623.764	6213.53865
623.965	6973.9274
624.166	6659.37458
624.366	6576.50959
624.567	6626.23301
624.768	6847.7556
624.969	6576.50959
625.17	6924.29609
625.371	6742.20277
625.572	6773.25388
625.773	6609.66001
625.973	7110.34669
626.174	6810.50843
626.375	6978.06276
626.576	6959.45294
626.777	7126.87574
626.977	6802.23028
627.178	6988.40075
627.379	6827.06364
627.58	7064.88444
627.78	6609.66001
627.981	6971.85969
628.182	7066.95115
628.382	7114.47909
628.583	6926.36432
628.784	6965.65642
628.984	6965.65642
629.185	7085.55044
629.386	6924.29609
629.586	7192.97768
629.787	6980.1304
629.987	7023.54573
630.188	7083.48394
630.388	6940.8413
630.589	6942.90935
630.79	6878.78927
630.99	6955.31718
631.191	7100.01531
631.391	6893.2699
631.591	7147.53504
631.792	7131.00778
631.992	7465.40975
632.193	7131.00778
632.393	7174.38881
632.594	7066.95115
632.794	7277.63764
632.994	7213.62988
633.195	7473.65934
633.395	7106.21421
633.595	7250.79826
633.796	7120.67751
633.996	7397.33743
634.196	6901.54405
634.397	7296.21658
634.597	7122.74361
634.797	7446.84691
634.997	7159.92955
635.198	7201.23882
635.398	7195.043
635.598	7535.52025
635.798	7448.90953
635.998	7481.90858
636.199	7370.51456
636.399	7292.08808
636.599	7149.60085
636.799	7422.09373
636.999	7143.40336
637.199	7446.84691
637.399	7238.40959
637.599	7486.03307
637.799	7199.17357
637.999	7677.72723
638.199	7339.56051
638.399	7473.65934
638.599	7261.12154
638.799	7502.53017
638.999	7479.8463
639.199	7704.50853
639.399	7422.09373
639.599	7502.53017
639.799	7378.76814
639.999	7624.15389
640.199	7399.40057
640.399	7543.76691
640.599	7131.00778
640.799	7937.15087
640.998	7473.65934
641.198	7444.78426
641.398	7566.44345
641.598	7488.09528
641.798	7729.22656
641.997	7591.17855
642.197	7461.28482
642.397	7947.43867
642.597	7426.21948
642.796	7663.30505
642.996	7498.40603
643.196	7663.30505
643.395	7650.94235
643.595	7914.51591
643.795	7706.56848
643.994	7863.06352
644.194	7646.82128
644.394	8138.69904
644.593	7694.20845
644.793	7795.12655
644.992	7811.5982
645.192	8005.0409
645.392	7813.65706
645.591	7821.8923
645.791	7815.7159
645.99	7766.29794
646.19	7716.86792
646.389	7858.94677
646.589	7700.38856
646.788	7737.46524
646.987	7642.70013
647.187	7867.18019
647.386	7844.5375
647.586	7968.01274
647.785	7898.05255
647.984	8107.86241
648.184	7924.80484
648.383	8099.63855
648.582	7898.05255
648.782	8021.49575
648.981	7908.3423
649.18	7924.80484
649.38	8058.5144
649.579	8048.2321
649.778	7850.71303
649.977	8064.68353
650.177	7980.35619
650.376	8091.41436
650.575	7933.03561
650.774	8153.08792
650.973	7879.52969
651.173	8046.17558
651.372	7984.47052
651.571	8202.41382
651.77	7968.01274
651.969	8153.08792
652.168	8214.74351
652.367	8196.24871
652.566	8144.86582
652.765	8243.51001
652.964	8214.74351
653.163	8377.01833
653.362	8296.92326
653.561	8358.53748
653.76	8023.55251
653.959	8366.75139
654.158	8210.6337
654.357	8424.24006
654.556	8060.5708
654.755	8385.23154
654.954	8175.69705
655.153	8311.30148
655.352	8247.61919
655.551	8442.71536
655.749	8450.9261
655.948	8537.12046
656.147	8481.71366
656.346	8555.58632
656.545	8153.08792
656.743	8301.03142
656.942	8444.76807
657.141	8313.35543
657.34	8510.44484
657.538	8317.46328
657.737	8498.13193
657.936	8787.30689
658.135	8403.71013
658.333	8465.29416
658.532	8512.49692
658.731	8729.91139
658.929	8424.24006
659.128	8366.75139
659.326	8311.30148
659.525	8514.54899
659.724	8409.86931
659.922	8395.49762
660.121	8317.46328
660.319	8432.4515
660.518	8391.39124
660.716	8826.24571
660.915	8578.15364
661.113	8588.41076
661.312	8413.97534
661.51	8647.89281
661.709	8621.23038
661.907	8826.24571
662.105	8678.65324
662.304	8779.10841
662.502	8576.10216
662.701	8793.45556
662.899	8340.05505
663.097	8803.70298
663.296	8418.08128
663.494	8768.8599
663.692	8539.1723
663.891	8590.46212
664.089	8465.29416
664.287	8832.39335
664.485	8695.0571
664.684	8828.29494
664.882	8547.37946
665.08	8596.61611
665.278	8518.65306
665.476	8684.80483
665.675	8498.13193
665.873	8717.61048
666.071	8524.80903
666.269	8715.56027
666.467	8651.99444
666.665	9051.55409
666.863	8508.39273
667.061	8619.1793
667.259	8639.68932
667.457	8707.35922
667.655	8420.13423
667.853	8928.68523
668.051	8284.5983
668.249	8940.97497
668.447	8600.71868
668.645	9090.44944
668.843	8803.70298
669.041	8840.58995
669.239	8292.81502
669.437	8772.95936
669.635	8674.55209
669.833	8770.90964
670.031	8731.96148
670.229	8649.94364
670.426	8596.61611
670.624	8703.25859
670.822	8574.05066
671.02	8742.21163
671.218	8711.45978
671.415	8557.63799
671.613	8608.92358
671.811	8662.2482
672.009	8654.04523
672.206	8740.16164
672.404	8787.30689
672.602	8686.85532
672.799	8666.34957
672.997	8986.03191
673.195	8746.31157
673.392	9006.50951
673.59	8760.66076
673.788	8953.26407
673.985	8676.60268
674.183	8807.80183
674.38	8768.8599
674.578	8818.04861
674.775	8736.06159
674.973	8834.44253
675.17	8526.86098
675.368	8867.2269
675.565	8713.51004
675.763	8914.34639
675.96	8752.46133
676.158	9076.1203
676.355	8643.7911
676.553	9276.65203
676.75	8672.50149
676.947	8963.50451
677.145	8768.8599
677.342	8967.60056
677.539	8565.84448
677.737	8670.45087
677.934	8713.51004
678.131	8852.8843
678.329	8785.2573
678.526	9008.55718
678.723	9006.50951
678.92	9170.26779
679.118	8859.03124
679.315	8981.93617
679.512	8865.17801
679.709	8928.68523
679.906	8775.00906
680.104	9090.44944
680.301	8740.16164
680.498	8830.34416
680.695	8734.01154
680.892	8863.1291
681.089	8600.71868
681.286	8635.58747
681.483	8623.28145
681.68	8695.0571
681.877	8764.76037
682.075	9055.64863
682.272	8459.13653
682.469	8875.42227
682.665	8787.30689
682.862	9225.51145
683.059	8859.03124
683.256	8904.10382
683.453	8936.87846
683.65	8608.92358
683.847	8623.28145
684.044	8895.90945
684.241	8723.76102
684.438	9008.55718
684.635	8815.99929
684.831	8961.45645
685.028	8693.00669
685.225	9076.1203
685.422	8727.86128
685.619	8811.90059
685.815	8547.37946
686.012	8828.29494
686.209	8658.14675
686.405	8900.00667
686.602	8717.61048
686.799	8362.64447
686.996	8934.83018
687.192	8904.10382
687.389	8539.1723
687.586	8719.66068
687.782	8596.61611
687.979	8793.45556
688.175	8539.1723
688.372	8461.1891
688.568	8471.45161
688.765	8682.75432
688.962	8563.79288
689.158	8715.56027
689.355	8893.86082
689.551	8779.10841
689.748	8533.01673
689.944	8674.55209
690.14	8633.53651
690.337	8680.70379
690.533	8547.37946
690.73	8438.60987
690.926	8608.92358
691.123	8494.02748
691.319	8549.4312
691.515	8744.26161
691.712	8473.50406
691.908	8719.66068
692.104	8444.76807
692.301	8783.20769
692.497	8592.51347
692.693	8994.22316
692.889	8518.65306
693.086	8762.71057
693.282	8621.23038
693.478	8590.46212
693.674	8440.66262
693.87	8491.97522
694.067	8641.74022
694.263	8846.73721
694.459	8719.66068
694.655	8822.1472
694.851	8448.87344
695.047	8461.1891
695.243	8576.10216
695.439	8777.05875
695.635	8473.50406
695.831	8571.99914
696.027	8370.85822
696.224	8368.80481
696.42	8360.59099
696.615	8777.05875
696.811	8516.60103
697.007	8613.02593
697.203	8512.49692
697.399	8762.71057
697.595	8590.46212
697.791	8621.23038
697.987	8508.39273
698.183	8699.15788
698.379	8481.71366
698.575	8840.58995
698.77	8629.43454
698.966	8709.40951
699.162	8699.15788
699.358	9002.41413
699.554	8672.50149
699.749	8883.61736
699.945	8491.97522
700.141	8699.15788
700.337	8645.84197
700.532	9020.84279
700.728	8678.65324
700.924	8645.84197
701.119	8647.89281
701.315	8621.23038
701.511	8340.05505
701.706	8549.4312
701.902	8362.64447
702.097	8658.14675
702.293	8567.89605
702.489	8973.7445
702.684	8516.60103
702.88	8828.29494
703.075	8467.34666
703.271	8578.15364
703.466	8440.66262
703.662	8596.61611
703.857	8543.27592
704.053	8820.09791
704.248	8596.61611
704.443	8758.61093
704.639	8545.3277
704.834	8813.94995
705.03	8545.3277
705.225	8631.48554
705.42	8426.29295
705.616	8826.24571
705.811	8235.29141
706.006	8838.54083
706.202	8500.18413
706.397	8656.096
706.592	8095.5265
706.787	8662.2482
706.983	8418.08128
707.178	8953.26407
707.373	8424.24006
707.568	8500.18413
707.763	8467.34666
707.959	8758.61093
708.154	8494.02748
708.349	8411.92233
708.544	8319.51718
708.739	8502.23631
708.934	8317.46328
709.129	8549.4312
709.324	8198.30377
709.519	8422.18715
709.714	8276.38127
709.909	8592.51347
710.104	8218.85325
710.299	8354.43041
710.494	8416.02832
710.689	8452.97874
710.884	8615.07707
711.079	8555.58632
711.274	8362.64447
711.469	8795.50508
711.664	8364.69794
711.859	8649.94364
712.054	8317.46328
712.249	8465.29416
712.443	8257.89181
712.638	8485.81834
712.833	8463.24164
713.028	8506.34061
713.223	8286.65251
713.417	8420.13423
713.612	8489.92295
713.807	8645.84197
714.002	8494.02748
714.196	8547.37946
714.391	8366.75139
714.586	8500.18413
714.78	8512.49692
714.975	8699.15788
715.17	8350.32326
715.364	8500.18413
715.559	8615.07707
715.754	8416.02832
715.948	8309.24751
716.143	8409.86931
716.337	8498.13193
716.532	8682.75432
716.726	8325.67875
716.921	8424.24006
717.115	8091.41436
717.31	8397.55077
717.504	8136.6434
717.699	8535.0686
717.893	8231.18198
718.088	8428.34582
718.282	8475.55649
718.476	8292.81502
718.671	8050.2886
718.865	8239.40075
719.059	8325.67875
719.254	8432.4515
719.448	8148.97691
719.642	8459.13653
719.837	8040.00589
720.031	8222.96291
720.225	7980.35619
720.419	8235.29141
720.614	7861.00516
720.808	8416.02832
721.002	7998.87
721.196	8358.53748
721.39	8251.7283
721.585	8335.94764
721.779	8405.76321
721.973	8481.71366
722.167	8072.90877
722.361	8413.97534
722.555	8005.0409
722.749	8325.67875
722.943	8085.24601
723.137	8243.51001
723.331	7924.80484
723.525	8358.53748
723.719	8124.30917
723.913	8438.60987
724.107	7906.28439
724.301	8292.81502
724.495	7844.5375
724.689	8196.24871
724.883	7834.24454
725.077	8056.45798
725.271	8155.1434
725.465	8181.86276
725.659	8062.62717
725.853	8099.63855
726.046	7955.66854
726.24	8099.63855
726.434	7846.59603
726.628	8276.38127
726.822	7852.7715
727.015	8335.94764
727.209	7943.32362
727.403	8235.29141
727.596	7793.0675
727.79	8313.35543
727.984	8114.0301
728.177	8268.16393
728.371	8188.02829
728.565	8095.5265
728.758	8262.00071
728.952	8360.59099
729.146	8007.09783
729.339	8358.53748
729.533	8259.94627
729.726	8323.62491
729.92	8148.97691
730.113	8251.7283
730.307	8029.72268
730.5	8303.08547
730.694	8196.24871
730.887	8177.75231
731.081	8107.86241
731.274	8068.79619
731.468	8015.32533
731.661	8264.05514
731.854	8046.17558
732.048	8198.30377
732.241	7811.5982
732.435	7957.72596
732.628	7996.81299
732.821	8040.00589
733.014	8122.2534
733.208	7986.52765
733.401	8202.41382
733.594	8247.61919
733.788	8251.7283
733.981	8430.39867
734.174	8325.67875
734.367	8202.41382
734.56	8128.42066
734.754	8083.18986
734.947	8029.72268
735.14	8013.26849
735.333	7990.64185
735.526	8200.35881
735.719	8218.85325
735.912	8313.35543
736.105	8066.73987
736.298	8025.60925
736.491	7965.95542
736.684	7990.64185
736.877	7978.299
737.07	8118.14179
737.263	8029.72268
737.456	8185.97313
737.649	8169.53117
737.842	7963.89809
738.035	8091.41436
738.228	7961.84073
738.421	7990.64185
738.614	8161.3097
738.807	8313.35543
739	8109.91833
739.192	7826.0098
739.385	8245.56461
739.578	7963.89809
739.771	8079.07748
739.964	8124.30917
740.156	7947.43867
740.349	8210.6337
740.542	8270.21829
740.735	8169.53117
740.927	8208.57876
741.12	8046.17558
741.313	8352.37685
741.505	8128.42066
741.698	8175.69705
741.891	8048.2321
742.083	8235.29141
742.276	8159.25429
742.468	8282.54407
742.661	7916.57373
742.854	8077.02126
743.046	8013.26849
743.239	7988.58476
743.431	8023.55251
743.624	8153.08792
743.816	7885.70416
744.009	7988.58476
744.201	7980.35619
744.393	8009.15474
744.586	8029.72268
744.778	7943.32362
744.971	7609.72785
745.163	7830.12721
745.355	7786.89022
745.548	7675.66698
745.74	7801.30357
745.932	8007.09783
746.125	7957.72596
746.317	7904.22646
746.509	7947.43867
746.702	8227.07248
746.894	7949.49617
747.086	7714.80808
747.278	8013.26849
747.471	7910.40019
747.663	7791.00843
747.855	8081.13368
748.047	7854.82994
748.239	8171.58648
748.431	7959.78336
748.623	8066.73987
748.815	7733.34594
749.008	8056.45798
749.2	7963.89809
749.392	7984.47052
749.584	7865.12187
749.776	8005.0409
749.968	8005.0409
750.16	8122.2534
750.352	7716.86792
750.544	7990.64185
750.736	7819.83352
750.928	8144.86582
751.12	7963.89809
751.311	8227.07248
751.503	7815.7159
751.695	7908.3423
751.887	7638.57889
752.079	7869.23849
752.271	7741.58445
752.463	7875.41327
752.654	7659.18423
752.846	7774.53511
753.038	7768.35727
753.23	7858.94677
753.421	7766.29794
753.613	7898.05255
753.805	8033.83603
753.997	7823.95106
754.188	7988.58476
754.38	7848.65454
754.572	7556.13625
754.763	7562.32063
754.955	7461.28482
755.146	7584.99506
755.338	7560.2592
755.53	7729.22656
755.721	7556.13625
755.913	7788.94933
756.104	7415.90495
756.296	7615.91057
756.487	7483.97083
756.679	7570.56618
756.87	7401.46369
757.062	7554.07475
757.253	7609.72785
757.445	7519.0259
757.636	7681.84766
757.827	7576.75011
758.019	7723.04734
758.21	7494.28179
758.401	7434.47071
758.593	7438.5962
758.784	7320.98573
758.975	7463.3473
759.167	7446.84691
759.358	7613.84968
759.549	7358.13353
759.74	7494.28179
759.932	7294.15234
760.123	7304.47331
760.314	7314.79373
760.505	7467.47218
760.696	7362.26063
760.888	7325.11361
761.079	7422.09373
761.27	7382.8948
761.461	7506.65423
761.652	7312.72969
761.843	7234.27986
762.034	7137.20567
762.225	6980.1304
762.416	7347.81541
762.607	7223.95514
762.798	7537.58194
762.989	7432.40794
763.18	7531.39679
763.371	7139.27159
763.562	7306.53744
763.753	7397.33743
763.944	7238.40959
764.135	7186.78159
764.326	7438.5962
764.517	7364.32414
764.708	7294.15234
764.899	7366.38764
765.089	7180.5853
765.28	7246.66879
765.471	7139.27159
765.662	6909.81783
765.853	7000.8056
766.043	6911.88622
766.234	7184.71618
766.425	6835.34069
766.615	7199.17357
766.806	7114.47909
766.997	7097.94897
767.187	7190.91234
767.378	7180.5853
767.569	7004.94037
767.759	6965.65642
767.95	6874.65174
768.141	6924.29609
768.331	7116.54525
768.522	7114.47909
768.712	7038.0153
768.903	6990.46828
769.093	6742.20277
769.284	6868.44528
769.474	6947.04539
769.665	6735.99193
769.855	6762.90408
770.046	6773.25388
770.236	6671.80115
770.426	6688.36863
770.617	6882.92671
770.807	6957.38507
770.998	6752.55371
771.188	7184.71618
771.378	6975.99509
771.569	7089.68337
771.759	6760.83405
771.949	6684.2269
772.139	6659.37458
772.33	6713.21708
772.52	6503.97239
772.71	6816.71681
772.9	6804.29985
773.09	6754.62383
773.281	6771.18397
773.471	6965.65642
773.661	6599.30114
773.851	6965.65642
774.041	6638.66179
774.231	6651.08974
774.421	6767.04407
774.611	6512.26379
774.802	6423.11176
774.992	6715.28763
775.182	6483.24226
775.372	6479.09596
775.562	6290.34064
775.752	6499.82655
775.942	6192.77585
776.131	6327.69218
776.321	6286.19
776.511	6551.64289
776.701	6603.44476
776.891	6414.81637
777.081	6099.3142
777.271	6319.39249
777.461	6298.64163
777.651	6570.29322
777.84	6404.4466
778.03	6468.7298
778.22	6182.39357
778.41	6302.79199
778.599	6161.62725
778.789	6586.86973
778.979	6311.09243
779.169	6273.73752
779.358	6309.01736
779.548	6661.44573
779.738	6213.53865
779.927	6252.98152
780.117	6379.55677
780.307	6120.08757
780.496	6414.81637
780.686	6294.49118
780.875	6026.58889
781.065	6331.84188
781.254	6055.68247
781.444	6138.78159
781.633	6161.62725
781.823	6435.55416
782.012	6240.52679
782.202	6371.25942
782.391	6070.22753
782.581	6005.80493
782.77	6001.64785
782.96	6402.37257
783.149	5876.89178
783.338	6111.7785
783.528	5881.05168
783.717	6207.31006
783.906	5914.32751
784.096	6041.13626
784.285	6022.43228
784.474	5864.4115
784.663	6028.66715
784.853	5933.04252
785.042	5878.97174
785.231	5781.18794
785.42	5864.4115
785.61	5891.45103
785.799	5706.25444
785.988	5783.26899
786.177	5747.88794
786.366	5910.16837
786.555	5745.80649
786.744	5883.1316
786.933	5864.4115
787.122	5735.39888
787.312	5656.28179
787.501	5872.73178
787.69	5858.17104
787.879	5824.88502
788.068	5579.21399
788.257	5826.96557
788.445	5410.38542
788.634	5731.23567
788.823	5645.86911
789.012	5916.40705
789.201	5639.62122
789.39	5552.12846
789.579	5535.45846
789.768	5560.46289
789.957	5658.36426
790.145	5670.85855
790.334	5612.54457
790.523	5662.52912
790.712	5547.9611
790.9	5456.25537
791.089	5577.13063
791.278	5795.75479
791.467	5654.1993
791.655	5739.562
791.844	5485.43941
792.033	5485.43941
792.221	5312.35247
792.41	5587.5472
792.599	5312.35247
792.787	5570.88041
792.976	5579.21399
793.164	5656.28179
793.353	5525.03894
793.541	5512.53474
793.73	5287.31448
793.918	5439.5767
794.107	5295.66085
794.295	5445.83138
794.484	5337.38708
794.672	5520.87097
794.861	5562.54644
795.049	5512.53474
795.238	5483.35498
795.426	5685.43416
795.614	5299.8339
795.803	5520.87097
795.991	5431.23681
796.179	5458.34009
796.368	5431.23681
796.556	5462.50948
796.744	5295.66085
796.932	5314.43882
797.121	5099.42242
797.309	5539.6261
797.497	5343.64521
797.685	5237.2284
797.874	5262.27313
798.062	5358.24668
798.25	5233.05396
798.438	5379.10394
798.626	5272.70743
798.814	5406.21486
799.002	5299.8339
799.19	5518.78695
799.378	5285.22783
799.566	5339.47315
799.755	5114.04301
799.943	5182.95331
800.131	5233.05396
800.318	5189.21662
800.506	4932.24947
800.694	5109.86581
800.882	5116.13157
801.07	5091.06729
801.258	5024.21288
801.446	5278.96774
801.634	5283.14116
801.822	5147.45723
802.01	5230.9667
802.197	5406.21486
802.385	5128.66246
802.573	5166.25011
802.761	5040.9287
802.949	5053.4646
803.136	5055.55384
803.324	5314.43882
803.512	5109.86581
803.699	5203.83021
803.887	5262.27313
804.075	5312.35247
804.262	5132.83924
804.45	5166.25011
804.638	4986.59688
804.825	5412.47067
805.013	4955.2445
805.201	5441.66162
805.388	5109.86581
805.576	4894.61525
805.763	5082.71178
805.951	5216.35523
806.138	5137.01592
806.326	5203.83021
806.513	4974.05655
806.701	5045.10743
806.888	5013.76474
807.075	5120.30863
807.263	5003.31602
807.45	5128.66246
807.638	5168.33809
807.825	5043.01808
808.012	5036.74989
808.2	5080.62285
808.387	5329.04259
808.574	5241.40276
808.761	5128.66246
808.949	5287.31448
809.136	5199.65501
809.323	5212.18032
809.51	5162.07407
809.698	5368.67561
809.885	4994.95664
810.072	5304.00685
810.259	5101.51115
810.446	5268.53378
810.633	5289.40111
810.82	5145.36901
811.008	5128.66246
811.195	5391.61717
811.382	5028.39198
811.569	5354.07495
811.756	5020.0337
811.943	5143.28077
812.13	5111.95442
812.317	5061.8214
812.504	5020.0337
812.691	5366.58987
812.878	5287.31448
813.064	5372.84701
813.251	5291.48771
813.438	5379.10394
813.625	4978.23675
813.812	5437.49176
813.999	5239.31559
814.186	5379.10394
814.372	5281.05446
814.559	5443.74651
814.746	5291.48771
814.933	5203.83021
815.12	5015.85442
815.306	5387.44618
815.493	5078.53389
815.68	5226.79211
815.866	5061.8214
816.053	5333.21488
816.24	5084.80069
816.426	5258.09924
816.613	5260.18619
816.799	5454.17062
816.986	5124.48559
817.173	5260.18619
817.359	4953.15416
817.546	5182.95331
817.732	4928.06826
817.919	5005.40581
818.105	4873.70414
818.292	5253.92526
818.478	5137.01592
818.665	5143.28077
818.851	4833.96673
819.037	5134.92759
819.224	5007.49558
819.41	5247.66411
819.597	5118.22011
819.783	5274.79422
819.969	4988.68685
820.156	5237.2284
820.342	5032.57098
820.528	5349.90313
820.714	5233.05396
820.901	5230.9667
821.087	4978.23675
821.273	5324.8702
821.459	5208.00531
821.646	5174.60189
821.832	5105.68853
822.018	5345.73121
822.204	4882.06885
822.39	5093.15611
822.576	4898.79719
822.762	5038.83931
822.948	4911.34249
823.134	4953.15416
823.32	4685.40169
823.507	4953.15416
823.693	4911.34249
823.879	4911.34249
824.065	4875.79535
824.25	4840.2416
824.436	4921.79626
824.622	4877.88654
824.808	4848.60778
824.994	4785.85254
825.18	4643.53184
825.366	4919.70555
825.552	4829.78336
825.738	5178.77765
825.923	5013.76474
826.109	5078.53389
826.295	4856.9736
826.481	4877.88654
826.667	4846.51627
826.852	4946.88299
827.038	4810.9571
827.224	5043.01808
827.409	4919.70555
827.595	5220.53005
827.781	4777.48363
827.966	5045.10743
828.152	4593.27619
828.338	4961.51539
828.523	4570.23805
828.709	4739.81904
828.894	4499.01227
829.08	4718.8911
829.266	4566.04901
829.451	4865.33905
829.637	4434.04889
829.822	4543.00769
830.008	4438.24071
830.193	4660.28086
830.378	4526.24868
830.564	4651.90653
830.749	4670.74827
830.935	4819.32456
831.12	4350.19409
831.305	4654.00015
831.491	4364.87119
831.676	4702.14712
831.861	4421.47289
832.047	4672.84168
832.232	4469.67659
832.417	4507.39311
832.602	4301.96187
832.788	4496.91701
832.973	4645.62555
833.158	4628.87527
833.343	4461.29417
833.528	4643.53184
833.714	4517.86865
833.899	4712.61227
834.084	4530.43857
834.269	4522.05871
834.454	4402.60742
834.639	4563.95446
834.824	4392.12585
835.009	4654.00015
835.194	4559.76528
835.379	4796.31317
835.564	4425.66498
835.749	4593.27619
835.934	4400.51115
836.119	4215.95452
836.304	4132.01049
836.489	4266.30465
836.674	4301.96187
836.859	4385.83664
837.044	4094.2247
837.228	4434.04889
837.413	4207.56164
837.598	4362.77453
837.783	4119.41598
837.968	4106.82072
838.152	4108.91998
838.337	4366.96784
838.522	4176.08531
838.707	4337.61288
838.891	4050.13277
839.076	4274.69514
839.261	3997.63049
839.445	4463.38981
839.63	4207.56164
839.815	4455.00712
839.999	4205.46336
840.184	4287.28024
840.368	4045.93306
840.553	4316.64245
840.737	4142.50533
840.922	4033.33344
841.106	3718.10654
841.291	4022.83319
841.475	3762.26514
841.66	4108.91998
841.844	3789.59712
842.029	4018.63294
842.213	3848.4547
842.397	4081.62794
842.582	3764.36772
842.766	4073.22969
842.951	3812.72158
843.135	3947.21627
843.319	3892.58769
843.504	3861.06503
843.688	3612.93296
843.872	3688.66274
844.056	3943.01455
844.241	3879.97916
844.425	3770.67533
844.609	4024.93328
844.793	3728.62127
844.977	3898.89168
845.161	3823.23192
845.346	3980.82705
845.53	3682.35287
845.714	3837.94556
845.898	3572.95462
846.082	3905.19549
846.266	3684.45618
846.45	3879.97916
846.634	3694.97244
846.818	3917.80257
847.002	3612.93296
847.186	3724.41543
847.37	3615.03689
847.554	3814.82369
847.738	3741.2383
847.922	3718.10654
848.106	3724.41543
848.29	3686.55947
848.473	3547.70168
848.657	3602.413
848.841	3484.55774
849.025	3816.92578
849.209	3564.53727
849.392	3703.38511
849.576	3425.60869
849.76	3673.93944
849.944	3383.49366
850.127	3631.8677
850.311	3309.7755
850.495	3537.17883
850.678	3421.3975
850.862	3657.11165
851.046	3446.66354
851.229	3446.66354
851.413	3364.53959
851.596	3549.80619
851.78	3261.32068
851.964	3391.91723
852.147	3267.64138
852.331	3219.17879
852.514	3164.38443
852.698	3265.53449
852.881	3088.49722
853.065	3248.67881
853.248	3141.19888
853.431	3225.5005
853.615	3073.73898
853.798	3415.08059
853.982	3172.81505
854.165	3400.34052
854.348	3276.06875
854.532	3303.45582
854.715	3084.28066
854.898	3166.49211
855.081	3248.67881
855.265	3242.35766
855.448	3166.49211
855.631	3236.03635
855.814	3132.76728
855.997	3090.60548
856.181	2987.2826
856.364	3151.73801
856.547	3141.19888
856.73	3189.67551
856.913	2921.89626
857.096	3124.33543
857.279	2902.91048
857.462	2843.83614
857.645	2970.41008
857.828	2974.6283
858.011	2835.39605
858.194	2949.31808
858.377	2854.38595
858.56	3077.9557
858.743	2731.98699
858.926	2898.69126
859.109	2824.84561
859.292	2911.34875
859.475	2717.21163
859.658	2907.12964
859.841	2784.75079
860.023	2983.06456
860.206	2831.17591
860.389	2970.41008
860.572	2586.31687
860.755	2862.82554
860.937	2763.64628
861.12	2881.81379
861.303	2544.08269
861.486	2641.21409
861.668	2586.31687
861.851	2873.37471
862.034	2531.41152
862.216	2715.10081
862.399	2565.20037
862.581	2560.97693
862.764	2299.03709
862.947	2717.21163
863.129	2632.7689
863.312	2632.7689
863.494	2601.0977
863.677	2649.65907
863.859	2533.52341
864.042	2761.53575
864.224	2451.15128
864.406	2660.21502
864.589	2413.12774
864.771	2617.98935
864.954	2408.90269
865.136	2719.32243
865.318	2434.25236
865.501	2527.18771
865.683	2427.91508
865.865	2670.77065
866.048	2294.81097
866.23	2645.4366
866.412	2413.12774
866.594	2514.51598
866.777	2362.42439
866.959	2506.06794
867.141	2446.92661
867.323	2493.39553
867.505	2273.67976
867.687	2463.82502
867.869	2324.39307
868.052	2286.35859
868.234	2269.45341
868.416	2455.3759
868.598	2311.71525
868.78	2381.43884
868.962	2290.5848
869.144	2554.64168
869.326	2442.70191
869.508	2455.3759
869.69	2415.24025
869.872	2478.61055
870.054	2277.90607
870.236	2476.49836
870.417	2309.60225
870.599	2389.88944
870.781	2265.22702
870.963	2387.77681
871.145	2172.23748
871.327	2322.28012
871.508	2227.18788
871.69	2480.72272
871.872	2096.14319
872.054	2176.46464
872.235	2045.40821
872.417	2261.00059
872.599	1981.98391
872.78	2275.79292
872.962	2108.82627
873.144	2212.39411
873.325	1901.63843
873.507	2127.85038
873.689	2113.0539
873.87	2305.37622
874.052	2165.89668
874.233	2353.97326
874.415	2258.88736
874.596	2269.45341
874.778	1960.84119
874.959	2081.34592
875.141	2138.41905
875.322	2168.01029
875.503	2121.50908
875.685	2170.12389
875.866	2013.69681
876.048	2165.89668
876.229	1967.18407
876.41	2258.88736
876.592	2125.73662
876.773	2394.11468
876.954	2079.23199
877.136	2280.01922
877.317	2214.50754
877.498	2195.48643
877.679	1973.52689
877.86	2144.76016
878.042	2036.95199
878.223	2303.26319
878.404	2077.11806
878.585	2161.66944
878.766	2091.91543
878.947	2339.18341
879.128	2220.84775
879.309	2187.03238
879.49	2064.43431
879.672	2411.01522
879.853	2193.37293
880.034	2294.81097
880.215	2187.03238
880.396	2332.84475
880.576	2263.11381
880.757	2356.08606
880.938	2079.23199
881.119	2246.20781
881.3	2277.90607
881.481	2296.92403
881.662	2415.24025
881.843	2326.506
882.023	2282.13235
882.204	2370.87536
882.385	2163.78307
882.566	2227.18788
882.747	2102.48476
882.927	2273.67976
883.108	2144.76016
883.289	2263.11381
883.469	1984.09815
883.65	2151.1012
883.831	1979.86966
884.011	2269.45341
884.192	2113.0539
884.373	2311.71525
884.553	2026.38155
884.734	2349.74764
884.914	2168.01029
885.095	2341.29627
885.275	2106.71244
885.456	2292.69789
885.636	2075.00412
885.817	2522.96385
885.997	2136.30533
886.178	2347.63481
886.358	2015.81095
886.538	2216.62095
886.719	2252.54763
886.899	2277.90607
887.08	2227.18788
887.26	2533.52341
887.44	2153.21487
887.621	2235.64127
887.801	2115.16771
887.981	2269.45341
888.161	2081.34592
888.342	2408.90269
888.522	2182.80531
888.702	2265.22702
888.882	2402.56503
889.062	2491.28343
889.242	2172.23748
889.423	2286.35859
889.603	2176.46464
889.783	2254.66088
889.963	2094.02931
890.143	2252.54763
890.323	2047.52225
890.503	2446.92661
890.683	1922.78278
890.863	2411.01522
891.043	2180.69176
891.223	2400.45246
891.403	2083.45983
891.583	2404.67759
891.763	2053.86433
891.943	2248.32109
892.122	2075.00412
892.302	2404.67759
892.482	1992.55503
892.662	2244.09452
892.842	2144.76016
893.022	2303.26319
893.201	2068.66226
893.381	2307.48924
893.561	2168.01029
893.741	2252.54763
893.92	2091.91543
894.1	2129.96413
894.28	2066.54829
894.459	2244.09452
894.639	2170.12389
894.819	2206.0538
894.998	1973.52689
895.178	2288.4717
895.357	2017.92508
895.537	2110.94009
895.716	1950.2696
895.896	2119.39529
896.075	1855.11898
896.255	1952.38393
896.434	1880.49353
896.614	2113.0539
896.793	1977.75541
896.973	2015.81095
897.152	1719.77715
897.331	1931.24037
897.511	1872.03543
897.69	1812.82651
897.87	1880.49353
898.049	1814.94117
898.228	1804.3678
898.407	2058.09234
898.587	1781.10599
898.766	1810.71184
898.945	1724.00682
899.124	1766.30277
899.304	1702.85834
899.483	1772.64703
899.662	1607.68664
899.841	1789.56489
900.02	1586.53675
900.199	1891.06604
900.378	1652.10074
900.557	1850.88981
900.737	1800.13841
900.916	1844.54603
901.095	1506.16584
901.274	1696.51373
901.453	1533.66134
901.632	1525.2012
901.811	1406.7585
901.989	1609.80162
902.168	1446.94445
902.347	1753.61414
902.526	1432.13909
902.705	1630.95129
902.884	1396.18328
903.063	1504.0508
903.242	1408.87355
903.42	1637.29615
903.599	1459.63477
903.778	1550.58156
903.957	1383.49304
904.135	1518.85609
904.314	1383.49304
904.493	1417.33374
904.672	1305.23751
904.85	1307.35249
905.029	1275.62793
905.207	1419.44879
905.386	1305.23751
905.565	1315.81245
905.743	1279.85784
905.922	1368.6878
906.1	1188.91714
906.279	1256.59344
906.457	1313.69746
906.636	1339.07749
906.814	1133.93281
906.993	1277.74289
907.171	966.8855
907.35	1150.85078
907.528	1002.82931
907.707	1000.71491
907.885	875.97805
908.063	1062.03478
908.242	926.71537
908.42	985.91434
908.598	890.77596
908.777	1108.5564
908.955	939.40039
909.133	1068.37849
909.311	943.62879
909.49	1068.37849
909.668	829.47302
909.846	1059.92022
910.024	865.40836
910.202	952.08568
910.38	831.58679
910.559	878.09201
910.737	907.68835
910.915	899.23209
911.093	920.37296
911.271	1119.12982
911.449	848.4973
911.627	1000.71491
911.805	852.72501
911.983	1030.31699
912.161	901.34614
912.339	1076.83684
912.517	903.4602
912.695	1002.82931
912.872	899.23209
913.05	1017.63024
913.228	895.00401
913.406	1076.83684
913.584	958.42842
913.762	1043.00395
913.939	916.14472
914.117	1013.40137
914.295	1004.94371
914.473	1078.95145
914.65	1104.32706
914.828	1182.57266
915.006	1059.92022
915.184	1150.85078
915.361	954.19992
915.539	1123.35923
915.716	943.62879
915.894	1152.96554
916.072	968.99979
916.249	1095.86844
916.427	1023.97359
916.604	1102.2124
916.782	985.91434
916.959	1085.29528
917.137	1049.34751
917.314	1114.90044
917.492	988.02869
917.669	1038.77494
917.847	793.54029
918.024	916.14472
918.201	873.8641
918.379	1017.63024
918.556	888.66195
918.733	1085.29528
918.911	755.4969
919.088	920.37296
919.265	662.51631
919.442	882.31996
919.62	717.45683
919.797	973.22839
919.974	842.15579
920.151	924.60123
920.328	867.52228
920.506	829.47302
920.683	818.90429
920.86	863.29445
921.037	658.29044
921.214	840.04198
921.391	780.85881
921.568	865.40836
921.745	732.24978
921.922	930.94368
922.099	713.23036
922.276	907.68835
922.453	804.10846
922.63	768.17767
922.807	656.17752
922.984	725.90988
923.161	611.80904
923.338	890.77596
923.514	548.43524
923.691	751.27006
923.868	681.53331
924.045	713.23036
924.222	645.61311
924.399	662.51631
924.575	721.68333
924.752	668.85521
924.929	578.0082
925.105	597.02077
925.282	489.29749
925.459	603.35852
925.635	588.57061
925.812	620.25976
925.989	518.86497
926.165	618.14706
926.342	506.19285
926.518	554.77208
926.695	518.86497
926.871	520.97704
927.048	478.73838
927.224	588.57061
927.401	438.61718
927.577	548.43524
927.754	504.08088
927.93	561.10904
928.107	472.40309
928.283	523.08913
928.459	468.17963
928.636	544.21075
928.812	548.43524
928.988	468.17963
929.165	358.39204
929.341	520.97704
929.517	419.61437
929.693	425.9485
929.87	411.16909
930.046	523.08913
930.222	362.61382
930.398	451.28643
930.574	432.28277
930.751	413.28038
930.927	366.83566
931.103	531.53761
931.279	284.52232
931.455	358.39204
931.631	316.17809
931.807	387.9459
931.983	394.2793
932.159	360.50292
932.335	326.73092
932.511	280.30186
932.687	295.07378
932.863	349.94869
933.039	303.51529
933.215	379.50161
933.391	269.75104
933.566	295.07378
933.742	265.53084
933.918	305.62571
934.094	307.73615
934.27	356.28118
934.445	202.23715
934.621	248.65082
934.797	219.11374
934.973	286.63257
935.148	276.08147
935.324	227.55252
935.5	307.73615
935.675	242.32113
935.851	134.74384
936.027	307.73615
936.202	183.25252
936.378	183.25252
936.553	202.23715
936.729	195.90876
936.904	202.23715
937.08	183.25252
937.255	117.87389
937.431	155.83321
937.606	143.17933
937.782	155.83321
937.957	174.81543
938.133	214.89448
938.308	98.89685
938.483	111.54801
938.659	84.13817
938.834	155.83321
939.009	101.00532
939.185	119.98255
939.36	88.35483
939.535	151.61516
939.71	98.89685
939.886	71.48875
940.061	119.98255
940.236	71.48875
940.411	88.35483
940.586	103.11382
940.761	145.28826
940.937	157.94226
941.112	143.17933
941.287	149.50617
941.462	20.89932
941.637	98.89685
941.812	23.00695
941.987	101.00532
942.162	90.46319
942.337	46.19237
942.512	113.65661
942.687	58.84015
942.862	96.7884
943.037	98.89685
943.212	29.32996
943.386	166.37868
943.561	134.74384
943.736	82.02988
943.911	6.14661
944.086	107.33087
944.26	-2.28298
944.435	41.97663
944.61	90.46319
944.785	94.67998
944.959	65.16435
945.134	82.02988
945.309	77.81336
945.483	79.92161
945.658	10.36155
945.833	138.96154
946.007	88.35483
946.182	79.92161
946.357	79.92161
946.531	75.70514
946.706	58.84015
946.88	105.22233
947.055	35.65319
947.229	75.70514
947.404	56.73213
947.578	46.19237
947.752	79.92161
947.927	4.03918
948.101	90.46319
948.276	25.11459
948.45	12.46906
948.624	103.11382
948.799	113.65661
948.973	65.16435
949.147	-4.39031
949.321	75.70514
949.496	88.35483
949.67	143.17933
949.844	37.76098
950.018	90.46319
950.193	39.86879
950.367	134.74384
950.541	71.48875
950.715	151.61516
950.889	88.35483
951.063	170.59702
951.237	35.65319
951.411	71.48875
951.585	172.70621
951.759	90.46319
951.933	31.43768
952.107	84.13817
952.281	82.02988
952.455	-8.60492
952.629	115.76524
952.803	105.22233
952.977	12.46906
953.151	58.84015
953.325	39.86879
953.499	33.54542
953.672	115.76524
953.846	54.62413
954.02	75.70514
954.194	18.79172
954.368	73.59693
954.541	113.65661
954.715	63.05626
954.889	67.27246
955.062	117.87389
955.236	23.00695
955.41	77.81336
955.583	75.70514
955.757	-8.60492
955.93	113.65661
956.104	82.02988
956.278	37.76098
956.451	41.97663
956.625	-8.60492
956.798	65.16435
956.972	75.70514
957.145	88.35483
957.319	105.22233
957.492	172.70621
957.665	67.27246
957.839	92.57157
958.012	82.02988
958.185	82.02988
958.359	90.46319
958.532	107.33087
958.705	48.30027
958.879	113.65661
959.052	63.05626
959.225	126.30869
959.398	143.17933
959.572	107.33087
959.745	69.38059
959.918	16.68414
960.091	79.92161
960.264	73.59693
960.438	191.68993
960.611	105.22233
960.784	23.00695
960.957	130.52622
961.13	122.09124
961.303	117.87389
961.476	122.09124
961.649	105.22233
961.822	124.19996
961.995	6.14661
962.168	54.62413
962.341	94.67998
962.514	71.48875
962.686	25.11459
962.859	37.76098
963.032	115.76524
963.205	86.24649
963.378	94.67998
963.551	94.67998
963.723	143.17933
963.896	96.7884
964.069	92.57157
964.242	147.39721
964.414	71.48875
964.587	96.7884
964.76	20.89932
964.932	44.08449
965.105	41.97663
965.278	31.43768
965.45	88.35483
965.623	122.09124
965.795	71.48875
965.968	75.70514
966.14	90.46319
966.313	73.59693
966.485	105.22233
966.658	48.30027
966.83	56.73213
967.003	103.11382
967.175	98.89685
967.348	39.86879
967.52	98.89685
967.692	52.51615
967.865	71.48875
968.037	92.57157
968.209	56.73213
968.382	63.05626
968.554	31.43768
968.726	41.97663
968.898	138.96154
969.071	41.97663
969.243	113.65661
969.415	63.05626
969.587	54.62413
969.759	75.70514
969.932	107.33087
970.104	65.16435
970.276	67.27246
970.448	101.00532
970.62	25.11459
970.792	54.62413
970.964	50.4082
971.136	103.11382
971.308	126.30869
971.48	115.76524
971.652	60.94819
971.824	46.19237
971.996	54.62413
972.168	138.96154
972.339	90.46319
972.511	29.32996
972.683	73.59693
972.855	96.7884
973.027	82.02988
973.199	67.27246
973.37	48.30027
973.542	92.57157
973.714	35.65319
973.886	27.22227
974.057	90.46319
974.229	48.30027
974.401	37.76098
974.572	46.19237
974.744	56.73213
974.915	60.94819
975.087	79.92161
975.259	88.35483
975.43	56.73213
975.602	41.97663
975.773	56.73213
975.945	84.13817
976.116	63.05626
976.288	88.35483
976.459	105.22233
976.63	105.22233
976.802	56.73213
976.973	54.62413
977.145	-4.39031
977.316	71.48875
977.487	75.70514
977.659	126.30869
977.83	92.57157
978.001	-8.60492
978.172	31.43768
978.344	48.30027
978.515	23.00695
978.686	119.98255
978.857	46.19237
979.028	25.11459
979.2	88.35483
979.371	96.7884
979.542	37.76098
979.713	117.87389
979.884	90.46319
980.055	73.59693
980.226	56.73213
980.397	88.35483
980.568	31.43768
980.739	-2.28298
980.91	25.11459
981.081	-17.03383
981.252	101.00532
981.423	63.05626
981.594	86.24649
981.765	37.76098
981.936	25.11459
982.106	8.25407
982.277	23.00695
982.448	67.27246
982.619	84.13817
982.79	67.27246
982.96	33.54542
983.131	65.16435
983.302	46.19237
983.472	54.62413
983.643	92.57157
983.814	79.92161
983.984	29.32996
984.155	33.54542
984.326	48.30027
984.496	73.59693
984.667	-2.28298
984.837	25.11459
985.008	-46.53192
985.178	75.70514
985.349	44.08449
985.519	79.92161
985.69	73.59693
985.86	65.16435
986.031	-29.67646
986.201	58.84015
986.371	54.62413
986.542	31.43768
986.712	105.22233
986.882	90.46319
987.053	12.46906
987.223	79.92161
987.393	8.25407
987.563	20.89932
987.734	12.46906
987.904	65.16435
988.074	33.54542
988.244	-10.71218
988.414	71.48875
988.585	67.27246
988.755	86.24649
988.925	41.97663
989.095	98.89685
989.265	39.86879
989.435	33.54542
989.605	4.03918
989.775	96.7884
989.945	41.97663
990.115	12.46906
990.285	31.43768
990.455	48.30027
990.625	-29.67646
990.795	46.19237
990.965	12.46906
991.134	39.86879
991.304	37.76098
991.474	29.32996
991.644	20.89932
991.814	12.46906
991.984	25.11459
992.153	105.22233
992.323	86.24649
992.493	12.46906
992.662	41.97663
992.832	-10.71218
993.002	88.35483
993.171	88.35483
993.341	-0.17561
993.511	8.25407
993.68	50.4082
993.85	29.32996
994.019	29.32996
994.189	54.62413
994.358	44.08449
994.528	-6.49763
994.697	54.62413
994.867	-8.60492
995.036	29.32996
995.206	73.59693
995.375	56.73213
995.544	-27.56942
995.714	50.4082
995.883	92.57157
996.052	63.05626
996.222	-29.67646
996.391	41.97663
996.56	71.48875
996.73	10.36155
996.899	96.7884
997.068	65.16435
997.237	46.19237
997.406	-12.81942
997.576	48.30027
997.745	12.46906
997.914	82.02988
998.083	-0.17561
998.252	46.19237
998.421	12.46906
998.59	58.84015
998.759	71.48875
998.928	75.70514
999.097	-10.71218
999.266	35.65319
999.435	103.11382
999.604	63.05626
999.773	88.35483
999.942	-54.95905
1000.111	37.76098
1000.28	54.62413
1000.448	124.19996
1000.617	-2.28298
1000.786	54.62413
1000.955	39.86879
1001.124	31.43768
1001.292	60.94819
1001.461	29.32996
1001.63	71.48875
1001.798	56.73213
1001.967	96.7884
1002.136	10.36155
1002.304	33.54542
1002.473	58.84015
1002.642	60.94819
1002.81	56.73213
1002.979	101.00532
1003.147	12.46906
1003.316	92.57157
1003.484	-2.28298
1003.653	10.36155
1003.821	-4.39031
1003.99	12.46906
1004.158	60.94819
1004.327	-33.89048
1004.495	37.76098
1004.663	67.27246
1004.832	46.19237
1005	29.32996
1005.168	12.46906
1005.337	50.4082
1005.505	23.00695
1005.673	20.89932
1005.842	50.4082
1006.01	50.4082
1006.178	37.76098
1006.346	79.92161
1006.514	-0.17561
1006.683	69.38059
1006.851	8.25407
1007.019	84.13817
1007.187	92.57157
1007.355	-19.141
1007.523	48.30027
1007.691	44.08449
1007.859	54.62413
1008.027	39.86879
1008.195	29.32996
1008.363	84.13817
1008.531	56.73213
1008.699	14.57659
1008.867	37.76098
1009.035	84.13817
1009.203	41.97663
1009.37	33.54542
1009.538	63.05626
1009.706	46.19237
1009.874	-12.81942
1010.042	25.11459
1010.209	41.97663
1010.377	77.81336
1010.545	63.05626
1010.713	37.76098
1010.88	54.62413
1011.048	-42.31821
1011.216	63.05626
1011.383	29.32996
1011.551	12.46906
1011.718	44.08449
1011.886	63.05626
1012.054	20.89932
1012.221	50.4082
1012.389	35.65319
1012.556	84.13817
1012.724	12.46906
1012.891	117.87389
1013.058	46.19237
1013.226	122.09124
1013.393	46.19237
1013.561	14.57659
1013.728	-4.39031
1013.895	90.46319
1014.063	29.32996
1014.23	37.76098
1014.397	27.22227
1014.565	-29.67646
1014.732	12.46906
1014.899	4.03918
1015.066	39.86879
1015.233	23.00695
1015.401	29.32996
1015.568	44.08449
1015.735	20.89932
1015.902	-21.24814
1016.069	63.05626
1016.236	71.48875
1016.403	71.48875
1016.57	-25.46235
1016.737	82.02988
1016.904	-88.66349
1017.071	20.89932
1017.238	54.62413
1017.405	65.16435
1017.572	-21.24814
1017.739	4.03918
1017.906	-31.78348
1018.073	29.32996
1018.24	-8.60492
1018.407	73.59693
1018.573	6.14661
1018.74	-21.24814
1018.907	54.62413
1019.074	84.13817
1019.241	-12.81942
1019.407	-6.49763
1019.574	39.86879
1019.741	113.65661
1019.907	41.97663
1020.074	31.43768
1020.241	82.02988
1020.407	-46.53192
1020.574	23.00695
1020.74	52.51615
1020.907	-29.67646
1021.073	-4.39031
1021.24	31.43768
1021.406	8.25407
1021.573	75.70514
1021.739	23.00695
1021.906	4.03918
1022.072	46.19237
1022.239	37.76098
1022.405	39.86879
1022.571	60.94819
1022.738	8.25407
1022.904	4.03918
1023.07	31.43768
1023.237	105.22233
1023.403	71.48875
1023.569	46.19237
1023.735	-12.81942
1023.902	56.73213
1024.068	4.03918
1024.234	69.38059
1024.4	39.86879
1024.566	8.25407
1024.732	48.30027
1024.898	4.03918
1025.065	14.57659
1025.231	14.57659
1025.397	29.32996
1025.563	29.32996
1025.729	33.54542
1025.895	79.92161
1026.061	-63.38577
1026.227	-4.39031
1026.392	75.70514
1026.558	14.57659
1026.724	16.68414
1026.89	20.89932
1027.056	41.97663
1027.222	6.14661
1027.388	71.48875
1027.553	124.19996
1027.719	-4.39031
1027.885	29.32996
1028.051	-2.28298
1028.216	-52.8523
1028.382	39.86879
1028.548	71.48875
1028.713	8.25407
1028.879	46.19237
1029.045	75.70514
1029.21	-8.60492
1029.376	25.11459
1029.541	-10.71218
1029.707	31.43768
1029.873	-4.39031
1030.038	37.76098
1030.204	25.11459
1030.369	6.14661
1030.534	48.30027
1030.7	-35.99745
1030.865	54.62413
1031.031	14.57659
1031.196	31.43768
1031.361	88.35483
1031.527	29.32996
1031.692	56.73213
1031.857	65.16435
1032.023	67.27246
1032.188	-27.56942
1032.353	71.48875
1032.518	27.22227
1032.684	37.76098
1032.849	4.03918
1033.014	4.03918
1033.179	20.89932
1033.344	20.89932
1033.509	82.02988
1033.674	-0.17561
1033.839	31.43768
1034.004	14.57659
1034.17	-38.10439
1034.335	-10.71218
1034.5	-33.89048
1034.664	18.79172
1034.829	37.76098
1034.994	67.27246
1035.159	12.46906
1035.324	16.68414
1035.489	12.46906
1035.654	23.00695
1035.819	29.32996
1035.984	-29.67646
1036.148	12.46906
1036.313	79.92161
1036.478	-21.24814
1036.643	25.11459
1036.807	54.62413
1036.972	50.4082
1037.137	41.97663
1037.301	16.68414
1037.466	27.22227
1037.631	-33.89048
1037.795	-14.92664
1037.96	14.57659
1038.124	37.76098
1038.289	105.22233
1038.454	-0.17561
1038.618	4.03918
1038.783	71.48875
1038.947	56.73213
1039.111	-63.38577
1039.276	31.43768
1039.44	58.84015
1039.605	14.57659
1039.769	48.30027
1039.933	71.48875
1040.098	29.32996
1040.262	-0.17561
1040.426	20.89932
1040.591	-86.55716
1040.755	16.68414
1040.919	88.35483
1041.083	20.89932
1041.248	63.05626
1041.412	-4.39031
1041.576	-12.81942
1041.74	-8.60492
1041.904	37.76098
1042.068	33.54542
1042.232	-2.28298
1042.397	107.33087
1042.561	14.57659
1042.725	1.93177
1042.889	33.54542
1043.053	25.11459
1043.217	37.76098
1043.381	16.68414
1043.544	29.32996
1043.708	20.89932
1043.872	-0.17561
1044.036	46.19237
1044.2	41.97663
1044.364	8.25407
1044.528	12.46906
1044.691	-8.60492
1044.855	-63.38577
1045.019	54.62413
1045.183	33.54542
1045.346	73.59693
1045.51	-29.67646
1045.674	63.05626
1045.837	41.97663
1046.001	46.19237
1046.165	29.32996
1046.328	65.16435
1046.492	8.25407
1046.655	14.57659
1046.819	-17.03383
1046.983	-21.24814
1047.146	56.73213
1047.31	4.03918
1047.473	54.62413
1047.636	27.22227
1047.8	-54.95905
1047.963	58.84015
1048.127	63.05626
1048.29	35.65319
