Data from mixed_try1_USB4F045381__32__00097.txt Node

Date: Thu Apr 03 19:55:02 EDT 2025
User: mmckonesweet
Spectrometer: USB4F04538
Trigger mode: 4
Integration Time (sec): 2.700000E-3
Scans to average: 1
Electric dark correction enabled: true
Nonlinearity correction enabled: true
Boxcar width: 0
XAxis mode: Wavelengths
Number of Pixels in Spectrum: 3648
>>>>>Begin Spectral Data<<<<<
345.52	48.47593
345.736	48.47593
345.952	48.47593
346.168	-42.14263
346.384	-33.71489
346.6	-14.75104
346.816	0
347.032	25.29023
347.248	18.96735
347.464	8.4297
347.68	-31.6079
347.896	40.04444
348.112	-6.32202
348.328	21.07496
348.544	27.39791
348.76	-33.71489
348.975	-54.78349
349.191	0
349.407	-31.6079
349.623	10.53718
349.839	-52.67674
350.055	16.85977
350.27	-52.67674
350.486	31.61332
350.702	-65.31684
350.918	84.31387
351.133	33.72107
351.349	12.64469
351.565	-8.42931
351.781	42.15228
351.996	0
352.212	-14.75104
352.428	-6.32202
352.644	8.4297
352.859	-33.71489
353.075	-23.17966
353.291	14.75222
353.506	35.82884
353.722	-25.28676
353.938	-4.2147
354.153	0
354.369	-40.03573
354.584	50.58386
354.8	16.85977
355.016	27.39791
355.231	67.44814
355.447	-65.31684
355.662	-4.2147
355.878	-12.64382
356.093	54.79979
356.309	23.18258
356.524	-40.03573
356.74	12.64469
356.955	21.07496
357.171	90.63889
357.386	16.85977
357.602	-12.64382
357.817	61.12386
358.033	44.26014
358.248	8.4297
358.464	69.55627
358.679	56.90779
358.895	-6.32202
359.11	52.69182
359.325	-16.85823
359.541	-16.85823
359.756	-8.42931
359.972	-75.84956
360.187	46.36803
360.402	4.2148
360.618	71.66443
360.833	-21.07254
361.048	-56.89021
361.264	42.15228
361.479	-63.21022
361.694	44.26014
361.909	63.23193
362.125	-4.2147
362.34	-8.42931
362.555	-6.32202
362.77	-12.64382
362.986	-50.56997
363.201	-12.64382
363.416	16.85977
363.631	16.85977
363.847	44.26014
364.062	0
364.277	2.10739
364.492	-10.53658
364.707	25.29023
364.922	10.53718
365.138	44.26014
365.353	59.01582
365.568	52.69182
365.783	-48.46317
365.998	12.64469
366.213	50.58386
366.428	84.31387
366.643	35.82884
366.858	-25.28676
367.073	-56.89021
367.288	-6.32202
367.503	8.4297
367.718	-42.14263
367.933	14.75222
368.148	12.64469
368.363	27.39791
368.578	-75.84956
368.793	-42.14263
369.008	-4.2147
369.223	-23.17966
369.438	12.64469
369.653	-29.50088
369.868	42.15228
370.083	50.58386
370.298	-35.82187
370.513	-4.2147
370.728	8.4297
370.943	-67.42343
371.157	12.64469
371.372	-16.85823
371.587	-16.85823
371.802	0
372.017	0
372.232	18.96735
372.446	37.93663
372.661	37.93663
372.876	59.01582
373.091	10.53718
373.306	0
373.52	52.69182
373.735	25.29023
373.95	10.53718
374.165	50.58386
374.379	-10.53658
374.594	-8.42931
374.809	-33.71489
375.023	-75.84956
375.238	25.29023
375.453	96.96411
375.667	25.29023
375.882	-33.71489
376.097	-27.39383
376.311	-4.2147
376.526	23.18258
376.741	12.64469
376.955	-16.85823
377.17	0
377.384	2.10739
377.599	-8.42931
377.813	65.34002
378.028	12.64469
378.242	-23.17966
378.457	52.69182
378.672	-84.27527
378.886	84.31387
379.101	40.04444
379.315	-27.39383
379.53	12.64469
379.744	-31.6079
379.958	67.44814
380.173	27.39791
380.387	33.72107
380.602	50.58386
380.816	46.36803
381.031	-23.17966
381.245	25.29023
381.459	0
381.674	25.29023
381.888	-6.32202
382.103	21.07496
382.317	-25.28676
382.531	42.15228
382.746	29.5056
382.96	-46.35635
383.174	29.5056
383.388	-8.42931
383.603	-10.53658
383.817	25.29023
384.031	-40.03573
384.246	0
384.46	-16.85823
384.674	16.85977
384.888	-48.46317
385.103	-84.27527
385.317	-71.63655
385.531	37.93663
385.745	27.39791
385.959	0
386.174	8.4297
386.388	99.07256
386.602	21.07496
386.816	-37.92881
387.03	63.23193
387.244	31.61332
387.458	-42.14263
387.672	35.82884
387.887	69.55627
388.101	-16.85823
388.315	-58.9969
388.529	18.96735
388.743	33.72107
388.957	23.18258
389.171	-6.32202
389.385	-16.85823
389.599	29.5056
389.813	37.93663
390.027	21.07496
390.241	37.93663
390.455	29.5056
390.669	10.53718
390.883	-37.92881
391.097	56.90779
391.311	33.72107
391.525	40.04444
391.738	27.39791
391.952	59.01582
392.166	8.4297
392.38	46.36803
392.594	-4.2147
392.808	-14.75104
393.022	-46.35635
393.236	16.85977
393.449	29.5056
393.663	-101.12544
393.877	-16.85823
394.091	40.04444
394.305	-33.71489
394.518	21.07496
394.732	33.72107
394.946	8.4297
395.16	-33.71489
395.373	46.36803
395.587	-90.59428
395.801	63.23193
396.015	-6.32202
396.228	50.58386
396.442	50.58386
396.656	16.85977
396.869	18.96735
397.083	-10.53658
397.297	-31.6079
397.51	-16.85823
397.724	6.32224
397.938	-31.6079
398.151	54.79979
398.365	84.31387
398.578	-10.53658
398.792	-56.89021
399.005	-42.14263
399.219	0
399.433	59.01582
399.646	-6.32202
399.86	18.96735
400.073	16.85977
400.287	-8.42931
400.5	42.15228
400.714	25.29023
400.927	71.66443
401.141	-40.03573
401.354	31.61332
401.567	35.82884
401.781	12.64469
401.994	80.0973
402.208	42.15228
402.421	4.2148
402.635	-33.71489
402.848	16.85977
403.061	-21.07254
403.275	-37.92881
403.488	-10.53658
403.701	31.61332
403.915	12.64469
404.128	52.69182
404.341	-29.50088
404.555	46.36803
404.768	-21.07254
404.981	35.82884
405.195	2.10739
405.408	-65.31684
405.621	-4.2147
405.834	10.53718
406.048	-18.9654
406.261	0
406.474	61.12386
406.687	59.01582
406.9	0
407.114	16.85977
407.327	92.74727
407.54	-33.71489
407.753	12.64469
407.966	2.10739
408.179	105.39804
408.392	-40.03573
408.605	8.4297
408.819	8.4297
409.032	-10.53658
409.245	33.72107
409.458	27.39791
409.671	-16.85823
409.884	59.01582
410.097	-16.85823
410.31	80.0973
410.523	-6.32202
410.736	0
410.949	61.12386
411.162	42.15228
411.375	-25.28676
411.588	-18.9654
411.801	-54.78349
412.014	-4.2147
412.227	-25.28676
412.44	18.96735
412.653	0
412.865	42.15228
413.078	-4.2147
413.291	21.07496
413.504	25.29023
413.717	-25.28676
413.93	29.5056
414.143	-8.42931
414.356	-50.56997
414.568	10.53718
414.781	42.15228
414.994	-37.92881
415.207	92.74727
415.42	-6.32202
415.632	-50.56997
415.845	-42.14263
416.058	33.72107
416.271	44.26014
416.483	8.4297
416.696	12.64469
416.909	50.58386
417.121	25.29023
417.334	25.29023
417.547	-4.2147
417.759	37.93663
417.972	75.88082
418.185	-35.82187
418.397	40.04444
418.61	18.96735
418.823	4.2148
419.035	14.75222
419.248	29.5056
419.46	-40.03573
419.673	63.23193
419.885	-4.2147
420.098	86.42218
420.311	16.85977
420.523	-25.28676
420.736	-25.28676
420.948	-23.17966
421.161	16.85977
421.373	25.29023
421.586	8.4297
421.798	61.12386
422.01	54.79979
422.223	40.04444
422.435	-33.71489
422.648	-37.92881
422.86	33.72107
423.073	48.47593
423.285	92.74727
423.497	33.72107
423.71	37.93663
423.922	84.31387
424.134	16.85977
424.347	14.75222
424.559	0
424.771	16.85977
424.984	35.82884
425.196	33.72107
425.408	-27.39383
425.621	59.01582
425.833	-8.42931
426.045	77.98905
426.257	2.10739
426.47	42.15228
426.682	18.96735
426.894	33.72107
427.106	-46.35635
427.318	-42.14263
427.531	42.15228
427.743	59.01582
427.955	-6.32202
428.167	75.88082
428.379	67.44814
428.591	50.58386
428.804	44.26014
429.016	8.4297
429.228	16.85977
429.44	-16.85823
429.652	101.18103
429.864	10.53718
430.076	-37.92881
430.288	-50.56997
430.5	21.07496
430.712	63.23193
430.924	69.55627
431.136	33.72107
431.348	-96.91306
431.56	2.10739
431.772	16.85977
431.984	-6.32202
432.196	35.82884
432.408	12.64469
432.62	6.32224
432.832	0
433.044	-16.85823
433.256	21.07496
433.468	27.39791
433.679	18.96735
433.891	2.10739
434.103	54.79979
434.315	-6.32202
434.527	-42.14263
434.739	-8.42931
434.95	59.01582
435.162	18.96735
435.374	54.79979
435.586	52.69182
435.798	8.4297
436.009	-25.28676
436.221	16.85977
436.433	33.72107
436.645	10.53718
436.856	-33.71489
437.068	46.36803
437.28	6.32224
437.491	-23.17966
437.703	-44.2495
437.915	88.53052
438.126	46.36803
438.338	-33.71489
438.55	52.69182
438.761	42.15228
438.973	46.36803
439.184	8.4297
439.396	101.18103
439.608	-4.2147
439.819	-8.42931
440.031	59.01582
440.242	-21.07254
440.454	44.26014
440.665	50.58386
440.877	63.23193
441.088	-21.07254
441.3	-16.85823
441.511	8.4297
441.723	8.4297
441.934	-4.2147
442.146	8.4297
442.357	0
442.569	2.10739
442.78	46.36803
442.991	8.4297
443.203	18.96735
443.414	4.2148
443.626	16.85977
443.837	-23.17966
444.048	-8.42931
444.26	-58.9969
444.471	-31.6079
444.682	6.32224
444.894	4.2148
445.105	-23.17966
445.316	25.29023
445.528	25.29023
445.739	25.29023
445.95	46.36803
446.161	23.18258
446.373	-16.85823
446.584	-12.64382
446.795	59.01582
447.006	-8.42931
447.217	86.42218
447.429	18.96735
447.64	52.69182
447.851	-31.6079
448.062	21.07496
448.273	46.36803
448.484	-16.85823
448.695	35.82884
448.907	77.98905
449.118	-16.85823
449.329	33.72107
449.54	8.4297
449.751	44.26014
449.962	2.10739
450.173	69.55627
450.384	16.85977
450.595	33.72107
450.806	63.23193
451.017	0
451.228	-12.64382
451.439	77.98905
451.65	35.82884
451.861	101.18103
452.072	-8.42931
452.283	50.58386
452.494	6.32224
452.705	18.96735
452.915	33.72107
453.126	-2.10736
453.337	29.5056
453.548	84.31387
453.759	33.72107
453.97	2.10739
454.181	-25.28676
454.391	31.61332
454.602	77.98905
454.813	14.75222
455.024	59.01582
455.235	0
455.445	21.07496
455.656	-16.85823
455.867	69.55627
456.078	16.85977
456.288	4.2148
456.499	-18.9654
456.71	10.53718
456.921	118.04961
457.131	44.26014
457.342	0
457.553	44.26014
457.763	59.01582
457.974	21.07496
458.184	61.12386
458.395	18.96735
458.606	-12.64382
458.816	59.01582
459.027	92.74727
459.237	42.15228
459.448	10.53718
459.659	-31.6079
459.869	33.72107
460.08	52.69182
460.29	-23.17966
460.501	-4.2147
460.711	25.29023
460.922	46.36803
461.132	-23.17966
461.343	-21.07254
461.553	61.12386
461.764	33.72107
461.974	8.4297
462.184	-12.64382
462.395	84.31387
462.605	71.66443
462.816	67.44814
463.026	16.85977
463.236	99.07256
463.447	-25.28676
463.657	35.82884
463.867	50.58386
464.078	71.66443
464.288	35.82884
464.498	35.82884
464.709	42.15228
464.919	67.44814
465.129	12.64469
465.339	-37.92881
465.55	46.36803
465.76	12.64469
465.97	71.66443
466.18	37.93663
466.391	35.82884
466.601	67.44814
466.811	48.47593
467.021	54.79979
467.231	71.66443
467.441	-40.03573
467.651	-56.89021
467.862	44.26014
468.072	4.2148
468.282	63.23193
468.492	63.23193
468.702	99.07256
468.912	4.2148
469.122	50.58386
469.332	42.15228
469.542	27.39791
469.752	94.85568
469.962	-18.9654
470.172	18.96735
470.382	77.98905
470.592	86.42218
470.802	77.98905
471.012	29.5056
471.222	75.88082
471.432	4.2148
471.642	-23.17966
471.852	18.96735
472.062	35.82884
472.272	84.31387
472.482	71.66443
472.691	63.23193
472.901	46.36803
473.111	59.01582
473.321	181.31899
473.531	77.98905
473.741	37.93663
473.95	-31.6079
474.16	52.69182
474.37	63.23193
474.58	54.79979
474.79	54.79979
474.999	59.01582
475.209	18.96735
475.419	103.28953
475.628	160.22709
475.838	50.58386
476.048	96.96411
476.258	126.48442
476.467	92.74727
476.677	69.55627
476.886	37.93663
477.096	69.55627
477.306	90.63889
477.515	75.88082
477.725	115.94096
477.935	52.69182
478.144	88.53052
478.354	88.53052
478.563	101.18103
478.773	88.53052
478.982	118.04961
479.192	90.63889
479.401	145.464
479.611	160.22709
479.82	109.61514
480.03	134.91958
480.239	120.15828
480.449	82.20557
480.658	109.61514
480.868	77.98905
481.077	143.35507
481.287	189.75633
481.496	120.15828
481.705	84.31387
481.915	170.77278
482.124	134.91958
482.333	111.72373
482.543	52.69182
482.752	193.97512
482.961	160.22709
483.171	183.42829
483.38	202.41294
483.589	105.39804
483.799	198.19399
484.008	134.91958
484.217	172.88198
484.426	177.10045
484.636	177.10045
484.845	200.30345
485.054	160.22709
485.263	153.89993
485.472	177.10045
485.682	122.26697
485.891	153.89993
486.1	253.04654
486.309	202.41294
486.518	265.70668
486.727	250.93658
486.936	185.53762
487.146	236.16742
487.355	253.04654
487.564	210.85109
487.773	282.58793
487.982	160.22709
488.191	280.47771
488.4	193.97512
488.609	265.70668
488.818	305.80158
489.027	265.70668
489.236	253.04654
489.445	286.80843
489.654	295.24965
489.863	367.01157
490.072	272.03701
490.281	282.58793
490.49	316.35397
490.698	307.91202
490.907	356.45708
491.116	348.0138
491.325	217.1799
491.534	341.68151
491.743	367.01157
491.952	398.67758
492.16	362.78973
492.369	386.01073
492.578	386.01073
492.787	424.01305
492.996	303.69116
493.204	390.23295
493.413	455.68561
493.622	464.13222
493.831	392.34408
494.039	493.69724
494.248	466.24391
494.457	440.90465
494.665	455.68561
494.874	514.81688
495.083	466.24391
495.291	472.57906
495.5	451.4624
495.709	478.91436
495.917	447.23925
496.126	544.38677
496.335	569.73455
496.543	616.21043
496.752	531.71362
496.96	565.50978
497.169	559.17274
497.377	554.94811
497.586	413.45632
497.794	620.43582
498.003	506.36885
498.211	595.08425
498.42	637.33786
498.628	702.8405
498.837	658.46652
499.045	578.18424
499.254	569.73455
499.462	584.52165
499.671	620.43582
499.879	654.24069
500.087	711.29325
500.296	666.91831
500.504	654.24069
500.713	757.78646
500.921	662.69239
501.129	709.18005
501.338	709.18005
501.546	768.3538
501.754	643.67633
501.962	835.99052
502.171	745.10599
502.379	755.67302
502.587	804.2846
502.795	863.47061
503.004	685.93553
503.212	793.71643
503.42	802.17095
503.628	800.0573
503.837	804.2846
504.045	871.92631
504.253	821.19417
504.461	797.94367
504.669	850.78731
504.877	929.0057
505.085	863.47061
505.294	903.63637
505.502	895.18018
505.71	948.03341
505.918	861.3567
506.126	1003.00551
506.334	967.06169
506.542	948.03341
506.75	1005.11991
506.958	988.20488
507.166	998.77672
507.374	1131.99431
507.582	890.95213
507.79	886.72411
507.998	975.51889
508.206	1199.66758
508.414	1034.72216
508.622	1222.93113
508.83	1123.53545
509.037	1047.4092
509.245	1032.60768
509.453	1265.22943
509.661	1038.95115
509.869	1174.28964
510.077	1191.20821
510.285	1157.37131
510.492	998.77672
510.7	1271.57427
510.908	1142.56799
511.116	1165.83045
511.324	1131.99431
511.531	1182.7489
511.739	1022.03534
511.947	1292.72388
512.155	1260.99955
512.362	1341.36876
512.57	1191.20821
512.778	1280.03409
512.985	1250.4249
513.193	1394.24449
513.401	1235.6205
513.608	1303.29877
513.816	1178.51926
514.024	1322.33369
514.231	1216.58649
514.439	1394.24449
514.646	1244.08014
514.854	1394.24449
515.061	1275.80418
515.269	1349.82882
515.477	1402.70467
515.684	1385.78433
515.892	1478.84648
516.099	1354.05887
516.307	1364.63399
516.514	1535.95263
516.722	1402.70467
516.929	1626.89762
517.136	1468.27123
517.344	1567.67796
517.551	1267.34438
517.759	1434.43039
517.966	1480.96153
518.173	1552.87284
518.381	1593.05799
518.588	1703.03457
518.796	1576.13799
519.003	1599.40296
519.21	1502.11201
519.418	1648.04711
519.625	1525.37746
519.832	1648.04711
520.039	1510.57218
520.247	1734.75718
520.454	1641.70229
520.661	1758.01993
520.868	1616.32279
521.076	1859.52433
521.283	1774.938
521.49	1698.80484
521.697	1738.9868
521.904	1918.73016
522.112	1669.19636
522.319	1969.47454
522.526	1774.938
522.733	1927.18779
522.94	1755.90515
523.147	1846.83685
523.354	1834.14919
523.561	1884.89876
523.768	1889.12776
523.975	1971.58881
524.183	1755.90515
524.39	1770.70851
524.597	1901.81463
524.804	1935.64533
525.011	1853.18061
525.218	2149.16367
525.425	1785.51167
525.632	2109.00242
525.838	1977.9316
526.045	2134.36775
526.252	1912.38688
526.459	2011.75884
526.666	1980.04585
526.873	2231.59071
527.08	1973.70308
527.287	2089.9777
527.494	2043.47034
527.701	2041.35629
527.907	2066.72445
528.114	2231.59071
528.321	2301.32623
528.528	2153.39101
528.735	2252.72373
528.941	2316.11731
529.148	2070.95238
529.355	2316.11731
529.562	2113.23005
529.768	2223.13725
529.975	2138.5952
530.182	2387.95286
530.388	2191.43555
530.595	2341.47234
530.802	2206.22992
531.008	2493.57154
531.215	2398.51592
531.422	2428.09112
531.628	2368.93869
531.835	2571.71142
532.042	2425.97867
532.248	2664.61324
532.455	2362.60046
532.661	2637.16746
532.868	2356.26213
533.074	2525.25178
533.281	2231.59071
533.487	2700.50063
533.694	2387.95286
533.9	2647.72378
534.107	2599.16215
534.313	2586.49283
534.52	2696.27878
534.726	2757.49054
534.933	2597.05063
535.139	2687.83492
535.345	2666.72436
535.552	2645.61254
535.758	2730.05215
535.965	2890.42844
536.171	2837.68193
536.377	2871.44072
536.584	2706.83332
536.79	3016.98293
536.996	2751.1588
537.203	2706.83332
537.409	2713.16588
537.615	2763.82215
537.821	2774.37457
538.028	2898.86706
538.234	2755.37997
538.44	2926.29095
538.646	2696.27878
538.853	2983.24032
539.059	2835.57188
539.265	2932.61919
539.471	2810.25026
539.677	2903.08628
539.883	2772.26412
540.09	3185.63612
540.296	2905.19587
540.502	3164.56007
540.708	3025.41797
540.914	3156.12919
541.12	2983.24032
541.326	3263.60317
541.532	3147.69805
541.738	3303.63137
541.944	3000.11211
542.15	3189.85114
542.356	2966.36756
542.562	3198.28097
542.768	3050.72162
542.974	3389.98685
543.18	3202.49579
543.386	3425.78415
543.592	3394.19856
543.798	3303.63137
544.004	3324.69636
544.21	3387.88097
544.415	3290.99155
544.621	3482.62809
544.827	3320.4835
545.033	3619.42003
545.239	3398.4102
545.445	3415.25606
545.651	3208.81789
545.856	3499.46821
546.062	3427.88971
546.268	3495.25829
546.474	3522.62147
546.679	3303.63137
546.885	3305.73794
547.091	3478.41788
547.297	3415.25606
547.502	3472.10242
547.708	3295.20489
547.914	3524.72621
548.119	3533.14495
548.325	3619.42003
548.531	3196.17354
548.736	3564.71263
548.942	3493.1533
549.147	3444.73358
549.353	3543.66797
549.559	3667.80445
549.764	3467.89203
549.97	3728.79651
550.175	3520.51672
550.381	3842.32443
550.586	3514.20236
550.792	3976.80104
550.997	3730.89939
551.203	3812.89676
551.408	3678.32147
551.614	3838.12071
551.819	3768.74802
552.025	3909.57303
552.23	3867.54505
552.435	4102.79707
552.641	3981.0021
552.846	3962.09668
553.052	3966.29803
553.257	3997.80552
553.462	4012.50744
553.668	4069.2054
553.873	4010.40723
554.078	4044.00817
554.283	3943.18963
554.489	4214.03118
554.694	3949.49216
554.899	4075.50425
555.105	3852.83337
555.31	4178.35876
555.515	3766.64549
555.72	4264.38178
555.925	4065.00607
556.131	4258.08863
556.336	4119.59091
556.541	4081.8029
556.746	4104.89638
556.951	4377.62543
557.156	4071.30504
557.361	4230.81608
557.567	4054.50738
557.772	4438.41537
557.977	4188.85128
558.182	4564.129
558.387	4258.08863
558.592	4211.93297
558.797	4111.19416
559.002	4377.62543
559.207	4102.79707
559.412	4308.42845
559.617	4337.78762
559.822	4467.75565
560.027	4310.52567
560.232	4486.61498
560.437	4371.33577
560.642	4346.17518
560.847	4224.5219
561.051	4624.86197
561.256	4190.94973
561.461	4532.70805
561.666	4350.36883
561.871	4321.01147
562.076	4356.65914
562.281	4578.7904
562.485	4346.17518
562.69	4446.79874
562.895	4350.36883
563.1	4513.85309
563.305	4344.07832
563.509	4564.129
563.714	4497.09162
563.919	4693.94902
564.123	4582.97917
564.328	4606.01582
564.533	4446.79874
564.737	4549.46651
564.942	4492.90103
565.147	4777.65799
565.351	4689.76262
565.556	4725.34412
565.761	4647.8937
565.965	4754.64163
566.17	4367.14256
566.374	4750.45654
566.579	4857.14788
566.784	4639.51884
566.988	4790.21121
567.193	4974.23073
567.397	4798.57957
567.602	4999.31053
567.806	4656.26821
568.011	4890.60746
568.215	4756.73414
568.42	4890.60746
568.624	4890.60746
568.828	5013.93888
569.033	4756.73414
569.237	4990.95096
569.442	4735.80802
569.646	4951.23799
569.85	4769.28872
570.055	5091.24136
570.259	4976.32084
570.463	4990.95096
570.668	4955.4187
570.872	4974.23073
571.076	4842.50748
571.281	5226.96605
571.485	4949.14761
571.689	5143.45479
571.893	4974.23073
572.098	5235.31513
572.302	5003.49017
572.506	5076.619
572.71	4957.50901
572.914	5358.4205
573.119	4836.23268
573.323	5070.35192
573.527	5020.20783
573.731	5279.14163
573.935	5084.97477
574.139	5176.86377
574.343	4842.50748
574.547	5277.05489
574.751	5041.10282
574.955	5443.92025
575.159	5095.41897
575.364	5220.704
575.568	5158.07195
575.772	5287.48837
575.976	5270.79452
576.18	5350.07695
576.383	5170.60004
576.587	5320.87157
576.791	5199.82898
576.995	5393.87641
577.199	5393.87641
577.403	5458.51382
577.607	5325.04405
577.811	5460.59852
578.015	5362.59214
578.219	5475.19077
578.422	5423.07029
578.626	5671.03208
578.83	5416.81485
579.034	5516.87657
579.238	5416.81485
579.442	5437.66551
579.645	5541.88353
579.849	5691.854
580.053	5525.2126
580.257	5589.80405
580.46	5291.6616
580.664	5708.50983
580.868	5537.71594
581.071	5585.63754
581.275	5531.46438
581.479	5650.2078
581.682	5591.88727
581.886	5429.32553
582.09	5664.78504
582.293	5808.41313
582.497	5446.00512
582.7	5702.26407
582.904	5648.12524
583.107	5685.60767
583.311	5558.55295
583.515	5793.84729
583.718	5471.02168
583.922	5643.96005
584.125	5750.14282
584.329	5731.40914
584.532	5581.47094
584.735	5852.10373
584.939	5548.13474
585.142	5770.95577
585.346	5739.73546
585.549	6072.47845
585.753	5710.59171
585.956	5902.02309
586.159	5770.95577
586.363	6057.93357
586.566	5714.75538
586.769	5970.64003
586.973	5843.78251
587.176	6325.7902
587.379	5723.08245
587.582	6018.44878
587.786	5575.22086
587.989	5883.30492
588.192	5841.70215
588.395	6186.7196
588.599	6057.93357
588.802	6168.03045
589.005	6008.05664
589.208	6195.02527
589.411	6118.18344
589.615	6190.87248
589.818	6141.03167
590.021	6087.02218
590.224	6267.68393
590.427	6153.49314
590.63	6375.581
590.833	6290.51358
591.036	5978.9555
591.239	6456.46242
591.442	6267.68393
591.645	6226.16821
591.848	6149.33941
592.051	6332.01479
592.254	6149.33941
592.457	6280.13682
592.66	6249.00301
592.863	6514.50932
593.066	6352.76189
593.269	6406.69343
593.472	6224.09218
593.675	6734.09413
593.878	6116.10619
594.081	6547.67081
594.284	6257.30588
594.486	6423.28458
594.689	6286.36294
594.892	6725.8126
595.095	6481.34189
595.298	6437.80062
595.5	6329.93995
595.703	6754.79634
595.906	6116.10619
596.109	6622.26253
596.311	6300.88976
596.514	6587.04239
596.717	6638.83441
596.92	6920.33191
597.122	6464.75594
597.325	6732.02378
597.528	6555.96026
597.73	6642.97715
597.933	6603.61741
598.136	6700.96582
598.338	6574.61016
598.541	6792.05456
598.743	6804.47232
598.946	6831.37465
599.148	6698.89511
599.351	6963.76093
599.554	6758.93651
599.756	6883.0991
599.959	6707.17783
600.161	6849.99709
600.363	6549.74321
600.566	6847.92802
600.768	6626.40564
600.971	6806.54186
601.173	6589.11435
601.376	7054.72284
601.578	6789.98485
601.78	6858.27314
601.983	6738.23475
602.185	6849.99709
602.388	6688.5412
602.59	6883.0991
602.792	6847.92802
602.995	6961.69311
603.197	6831.37465
603.399	6907.92179
603.601	6682.32857
603.804	6613.97604
604.006	6959.62527
604.208	6945.14972
604.41	6698.89511
604.613	7116.71743
604.815	6715.46018
605.017	7093.98842
605.219	6849.99709
605.421	6990.64058
605.623	6696.82437
605.826	7143.57551
606.028	7147.70719
606.23	7112.58508
606.432	7005.11265
606.634	7100.18751
606.836	6887.23644
607.038	6957.5574
607.24	7172.49539
607.442	7393.383
607.644	7102.25382
607.846	7135.31189
608.048	7046.45537
608.25	7259.22898
608.452	6986.50549
608.654	7234.45193
608.856	7019.58363
609.058	6938.94557
609.26	7191.08445
609.462	7189.01909
609.664	7036.12054
609.866	7164.23302
610.067	6949.2857
610.269	7302.58118
610.471	6953.42159
610.673	7201.41093
610.875	7310.83764
611.077	7228.25718
611.278	6988.57305
611.48	7372.74994
611.682	7052.65601
611.884	7352.11469
612.085	7029.91936
612.287	7438.76809
612.489	6996.84303
612.69	7236.51681
612.892	7335.60492
613.094	7438.76809
613.295	7077.45653
613.497	7333.5411
613.699	6847.92802
613.9	7263.35818
614.102	7151.83878
614.304	7269.55181
614.505	7160.10169
614.707	7366.55959
614.908	7174.56093
615.11	7409.88789
615.311	7155.97028
615.513	7440.8308
615.714	7149.773
615.916	7432.57983
616.117	7193.14979
616.319	7234.45193
616.52	7093.98842
616.722	7308.77356
616.923	7122.91578
617.124	7430.51704
617.326	7312.9017
617.527	7655.23504
617.729	7073.32333
617.93	7442.89349
618.131	7215.86706
618.333	7217.93214
618.534	7403.69872
618.735	7426.39138
618.937	7217.93214
619.138	7611.96052
619.339	7407.82485
619.54	7611.96052
619.742	7347.98738
619.943	7327.34951
620.144	7250.97032
620.345	7521.25959
620.546	7073.32333
620.748	7335.60492
620.949	7298.45281
621.15	7494.45364
621.351	7236.51681
621.552	7490.32932
621.753	7424.32852
621.954	7585.16683
622.155	7189.01909
622.356	7663.47674
622.558	7428.45422
622.759	7583.10562
622.96	7248.9056
623.161	7436.70536
623.362	7473.8312
623.563	7585.16683
623.764	7581.0444
623.965	7442.89349
624.166	7572.79929
624.366	7671.71811
624.567	7296.3886
624.768	7306.70945
624.969	7234.45193
625.17	7407.82485
625.371	7469.70645
625.572	7651.11406
625.773	7432.57983
625.973	7539.81542
626.174	7583.10562
626.375	7622.26483
626.576	7605.77768
626.777	7787.06182
626.977	7457.33169
627.178	7570.73796
627.379	7473.8312
627.58	7702.62022
627.78	7438.76809
627.981	7370.68651
628.182	7519.19772
628.382	7640.81124
628.583	7411.9509
628.784	7651.11406
628.984	7492.39149
629.185	7747.93473
629.386	7416.07686
629.586	7743.81565
629.787	7482.08043
629.987	7760.29147
630.188	7564.55384
630.388	7785.00268
630.589	7482.08043
630.79	7618.14317
630.99	7480.01816
631.191	7922.91857
631.391	7745.8752
631.591	7733.51758
631.792	7480.01816
631.992	7820.00509
632.193	7453.2066
632.393	7692.32004
632.594	7290.19582
632.794	7688.19983
632.994	7702.62022
633.195	7964.06953
633.395	7541.87708
633.595	7735.57724
633.796	7698.50021
633.996	7840.59193
634.196	7813.82863
634.397	7968.18418
634.597	7667.59747
634.797	7910.57168
634.997	7496.51576
635.198	8009.32614
635.398	7583.10562
635.598	8017.55356
635.798	7679.95914
635.998	7863.23505
636.199	7745.8752
636.399	8075.13638
636.599	7762.35085
636.799	7832.35744
636.999	7817.94629
637.199	7867.35171
637.399	7482.08043
637.599	7745.8752
637.799	7706.74014
637.999	8068.96755
638.199	7698.50021
638.399	7964.06953
638.599	7739.69649
638.799	7951.72511
638.999	7749.99424
639.199	7828.24007
639.399	7811.76977
639.599	8038.12068
639.799	7931.14942
639.999	8192.3098
640.199	7904.39796
640.399	7996.98441
640.599	7593.41142
640.799	8194.36489
640.998	7762.35085
641.198	8114.20142
641.398	7959.95481
641.598	8192.3098
641.798	8099.80988
641.997	8011.38303
642.197	7655.23504
642.397	7887.93379
642.597	7815.88747
642.796	8157.37014
642.996	7859.11831
643.196	8264.22634
643.395	8029.89407
643.595	8042.23385
643.795	8056.62935
643.994	8009.32614
644.194	7929.09174
644.394	8354.60154
644.593	8029.89407
644.793	7959.95481
644.992	7984.64194
645.192	8056.62935
645.392	8179.97881
645.591	8325.8499
645.791	8083.3612
645.99	8338.1725
646.19	8165.59176
646.389	8210.80494
646.589	8247.79041
646.788	8095.69783
646.987	7980.52763
647.187	8184.08922
647.386	7976.41323
647.586	8292.98619
647.785	8025.78065
647.984	8198.47502
648.184	8019.61036
648.383	8204.64007
648.582	8350.4944
648.782	8455.2024
648.981	8262.17192
649.18	8241.62661
649.38	8163.53638
649.579	8177.92358
649.778	8373.08273
649.977	8344.33353
650.177	8017.55356
650.376	8286.82369
650.575	8025.78065
650.774	8151.20372
650.973	8311.47264
651.173	8130.64769
651.372	8050.45997
651.571	8253.95403
651.77	7988.75618
651.969	8288.87788
652.168	8075.13638
652.367	8292.98619
652.566	8130.64769
652.765	8455.2024
652.964	8303.25664
653.163	8475.72752
653.362	8214.91475
653.561	8469.57019
653.76	8424.41114
653.959	8358.70861
654.158	8613.19686
654.357	8428.51689
654.556	8280.66101
654.755	8412.09342
654.954	8145.03712
655.153	8208.75
655.352	8323.79606
655.551	8492.14624
655.749	8432.62256
655.948	8578.32459
656.147	8383.34938
656.346	8512.66793
656.545	8407.98736
656.743	8444.93913
656.942	8262.17192
657.141	8600.88962
657.34	8305.31067
657.538	8527.03198
657.737	8397.72187
657.936	8414.14642
658.135	8247.79041
658.333	8674.72298
658.532	8545.49868
658.731	8543.4469
658.929	8348.44079
659.128	8568.06701
659.326	8592.68442
659.525	8728.03213
659.724	8366.92251
659.922	8494.1985
660.121	8477.77993
660.319	8465.4652
660.518	8350.4944
660.716	8504.45948
660.915	8262.17192
661.113	8399.77501
661.312	8485.98937
661.51	8621.40131
661.709	8488.04168
661.907	8504.45948
662.105	8465.4652
662.304	8842.80981
662.502	8479.83232
662.701	8670.62176
662.899	8340.2262
663.097	8654.21613
663.296	8748.53233
663.494	8721.88171
663.692	8477.77993
663.891	8615.248
664.089	8391.56234
664.287	8689.07667
664.485	8701.37911
664.684	8822.31797
664.882	8646.01287
665.08	8754.68204
665.278	8426.46402
665.476	8771.08045
665.675	8313.5266
665.873	8711.63064
666.071	8315.58053
666.269	8896.08017
666.467	8504.45948
666.665	8666.52046
666.863	8323.79606
667.061	8463.41268
667.259	8395.66871
667.457	8666.52046
667.655	8416.1994
667.853	8559.86061
668.051	8397.72187
668.249	8602.94087
668.447	8510.61585
668.645	8775.17987
668.843	8481.88469
669.041	8687.0262
669.239	8262.17192
669.437	8553.70561
669.635	8397.72187
669.833	8734.18238
670.031	8459.30758
670.229	8846.90796
670.426	8535.23959
670.624	8711.63064
670.822	8730.08223
671.02	8728.03213
671.218	8572.1701
671.415	8572.1701
671.613	8379.24277
671.811	8520.87607
672.009	8547.55044
672.206	8713.68089
672.404	8412.09342
672.602	8563.96385
672.799	8500.35515
672.997	8568.06701
673.195	8578.32459
673.392	8584.47892
673.59	8457.255
673.788	8689.07667
673.985	8297.09443
674.183	8744.43244
674.38	8371.02934
674.578	8327.90371
674.775	8407.98736
674.973	8576.27312
675.17	8422.35823
675.368	8490.09397
675.565	8594.73574
675.763	8699.32875
675.96	8592.68442
676.158	8748.53233
676.355	8496.25073
676.553	8713.68089
676.75	8319.68833
676.947	8535.23959
677.145	8344.33353
677.342	8740.33247
677.539	8446.99182
677.737	8744.43244
677.934	8414.14642
678.131	8705.47978
678.329	8457.255
678.526	8594.73574
678.723	8766.98096
678.92	8773.13017
679.118	8436.72816
679.315	8494.1985
679.512	8391.56234
679.709	8477.77993
679.906	8297.09443
680.104	8496.25073
680.301	8354.60154
680.498	8498.30295
680.695	8239.57197
680.892	8594.73574
681.089	8292.98619
681.286	8485.98937
681.483	8233.40793
681.68	8270.38949
681.877	8124.48049
682.075	8537.29145
682.272	8101.86588
682.469	8485.98937
682.665	8340.2262
682.862	8578.32459
683.059	8362.8156
683.256	8490.09397
683.453	8438.78093
683.65	8288.87788
683.847	8134.75905
684.044	8099.80988
684.241	8272.44383
684.438	8249.84497
684.635	8038.12068
684.831	8529.08391
685.028	8356.65508
685.225	8342.27987
685.422	8243.68123
685.619	8360.76211
685.815	8110.08965
686.012	8586.53032
686.209	8368.97593
686.405	8280.66101
686.602	8179.97881
686.799	8214.91475
686.996	8165.59176
687.192	8385.40265
687.389	8161.48099
687.586	7970.24147
687.782	7929.09174
687.979	8023.72391
688.175	8099.80988
688.372	8124.48049
688.568	7889.99188
688.765	8163.53638
688.962	7953.78256
689.158	8473.6751
689.355	8247.79041
689.551	8274.49816
689.748	8120.36892
689.944	8136.81471
690.14	7807.65199
690.337	8140.92595
690.533	8120.36892
690.73	8114.20142
690.926	8140.92595
691.123	8052.51645
691.319	8075.13638
691.515	8358.70861
691.712	7953.78256
691.908	8083.3612
692.104	8116.25727
692.301	8309.41867
692.497	8005.21231
692.693	7947.61013
692.889	8140.92595
693.086	8167.64711
693.282	8136.81471
693.478	8015.49674
693.674	8036.06405
693.87	8108.03374
694.067	8130.64769
694.263	8044.29041
694.459	7951.72511
694.655	8044.29041
694.851	7881.75938
695.047	8023.72391
695.243	8085.41736
695.439	8001.0984
695.635	7927.03404
695.831	7873.52655
696.027	7817.94629
696.224	7955.84
696.42	7774.70671
696.615	8225.18894
696.811	7803.53412
697.007	8071.02385
697.203	8124.48049
697.399	8083.3612
697.595	7879.70121
697.791	7939.37994
697.987	7692.32004
698.183	8239.57197
698.379	7892.04995
698.575	8165.59176
698.77	8003.15537
698.966	8108.03374
699.162	7702.62022
699.358	8025.78065
699.554	7749.99424
699.749	7988.75618
699.945	7984.64194
700.141	8196.41997
700.337	8038.12068
700.532	7836.47473
700.728	8013.43989
700.924	7994.92738
701.119	7624.32562
701.315	7836.47473
701.511	7889.99188
701.706	8266.28074
701.902	7661.41635
702.097	7813.82863
702.293	8009.32614
702.489	7714.97973
702.684	7912.62955
702.88	7935.26472
703.075	7465.58162
703.271	7778.82516
703.466	7789.12093
703.662	7939.37994
703.857	7638.75061
704.053	7898.22405
704.248	7822.06387
704.443	7978.47044
704.639	7959.95481
704.834	8027.83737
705.03	7844.70905
705.225	8054.57291
705.42	7889.99188
705.616	7924.97631
705.811	7729.39821
706.006	7968.18418
706.202	7543.93871
706.397	7879.70121
706.592	7807.65199
706.787	7935.26472
706.983	7675.83867
707.178	7787.06182
707.373	7482.08043
707.568	7935.26472
707.763	7558.36952
707.959	7992.87034
708.154	7574.8606
708.349	7780.88436
708.544	7618.14317
708.739	7863.23505
708.934	7708.80007
709.129	7626.3864
709.324	7498.57787
709.519	7801.47515
709.714	7754.11319
709.909	7852.94303
710.104	7714.97973
710.299	7828.24007
710.494	7583.10562
710.689	7698.50021
710.884	7655.23504
711.079	7603.71669
711.274	7597.53359
711.469	7976.41323
711.664	7675.83867
711.859	7822.06387
712.054	7651.11406
712.249	7655.23504
712.443	7583.10562
712.638	7822.06387
712.833	7259.22898
713.028	7422.26564
713.223	7562.49242
713.417	7546.00032
713.612	7449.08142
713.807	7898.22405
714.002	7737.63687
714.196	7836.47473
714.391	7482.08043
714.586	7743.81565
714.78	7490.32932
714.975	7597.53359
715.17	7383.06674
715.364	7682.01934
715.559	7766.46956
715.754	7521.25959
715.948	7548.06191
716.143	7698.50021
716.337	7428.45422
716.532	7702.62022
716.726	7409.88789
716.921	7817.94629
717.115	7469.70645
717.31	7529.50684
717.504	7372.74994
717.699	7710.85998
717.893	7319.09375
718.088	7496.51576
718.282	7335.60492
718.476	7440.8308
718.671	7393.383
718.865	7337.66872
719.059	7321.15772
719.254	7568.67661
719.448	7193.14979
719.642	7525.38326
719.837	7189.01909
720.031	7250.97032
720.225	7184.8883
720.419	7321.15772
720.614	6893.44228
720.808	7461.4567
721.002	7372.74994
721.196	7308.77356
721.39	7422.26564
721.585	7403.69872
721.779	7407.82485
721.973	7308.77356
722.167	6854.13516
722.361	7329.4134
722.555	7052.65601
722.749	7411.9509
722.943	7302.58118
723.137	7310.83764
723.331	7335.60492
723.525	7217.93214
723.719	7209.67171
723.913	7467.64405
724.107	7007.18
724.301	7234.45193
724.495	7155.97028
724.689	7385.13004
724.883	7180.75742
725.077	7467.64405
725.271	7226.19221
725.465	7244.77609
725.659	7102.25382
725.853	7230.32212
726.046	7060.92321
726.24	7213.80197
726.434	6698.89511
726.628	7131.17994
726.822	7052.65601
727.015	7498.57787
727.209	6936.87748
727.403	7317.02975
727.596	7189.01909
727.79	7118.78357
727.984	7290.19582
728.177	7506.82607
728.371	7122.91578
728.565	7261.29359
728.758	6984.43792
728.952	7323.22167
729.146	7046.45537
729.339	7219.99719
729.533	7180.75742
729.726	7027.85226
729.92	7071.2567
730.113	7317.02975
730.307	7104.32012
730.5	7089.85558
730.694	6994.77557
730.887	6949.2857
731.081	7065.05667
731.274	7201.41093
731.468	6982.37032
731.661	7036.12054
731.854	7015.44918
732.048	7058.85644
732.241	6785.84537
732.435	7122.91578
732.628	7011.31463
732.821	7003.04528
733.014	7135.31189
733.208	6949.2857
733.401	6943.08169
733.594	6920.33191
733.788	7011.31463
733.981	7137.37783
734.174	7079.52309
734.367	7174.56093
734.56	7160.10169
734.754	7104.32012
734.947	7250.97032
735.14	7060.92321
735.333	7193.14979
735.526	7143.57551
735.719	7058.85644
735.912	7060.92321
736.105	6957.5574
736.298	6920.33191
736.491	6936.87748
736.684	6852.06613
736.877	7079.52309
737.07	7044.38845
737.263	7036.12054
737.456	7071.2567
737.649	7025.78514
737.842	6864.47993
738.035	7106.38639
738.228	6849.99709
738.421	6864.47993
738.614	6978.23506
738.807	6849.99709
739	7029.91936
739.192	6874.82414
739.385	7217.93214
739.578	6903.7849
739.771	7075.38994
739.964	6947.21772
740.156	7197.2804
740.349	6839.65152
740.542	7085.72265
740.735	6849.99709
740.927	7060.92321
741.12	6742.37529
741.313	6943.08169
741.505	7112.58508
741.698	6849.99709
741.891	6862.41102
742.083	7038.18755
742.276	7007.18
742.468	7209.67171
742.661	7015.44918
742.854	6783.77559
743.046	6821.02806
743.239	6907.92179
743.431	7124.98186
743.624	6994.77557
743.816	6928.60488
744.009	6796.1939
744.201	6829.30538
744.393	6818.95867
744.586	6700.96582
744.778	7019.58363
744.971	6870.68653
745.163	6924.46844
745.355	6841.72068
745.548	6821.02806
745.74	6647.11979
745.932	6661.61833
746.125	6584.97041
746.317	6647.11979
746.509	6663.68946
746.702	6916.1953
746.894	6638.83441
747.086	6669.9027
747.278	6736.16445
747.471	6665.76056
747.663	6934.80936
747.855	6750.65608
748.047	6779.63597
748.239	6829.30538
748.431	6717.53071
748.623	6622.26253
748.815	6773.42637
749.008	7013.38192
749.2	6920.33191
749.392	6936.87748
749.584	6529.0182
749.776	6823.09742
749.968	6564.24934
750.16	6829.30538
750.352	6568.39374
750.544	6796.1939
750.736	6624.3341
750.928	6878.96166
751.12	6543.52595
751.311	6477.19554
751.503	6622.26253
751.695	6647.11979
751.887	6555.96026
752.079	6800.33316
752.271	6589.11435
752.463	6742.37529
752.654	6676.11574
752.846	6676.11574
753.038	6576.68226
753.23	6414.98919
753.421	6448.16851
753.613	6634.69158
753.805	6601.54561
753.997	6448.16851
754.188	6406.69343
754.38	6433.65329
754.572	6466.82927
754.763	6657.47601
754.955	6215.78782
755.146	6609.83266
755.338	6489.6343
755.53	6377.65533
755.721	6182.56662
755.913	6375.581
756.104	6305.04007
756.296	6414.98919
756.487	6423.28458
756.679	6535.23595
756.87	6332.01479
757.062	6340.31391
757.253	6298.81457
757.445	6286.36294
757.636	6547.67081
757.827	6601.54561
758.019	6317.49043
758.21	6311.26535
758.401	6361.06007
758.593	6107.79694
758.784	6294.66412
758.975	6084.94458
759.167	6028.84034
759.358	6242.77562
759.549	6039.23131
759.74	6317.49043
759.932	6199.17797
760.123	6199.17797
760.314	6234.4721
760.505	6132.72355
760.696	6232.39616
760.888	6363.13456
761.079	6174.26038
761.27	6219.94004
761.461	6172.18376
761.652	6049.62169
761.843	5858.34439
762.034	5951.92887
762.225	5887.46468
762.416	6032.9968
762.607	5831.29998
762.798	5978.9555
762.989	5793.84729
763.18	6136.87766
763.371	5820.89722
763.562	5991.42798
763.753	6051.69969
763.944	5816.73595
764.135	5941.53295
764.326	6062.08937
764.517	5899.94339
764.708	5964.40319
764.899	5768.87458
765.089	5889.54452
765.28	5779.28029
765.471	5866.66495
765.662	5668.94976
765.853	5812.57459
766.043	5725.16416
766.234	5933.21579
766.425	6024.68379
766.615	6010.13511
766.806	5696.0181
766.997	5775.11808
767.187	5610.63517
767.378	5833.38046
767.569	5725.16416
767.759	5750.14282
767.95	5858.34439
768.141	5689.77191
768.331	5612.71815
768.522	5764.71213
768.712	5860.42457
768.903	5829.21948
769.093	5500.20338
769.284	5643.96005
769.474	5585.63754
769.665	5546.05103
769.855	5541.88353
770.046	5700.1821
770.236	5518.96062
770.426	5658.53779
770.617	5577.30425
770.807	5689.77191
770.998	5498.11913
771.188	5437.66551
771.378	5593.97046
771.569	5500.20338
771.759	5373.02082
771.949	5512.70842
772.139	5408.47393
772.33	5312.52633
772.52	5393.87641
772.71	5535.63211
772.9	5483.52869
773.09	5496.03485
773.281	5279.14163
773.471	5454.34435
773.661	5552.3021
773.851	5483.52869
774.041	5370.93513
774.231	5235.31513
774.421	5124.65963
774.611	5354.24878
774.802	5110.03987
774.992	5220.704
775.182	5141.36654
775.372	5291.6616
775.562	5183.12729
775.752	5327.13025
775.942	5116.30562
776.131	5189.3906
776.321	5082.88586
776.511	5318.7853
776.701	5241.57669
776.891	4961.68958
777.081	4972.14059
777.271	5026.47657
777.461	5068.26285
777.651	5162.24808
777.84	5043.19219
778.03	5043.19219
778.22	5139.27825
778.41	5135.10162
778.599	5162.24808
778.789	5189.3906
778.979	5151.8076
779.169	5126.74807
779.358	4982.59103
779.548	5080.79693
779.738	4825.77422
779.927	5206.09173
780.117	5013.93888
780.307	4775.5657
780.496	4838.3243
780.686	5128.8365
780.875	4863.422
781.065	4984.68105
781.254	4967.96026
781.444	4980.50099
781.633	4622.76805
781.823	4673.01613
782.012	4907.33505
782.202	4959.59931
782.391	4815.31519
782.581	4932.42369
782.77	4633.23746
782.96	4752.5491
783.149	4673.01613
783.338	4773.4734
783.528	4752.5491
783.717	4809.0395
783.906	4706.50767
784.096	4706.50767
784.285	4530.61314
784.474	4756.73414
784.663	4547.37178
784.853	4637.42507
785.042	4541.08746
785.231	4836.23268
785.42	4626.95588
785.61	4656.26821
785.799	4430.03164
785.988	4616.48613
786.177	4509.66285
786.366	4656.26821
786.555	4564.129
786.744	4467.75565
786.933	4383.9149
787.122	4756.73414
787.312	4716.97259
787.501	4589.26216
787.69	4511.75798
787.879	4721.1584
788.068	4293.74728
788.257	4404.87836
788.445	4253.89308
788.634	4683.48286
788.823	4480.32873
789.012	4606.01582
789.201	4367.14256
789.39	4444.70293
789.579	4509.66285
789.768	4735.80802
789.957	4306.3312
790.145	4568.31808
790.334	4442.6071
790.523	4293.74728
790.712	4283.26008
790.9	4419.55149
791.089	4193.04815
791.278	4379.72194
791.467	4214.03118
791.655	4423.74362
791.844	4356.65914
792.033	4182.55583
792.221	4169.96436
792.41	4232.91409
792.599	3993.60479
792.787	4232.91409
792.976	4138.48237
793.164	4614.39211
793.353	4201.44161
793.541	4423.74362
793.73	4188.85128
793.918	4444.70293
794.107	4136.3834
794.295	4153.17456
794.484	4174.16161
794.672	4306.3312
794.861	4140.58132
795.049	4354.56239
795.238	4140.58132
795.426	4358.75587
795.614	4178.35876
795.803	4167.86571
795.991	4052.40758
796.179	4276.96751
796.368	4230.81608
796.556	4354.56239
796.744	4197.24492
796.932	4182.55583
797.121	4004.10647
797.309	4153.17456
797.497	4094.39965
797.685	4031.40843
797.874	4245.50174
798.062	4109.09492
798.25	3733.00226
798.438	4102.79707
798.626	3909.57303
798.814	4148.97689
799.002	3787.66997
799.19	4115.39257
799.378	3846.52806
799.566	4046.10805
799.755	4081.8029
799.943	4109.09492
800.131	3911.67422
800.318	3777.15797
800.506	3768.74802
800.694	3793.97693
800.882	3825.50909
801.07	4048.20791
801.258	3745.61905
801.446	3938.98784
801.634	3825.50909
801.822	3875.95129
802.01	3894.86415
802.197	4136.3834
802.385	3901.16808
802.573	3945.29049
802.761	4079.70337
802.949	4094.39965
803.136	3859.1385
803.324	4226.61998
803.512	4002.00617
803.699	4010.40723
803.887	3827.61108
804.075	4090.20082
804.262	3917.97767
804.45	4069.2054
804.638	3903.26935
804.825	4096.49904
805.013	3850.73162
805.201	3922.17986
805.388	3896.96548
805.576	3989.40397
805.763	3909.57303
805.951	4090.20082
806.138	3686.73474
806.326	4039.80834
806.513	3825.50909
806.701	3976.80104
806.888	3896.96548
807.075	4174.16161
807.263	3926.38198
807.45	3964.19737
807.638	3884.35721
807.825	4216.12936
808.012	3772.95304
808.2	3943.18963
808.387	3932.685
808.574	4094.39965
808.761	3999.90585
808.949	4161.56963
809.136	3791.87463
809.323	4190.94973
809.51	3859.1385
809.698	3825.50909
809.885	3690.94127
810.072	4025.10829
810.259	3859.1385
810.446	4193.04815
810.633	4010.40723
810.82	4033.50844
811.008	3966.29803
811.195	4020.90809
811.382	4052.40758
811.569	3924.28093
811.756	4014.60763
811.943	4268.57711
812.13	3819.20302
812.317	4041.90826
812.504	3917.97767
812.691	4253.89308
812.878	4211.93297
813.064	4220.32567
813.251	4016.7078
813.438	4184.65434
813.625	3875.95129
813.812	4054.50738
813.999	3962.09668
814.186	4060.80665
814.372	3720.38477
814.559	4100.69775
814.746	3968.39867
814.933	3955.79451
815.12	3894.86415
815.306	3987.30353
815.493	3905.3706
815.68	4052.40758
815.866	3909.57303
816.053	4027.20835
816.24	3766.64549
816.426	3920.07877
816.613	3821.30506
816.799	4266.47945
816.986	3932.685
817.173	3869.64664
817.359	3808.69249
817.546	3917.97767
817.732	3917.97767
817.919	4044.00817
818.105	3770.85054
818.292	4054.50738
818.478	3861.24016
818.665	3913.77539
818.851	3836.01883
819.037	3928.483
819.224	3823.40709
819.41	4088.10137
819.597	3598.38022
819.783	4002.00617
819.969	3716.17879
820.156	4077.60382
820.342	3850.73162
820.528	3934.78596
820.714	3741.41353
820.901	4025.10829
821.087	3880.15429
821.273	3970.49929
821.459	3915.87654
821.646	4222.4238
821.832	3800.28372
822.018	3892.7628
822.204	3463.68156
822.39	3852.83337
822.576	3833.91692
822.762	3913.77539
822.948	3701.45724
823.134	3783.46523
823.32	3566.81699
823.507	3758.23515
823.693	3594.17203
823.879	3787.66997
824.065	3667.80445
824.25	3880.15429
824.436	3539.45882
824.622	3711.97273
824.808	3528.93562
824.994	3627.83543
825.18	3438.41727
825.366	3806.59033
825.552	3623.62777
825.738	3703.56037
825.923	3385.77507
826.109	3785.56761
826.295	3564.71263
826.481	3842.32443
826.667	3617.31614
826.852	3945.29049
827.038	3777.15797
827.224	3861.24016
827.409	3507.88783
827.595	3726.6936
827.781	3278.35111
827.966	3488.94327
828.152	3400.516
828.338	3566.81699
828.523	3389.98685
828.709	3711.97273
828.894	3531.04029
829.08	3577.33853
829.266	3371.03327
829.451	3472.10242
829.637	3373.1393
829.822	3463.68156
830.008	3446.83899
830.193	3381.56321
830.378	3272.03067
830.564	3474.20759
830.749	3303.63137
830.935	3556.29499
831.12	3101.3222
831.305	3446.83899
831.491	3244.64031
831.676	3265.71007
831.861	3210.92522
832.047	3263.60317
832.232	3236.21194
832.417	3451.04974
832.602	3135.05086
832.788	3290.99155
832.973	3341.54712
833.158	3413.15039
833.343	3339.44084
833.528	3362.60901
833.714	3244.64031
833.899	3328.90916
834.084	3145.59023
834.269	3314.16408
834.454	3059.15568
834.639	3347.86587
834.824	3164.56007
835.009	3208.81789
835.194	2957.93082
835.379	3198.28097
835.564	3076.02304
835.749	3337.33454
835.934	3109.75475
836.119	3210.92522
836.304	3124.5111
836.489	3257.28237
836.674	3215.13984
836.859	2907.30544
837.044	2991.67633
837.228	3137.15877
837.413	2875.66032
837.598	3345.75964
837.783	2974.80406
837.968	3135.05086
838.152	3118.18705
838.337	3179.31348
838.522	2881.9896
838.707	3231.99765
838.891	2789.14739
839.076	3143.48239
839.261	2586.49283
839.445	2892.53812
839.63	2810.25026
839.815	2970.58584
839.999	2573.82309
840.184	2968.47671
840.368	2841.90197
840.553	3067.58949
840.737	2955.8216
840.922	3061.26415
841.106	2806.0298
841.291	3023.30923
841.475	2689.9459
841.66	3054.93868
841.844	2839.79196
842.029	2757.49054
842.213	2637.16746
842.397	2791.25774
842.582	2620.2767
842.766	2744.82695
842.951	2444.99029
843.135	2740.60564
843.319	2607.60812
843.504	2687.83492
843.688	2654.05742
843.872	2903.08628
844.056	2732.16288
844.241	2746.93758
844.425	2444.99029
844.609	2772.26412
844.793	2548.48231
844.977	2780.70586
845.161	2613.94246
845.346	2763.82215
845.53	2586.49283
845.714	2711.05504
845.898	2480.89874
846.082	2620.2767
846.266	2531.58751
846.45	2620.2767
846.634	2514.69198
846.818	2442.87794
847.002	2542.14685
847.186	2597.05063
847.37	2411.19126
847.554	2554.81766
847.738	2394.29073
847.922	2628.72218
848.106	2377.38954
848.29	2540.035
848.473	2286.53469
848.657	2387.95286
848.841	2358.37491
849.025	2421.75375
849.209	2362.60046
849.392	2493.57154
849.576	2216.79707
849.76	2299.21318
849.944	2354.14933
850.127	2502.01985
850.311	2379.50222
850.495	2651.94622
850.678	2333.02082
850.862	2527.3637
851.046	2174.52719
851.229	2273.85586
851.413	2214.68365
851.596	2502.01985
851.78	2250.61047
851.964	2409.07873
852.147	2197.77604
852.331	2125.91276
852.514	2106.88859
852.698	2261.17669
852.881	2079.40815
853.065	2113.23005
853.248	2117.45765
853.431	2172.41361
853.615	2070.95238
853.798	2096.31934
853.982	2189.32203
854.165	2210.4568
854.348	2047.69842
854.532	2130.14027
854.715	1863.75345
854.898	2221.02386
855.081	1952.56012
855.265	2231.59071
855.448	2064.61048
855.631	2130.14027
855.814	1941.98842
855.997	2092.09159
856.181	2087.86381
856.364	2098.43321
856.547	1975.81735
856.73	1952.56012
856.913	2011.75884
857.096	2064.61048
857.279	1918.73016
857.462	2073.06634
857.645	1813.00273
857.828	1958.90308
858.011	1914.50131
858.194	1897.5857
858.377	1806.6587
858.56	2020.21539
858.743	1741.10161
858.926	1901.81463
859.109	2024.44362
859.292	1787.6264
859.475	1745.33121
859.658	1906.04355
859.841	1514.80227
860.023	1684.00067
860.206	1686.11556
860.389	1810.88806
860.572	1618.43776
860.755	1872.21164
860.937	1660.73669
861.12	1796.08524
861.303	1783.39695
861.486	1859.52433
861.668	1648.04711
861.851	1758.01993
862.034	1582.483
862.216	1747.446
862.399	1487.30668
862.581	1734.75718
862.764	1445.00565
862.947	1774.938
863.129	1624.78266
863.312	1709.37915
863.494	1478.84648
863.677	1741.10161
863.859	1675.54108
864.042	1582.483
864.224	1629.01258
864.406	1863.75345
864.589	1675.54108
864.771	1698.80484
864.954	1474.61638
865.136	1599.40296
865.318	1318.1037
865.501	1567.67796
865.683	1428.08524
865.865	1557.10288
866.048	1398.47458
866.23	1483.07658
866.412	1373.09412
866.594	1506.3421
866.777	1476.73143
866.959	1578.253
867.141	1356.17389
867.323	1487.30668
867.505	1309.64373
867.687	1495.76687
867.869	1250.4249
868.052	1521.14738
868.234	1428.08524
868.416	1567.67796
868.598	1430.20029
868.78	1461.92607
868.962	1421.74009
869.144	1514.80227
869.326	1449.23576
869.508	1476.73143
869.69	1390.01441
869.872	1574.02299
870.054	1307.52874
870.236	1548.64279
870.417	1330.79371
870.599	1514.80227
870.781	1360.40394
870.963	1360.40394
871.145	1263.11449
871.327	1461.92607
871.508	1237.73541
871.69	1235.6205
871.872	1265.22943
872.054	1345.59879
872.235	1239.85032
872.417	1343.48377
872.599	1250.4249
872.78	1419.62504
872.962	1318.1037
873.144	1447.12071
873.325	1288.49394
873.507	1383.66929
873.689	1288.49394
873.87	1373.09412
874.052	1252.53983
874.233	1368.86405
874.415	1203.89729
874.596	1292.72388
874.778	1182.7489
874.959	1269.45932
875.141	1208.12701
875.322	1483.07658
875.503	1311.75872
875.685	1411.16485
875.866	1318.1037
876.048	1377.32418
876.229	1117.19135
876.41	1294.83886
876.592	1356.17389
876.773	1282.14905
876.954	1189.09338
877.136	1199.66758
877.317	1182.7489
877.498	1280.03409
877.679	1218.70137
877.86	1250.4249
878.042	1127.76487
878.223	1275.80418
878.404	1286.37898
878.585	1303.29877
878.766	1182.7489
878.947	1267.34438
879.128	1184.86372
879.309	1345.59879
879.49	1131.99431
879.672	1231.3907
879.853	1104.50328
880.034	1294.83886
880.215	1277.91913
880.396	1275.80418
880.576	1286.37898
880.757	1447.12071
880.938	1184.86372
881.119	1339.25374
881.3	1275.80418
881.481	1459.81102
881.662	1315.9887
881.843	1430.20029
882.023	1227.16091
882.204	1356.17389
882.385	1260.99955
882.566	1483.07658
882.747	1250.4249
882.927	1430.20029
883.108	1284.26401
883.289	1440.77555
883.469	1163.71566
883.65	1354.05887
883.831	1225.04602
884.011	1390.01441
884.192	1296.95383
884.373	1330.79371
884.553	1396.35953
884.734	1387.89937
884.914	1390.01441
885.095	1521.14738
885.275	1231.3907
885.456	1527.49249
885.636	1303.29877
885.817	1516.91731
885.997	1320.2187
886.178	1487.30668
886.358	1341.36876
886.538	1487.30668
886.719	1284.26401
886.899	1436.54545
887.08	1301.18379
887.26	1430.20029
887.44	1335.02372
887.621	1400.58962
887.801	1260.99955
887.981	1368.86405
888.161	1193.32305
888.342	1337.13873
888.522	1216.58649
888.702	1322.33369
888.882	1275.80418
889.062	1313.87371
889.242	1271.57427
889.423	1335.02372
889.603	1328.6787
889.783	1337.13873
889.963	1225.04602
890.143	1402.70467
890.323	1345.59879
890.503	1419.62504
890.683	1282.14905
890.863	1349.82882
891.043	1199.66758
891.223	1345.59879
891.403	1214.47162
891.583	1474.61638
891.763	1381.55426
891.943	1523.26242
892.122	1269.45932
892.302	1398.47458
892.482	1212.35674
892.662	1381.55426
892.842	1265.22943
893.022	1345.59879
893.201	1174.28964
893.381	1432.31534
893.561	1146.79749
893.741	1216.58649
893.92	1385.78433
894.1	1225.04602
894.28	1146.79749
894.459	1445.00565
894.639	1165.83045
894.819	1313.87371
894.998	1074.89846
895.178	1184.86372
895.357	1066.44013
895.537	1178.51926
895.716	1125.65016
895.896	1237.73541
896.075	1182.7489
896.255	1131.99431
896.434	1225.04602
896.614	1411.16485
896.793	1068.55471
896.973	1178.51926
897.152	1005.11991
897.331	1134.10904
897.511	922.66327
897.69	1165.83045
897.87	971.29028
898.049	1125.65016
898.228	1064.32556
898.407	1112.96198
898.587	945.91919
898.766	1024.14979
898.945	861.3567
899.124	1015.692
899.304	931.11986
899.483	1201.78244
899.662	897.29422
899.841	931.11986
900.02	802.17095
900.199	1072.78387
900.378	950.14763
900.557	1093.93002
900.737	899.40826
900.916	1030.4932
901.095	979.74753
901.274	941.69077
901.453	886.72411
901.632	922.66327
901.811	785.26206
901.989	979.74753
902.168	812.73931
902.347	869.81237
902.526	709.18005
902.705	907.86452
902.884	829.64917
903.063	821.19417
903.242	738.76589
903.42	905.75044
903.599	781.03494
903.778	751.44618
903.957	633.11228
904.135	753.55959
904.314	607.75981
904.493	810.62562
904.672	713.40647
904.85	789.48922
905.029	726.08599
905.207	702.8405
905.386	660.57945
905.565	768.3538
905.743	650.01491
905.922	660.57945
906.1	688.04861
906.279	666.91831
906.457	641.5635
906.636	692.27481
906.814	611.98509
906.993	616.21043
907.171	440.90465
907.35	550.72353
907.528	519.04098
907.707	525.37723
907.885	457.79724
908.063	548.61126
908.242	666.91831
908.42	658.46652
908.598	483.13796
908.777	588.74665
908.955	571.84695
909.133	607.75981
909.311	424.01305
909.49	557.06041
909.668	470.46733
909.846	611.98509
910.024	474.69081
910.202	576.0718
910.38	506.36885
910.559	557.06041
910.737	438.79314
910.915	658.46652
911.093	440.90465
911.271	552.83581
911.449	508.48083
911.627	550.72353
911.805	491.58535
911.983	595.08425
912.161	531.71362
912.339	652.12779
912.517	559.17274
912.695	704.95367
912.872	447.23925
913.05	616.21043
913.228	548.61126
913.406	633.11228
913.584	540.16233
913.762	616.21043
913.939	573.95937
914.117	514.81688
914.295	424.01305
914.473	609.87244
914.65	417.67897
914.828	590.85917
915.006	489.47348
915.184	607.75981
915.361	576.0718
915.539	542.27454
915.716	500.03297
915.894	521.15305
916.072	506.36885
916.249	586.63414
916.427	533.82578
916.604	497.92105
916.782	398.67758
916.959	510.59283
917.137	510.59283
917.314	495.80913
917.492	464.13222
917.669	527.48935
917.847	447.23925
918.024	457.79724
918.201	405.01123
918.379	519.04098
918.556	508.48083
918.733	443.01617
918.911	390.23295
919.088	483.13796
919.265	341.68151
919.442	449.35082
919.62	398.67758
919.797	462.02054
919.974	371.23349
920.151	379.67753
920.328	345.90302
920.506	413.45632
920.683	377.56649
920.86	354.34623
921.037	396.5664
921.214	413.45632
921.391	350.12459
921.568	535.93795
921.745	419.79031
921.922	493.69724
922.099	459.90888
922.276	506.36885
922.453	379.67753
922.63	483.13796
922.807	329.01742
922.984	371.23349
923.161	324.7962
923.338	386.01073
923.514	345.90302
923.691	466.24391
923.868	337.46008
924.045	400.78878
924.222	295.24965
924.399	455.68561
924.575	390.23295
924.752	445.1277
924.929	348.0138
925.105	352.2354
925.282	312.13296
925.459	337.46008
925.635	337.46008
925.812	318.4645
925.989	269.92688
926.165	274.14716
926.342	356.45708
926.518	335.34939
926.695	257.26651
926.871	261.48656
927.048	288.91871
927.224	369.12252
927.401	244.60683
927.577	348.0138
927.754	286.80843
927.93	326.9068
928.107	282.58793
928.283	282.58793
928.459	291.029
928.636	303.69116
928.812	219.28955
928.988	286.80843
929.165	234.05762
929.341	250.93658
929.517	253.04654
929.693	257.26651
929.87	244.60683
930.046	202.41294
930.222	210.85109
930.398	269.92688
930.574	204.52245
930.751	210.85109
930.927	255.15652
931.103	227.72833
931.279	147.57295
931.455	231.94784
931.631	181.31899
931.807	200.30345
931.983	212.96067
932.159	244.60683
932.335	206.63197
932.511	181.31899
932.687	168.6636
932.863	177.10045
933.039	204.52245
933.215	185.53762
933.391	101.18103
933.566	198.19399
933.742	223.5089
933.918	162.33619
934.094	193.97512
934.27	147.57295
934.445	179.20971
934.621	156.00896
934.797	204.52245
934.973	153.89993
935.148	35.82884
935.324	215.07028
935.5	118.04961
935.675	77.98905
935.851	69.55627
936.027	134.91958
936.202	109.61514
936.378	90.63889
936.553	118.04961
936.729	168.6636
936.904	61.12386
937.08	61.12386
937.255	128.59318
937.431	107.50658
937.606	137.02842
937.782	101.18103
937.957	113.83233
938.133	120.15828
938.308	18.96735
938.483	94.85568
938.659	99.07256
938.834	101.18103
939.009	92.74727
939.185	84.31387
939.36	35.82884
939.535	63.23193
939.71	14.75222
939.886	132.81075
940.061	59.01582
940.236	61.12386
940.411	126.48442
940.586	37.93663
940.761	122.26697
940.937	115.94096
941.112	42.15228
941.287	37.93663
941.462	92.74727
941.637	65.34002
941.812	18.96735
941.987	75.88082
942.162	67.44814
942.337	35.82884
942.512	33.72107
942.687	69.55627
942.862	27.39791
943.037	0
943.212	21.07496
943.386	35.82884
943.561	67.44814
943.736	16.85977
943.911	96.96411
944.086	103.28953
944.26	90.63889
944.435	50.58386
944.61	59.01582
944.785	10.53718
944.959	126.48442
945.134	69.55627
945.309	0
945.483	8.4297
945.658	21.07496
945.833	21.07496
946.007	69.55627
946.182	50.58386
946.357	82.20557
946.531	-16.85823
946.706	0
946.88	23.18258
947.055	35.82884
947.229	42.15228
947.404	-16.85823
947.578	59.01582
947.752	61.12386
947.927	25.29023
948.101	23.18258
948.276	67.44814
948.45	189.75633
948.624	10.53718
948.799	50.58386
948.973	42.15228
949.147	65.34002
949.321	46.36803
949.496	90.63889
949.67	65.34002
949.844	-8.42931
950.018	128.59318
950.193	44.26014
950.367	52.69182
950.541	52.69182
950.715	10.53718
950.889	8.4297
951.063	63.23193
951.237	90.63889
951.411	61.12386
951.585	77.98905
951.759	6.32224
951.933	25.29023
952.107	21.07496
952.281	40.04444
952.455	82.20557
952.629	134.91958
952.803	96.96411
952.977	44.26014
953.151	59.01582
953.325	84.31387
953.499	21.07496
953.672	8.4297
953.846	86.42218
954.02	50.58386
954.194	69.55627
954.368	105.39804
954.541	103.28953
954.715	44.26014
954.889	6.32224
955.062	113.83233
955.236	8.4297
955.41	42.15228
955.583	42.15228
955.757	63.23193
955.93	21.07496
956.104	92.74727
956.278	80.0973
956.451	59.01582
956.625	63.23193
956.798	25.29023
956.972	44.26014
957.145	33.72107
957.319	33.72107
957.492	59.01582
957.665	71.66443
957.839	94.85568
958.012	25.29023
958.185	42.15228
958.359	-25.28676
958.532	25.29023
958.705	77.98905
958.879	35.82884
959.052	-12.64382
959.225	88.53052
959.398	61.12386
959.572	27.39791
959.745	80.0973
959.918	80.0973
960.091	42.15228
960.264	82.20557
960.438	90.63889
960.611	46.36803
960.784	84.31387
960.957	35.82884
961.13	59.01582
961.303	50.58386
961.476	10.53718
961.649	77.98905
961.822	69.55627
961.995	84.31387
962.168	18.96735
962.341	109.61514
962.514	-54.78349
962.686	2.10739
962.859	35.82884
963.032	46.36803
963.205	44.26014
963.378	96.96411
963.551	52.69182
963.723	54.79979
963.896	-4.2147
964.069	42.15228
964.242	44.26014
964.414	27.39791
964.587	23.18258
964.76	67.44814
964.932	105.39804
965.105	18.96735
965.278	44.26014
965.45	4.2148
965.623	-46.35635
965.795	33.72107
965.968	84.31387
966.14	21.07496
966.313	0
966.485	33.72107
966.658	52.69182
966.83	-12.64382
967.003	86.42218
967.175	50.58386
967.348	21.07496
967.52	40.04444
967.692	118.04961
967.865	35.82884
968.037	12.64469
968.209	90.63889
968.382	-12.64382
968.554	52.69182
968.726	37.93663
968.898	8.4297
969.071	50.58386
969.243	21.07496
969.415	-16.85823
969.587	59.01582
969.759	-6.32202
969.932	86.42218
970.104	50.58386
970.276	48.47593
970.448	-8.42931
970.62	75.88082
970.792	-10.53658
970.964	82.20557
971.136	31.61332
971.308	44.26014
971.48	52.69182
971.652	40.04444
971.824	65.34002
971.996	88.53052
972.168	80.0973
972.339	109.61514
972.511	61.12386
972.683	54.79979
972.855	-33.71489
973.027	46.36803
973.199	16.85977
973.37	52.69182
973.542	2.10739
973.714	-25.28676
973.886	-8.42931
974.057	128.59318
974.229	40.04444
974.401	61.12386
974.572	8.4297
974.744	37.93663
974.915	23.18258
975.087	-6.32202
975.259	63.23193
975.43	-33.71489
975.602	-18.9654
975.773	54.79979
975.945	50.58386
976.116	-42.14263
976.288	82.20557
976.459	25.29023
976.63	56.90779
976.802	46.36803
976.973	-23.17966
977.145	-16.85823
977.316	-25.28676
977.487	-6.32202
977.659	0
977.83	-4.2147
978.001	10.53718
978.172	16.85977
978.344	63.23193
978.515	80.0973
978.686	-25.28676
978.857	-37.92881
979.028	4.2148
979.2	2.10739
979.371	82.20557
979.542	-8.42931
979.713	21.07496
979.884	52.69182
980.055	-14.75104
980.226	52.69182
980.397	-21.07254
980.568	92.74727
980.739	21.07496
980.91	88.53052
981.081	-4.2147
981.252	0
981.423	103.28953
981.594	27.39791
981.765	21.07496
981.936	10.53718
982.106	88.53052
982.277	52.69182
982.448	-42.14263
982.619	0
982.79	37.93663
982.96	109.61514
983.131	88.53052
983.302	42.15228
983.472	-12.64382
983.643	8.4297
983.814	54.79979
983.984	-31.6079
984.155	-8.42931
984.326	29.5056
984.496	56.90779
984.667	16.85977
984.837	-2.10736
985.008	48.47593
985.178	-73.74306
985.349	77.98905
985.519	4.2148
985.69	-8.42931
985.86	-31.6079
986.031	42.15228
986.201	18.96735
986.371	75.88082
986.542	33.72107
986.712	25.29023
986.882	-8.42931
987.053	50.58386
987.223	65.34002
987.393	-33.71489
987.563	16.85977
987.734	113.83233
987.904	75.88082
988.074	4.2148
988.244	16.85977
988.414	67.44814
988.585	8.4297
988.755	77.98905
988.925	-2.10736
989.095	50.58386
989.265	18.96735
989.435	4.2148
989.605	16.85977
989.775	96.96411
989.945	-69.53
990.115	31.61332
990.285	52.69182
990.455	-16.85823
990.625	126.48442
990.795	-8.42931
990.965	0
991.134	-25.28676
991.304	0
991.474	29.5056
991.644	69.55627
991.814	16.85977
991.984	44.26014
992.153	4.2148
992.323	-46.35635
992.493	101.18103
992.662	18.96735
992.832	42.15228
993.002	67.44814
993.171	27.39791
993.341	10.53718
993.511	29.5056
993.68	6.32224
993.85	46.36803
994.019	-23.17966
994.189	69.55627
994.358	-6.32202
994.528	56.90779
994.697	21.07496
994.867	61.12386
995.036	44.26014
995.206	-42.14263
995.375	-84.27527
995.544	59.01582
995.714	16.85977
995.883	-6.32202
996.052	-40.03573
996.222	75.88082
996.391	63.23193
996.56	25.29023
996.73	69.55627
996.899	-16.85823
997.068	-8.42931
997.237	75.88082
997.406	-16.85823
997.576	25.29023
997.745	84.31387
997.914	80.0973
998.083	63.23193
998.252	67.44814
998.421	-56.89021
998.59	-31.6079
998.759	0
998.928	44.26014
999.097	44.26014
999.266	-16.85823
999.435	8.4297
999.604	-21.07254
999.773	8.4297
999.942	61.12386
1000.111	80.0973
1000.28	-27.39383
1000.448	10.53718
1000.617	50.58386
1000.786	12.64469
1000.955	-29.50088
1001.124	-25.28676
1001.292	8.4297
1001.461	2.10739
1001.63	35.82884
1001.798	4.2148
1001.967	-16.85823
1002.136	33.72107
1002.304	27.39791
1002.473	-25.28676
1002.642	-4.2147
1002.81	37.93663
1002.979	25.29023
1003.147	21.07496
1003.316	6.32224
1003.484	12.64469
1003.653	33.72107
1003.821	-4.2147
1003.99	33.72107
1004.158	44.26014
1004.327	-4.2147
1004.495	21.07496
1004.663	2.10739
1004.832	8.4297
1005	21.07496
1005.168	8.4297
1005.337	69.55627
1005.505	-35.82187
1005.673	37.93663
1005.842	21.07496
1006.01	75.88082
1006.178	33.72107
1006.346	-12.64382
1006.514	31.61332
1006.683	0
1006.851	18.96735
1007.019	16.85977
1007.187	25.29023
1007.355	-12.64382
1007.523	6.32224
1007.691	35.82884
1007.859	8.4297
1008.027	-8.42931
1008.195	12.64469
1008.363	52.69182
1008.531	8.4297
1008.699	8.4297
1008.867	16.85977
1009.035	33.72107
1009.203	-65.31684
1009.37	4.2148
1009.538	10.53718
1009.706	-4.2147
1009.874	-4.2147
1010.042	-6.32202
1010.209	18.96735
1010.377	42.15228
1010.545	42.15228
1010.713	37.93663
1010.88	0
1011.048	8.4297
1011.216	37.93663
1011.383	42.15228
1011.551	-4.2147
1011.718	63.23193
1011.886	0
1012.054	42.15228
1012.221	-21.07254
1012.389	14.75222
1012.556	84.31387
1012.724	18.96735
1012.891	-2.10736
1013.058	44.26014
1013.226	16.85977
1013.393	4.2148
1013.561	42.15228
1013.728	-40.03573
1013.895	-25.28676
1014.063	0
1014.23	48.47593
1014.397	94.85568
1014.565	82.20557
1014.732	-10.53658
1014.899	-4.2147
1015.066	59.01582
1015.233	-31.6079
1015.401	23.18258
1015.568	4.2148
1015.735	63.23193
1015.902	67.44814
1016.069	-16.85823
1016.236	25.29023
1016.403	4.2148
1016.57	33.72107
1016.737	61.12386
1016.904	35.82884
1017.071	10.53718
1017.238	35.82884
1017.405	29.5056
1017.572	-8.42931
1017.739	29.5056
1017.906	40.04444
1018.073	33.72107
1018.24	59.01582
1018.407	25.29023
1018.573	86.42218
1018.74	86.42218
1018.907	2.10739
1019.074	18.96735
1019.241	0
1019.407	46.36803
1019.574	44.26014
1019.741	33.72107
1019.907	61.12386
1020.074	-6.32202
1020.241	16.85977
1020.407	-29.50088
1020.574	-35.82187
1020.74	-84.27527
1020.907	35.82884
1021.073	0
1021.24	42.15228
1021.406	46.36803
1021.573	33.72107
1021.739	29.5056
1021.906	-25.28676
1022.072	-8.42931
1022.239	0
1022.405	33.72107
1022.571	37.93663
1022.738	8.4297
1022.904	96.96411
1023.07	12.64469
1023.237	-33.71489
1023.403	-4.2147
1023.569	-18.9654
1023.735	71.66443
1023.902	18.96735
1024.068	75.88082
1024.234	50.58386
1024.4	61.12386
1024.566	59.01582
1024.732	-10.53658
1024.898	33.72107
1025.065	77.98905
1025.231	21.07496
1025.397	52.69182
1025.563	40.04444
1025.729	16.85977
1025.895	54.79979
1026.061	-58.9969
1026.227	0
1026.392	16.85977
1026.558	-4.2147
1026.724	16.85977
1026.89	-8.42931
1027.056	8.4297
1027.222	67.44814
1027.388	-14.75104
1027.553	-8.42931
1027.719	-58.9969
1027.885	-27.39383
1028.051	-14.75104
1028.216	18.96735
1028.382	69.55627
1028.548	42.15228
1028.713	92.74727
1028.879	27.39791
1029.045	33.72107
1029.21	27.39791
1029.376	44.26014
1029.541	84.31387
1029.707	42.15228
1029.873	33.72107
1030.038	21.07496
1030.204	16.85977
1030.369	21.07496
1030.534	18.96735
1030.7	21.07496
1030.865	-8.42931
1031.031	46.36803
1031.196	33.72107
1031.361	12.64469
1031.527	0
1031.692	8.4297
1031.857	10.53718
1032.023	-21.07254
1032.188	8.4297
1032.353	61.12386
1032.518	16.85977
1032.684	-33.71489
1032.849	-69.53
1033.014	-16.85823
1033.179	107.50658
1033.344	25.29023
1033.509	25.29023
1033.674	-8.42931
1033.839	35.82884
1034.004	29.5056
1034.17	-14.75104
1034.335	33.72107
1034.5	59.01582
1034.664	67.44814
1034.829	0
1034.994	-14.75104
1035.159	12.64469
1035.324	29.5056
1035.489	4.2148
1035.654	42.15228
1035.819	25.29023
1035.984	31.61332
1036.148	27.39791
1036.313	8.4297
1036.478	-16.85823
1036.643	10.53718
1036.807	8.4297
1036.972	-25.28676
1037.137	46.36803
1037.301	18.96735
1037.466	-12.64382
1037.631	61.12386
1037.795	0
1037.96	59.01582
1038.124	-10.53658
1038.289	16.85977
1038.454	80.0973
1038.618	-6.32202
1038.783	-8.42931
1038.947	-14.75104
1039.111	16.85977
1039.276	4.2148
1039.44	18.96735
1039.605	35.82884
1039.769	-25.28676
1039.933	21.07496
1040.098	27.39791
1040.262	-12.64382
1040.426	-37.92881
1040.591	-27.39383
1040.755	25.29023
1040.919	50.58386
1041.083	61.12386
1041.248	37.93663
1041.412	14.75222
1041.576	42.15228
1041.74	4.2148
1041.904	-6.32202
1042.068	27.39791
1042.232	63.23193
1042.397	25.29023
1042.561	0
1042.725	-99.01926
1042.889	-4.2147
1043.053	4.2148
1043.217	25.29023
1043.381	6.32224
1043.544	6.32224
1043.708	-25.28676
1043.872	69.55627
1044.036	14.75222
1044.2	-48.46317
1044.364	33.72107
1044.528	33.72107
1044.691	2.10739
1044.855	-52.67674
1045.019	8.4297
1045.183	33.72107
1045.346	2.10739
1045.51	0
1045.674	-6.32202
1045.837	54.79979
1046.001	8.4297
1046.165	33.72107
1046.328	-96.91306
1046.492	-52.67674
1046.655	-12.64382
1046.819	16.85977
1046.983	75.88082
1047.146	42.15228
1047.31	-8.42931
1047.473	96.96411
1047.636	59.01582
1047.8	8.4297
1047.963	42.15228
1048.127	-58.9969
1048.29	16.85977
