Data from mixed_try1_USB4F045381__40__00062.txt Node

Date: Thu Apr 03 19:38:59 EDT 2025
User: mmckonesweet
Spectrometer: USB4F04538
Trigger mode: 4
Integration Time (sec): 2.700000E-3
Scans to average: 1
Electric dark correction enabled: true
Nonlinearity correction enabled: true
Boxcar width: 0
XAxis mode: Wavelengths
Number of Pixels in Spectrum: 3648
>>>>>Begin Spectral Data<<<<<
345.52	29.68125
345.736	29.68125
345.952	29.68125
346.168	-29.32529
346.384	-44.07393
346.6	97.13981
346.816	2.283
347.032	-39.86016
347.248	65.5157
347.464	23.35822
347.68	-14.57544
347.896	-6.14641
348.112	-20.89695
348.328	-39.86016
348.544	-46.18078
348.76	-31.43231
348.975	10.7128
349.191	-1.93175
349.407	-25.11117
349.623	-46.18078
349.839	-14.57544
350.055	36.00449
350.27	-1.93175
350.486	-31.43231
350.702	-14.57544
350.918	0.17561
351.133	-39.86016
351.349	27.57355
351.565	-23.00407
351.781	78.16474
351.996	-69.35446
352.212	2.283
352.428	19.14299
352.644	2.283
352.859	2.283
353.075	21.25059
353.291	57.08346
353.506	-56.71465
353.722	44.4358
353.938	38.11228
354.153	-10.36097
354.369	-4.03909
354.584	-6.14641
354.8	27.57355
355.016	40.22009
355.231	-4.03909
355.447	-46.18078
355.662	44.4358
355.878	29.68125
356.093	-39.86016
356.309	29.68125
356.524	97.13981
356.74	36.00449
356.955	-33.53931
357.171	-73.56752
357.386	-37.75323
357.602	40.22009
357.817	27.57355
358.033	36.00449
358.248	-39.86016
358.464	65.5157
358.679	14.92785
358.895	52.86748
359.11	19.14299
359.325	52.86748
359.541	-12.46822
359.756	12.82031
359.972	31.78897
360.187	36.00449
360.402	-29.32529
360.618	19.14299
360.833	36.00449
361.048	21.25059
361.264	-27.21824
361.479	-20.89695
361.694	27.57355
361.909	29.68125
362.125	29.68125
362.34	10.7128
362.555	10.7128
362.77	54.97546
362.986	38.11228
363.201	21.25059
363.416	-10.36097
363.631	2.283
363.847	-27.21824
364.062	78.16474
364.277	-23.00407
364.492	36.00449
364.707	-20.89695
364.922	-31.43231
365.138	40.22009
365.353	2.283
365.568	27.57355
365.783	10.7128
365.998	10.7128
366.213	-60.92802
366.428	-46.18078
366.643	-67.24789
366.858	46.54368
367.073	73.9483
367.288	40.22009
367.503	-31.43231
367.718	31.78897
367.933	19.14299
368.148	52.86748
368.363	0.17561
368.578	-12.46822
368.793	23.35822
369.008	50.75953
369.223	-6.14641
369.438	19.14299
369.653	52.86748
369.868	-18.7898
370.083	-6.14641
370.298	-8.2537
370.513	-65.14129
370.728	61.29953
370.943	-1.93175
371.157	44.4358
371.372	36.00449
371.587	27.57355
371.802	21.25059
372.017	52.86748
372.232	36.00449
372.446	-4.03909
372.661	27.57355
372.876	78.16474
373.091	80.27299
373.306	-18.7898
373.52	52.86748
373.735	54.97546
373.95	44.4358
374.165	-65.14129
374.379	40.22009
374.594	19.14299
374.809	-10.36097
375.023	52.86748
375.238	-20.89695
375.453	21.25059
375.667	27.57355
375.882	-12.46822
376.097	8.60532
376.311	44.4358
376.526	-6.14641
376.741	-35.64629
376.955	-18.7898
377.17	14.92785
377.384	-4.03909
377.599	48.65159
377.813	27.57355
378.028	27.57355
378.242	40.22009
378.457	-60.92802
378.672	-20.89695
378.886	57.08346
379.101	-31.43231
379.315	6.49786
379.53	-29.32529
379.744	95.03138
379.958	-56.71465
380.173	-4.03909
380.387	-56.71465
380.602	2.283
380.816	-10.36097
381.031	44.4358
381.245	48.65159
381.459	-12.46822
381.674	61.29953
381.888	-1.93175
382.103	27.57355
382.317	-71.461
382.531	12.82031
382.746	17.0354
382.96	-48.28761
383.174	105.57375
383.388	-31.43231
383.603	10.7128
383.817	71.84011
384.031	4.39042
384.246	10.7128
384.46	36.00449
384.674	12.82031
384.888	29.68125
385.103	14.92785
385.317	31.78897
385.531	21.25059
385.745	-31.43231
385.959	6.49786
386.174	44.4358
386.388	10.7128
386.602	21.25059
386.816	31.78897
387.03	-10.36097
387.244	40.22009
387.458	-27.21824
387.672	36.00449
387.887	-16.68263
388.101	-4.03909
388.315	27.57355
388.529	-56.71465
388.743	36.00449
388.957	27.57355
389.171	14.92785
389.385	36.00449
389.599	44.4358
389.813	80.27299
390.027	44.4358
390.241	40.22009
390.455	-1.93175
390.669	12.82031
390.883	67.62381
391.097	48.65159
391.311	-37.75323
391.525	50.75953
391.738	10.7128
391.952	29.68125
392.166	-6.14641
392.38	-6.14641
392.594	50.75953
392.808	23.35822
393.022	-58.82135
393.236	52.86748
393.449	-8.2537
393.663	54.97546
393.877	-60.92802
394.091	-6.14641
394.305	4.39042
394.518	59.19149
394.732	-23.00407
394.946	31.78897
395.16	82.38126
395.373	42.32793
395.587	65.5157
395.801	23.35822
396.015	19.14299
396.228	-6.14641
396.442	48.65159
396.656	-6.14641
396.869	-12.46822
397.083	46.54368
397.297	80.27299
397.51	67.62381
397.724	-10.36097
397.938	-29.32529
398.151	-48.28761
398.365	12.82031
398.578	-23.00407
398.792	40.22009
399.005	46.54368
399.219	46.54368
399.433	-8.2537
399.646	19.14299
399.86	73.9483
400.073	44.4358
400.287	27.57355
400.5	29.68125
400.714	14.92785
400.927	38.11228
401.141	80.27299
401.354	10.7128
401.567	107.68229
401.781	21.25059
401.994	14.92785
402.208	76.05651
402.421	-6.14641
402.635	-31.43231
402.848	17.0354
403.061	52.86748
403.275	4.39042
403.488	2.283
403.701	4.39042
403.915	6.49786
404.128	95.03138
404.341	38.11228
404.555	67.62381
404.768	-48.28761
404.981	42.32793
405.195	10.7128
405.408	44.4358
405.621	52.86748
405.834	54.97546
406.048	8.60532
406.261	-6.14641
406.474	101.35674
406.687	36.00449
406.9	21.25059
407.114	23.35822
407.327	-6.14641
407.54	8.60532
407.753	2.283
407.966	67.62381
408.179	-14.57544
408.392	-23.00407
408.605	-12.46822
408.819	10.7128
409.032	-4.03909
409.245	105.57375
409.458	80.27299
409.671	82.38126
409.884	36.00449
410.097	25.46587
410.31	-20.89695
410.523	4.39042
410.736	14.92785
410.949	82.38126
411.162	-54.60793
411.375	10.7128
411.588	21.25059
411.801	52.86748
412.014	65.5157
412.227	48.65159
412.44	61.29953
412.653	10.7128
412.865	52.86748
413.078	17.0354
413.291	61.29953
413.504	101.35674
413.717	6.49786
413.93	-10.36097
414.143	23.35822
414.356	80.27299
414.568	63.4076
414.781	17.0354
414.994	61.29953
415.207	-6.14641
415.42	31.78897
415.632	48.65159
415.845	54.97546
416.058	29.68125
416.271	86.59788
416.483	63.4076
416.696	42.32793
416.909	78.16474
417.121	88.70622
417.334	0.17561
417.547	69.73195
417.759	-18.7898
417.972	50.75953
418.185	54.97546
418.397	2.283
418.61	-23.00407
418.823	44.4358
419.035	17.0354
419.248	36.00449
419.46	-6.14641
419.673	19.14299
419.885	95.03138
420.098	59.19149
420.311	-18.7898
420.523	57.08346
420.736	12.82031
420.948	44.4358
421.161	76.05651
421.373	76.05651
421.586	25.46587
421.798	86.59788
422.01	23.35822
422.223	12.82031
422.435	-18.7898
422.648	-12.46822
422.86	111.89944
423.073	67.62381
423.285	88.70622
423.497	95.03138
423.71	54.97546
423.922	73.9483
424.134	61.29953
424.347	54.97546
424.559	54.97546
424.771	118.22533
424.984	65.5157
425.196	-18.7898
425.408	44.4358
425.621	128.76891
425.833	73.9483
426.045	29.68125
426.257	10.7128
426.47	107.68229
426.682	54.97546
426.894	31.78897
427.106	97.13981
427.318	126.66015
427.531	86.59788
427.743	111.89944
427.955	61.29953
428.167	109.79086
428.379	139.31302
428.591	73.9483
428.804	57.08346
429.016	78.16474
429.228	92.92297
429.44	65.5157
429.652	114.00805
429.864	130.87769
430.076	71.84011
430.288	118.22533
430.5	61.29953
430.712	52.86748
430.924	76.05651
431.136	120.334
431.348	105.57375
431.56	130.87769
431.772	78.16474
431.984	118.22533
432.196	170.94855
432.408	69.73195
432.62	124.55141
432.832	69.73195
433.044	65.5157
433.256	111.89944
433.468	86.59788
433.679	145.63975
433.891	73.9483
434.103	149.85767
434.315	99.24826
434.527	86.59788
434.739	88.70622
434.95	185.7134
435.162	126.66015
435.374	145.63975
435.586	111.89944
435.798	189.93211
436.009	101.35674
436.221	78.16474
436.433	111.89944
436.645	221.57502
436.856	128.76891
437.068	95.03138
437.28	95.03138
437.491	147.7487
437.703	244.78265
437.915	173.05775
438.126	175.16697
438.338	200.47924
438.55	116.11668
438.761	99.24826
438.973	122.44269
439.184	154.07568
439.396	54.97546
439.608	120.334
439.819	194.1509
440.031	198.36978
440.242	145.63975
440.454	200.47924
440.665	156.18471
440.877	162.51195
441.088	187.82274
441.3	194.1509
441.511	103.46523
441.723	181.49477
441.934	137.20416
442.146	221.57502
442.357	137.20416
442.569	99.24826
442.78	230.01389
442.991	143.53082
443.203	122.44269
443.414	166.73021
443.626	261.6624
443.837	291.20486
444.048	255.33235
444.26	181.49477
444.471	187.82274
444.682	265.88252
444.894	175.16697
445.105	240.56291
445.316	162.51195
445.528	173.05775
445.739	149.85767
445.95	282.76378
446.161	234.23344
446.373	312.30883
446.584	276.43317
446.795	246.89255
447.006	236.34324
447.217	255.33235
447.429	255.33235
447.64	259.55236
447.851	189.93211
448.062	255.33235
448.273	179.38548
448.484	324.97208
448.695	263.77245
448.907	249.00247
449.118	392.52001
449.329	246.89255
449.54	333.4146
449.751	240.56291
449.962	263.77245
450.173	318.64038
450.384	318.64038
450.595	310.19835
450.806	381.9645
451.017	405.18717
451.228	331.30395
451.439	367.18749
451.65	390.40887
451.861	272.21286
452.072	331.30395
452.283	384.07557
452.494	411.52097
452.705	407.29842
452.915	371.40941
453.126	411.52097
453.337	409.40968
453.548	434.74613
453.759	472.75504
453.97	411.52097
454.181	460.08485
454.391	398.85351
454.602	521.32906
454.813	411.52097
455.024	474.86679
455.235	527.66536
455.445	474.86679
455.656	500.20897
455.867	536.11396
456.078	542.45056
456.288	432.63468
456.499	479.09034
456.71	534.00179
456.921	521.32906
457.131	559.34876
457.342	624.83732
457.553	548.78728
457.763	502.32091
457.974	696.67715
458.184	553.01184
458.395	620.61188
458.606	635.40113
458.816	730.48869
459.027	711.46935
459.237	660.75553
459.448	728.37539
459.659	637.51393
459.869	669.20737
460.08	730.48869
460.29	770.64342
460.501	956.66654
460.711	863.64677
460.922	796.00618
461.132	829.82532
461.343	863.64677
461.553	859.41896
461.764	931.29604
461.974	872.10247
462.184	891.1283
462.395	994.72417
462.605	1053.929
462.816	948.20959
463.026	998.95292
463.236	935.52439
463.447	1136.4
463.657	1034.89837
463.867	1185.03996
464.078	1102.56484
464.288	1231.56694
464.498	1328.85495
464.709	1216.76273
464.919	1242.14147
465.129	1229.45205
465.339	1333.08496
465.55	1305.59001
465.76	1311.93497
465.97	1375.3854
466.18	1421.91635
466.391	1660.91294
466.601	1328.85495
466.811	1629.18883
467.021	1591.11924
467.231	1637.64864
467.441	1440.9518
467.651	1734.93341
467.862	1658.79801
468.072	1827.98152
468.282	1798.37617
468.492	1808.94961
468.702	1999.25
468.912	2073.2425
469.122	1878.73143
469.332	2214.85977
469.542	2157.79445
469.752	2151.45348
469.962	2126.08891
470.172	2345.87412
470.382	2269.8056
470.592	2383.90361
470.802	2424.04226
471.012	2635.2321
471.222	2666.90029
471.432	2677.45572
471.642	2586.6688
471.852	2683.78883
472.062	2702.78745
472.272	2833.63766
472.482	2848.40777
472.691	3042.46304
472.901	2998.17893
473.111	3029.81112
473.321	3038.24579
473.531	3366.99668
473.741	3316.44611
473.95	3436.48725
474.16	3249.02998
474.37	3482.80351
474.58	3423.85403
474.79	3806.76551
474.999	3735.28034
475.209	3585.93078
475.419	3754.20508
475.628	4195.32141
475.838	3855.11024
476.048	3955.96958
476.258	4008.48201
476.467	4356.83387
476.677	4377.80014
476.886	4432.30227
477.096	4457.45211
477.306	4802.93794
477.515	4434.39821
477.725	4350.54356
477.935	4614.56661
478.144	4888.69066
478.354	4738.07513
478.563	4947.2314
478.773	4859.41356
478.982	4997.39483
479.192	5103.94796
479.401	5210.44074
479.611	5510.79798
479.82	5577.47786
480.03	5533.72191
480.239	5629.55473
480.449	5527.47021
480.658	5798.18248
480.868	5856.43754
481.077	6155.74304
481.287	5650.38134
481.496	6213.88468
481.705	6188.96909
481.915	6176.51002
482.124	6228.41722
482.333	6284.46054
482.543	6350.86017
482.752	6487.73399
482.961	6636.93562
483.171	6947.39005
483.38	6479.44149
483.589	6713.56217
483.799	6806.71433
484.008	7164.40515
484.217	6879.13406
484.426	7129.2861
484.636	6951.52599
484.845	7244.94815
485.054	7521.43141
485.263	7434.8145
485.472	7383.23868
485.682	7525.55508
485.891	7535.86386
486.1	7632.74033
486.309	7706.9118
486.518	7723.39063
486.727	8021.83854
486.936	8030.06546
487.146	8009.49755
487.355	8028.00876
487.564	8083.53255
487.773	8621.57223
487.982	8136.98601
488.191	8434.84644
488.4	8668.742
488.609	8642.08204
488.818	8808.14339
489.027	8845.02965
489.236	8801.99511
489.445	9152.19155
489.654	8961.7978
489.863	9227.89824
490.072	8935.17156
490.281	9223.80658
490.49	9448.7492
490.698	9597.92088
490.907	9336.30286
491.116	9450.79323
491.325	9438.52884
491.534	9653.07267
491.743	9555.01715
491.952	9702.087
492.16	9761.30085
492.369	9998.03048
492.578	9965.38986
492.787	10120.40025
492.996	9991.91065
493.204	10326.2764
493.413	10246.79614
493.622	10499.43303
493.831	10501.46961
494.039	10312.01222
494.248	10254.9489
494.457	10468.88278
494.665	10525.90759
494.874	11038.7019
495.083	10593.10267
495.291	10739.66344
495.5	10786.46828
495.709	10920.74345
495.917	10859.71553
496.126	11201.34287
496.335	11164.75461
496.543	11083.43503
496.752	11111.89883
496.96	11174.91836
497.169	11372.04392
497.377	11394.39237
497.586	11272.47705
497.794	11329.37536
498.003	11191.17981
498.211	11727.45098
498.42	11510.1791
498.628	11743.69146
498.837	11843.15238
499.045	11761.96134
499.254	11548.76777
499.462	11899.97805
499.671	12131.27441
499.879	12165.75735
500.087	12427.35409
500.296	12309.75143
500.504	12145.47353
500.713	12137.35979
500.921	12465.87417
501.129	12283.38903
501.338	12496.28308
501.546	12490.20142
501.754	12346.25128
501.962	12644.25277
502.171	12721.26522
502.379	12828.66338
502.587	12471.95607
502.795	12848.92543
503.004	12581.42038
503.212	12915.78634
503.42	12792.19031
503.628	13055.56815
503.837	13075.82441
504.045	13096.08019
504.253	13154.81928
504.461	13490.97935
504.669	13250.00895
504.877	13515.27581
505.085	13598.28481
505.294	13541.59639
505.502	13280.38658
505.71	13778.45558
505.918	13654.97052
506.126	14041.58461
506.334	13480.85566
506.542	13962.65058
506.75	13373.53872
506.958	13984.91441
507.166	13683.3124
507.374	13879.66446
507.582	13818.94
507.79	14138.72927
507.998	13899.90539
508.206	14258.12954
508.414	13689.38558
508.622	14243.96376
508.83	14318.83898
509.037	14302.64996
509.245	14223.72678
509.453	14407.87672
509.661	14519.16975
509.869	14628.43546
510.077	14689.13725
510.285	14695.20738
510.492	14654.73968
510.7	14622.36523
510.908	14735.67471
511.116	14792.32842
511.324	14345.14592
511.531	15035.1247
511.739	14784.23507
511.947	14687.11387
512.155	14816.6084
512.362	15089.75314
512.57	14620.34182
512.778	14733.65135
512.985	15109.98586
513.193	14972.40294
513.401	15089.75314
513.608	15093.79968
513.816	15138.31166
514.024	15322.42957
514.231	15312.31317
514.439	15221.26576
514.646	15544.99313
514.854	15407.40771
515.061	15312.31317
515.269	15567.24986
515.477	15579.38993
515.684	15737.21354
515.892	15534.87646
516.099	15943.60763
516.307	15672.46475
516.514	16032.64442
516.722	16032.64442
516.929	15978.00789
517.136	15947.6547
517.344	15838.38561
517.551	16103.47114
517.759	16182.39459
517.966	16376.67888
518.173	16285.60605
518.381	16433.34839
518.588	16405.01344
518.796	16526.45175
519.003	16441.44416
519.21	16603.36661
519.418	16560.86064
519.625	16437.39627
519.832	16824.00915
520.039	16479.89952
520.247	16755.18184
520.454	16745.06041
520.661	16904.98615
520.868	16785.54648
521.076	17149.96731
521.283	16896.88827
521.49	16874.6193
521.697	17016.3363
521.904	17334.23654
522.112	17073.02677
522.319	17407.14108
522.526	17064.928
522.733	17374.73858
522.94	17504.35337
523.147	17182.36455
523.354	17285.63569
523.561	17627.90457
523.768	17356.51251
523.975	17658.28786
524.183	17469.92319
524.39	17490.17613
524.597	17581.31828
524.804	17822.37062
525.011	17919.6154
525.218	17670.44139
525.425	17897.32944
525.632	17725.13373
525.838	18047.26144
526.045	17956.08427
526.252	18069.55029
526.459	18276.24969
526.666	18004.7112
526.873	18193.16005
527.08	18314.75676
527.287	18616.78073
527.494	17905.43338
527.701	18937.14225
527.907	18203.2926
528.114	18272.19639
528.321	18527.58359
528.528	18525.55647
528.735	19081.13469
528.941	18914.83538
529.148	18683.68353
529.355	18900.64036
529.562	18772.89393
529.768	18904.69606
529.975	18535.69211
530.182	19434.10465
530.388	18728.28778
530.595	19099.38871
530.802	19320.49151
531.008	19533.52681
531.215	19415.84452
531.422	19470.62591
531.628	19712.10603
531.835	19206.89133
532.042	19283.97576
532.248	19732.40118
532.455	19505.11946
532.661	19809.52655
532.868	19716.16503
533.074	19935.37569
533.281	19923.19604
533.487	19728.34212
533.694	19614.69517
533.9	20357.69735
534.107	20079.51311
534.313	20132.30114
534.52	20209.45797
534.726	20170.8788
534.933	20333.3277
535.139	20617.67787
535.345	20217.5801
535.552	20442.9959
535.758	20536.4266
535.965	20536.4266
536.171	20408.46941
536.377	20853.34422
536.584	20700.96735
536.79	20640.02314
536.996	20749.72541
537.203	20830.99415
537.409	20810.67635
537.615	20981.35876
537.821	20837.08958
538.028	21192.71994
538.234	21062.64629
538.44	20944.78151
538.646	20633.92893
538.853	21235.40399
539.059	21017.93734
539.265	21292.31882
539.471	21391.92737
539.677	21422.42171
539.883	21420.38872
540.09	21339.07265
540.296	21479.34687
540.502	21861.63871
540.708	21804.6929
540.914	21904.35005
541.12	21456.98304
541.326	21806.72662
541.532	21814.86157
541.738	21731.48131
541.944	21810.79409
542.15	22331.55512
542.356	21725.38057
542.562	22439.39934
542.768	21696.91092
542.974	22097.58901
543.18	21707.07856
543.386	21829.09787
543.592	22364.11079
543.798	22459.74845
544.004	22398.70221
544.21	22545.21862
544.415	22398.70221
544.621	22917.6968
544.827	22756.88595
545.033	22746.70877
545.239	22632.73031
545.445	23345.27007
545.651	22734.49627
545.856	23029.66622
546.062	23196.62112
546.268	22964.51914
546.474	22940.08987
546.679	22362.07604
546.885	22756.88595
547.091	22771.13415
547.297	22942.12562
547.502	23127.39324
547.708	23139.60965
547.914	23155.89838
548.119	23225.12781
548.325	23223.09159
548.531	22931.94689
548.736	23237.34515
548.942	23282.14309
549.147	22929.91115
549.353	23196.62112
549.559	23746.50177
549.764	23713.91003
549.97	23192.54878
550.175	23514.3024
550.381	23825.9473
550.586	23534.66919
550.792	23866.69032
550.997	23726.13184
551.203	23656.87632
551.408	24054.12301
551.614	24329.20265
551.819	24168.2241
552.025	24408.6792
552.23	23933.91884
552.435	24155.99857
552.641	24651.20874
552.846	24302.71136
553.052	24901.92729
553.257	24897.85028
553.462	24618.59765
553.668	24765.35251
553.873	24109.13495
554.078	24793.88964
554.283	24649.17053
554.489	24981.4309
554.694	24730.70091
554.899	24659.36161
555.105	24895.81177
555.31	24828.5425
555.515	24881.54232
555.72	25515.61949
555.925	24908.04283
556.131	25370.84397
556.336	24802.04319
556.541	25030.35793
556.746	25285.20706
556.951	25069.09276
557.156	25323.9471
557.361	25091.51857
557.567	25256.66226
557.772	25703.23106
557.977	25236.27337
558.182	25501.34539
558.387	25756.25472
558.592	25605.34468
558.797	25423.85915
559.002	25646.13012
559.207	25507.46285
559.412	25489.11052
559.617	25964.28291
559.822	25992.83729
560.027	25682.8377
560.232	26007.11461
560.437	25595.14844
560.642	25817.43747
560.847	25815.39802
561.051	25625.7373
561.256	25925.5311
561.461	25888.81947
561.666	25968.36208
561.871	26135.61442
562.076	25966.32249
562.281	26119.2966
562.485	25407.54664
562.69	25876.5824
562.895	25829.67422
563.1	26343.67622
563.305	26066.26445
563.509	26398.7543
563.714	26400.79425
563.919	26719.04604
564.123	26170.29016
564.328	26837.37985
564.533	26357.9556
564.737	26172.32992
564.942	26559.91541
565.147	26757.81002
565.351	26757.81002
565.556	26792.49403
565.761	26266.16095
565.965	26916.9519
566.17	26559.91541
566.374	26492.59374
566.579	27192.41005
566.784	26786.37329
566.988	26627.23877
567.193	26890.42764
567.397	26529.31444
567.602	26543.59485
567.806	26588.47663
568.011	26782.29281
568.215	26863.90363
568.42	26488.51369
568.624	26535.43461
568.828	27108.74975
569.033	26778.21233
569.237	27182.20745
569.442	27480.1367
569.646	27010.80889
569.85	27343.41233
570.055	27696.45828
570.259	28074.03253
570.463	27861.76971
570.668	27782.17435
570.872	27616.86667
571.076	27633.19301
571.281	27335.24986
571.485	27480.1367
571.689	27598.49964
571.893	28282.22513
572.098	27982.18653
572.302	27588.29577
572.506	27706.66247
572.71	28071.99148
572.914	27947.48975
573.119	28055.66315
573.323	27804.62414
573.527	27635.2338
573.731	27986.26853
573.935	27896.46567
574.139	28425.10897
574.343	27780.13347
574.547	28421.0265
574.751	28474.09892
574.955	28263.85474
575.159	28935.45074
575.364	28396.53178
575.568	28665.98212
575.772	28180.1685
575.976	27894.42472
576.18	28196.49738
576.383	28759.88579
576.587	28757.84438
576.791	28200.57961
576.995	28118.93584
577.199	27880.13812
577.403	28155.67532
577.607	28668.02348
577.811	29123.27291
578.015	28516.96563
578.219	28961.9903
578.422	28435.31516
578.626	29194.7293
578.83	28915.03582
579.034	28700.68539
579.238	28908.91136
579.442	28633.32049
579.645	28570.03935
579.849	28523.08949
580.053	28937.49224
580.257	28931.36775
580.46	29166.14659
580.664	28831.33571
580.868	28772.13426
581.071	29231.4788
581.275	29174.31306
581.479	29490.77656
581.682	29337.64592
581.886	29454.02467
582.09	29170.22983
582.293	29437.6906
582.497	29419.31486
582.7	29194.7293
582.904	29498.9437
583.107	29494.86013
583.311	29370.31329
583.515	29598.99248
583.718	29264.14531
583.922	29635.74574
584.125	29766.42682
584.329	29476.48412
584.532	30201.38262
584.735	29825.64316
584.939	29803.18168
585.142	30136.03384
585.346	29351.93786
585.549	29811.34948
585.753	29821.55925
585.956	29852.18872
586.159	30311.66144
586.363	30099.27568
586.566	29884.86043
586.769	30183.00316
586.973	30052.30745
587.176	30136.03384
587.379	30097.23357
587.582	30705.83554
587.786	30093.14935
587.989	30769.15296
588.192	30507.72143
588.395	30583.28929
588.599	30499.55203
588.802	30613.92541
589.005	30423.98608
589.208	30795.70581
589.411	30993.8383
589.615	30912.13259
589.818	31377.88687
590.021	31435.09029
590.224	30955.02781
590.427	31179.72745
590.63	30959.1131
590.833	31194.02713
591.036	31051.03367
591.239	31102.10193
591.442	31004.05168
591.645	30697.66564
591.848	30991.79563
592.051	31504.55333
592.254	31112.31569
592.457	31245.09801
592.66	31381.97278
592.863	31643.48522
593.066	31623.05356
593.269	31371.758
593.472	31347.24269
593.675	31980.63361
593.878	31594.44953
594.081	31437.1333
594.284	31882.54888
594.486	32066.4614
594.689	32097.11503
594.892	31661.87386
595.095	32013.3295
595.298	31778.33859
595.5	32268.78383
595.703	32675.53661
595.906	32048.06944
596.109	32328.05387
596.311	32095.07144
596.514	32080.76637
596.717	32407.76473
596.92	32501.787
597.122	32522.22726
597.325	32565.15255
597.528	31849.85494
597.73	32381.19407
597.933	32462.95114
598.136	32168.64193
598.338	32565.15255
598.541	32409.80864
598.743	32677.58083
598.946	32579.46121
599.148	32597.85822
599.351	32217.69039
599.554	32358.7115
599.756	32601.94647
599.959	32671.44819
600.161	32777.75033
600.363	32947.4389
600.566	33023.08896
600.768	32957.66167
600.971	33200.98341
601.173	33188.71415
601.376	33053.75894
601.578	33082.38481
601.78	33323.68161
601.983	32841.12594
602.185	32986.28578
602.388	33047.6249
602.59	33344.13233
602.792	33644.79276
602.995	32830.9039
603.197	32871.79243
603.399	33544.5652
603.601	33104.87693
603.804	33266.42116
604.006	33661.15717
604.208	33012.86577
604.41	32877.9258
604.613	32949.48345
604.815	33035.35688
605.017	34117.40176
605.219	33538.42906
605.421	33685.70418
605.623	34070.3371
605.826	33802.30889
606.028	33248.0165
606.23	33057.84832
606.432	33528.20223
606.634	33595.70076
606.836	33227.56714
607.038	33225.52222
607.24	33176.445
607.442	33186.66929
607.644	33372.76383
607.846	33732.75391
608.048	33763.43946
608.25	33679.56738
608.452	33581.3826
608.654	34395.73759
608.856	33830.9503
609.058	33573.20087
609.26	33710.25165
609.462	33540.47444
609.664	33994.62838
609.866	33667.29388
610.067	33702.06911
610.269	33603.88263
610.471	33000.59802
610.673	33763.43946
610.875	33673.43062
611.077	34295.4467
611.278	33626.38305
611.48	33990.53616
611.682	33677.52179
611.884	34277.02693
612.085	33796.17153
612.287	34160.37554
612.489	34051.92101
612.69	34072.38335
612.892	33841.17953
613.094	34111.26278
613.295	33751.16515
613.497	33636.61063
613.699	33933.2465
613.9	34092.84605
614.102	34084.66092
614.304	34082.61465
614.505	33610.01907
614.707	34111.26278
614.908	33857.54649
615.11	33636.61063
615.311	34088.75348
615.513	34006.90514
615.714	33945.52262
615.916	33884.14325
616.117	33800.2631
616.319	33826.85863
616.52	33667.29388
616.722	33802.30889
616.923	34244.28144
617.124	33702.06911
617.326	33466.84287
617.527	34060.1059
617.729	34094.89234
617.93	33616.15554
618.131	33765.48519
618.333	33787.98843
618.534	33847.31712
618.735	34281.12019
618.937	33865.73005
619.138	33857.54649
619.339	34141.95801
619.54	34029.41286
619.742	34109.21647
619.943	34215.62994
620.144	34051.92101
620.345	34332.28716
620.546	34056.01345
620.748	34397.78444
620.949	33763.43946
621.15	34387.55022
621.351	34264.74726
621.552	34234.04868
621.753	33892.32699
621.954	34614.77339
622.155	33916.87853
622.356	34403.92501
622.558	34182.88626
622.759	34338.42736
622.96	34098.98493
623.161	34428.48767
623.362	33929.15449
623.563	34264.74726
623.764	34158.32913
623.965	34756.04593
624.166	34880.95617
624.366	34184.93271
624.567	33898.46483
624.768	33783.8969
624.969	33712.29729
625.17	34270.88708
625.371	34285.21346
625.572	34150.14354
625.773	34645.4831
625.973	34463.28575
626.174	34367.08209
626.375	34436.67535
626.576	34299.54002
626.777	34315.91347
626.977	34017.13587
627.178	34573.82857
627.379	34215.62994
627.58	34268.84047
627.78	34285.21346
627.981	34299.54002
628.182	34977.20976
628.382	34250.42115
628.583	34582.0174
628.784	34387.55022
628.984	34000.76674
629.185	34858.43016
629.386	34013.04357
629.586	34715.09528
629.787	34307.72671
629.987	34647.53044
630.188	34193.11856
630.388	34256.56089
630.589	33998.72062
630.79	34403.92501
630.99	34326.147
631.191	34101.03123
631.391	35200.47538
631.591	34870.71701
631.792	34387.55022
631.992	34741.71301
632.193	34610.67883
632.393	34942.39348
632.594	34915.77015
632.794	34348.66111
632.994	34745.80811
633.195	34848.19124
633.395	35171.79593
633.595	34348.66111
633.796	34545.16818
633.996	34258.60747
634.196	34303.63336
634.397	34954.68143
634.597	34635.24642
634.797	34903.48271
634.997	34766.28386
635.198	34844.09571
635.398	34463.28575
635.598	34794.95065
635.798	34846.14347
635.998	34895.29118
636.199	35108.29474
636.399	35100.10137
636.599	35087.81146
636.799	35223.0099
636.999	34346.61435
637.199	34371.17569
637.399	34796.99831
637.599	35044.79809
637.799	34825.66601
637.999	35298.81215
638.199	35046.8463
638.399	35397.16025
638.599	34598.39526
638.799	35093.9564
638.999	35239.39901
639.199	35436.0929
639.399	35225.05853
639.599	35362.32732
639.799	34803.14132
639.999	35075.52171
640.199	34958.77745
640.399	35157.45655
640.599	34317.96017
640.799	35821.4227
640.998	36213.10176
641.198	36243.87094
641.398	35454.53532
641.598	35659.47931
641.798	35552.90192
641.997	35565.19859
642.197	34932.15365
642.397	35839.87412
642.597	36198.74327
642.796	35249.64236
642.996	34711.00031
643.196	35444.28948
643.395	35542.65484
643.595	35854.22553
643.795	35204.57253
643.994	35647.18119
644.194	35380.7681
644.394	35585.69345
644.593	35530.35852
644.793	35860.37622
644.992	35690.22545
645.192	35085.76316
645.392	35263.98326
645.591	35544.70425
645.791	36116.70035
645.99	35626.68474
646.19	35454.53532
646.389	35587.74296
646.589	35882.92918
646.788	35479.12586
646.987	35419.69998
647.187	35930.08755
647.386	35378.71911
647.586	35477.07662
647.785	35464.78129
647.984	35475.02739
648.184	35643.08186
648.383	36174.12939
648.582	35973.14782
648.782	36695.31296
648.981	36124.90422
649.18	36229.51182
649.38	36258.23036
649.579	36305.4134
649.778	36227.46054
649.977	36387.47859
650.177	35805.02182
650.376	35380.7681
650.575	34987.4501
650.774	35755.82129
650.973	35229.15578
651.173	35489.37213
651.372	35942.39023
651.571	35846.02469
651.77	35694.32503
651.969	35870.62748
652.168	35046.8463
652.367	35395.11122
652.566	35425.84729
652.765	35850.1251
652.964	35952.64262
653.163	36061.32672
653.362	36034.66685
653.561	35747.6215
653.76	36149.51638
653.959	35878.82859
654.158	36256.179
654.357	35641.0322
654.556	35591.84201
654.755	35483.22435
654.954	35753.77133
655.153	35655.37991
655.352	35997.75481
655.551	36225.40927
655.749	36637.83953
655.948	36613.20963
656.147	36668.62823
656.346	36699.4184
656.545	36264.38449
656.743	35913.6843
656.942	36102.34381
657.141	36247.97361
657.34	36040.81904
657.538	35925.98671
657.737	36250.02494
657.936	36730.21006
658.135	35934.18842
658.333	35766.07114
658.532	36104.39473
658.731	35651.28054
658.929	35821.4227
659.128	35878.82859
659.326	36065.42832
659.525	36307.46491
659.724	36299.25891
659.922	36381.32336
660.121	36289.00155
660.319	35860.37622
660.518	35952.64262
660.716	35895.23107
660.915	35909.58354
661.113	36405.94462
661.312	35979.29949
661.51	35942.39023
661.709	36090.03844
661.907	36709.68212
662.105	36393.63388
662.304	36547.53446
662.502	36354.65133
662.701	36596.79022
662.899	36145.41429
663.097	36440.82629
663.296	36863.65795
663.494	37005.34952
663.692	36301.3104
663.891	36666.5756
664.089	36190.53855
664.287	36457.24181
664.485	36018.26127
664.684	36584.47593
664.882	36293.10447
665.08	35966.9962
665.278	35528.30916
665.476	36545.48222
665.675	36030.56542
665.873	35897.28141
666.071	36444.93013
666.269	36586.5283
666.467	35999.80543
666.665	36598.84262
666.863	35692.27524
667.061	36502.3866
667.259	36182.33392
667.457	36420.30744
667.655	35958.79412
667.853	36405.94462
668.051	36311.56795
668.249	36280.79576
668.447	36286.95009
668.645	35956.74361
668.843	36024.41332
669.041	36381.32336
669.239	35792.72139
669.437	35442.24033
669.635	35487.32287
669.833	35720.97281
670.031	35360.27837
670.229	35643.08186
670.426	35827.57313
670.624	36051.07281
670.822	35889.0801
671.02	35891.13042
671.218	35518.06239
671.415	35182.03848
671.613	35495.51996
671.811	36005.95732
672.009	35977.24892
672.206	35858.32599
672.404	35958.79412
672.602	35733.27209
672.799	35913.6843
672.997	35856.27576
673.195	35702.52425
673.392	36149.51638
673.59	35891.13042
673.788	35884.97948
673.985	35860.37622
674.183	36215.153
674.38	35493.47068
674.578	35421.74908
674.775	35852.17531
674.973	35329.5447
675.17	35331.59357
675.368	35493.47068
675.565	35977.24892
675.763	36325.92878
675.96	35718.92295
676.158	35472.97816
676.355	35407.40551
676.553	36049.02204
676.75	35661.52901
676.947	35807.07191
677.145	35735.32199
677.342	35706.62389
677.539	35550.8525
677.737	35477.07662
677.934	35960.84463
678.131	35741.47172
678.329	35466.8305
678.526	35798.87158
678.723	35649.23086
678.92	36042.86978
679.118	35356.18048
679.315	35280.37315
679.512	35214.81547
679.709	35540.60544
679.906	35237.35036
680.104	35491.42141
680.301	35934.18842
680.498	35368.4742
680.695	35079.61828
680.892	35274.2269
681.089	35362.32732
681.286	35347.98476
681.483	34872.76483
681.68	35296.76335
681.877	35360.27837
682.075	35485.27361
682.272	35118.53656
682.469	35198.42682
682.665	34803.14132
682.862	34569.73418
683.059	34625.00985
683.256	34174.70049
683.453	34586.11184
683.65	34215.62994
683.847	34356.84817
684.044	34561.54544
684.241	34938.29753
684.438	34954.68143
684.635	34436.67535
684.831	35044.79809
685.028	34868.66919
685.225	34702.81042
685.422	34045.78238
685.619	34655.71988
685.815	34332.28716
686.012	34801.09365
686.209	34579.97018
686.405	34598.39526
686.602	33800.2631
686.799	33544.5652
686.996	34047.82859
687.192	34379.36292
687.389	34315.91347
687.586	33745.02804
687.782	33933.2465
687.979	33929.15449
688.175	34090.79976
688.372	33824.8128
688.568	33994.62838
688.765	33667.29388
688.962	33920.9705
689.158	33949.61469
689.355	34225.86253
689.551	33759.34801
689.748	33262.33122
689.944	33517.97548
690.14	33601.83716
690.337	33485.25038
690.533	33661.15717
690.73	33252.1064
690.926	33421.84775
691.123	33517.97548
691.319	33857.54649
691.515	34137.86526
691.712	33313.45637
691.908	33640.70169
692.104	33552.74675
692.301	34252.46772
692.497	33370.7187
692.693	33587.51894
692.889	33763.43946
693.086	33511.83946
693.282	33728.66256
693.478	33882.09733
693.674	33610.01907
693.87	33162.13111
694.067	33900.51078
694.263	33767.53092
694.459	33591.60984
694.655	33718.43424
694.851	33151.90699
695.047	33497.5222
695.243	33053.75894
695.439	33106.92168
695.635	33411.62179
695.831	33597.74622
696.027	33264.37619
696.224	33164.17594
696.42	33070.11651
696.615	33337.99708
696.811	33466.84287
697.007	33544.5652
697.203	33043.53555
697.399	33145.77255
697.595	32941.30527
697.791	33160.08628
697.987	32943.34982
698.183	33642.74723
698.379	32912.68198
698.575	32554.93215
698.77	32606.03473
698.966	32873.83688
699.162	32775.706
699.358	33256.19632
699.554	32556.97623
699.749	33219.38748
699.945	32953.57256
700.141	33055.80363
700.337	32516.09516
700.532	32790.01639
700.728	33096.69794
700.924	32882.01472
701.119	32824.77071
701.315	32319.87858
701.511	32048.06944
701.706	32698.02311
701.902	32546.75587
702.097	32583.54942
702.293	32503.83102
702.489	32444.55549
702.684	32254.47753
702.88	32264.6963
703.075	32358.7115
703.271	31923.41698
703.466	31876.41873
703.662	32137.98724
703.857	32215.64668
704.053	32377.10631
704.248	32389.36962
704.443	32687.80194
704.639	32845.21477
704.834	32442.51154
705.03	32626.47618
705.225	32579.46121
705.42	32514.05113
705.616	32326.01005
705.811	32279.00267
706.006	32507.91906
706.202	32577.41711
706.397	32683.71349
706.592	32673.4924
706.787	32211.55927
706.983	32338.27303
707.178	32677.58083
707.373	31582.19076
707.568	31800.81492
707.763	31586.27701
707.959	32191.12233
708.154	31974.50318
708.349	31631.22621
708.544	32413.89647
708.739	31586.27701
708.934	31804.90154
709.129	31690.4787
709.324	31428.96129
709.519	31706.82448
709.714	31167.47065
709.909	31751.77595
710.104	31318.64179
710.299	31469.82157
710.494	31574.01829
710.689	31717.04064
710.884	31471.8646
711.079	31925.46041
711.274	32062.37428
711.469	32526.31534
711.664	32281.04645
711.859	31927.50383
712.054	31443.26232
712.249	31416.70334
712.443	31510.68251
712.638	31418.74633
712.833	31245.09801
713.028	31281.86965
713.223	30785.49315
713.417	30720.13291
713.612	31085.75998
713.807	31557.67341
714.002	31931.59069
714.196	31825.33479
714.391	31692.52192
714.586	31721.12712
714.78	31243.05516
714.975	31698.65157
715.17	31488.20891
715.364	31939.76443
715.559	31835.55149
715.754	31559.71652
715.948	31549.50102
716.143	31073.50359
716.337	31002.009
716.532	31198.11277
716.726	31122.52949
716.921	31204.24123
717.115	31130.70055
717.31	30932.5588
717.504	31445.30533
717.699	31328.85636
717.893	31073.50359
718.088	31222.62671
718.282	30720.13291
718.476	30362.71764
718.671	30664.98626
718.865	30697.66564
719.059	30377.01351
719.254	30193.21396
719.448	30160.53949
719.642	30522.01792
719.837	30172.79238
720.031	30205.46696
720.225	29933.86853
720.419	30080.89673
720.614	29778.6784
720.808	30115.61259
721.002	29654.1225
721.196	29415.23137
721.39	29625.53646
721.585	30176.87669
721.779	30229.9731
721.973	30325.9571
722.167	29772.55261
722.361	29960.41485
722.555	30166.66593
722.749	30113.57047
722.943	30070.68625
723.137	29752.13336
723.331	29780.72034
723.525	29368.27157
723.719	29537.73782
723.913	30040.05497
724.107	29456.06643
724.301	29447.89939
724.495	29449.94115
724.689	29564.28139
724.883	29668.41559
725.077	29699.04383
725.271	29476.48412
725.465	29402.98094
725.659	29264.14531
725.853	29451.98291
726.046	29258.02032
726.24	28847.6673
726.434	28492.47031
726.628	29227.39551
726.822	29356.02128
727.015	29982.87728
727.209	29329.47912
727.403	29519.36161
727.596	29605.118
727.79	29558.15593
727.984	29531.61241
728.177	29737.83996
728.371	29613.28537
728.565	29209.02074
728.758	29480.56767
728.952	29409.10615
729.146	29200.8542
729.339	29776.63647
729.533	29503.02727
729.726	29650.03877
729.92	29474.44235
730.113	29750.09144
730.307	29697.00194
730.5	29596.95064
730.694	29645.95504
730.887	29690.87628
731.081	29915.49042
731.274	29688.83439
731.468	29113.06496
731.661	28735.38897
731.854	28851.75021
732.048	29141.64729
732.241	29010.98686
732.435	29127.3561
732.628	28876.24775
732.821	28729.26478
733.014	29062.02559
733.208	29460.14996
733.401	29294.7704
733.594	29064.06715
733.788	28894.621
733.981	29251.89534
734.174	29006.90379
734.367	29088.56598
734.56	28831.33571
734.754	28929.32625
734.947	29235.5621
735.14	29015.06994
735.333	28837.46005
735.526	28655.77533
735.719	28665.98212
735.912	28204.66184
736.105	28572.08067
736.298	29004.86226
736.491	28584.32855
736.684	28125.05906
736.877	28688.43714
737.07	28690.47852
737.263	28547.585
737.456	28486.34651
737.649	28904.82839
737.842	28706.80953
738.035	28855.83312
738.228	28578.20461
738.421	28698.64401
738.614	28770.09284
738.807	29076.31655
739	28808.87989
739.192	28288.34862
739.385	28347.5428
739.578	28349.584
739.771	28727.22339
739.964	28533.29593
740.156	28610.86578
740.349	28310.80147
740.542	28327.13091
740.735	28065.86835
740.927	28494.51158
741.12	28139.34662
741.313	28006.67857
741.505	28155.67532
741.698	27804.62414
741.891	27900.54757
742.083	27871.97437
742.276	27841.36047
742.468	27806.66504
742.661	27304.64079
742.854	27510.7474
743.046	27690.33579
743.239	27639.3154
743.431	27753.6021
743.624	27712.78499
743.816	27863.81064
744.009	28106.68943
744.201	27767.8882
744.393	27722.98922
744.586	27839.31956
744.778	27900.54757
744.971	27786.25612
745.163	27582.17347
745.355	27851.56507
745.548	27588.29577
745.74	28037.29386
745.932	28172.00409
746.125	27874.0153
746.317	27547.48062
746.509	27441.36354
746.702	27747.4795
746.894	27704.62163
747.086	27676.05
747.278	27700.53995
747.471	28035.25283
747.663	27949.53073
747.855	27978.10454
748.047	27584.21424
748.239	28369.99601
748.431	27820.95135
748.623	27914.83425
748.815	28204.66184
749.008	27825.03317
749.2	28057.70418
749.392	27912.7933
749.584	27002.64729
749.776	27027.13214
749.968	27129.15449
750.16	27355.65607
750.352	27257.70745
750.544	26890.42764
750.736	26655.8007
750.928	27200.57215
751.12	27037.33422
751.311	26957.75892
751.503	27241.38297
751.695	27163.84286
751.887	26986.32417
752.079	27198.53162
752.271	26714.96565
752.463	26729.24703
752.654	26600.71725
752.846	26723.12643
753.038	26674.1621
753.23	26557.87533
753.421	26523.19429
753.613	26113.17744
753.805	26874.10514
753.997	26315.11768
754.188	26661.92116
754.38	26521.15424
754.572	26786.37329
754.763	26910.8309
754.955	26588.47663
755.146	26765.97092
755.338	26553.79519
755.53	26510.95403
755.721	26300.83853
755.913	26900.62925
756.104	26547.67498
756.296	26486.47367
756.487	26547.67498
756.679	26194.76745
756.87	25719.5459
757.062	25297.44067
757.253	25556.40319
757.445	25695.07369
757.636	26041.78847
757.827	26147.85286
758.019	26204.96639
758.21	26058.10576
758.401	25599.22693
758.593	26007.11461
758.784	26156.01185
758.975	25921.452
759.167	25511.54117
759.358	25886.77996
759.549	26066.26445
759.74	25558.44239
759.932	25668.56245
760.123	25509.50201
760.314	25807.24023
760.505	25421.82008
760.696	25001.817
760.888	25179.18565
761.079	24608.40681
761.27	24877.46535
761.461	24816.312
761.652	25295.40173
761.843	25232.19562
762.034	25352.49289
762.225	25160.83638
762.416	25109.86715
762.607	24908.04283
762.798	25387.15618
762.989	25177.14683
763.18	25499.30624
763.371	25046.66724
763.562	25193.45742
763.753	25126.17715
763.944	24912.11986
764.135	24357.73224
764.326	24781.65938
764.517	24667.51452
764.708	24771.46757
764.899	24388.30022
765.089	24461.66576
765.28	24451.4759
765.471	24502.42585
765.662	24021.5243
765.853	24488.1597
766.043	24098.9474
766.234	24223.24019
766.425	23402.29062
766.615	24217.1272
766.806	24498.34979
766.997	24076.53503
767.187	24027.6365
767.378	24221.20252
767.569	23840.20723
767.759	24390.3381
767.95	24351.61871
768.141	24064.31025
768.331	23703.72526
768.522	24060.23534
768.712	24178.41211
768.903	24015.41212
769.093	24086.72243
769.284	23597.80817
769.474	24023.56169
769.665	23821.87306
769.855	23410.43661
770.046	23404.32711
770.236	22854.59126
770.426	22852.55565
770.617	23210.87438
770.807	23192.54878
770.998	23141.64573
771.188	23546.88941
771.378	23626.32351
771.569	23383.96232
771.759	22899.3755
771.949	23033.73803
772.139	22872.91189
772.33	22530.97316
772.52	22887.16145
772.71	22740.6025
772.9	22838.30649
773.09	22822.02194
773.281	23115.17694
773.471	22964.51914
773.661	22726.35467
773.851	22848.48445
774.041	22917.6968
774.231	22832.19976
774.421	22746.70877
774.611	22506.55276
774.802	22158.61891
774.992	22451.60876
775.182	22174.89412
775.372	22256.27373
775.562	22191.16957
775.752	22545.21862
775.942	22435.32957
776.131	22638.83602
776.321	22093.52047
776.511	22734.49627
776.701	22335.62453
776.891	22349.86757
777.081	21975.53936
777.271	21945.02908
777.461	22494.34276
777.651	22386.49336
777.84	22097.58901
778.03	21945.02908
778.22	21398.02616
778.41	22140.30959
778.599	22244.06641
778.789	21936.89315
778.979	22246.10095
779.169	22323.41635
779.358	21987.74371
779.548	22457.71352
779.738	21900.28223
779.927	21751.81735
780.117	21609.47322
780.307	21184.58985
780.496	21416.32277
780.686	21473.2476
780.875	21389.89445
781.065	21886.04498
781.254	21357.36821
781.444	21330.9414
781.633	21430.55368
781.823	21442.75176
782.012	21202.88265
782.202	20930.55738
782.391	20922.4294
782.581	20607.5211
782.77	20481.58577
782.96	20973.23036
783.149	20493.77235
783.338	20948.84558
783.528	21054.51724
783.717	21152.07014
783.906	21422.42171
784.096	21208.98032
784.285	21009.80865
784.474	20646.11739
784.663	20867.56725
784.853	20327.23538
785.042	20483.61685
785.231	20510.02137
785.42	20597.36443
785.61	20918.36543
785.799	20412.53128
785.988	20629.86614
786.177	20002.36651
786.366	20361.75902
786.555	20325.20462
786.744	20209.45797
786.933	19833.88319
787.122	20477.5236
787.312	20122.14937
787.501	19906.95673
787.69	19913.04644
787.879	20432.84092
788.068	20172.90924
788.257	20038.90888
788.445	20083.57363
788.634	20471.43039
788.823	20089.66444
789.012	19969.88554
789.201	19856.21064
789.39	19681.6641
789.579	19430.04681
789.768	19821.70479
789.957	19622.81238
790.145	19888.68784
790.334	19951.61547
790.523	19673.54642
790.712	19533.52681
790.9	19764.87428
791.089	19434.10465
791.278	19468.59692
791.467	18831.69587
791.655	19221.09065
791.844	19423.96009
792.033	18896.58467
792.221	19083.1629
792.41	19131.84112
792.599	18985.81347
792.787	19279.91854
792.976	19180.5217
793.164	19290.06163
793.353	18963.50554
793.541	19332.66373
793.73	18965.53351
793.918	19342.80736
794.107	18920.91903
794.295	19107.50172
794.484	19010.14995
794.672	18995.9536
794.861	19042.5995
795.049	19492.94513
795.238	18756.67329
795.426	19217.03368
795.614	18695.84814
795.803	18815.47431
795.991	18410.01692
796.179	18482.98782
796.368	18655.30001
796.556	18768.83874
796.744	18643.13587
796.932	18618.80803
797.121	18351.23839
797.309	18622.86263
797.497	18460.69063
797.685	18689.76582
797.874	18505.28547
798.062	18523.52935
798.25	18553.93651
798.438	19137.92607
798.626	18823.58506
798.814	18876.30648
799.002	18521.50224
799.19	18485.01486
799.378	18215.45178
799.566	18478.93375
799.755	18166.81585
799.943	18412.04383
800.131	18183.02759
800.318	18160.73651
800.506	17976.34524
800.694	17846.68107
800.882	17506.37871
801.07	18045.2352
801.258	17850.73286
801.446	17848.70696
801.634	17569.16562
801.822	17670.44139
802.01	17836.55165
802.197	18146.5515
802.385	18010.78971
802.573	18166.81585
802.761	18150.60434
802.949	18349.21161
803.136	17883.14767
803.324	18174.92169
803.512	18383.66754
803.699	17834.52578
803.887	18231.66423
804.075	18369.47967
804.262	17968.24081
804.45	17854.78466
804.638	17721.08236
804.825	18176.94816
805.013	17988.50199
805.201	18012.81588
805.388	17536.75909
805.576	17633.98117
805.763	18057.39268
805.951	17988.50199
806.138	18061.4452
806.326	17905.43338
806.513	17741.33934
806.701	17822.37062
806.888	17504.35337
807.075	17885.17363
807.263	17885.17363
807.45	18164.7894
807.638	17917.58939
807.825	18031.05164
808.012	18004.7112
808.2	17905.43338
808.387	17968.24081
808.574	18168.84231
808.761	17925.69347
808.949	18191.13355
809.136	17893.27749
809.323	18114.1293
809.51	17836.55165
809.698	17919.6154
809.885	17947.97998
810.072	18223.55798
810.259	18209.37218
810.446	18071.57657
810.633	17984.44973
810.82	18385.69439
811.008	17994.58042
811.195	18170.86877
811.382	18002.68503
811.569	17899.35542
811.756	18085.76064
811.943	18233.69081
812.13	18140.47227
812.317	18203.2926
812.504	18085.76064
812.691	18298.5431
812.878	18442.44782
813.064	18298.5431
813.251	18154.6572
813.438	18351.23839
813.625	17877.06983
813.812	17893.27749
813.999	17812.24141
814.186	18049.28768
814.372	18132.36667
814.559	18026.99922
814.746	18077.65543
814.933	17856.81057
815.12	17765.64815
815.306	17607.64945
815.493	17717.03101
815.68	17903.40739
815.866	17269.43579
816.053	17710.954
816.24	17990.52813
816.426	17899.35542
816.613	17956.08427
816.799	17757.54516
816.986	17870.99201
817.173	17939.87574
817.359	17947.97998
817.546	17832.49991
817.732	17700.82572
817.919	17439.54438
818.105	17461.82211
818.292	17540.80986
818.478	17411.19145
818.665	17587.39465
818.851	17324.11122
819.037	17427.39305
819.224	17575.24193
819.41	17587.39465
819.597	17579.29283
819.783	17467.89792
819.969	17413.21664
820.156	16951.54979
820.342	17366.63807
820.528	17332.21147
820.714	17583.34373
820.901	17676.51819
821.087	17382.83913
821.273	17350.43721
821.459	17305.88584
821.646	17579.29283
821.832	17295.76073
822.018	17208.68785
822.204	16528.47578
822.39	16866.52157
822.576	16977.86898
822.762	17200.58832
822.948	16896.88827
823.134	16929.28005
823.32	16465.73167
823.507	16994.06563
823.693	16763.27902
823.879	16886.76597
824.065	17151.99212
824.25	17147.94251
824.436	17000.13942
824.622	16961.6725
824.808	16971.79528
824.994	16805.78988
825.18	16722.79349
825.366	16949.52525
825.552	16530.49982
825.738	16745.06041
825.923	16743.03613
826.109	16917.13305
826.295	17095.29862
826.481	17301.83579
826.667	16817.93604
826.852	17073.02677
827.038	16745.06041
827.224	17058.85395
827.409	16777.44919
827.595	16609.43897
827.781	16303.82031
827.966	16611.4631
828.152	16241.0829
828.338	16591.22195
828.523	16111.56574
828.709	16494.06747
828.894	15593.55338
829.08	16004.31424
829.266	15886.9492
829.451	16008.36139
829.637	15575.34324
829.822	15514.64317
830.008	15621.8804
830.193	16065.02212
830.378	16152.03913
830.564	16728.86626
830.749	16259.29681
830.935	16455.61184
831.12	16077.16386
831.305	15848.50297
831.491	16081.21111
831.676	16368.58336
831.861	16251.20172
832.047	16125.73135
832.232	15984.07857
832.417	15771.61174
832.602	16097.40021
832.788	16038.71521
832.973	15743.28379
833.158	15484.29336
833.343	15512.61985
833.528	15806.01025
833.714	15571.29655
833.899	15820.17443
834.084	15634.02059
834.269	15757.44774
834.454	15334.56927
834.639	15670.44136
834.824	15229.35885
835.009	15486.31668
835.194	15279.94071
835.379	15401.33782
835.564	15219.24249
835.749	15524.75981
835.934	15348.73226
836.119	15504.52655
836.304	15294.10365
836.489	15486.31668
836.674	15126.17203
836.859	15370.98843
837.044	15286.01054
837.228	15154.49782
837.413	15014.8919
837.598	15431.68731
837.783	14944.07687
837.968	14931.93711
838.152	14978.4728
838.337	15033.10142
838.522	14822.67838
838.707	14992.6358
838.891	14507.0289
839.076	14974.42622
839.261	14978.4728
839.445	15156.52109
839.63	14701.2775
839.815	14871.23801
839.999	14774.11836
840.184	14674.97358
840.368	14606.1779
840.553	14729.60463
840.737	14579.87334
840.922	14517.14628
841.106	14757.9316
841.291	14725.55791
841.475	14581.89678
841.66	14424.06507
841.844	14118.49122
842.029	13966.69858
842.213	14039.56071
842.397	14150.87199
842.582	14150.87199
842.766	14316.81536
842.951	13887.76087
843.135	14322.88622
843.319	14320.8626
843.504	14051.70409
843.688	13901.92947
843.872	13857.39912
844.056	13908.00169
844.241	14217.65565
844.425	13944.4345
844.609	13742.01858
844.793	13946.45852
844.977	14075.99061
845.161	13543.62102
845.346	13638.77487
845.53	13671.16596
845.714	13624.6035
845.898	13000.87379
846.082	13744.04288
846.266	13586.13752
846.45	13584.11296
846.634	13650.92163
846.818	13412.01209
847.002	13349.239
847.186	13557.79336
847.37	13304.68799
847.554	13495.0288
847.738	13610.43197
847.922	13628.65248
848.106	13300.63779
848.29	13150.76844
848.473	13235.83239
848.657	13337.08893
848.841	13011.00264
849.025	12992.77061
849.209	12938.07203
849.392	12978.58985
849.576	12832.71584
849.76	13164.94632
849.944	12942.1239
850.127	13124.43749
850.311	12694.91981
850.495	12759.76828
850.678	12763.82111
850.862	13073.79881
851.046	12838.79448
851.229	12838.79448
851.413	12688.83996
851.596	12871.21305
851.78	12790.16398
851.964	13245.95852
852.147	13039.36279
852.331	12857.03009
852.514	12686.81334
852.698	12413.16188
852.881	12226.60437
853.065	12449.65548
853.248	12224.57624
853.431	12027.81239
853.615	11899.97805
853.798	12064.33069
853.982	11703.08919
854.165	12204.29456
854.348	11975.05923
854.532	12510.47341
854.715	12220.51996
854.898	12246.88525
855.081	11912.15414
855.265	12510.47341
855.448	12238.77298
855.631	12267.16541
855.814	11950.7098
855.997	11910.12481
856.181	11784.29025
856.364	11930.41771
856.547	11954.76812
856.73	11902.00742
856.913	11670.60482
857.096	12039.98544
857.279	11715.27024
857.462	11731.51115
857.645	11560.95297
857.828	11589.38379
858.011	11583.29163
858.194	11428.92854
858.377	11408.61349
858.56	11439.0857
858.743	11128.16292
858.926	11688.87756
859.109	11457.36799
859.292	11311.08749
859.475	11483.77435
859.658	11384.23413
859.841	11408.61349
860.023	11256.21893
860.206	10995.99714
860.389	11388.29746
860.572	11357.82156
860.755	11447.21126
860.937	11219.63573
861.12	11304.99135
861.303	11195.24506
861.486	11528.45837
861.668	11370.01218
861.851	11183.04916
862.034	10914.64112
862.216	10987.86235
862.399	10450.55125
862.581	10515.72532
862.764	10344.61512
862.947	10857.68109
863.129	10507.57927
863.312	10878.02499
863.494	11018.36691
863.677	11085.46823
863.859	10904.47034
864.042	10910.57284
864.224	10540.16223
864.406	10654.17734
864.589	10597.17466
864.771	10833.26688
864.954	10142.8292
865.136	10307.93662
865.318	10271.25378
865.501	10654.17734
865.683	10558.48873
865.865	10778.32876
866.048	10462.77239
866.23	10356.84033
866.412	10199.91351
866.594	10328.31409
866.777	10417.95928
866.959	10305.89879
867.141	10330.35177
867.323	10234.56658
867.505	10161.17891
867.687	10197.87497
867.869	10116.32207
868.052	10212.14446
868.234	10030.66742
868.416	10293.67159
868.598	10122.43931
868.78	10148.9459
868.962	10095.93037
869.144	10091.85186
869.326	9881.73127
869.508	10069.41904
869.69	9920.50294
869.872	9998.03048
870.054	9985.79068
870.236	10116.32207
870.417	9918.46246
870.599	9887.85346
870.781	9667.36944
870.963	9793.9651
871.145	9657.15754
871.327	9736.80012
871.508	9616.30608
871.69	9924.58386
871.872	9704.12907
872.054	9734.7583
872.235	9321.98795
872.417	9458.96916
872.599	9714.33919
872.78	9753.13419
872.962	9524.36737
873.144	9657.15754
873.325	9307.67222
873.507	9483.49541
873.689	9315.85274
873.87	9495.75767
874.052	9413.99833
874.233	9765.3841
874.415	9393.55444
874.596	9559.10352
874.778	9096.93139
874.959	9178.79385
875.141	9178.79385
875.322	9530.49761
875.503	9305.62705
875.685	9734.7583
875.866	9822.54316
876.048	9622.43419
876.229	9450.79323
876.41	9356.75133
876.592	9405.82097
876.773	9416.04263
876.954	9103.07203
877.136	9373.10893
877.317	9467.14483
877.498	9356.75133
877.679	9227.89824
877.86	9152.19155
878.042	9209.48524
878.223	9628.56217
878.404	9495.75767
878.585	9522.32392
878.766	9369.01963
878.947	9632.64741
879.128	9137.86605
879.309	9356.75133
879.49	9360.84083
879.672	9430.35226
879.853	9362.88555
880.034	9548.88748
880.215	9295.40096
880.396	9663.28472
880.576	9291.3104
880.757	9289.2651
880.938	9397.64335
881.119	9679.6232
881.3	9626.51953
881.481	9889.89417
881.662	9840.91322
881.843	9947.02788
882.023	9957.22912
882.204	9971.51026
882.385	9528.45421
882.566	9732.71645
882.747	9401.73219
882.927	9869.48648
883.108	9542.75767
883.289	9728.63273
883.469	9612.22059
883.65	9463.05703
883.831	9217.66896
884.011	9593.83511
884.192	9393.55444
884.373	9571.36225
884.553	9550.93072
884.734	9630.6048
884.914	9399.68778
885.095	9744.96728
885.275	9389.46547
885.456	9591.7922
885.636	9573.40532
885.817	9995.99055
885.997	9793.9651
886.178	9881.73127
886.358	9348.57214
886.538	9465.10094
886.719	9332.21297
886.899	9385.37643
887.08	9326.078
887.26	9546.84423
887.44	9495.75767
887.621	9634.69001
887.801	9168.56254
887.981	9512.10645
888.161	9225.85242
888.342	9389.46547
888.522	9520.28046
888.702	9610.17782
888.882	9276.99293
889.062	9033.46902
889.242	9274.94751
889.423	9301.53666
889.603	9156.2844
889.783	9493.714
889.963	9340.39269
890.143	9550.93072
890.323	9397.64335
890.503	9536.62771
890.683	9389.46547
890.863	9383.33189
891.043	9458.96916
891.223	9732.71645
891.403	9209.48524
891.583	9481.45164
891.763	9053.94258
891.943	9344.48245
892.122	9207.43926
892.302	9276.99293
892.482	9068.27303
892.662	9281.08372
892.842	9158.3308
893.022	9252.44679
893.201	9121.49301
893.381	9207.43926
893.561	9103.07203
893.741	9416.04263
893.92	9129.67967
894.1	9354.70656
894.28	9021.18405
894.459	9090.7906
894.639	8836.83321
894.819	8699.49961
894.998	8734.35322
895.178	8982.27749
895.357	8859.37273
895.537	9107.1657
895.716	8865.51949
895.896	9006.85079
896.075	8730.25307
896.255	9053.94258
896.434	8816.34085
896.614	8922.88152
896.793	8490.26499
896.973	8512.83893
897.152	8449.21555
897.331	8793.79715
897.511	8662.58998
897.69	8660.53927
897.87	8631.82737
898.049	8537.46243
898.228	8580.54701
898.407	8549.77316
898.587	8311.64381
898.766	8414.3175
898.945	8054.74428
899.124	8323.96722
899.304	7976.58466
899.483	8334.23619
899.662	7768.70048
899.841	7838.70489
900.02	7768.70048
900.199	7943.66654
900.378	7727.51013
900.557	8093.81312
900.737	7731.62954
900.916	7881.9309
901.095	7618.3149
901.274	7626.55813
901.453	7595.64428
901.632	7583.27739
901.811	7694.55179
901.989	7762.52247
902.168	7554.41833
902.347	7680.13082
902.526	7690.43162
902.705	7661.58805
902.884	7432.75173
903.063	7653.34627
903.242	7875.75631
903.42	7630.67962
903.599	7434.8145
903.778	7558.54131
903.957	7228.42926
904.135	7191.25656
904.314	6992.88037
904.493	7218.10423
904.672	6897.75178
904.85	6893.61466
905.029	6769.45902
905.207	7050.76139
905.386	6848.10044
905.565	6814.99228
905.743	6510.53645
905.922	6659.71978
906.1	6350.86017
906.279	6603.79006
906.457	6112.12472
906.636	6742.54781
906.814	6535.40866
906.993	6549.91591
907.171	6487.73399
907.35	6292.7618
907.528	5960.41843
907.707	6103.8153
907.885	5927.15096
908.063	6004.07283
908.242	5952.10213
908.42	6080.96244
908.598	5902.1964
908.777	5989.52252
908.955	5879.3184
909.133	6240.87276
909.311	5825.23178
909.49	6076.80707
909.668	5592.06087
909.846	5619.14053
910.024	5481.61795
910.202	5881.39834
910.38	5685.78118
910.559	5956.26033
910.737	5717.01067
910.915	6224.26518
911.093	6085.11771
911.271	6286.53589
911.449	6033.16998
911.627	6195.1983
911.805	5679.53465
911.983	6018.62198
912.161	5868.91836
912.339	6068.49604
912.517	5854.35732
912.695	6301.06269
912.872	6085.11771
913.05	6346.71089
913.228	6325.96311
913.406	6325.96311
913.584	6232.56916
913.762	6080.96244
913.939	6186.89263
914.117	6305.21299
914.295	5904.27608
914.473	6350.86017
914.65	6078.88476
914.828	6328.03799
915.006	5983.28631
915.184	6203.50359
915.361	5698.27361
915.539	5889.71784
915.716	5604.55967
915.894	5852.27708
916.072	5619.14053
916.249	5683.69903
916.427	5606.64272
916.604	5829.39285
916.782	5731.58261
916.959	5952.10213
917.137	5704.51951
917.314	5769.04801
917.492	5412.8182
917.669	5589.97765
917.847	5300.18165
918.024	5556.64299
918.201	5550.39207
918.379	5606.64272
918.556	5394.0502
918.733	5354.4226
918.911	5331.47644
919.088	5358.59432
919.265	5237.57627
919.442	5635.80296
919.62	5231.31457
919.797	5654.54638
919.974	5300.18165
920.151	5310.61383
920.328	5160.33403
920.506	5335.64868
920.683	5003.66432
920.86	5204.17814
921.037	4790.38555
921.214	5009.93361
921.391	4735.98242
921.568	5068.43694
921.745	5112.30252
921.922	5172.86197
922.099	4819.67319
922.276	5143.62882
922.453	4773.64776
922.63	4821.765
922.807	4501.45672
922.984	5014.11302
923.161	4754.81601
923.338	5085.14884
923.514	4599.90788
923.691	4813.39764
923.868	4578.96494
924.045	4652.25547
924.222	4574.77608
924.399	4658.53624
924.575	4426.01431
924.752	4537.07237
924.929	4499.36148
925.105	4712.9611
925.282	4782.01684
925.459	4677.37734
925.635	4599.90788
925.812	4555.92512
925.989	4459.54779
926.165	4398.76424
926.342	4102.97202
926.518	4381.99314
926.695	4218.40238
926.871	4115.56751
927.048	3985.37811
927.224	4115.56751
927.401	3823.58225
927.577	4033.68344
927.754	3806.76551
927.93	3928.65809
928.107	3827.78624
928.283	3979.07662
928.459	4023.1832
928.636	4073.57962
928.812	3802.56113
928.988	3876.12641
929.165	3619.59536
929.341	3697.42617
929.517	3619.59536
929.693	3583.82659
929.87	3474.38302
930.046	3516.48257
930.222	3324.8719
930.398	3604.86769
930.574	3322.76548
930.751	3646.94428
930.927	3417.53719
931.103	3695.32298
931.279	3314.33962
931.455	3508.06324
931.631	3508.06324
931.807	3785.74281
931.983	3373.3148
932.159	3392.2682
932.335	2880.05567
932.511	3126.79475
932.687	2909.5908
932.863	3004.50564
933.039	2987.6341
933.215	2987.6341
933.391	2993.96104
933.566	3122.57876
933.742	2715.45262
933.918	2863.17719
934.094	2660.56688
934.27	2825.1973
934.445	2525.42777
934.621	2785.10252
934.797	2483.18691
934.973	2464.17706
935.148	2214.85977
935.324	2377.56559
935.5	2229.65347
935.675	2318.40636
935.851	2128.20267
936.027	2242.33344
936.202	1963.30787
936.378	2083.81215
936.553	1827.98152
936.729	2024.6198
936.904	1792.03205
937.08	1726.47413
937.255	1646.10842
937.431	1718.01479
937.606	1278.09538
937.782	1449.41201
937.957	1290.78516
938.133	1286.55522
938.308	1108.90884
938.483	1155.43277
938.659	922.83945
938.834	1155.43277
939.009	982.03805
939.185	975.69508
939.36	878.44434
939.535	1032.78388
939.71	874.21642
939.886	867.8746
940.061	781.21107
940.236	874.21642
940.411	781.21107
940.586	802.34708
940.761	658.64259
940.937	755.84914
941.112	553.01184
941.287	667.09439
941.462	584.69769
941.637	658.64259
941.812	601.59802
941.987	694.56402
942.162	561.4611
942.337	586.81018
942.512	481.20214
942.687	713.58257
942.862	485.42577
943.037	544.56279
943.212	470.64331
943.386	610.0485
943.561	441.0806
943.736	487.53762
943.911	407.29842
944.086	476.97856
944.26	356.63299
944.435	428.41181
944.61	377.74241
944.785	460.08485
944.959	443.19213
945.134	527.66536
945.309	415.74358
945.483	415.74358
945.658	390.40887
945.833	371.40941
946.007	491.76134
946.182	493.87323
946.357	432.63468
946.531	542.45056
946.706	413.63227
946.88	519.21698
947.055	348.18969
947.229	434.74613
947.404	424.189
947.578	502.32091
947.752	498.09704
947.927	529.77749
948.101	542.45056
948.276	517.10492
948.45	479.09034
948.624	483.31395
948.799	417.85491
948.973	601.59802
949.147	443.19213
949.321	483.31395
949.496	386.18665
949.67	470.64331
949.844	457.97321
950.018	525.55324
950.193	415.74358
950.367	460.08485
950.541	485.42577
950.715	483.31395
950.889	523.44114
951.063	508.65683
951.237	419.96626
951.411	498.09704
951.585	407.29842
951.759	612.16115
951.933	531.88963
952.107	675.54638
952.281	512.88085
952.455	544.56279
952.629	559.34876
952.803	622.72459
952.977	483.31395
953.151	635.40113
953.325	565.68581
953.499	808.68807
953.672	470.64331
953.846	622.72459
954.02	481.20214
954.194	605.82323
954.368	527.66536
954.541	553.01184
954.715	487.53762
954.889	696.67715
955.062	582.5852
955.236	656.52967
955.41	514.99288
955.583	618.49918
955.757	441.0806
955.93	561.4611
956.104	565.68581
956.278	681.88549
956.451	542.45056
956.625	449.52678
956.798	517.10492
956.972	553.01184
957.145	536.11396
957.319	502.32091
957.492	534.00179
957.665	508.65683
957.839	567.79819
958.012	489.64947
958.185	487.53762
958.359	673.43336
958.532	561.4611
958.705	607.93586
958.879	514.99288
959.052	635.40113
959.225	428.41181
959.398	614.27381
959.572	576.24783
959.745	519.21698
959.918	409.40968
960.091	468.53159
960.264	441.0806
960.438	438.9691
960.611	443.19213
960.784	567.79819
960.957	561.4611
961.13	578.36028
961.303	457.97321
961.476	586.81018
961.649	506.54484
961.822	612.16115
961.995	504.43287
962.168	546.67503
962.341	432.63468
962.514	525.55324
962.686	375.63139
962.859	466.41988
963.032	468.53159
963.205	441.0806
963.378	441.0806
963.551	495.98513
963.723	367.18749
963.896	453.74996
964.069	381.9645
964.242	409.40968
964.414	424.189
964.587	561.4611
964.76	470.64331
964.932	470.64331
965.105	424.189
965.278	384.07557
965.45	384.07557
965.623	377.74241
965.795	438.9691
965.968	436.85761
966.14	331.30395
966.313	445.30366
966.485	398.85351
966.658	468.53159
966.83	390.40887
967.003	517.10492
967.175	379.85345
967.348	457.97321
967.52	358.74385
967.692	441.0806
967.865	314.41933
968.037	335.52528
968.209	350.30049
968.382	453.74996
968.554	367.18749
968.726	462.19651
968.898	299.64623
969.071	312.30883
969.243	360.85473
969.415	329.19331
969.587	331.30395
969.759	384.07557
969.932	265.88252
970.104	386.18665
970.276	263.77245
970.448	339.74668
970.62	206.80777
970.792	272.21286
970.964	301.75662
971.136	390.40887
971.308	263.77245
971.48	390.40887
971.652	312.30883
971.824	324.97208
971.996	303.86702
972.168	335.52528
972.339	360.85473
972.511	367.18749
972.683	314.41933
972.855	327.08269
973.027	335.52528
973.199	348.18969
973.37	280.65356
973.542	255.33235
973.714	274.323
973.886	238.45306
974.057	198.36978
974.229	291.20486
974.401	179.38548
974.572	249.00247
974.744	168.83937
974.915	365.07655
975.087	249.00247
975.259	187.82274
975.43	187.82274
975.602	310.19835
975.773	221.57502
975.945	297.53586
976.116	156.18471
976.288	244.78265
976.459	272.21286
976.63	183.60407
976.802	208.91732
976.973	259.55236
977.145	249.00247
977.316	227.90414
977.487	192.04149
977.659	196.26033
977.83	137.20416
978.001	187.82274
978.172	154.07568
978.344	251.11241
978.515	196.26033
978.686	215.24608
978.857	170.94855
979.028	173.05775
979.2	177.27622
979.371	215.24608
979.542	196.26033
979.713	105.57375
979.884	170.94855
980.055	162.51195
980.226	198.36978
980.397	181.49477
980.568	156.18471
980.739	177.27622
980.91	200.47924
981.081	204.69824
981.252	162.51195
981.423	213.13647
981.594	147.7487
981.765	221.57502
981.936	99.24826
982.106	111.89944
982.277	88.70622
982.448	90.81458
982.619	211.02688
982.79	132.98649
982.96	156.18471
983.131	137.20416
983.302	137.20416
983.472	154.07568
983.643	143.53082
983.814	173.05775
983.984	111.89944
984.155	154.07568
984.326	118.22533
984.496	130.87769
984.667	145.63975
984.837	213.13647
985.008	154.07568
985.178	139.31302
985.349	128.76891
985.519	170.94855
985.69	78.16474
985.86	99.24826
986.031	130.87769
986.201	166.73021
986.371	145.63975
986.542	73.9483
986.712	111.89944
986.882	158.29377
987.053	126.66015
987.223	99.24826
987.393	135.09531
987.563	116.11668
987.734	137.20416
987.904	65.5157
988.074	147.7487
988.244	69.73195
988.414	61.29953
988.585	166.73021
988.755	122.44269
988.925	135.09531
989.095	116.11668
989.265	111.89944
989.435	103.46523
989.605	126.66015
989.775	128.76891
989.945	69.73195
990.115	137.20416
990.285	137.20416
990.455	120.334
990.625	120.334
990.795	63.4076
990.965	95.03138
991.134	107.68229
991.304	95.03138
991.474	95.03138
991.644	88.70622
991.814	90.81458
991.984	137.20416
992.153	78.16474
992.323	116.11668
992.493	12.82031
992.662	88.70622
992.832	128.76891
993.002	82.38126
993.171	120.334
993.341	78.16474
993.511	154.07568
993.68	105.57375
993.85	61.29953
994.019	57.08346
994.189	82.38126
994.358	48.65159
994.528	86.59788
994.697	61.29953
994.867	122.44269
995.036	14.92785
995.206	120.334
995.375	105.57375
995.544	111.89944
995.714	80.27299
995.883	52.86748
996.052	86.59788
996.222	6.49786
996.391	122.44269
996.56	-10.36097
996.73	73.9483
996.899	63.4076
997.068	145.63975
997.237	95.03138
997.406	114.00805
997.576	124.55141
997.745	-10.36097
997.914	19.14299
998.083	-6.14641
998.252	103.46523
998.421	103.46523
998.59	61.29953
998.759	52.86748
998.928	-35.64629
999.097	86.59788
999.266	46.54368
999.435	73.9483
999.604	19.14299
999.773	29.68125
999.942	120.334
1000.111	65.5157
1000.28	50.75953
1000.448	54.97546
1000.617	14.92785
1000.786	69.73195
1000.955	99.24826
1001.124	31.78897
1001.292	48.65159
1001.461	57.08346
1001.63	61.29953
1001.798	19.14299
1001.967	71.84011
1002.136	21.25059
1002.304	21.25059
1002.473	19.14299
1002.642	65.5157
1002.81	27.57355
1002.979	-20.89695
1003.147	84.48956
1003.316	65.5157
1003.484	69.73195
1003.653	114.00805
1003.821	14.92785
1003.99	29.68125
1004.158	42.32793
1004.327	2.283
1004.495	71.84011
1004.663	48.65159
1004.832	38.11228
1005	40.22009
1005.168	-4.03909
1005.337	114.00805
1005.505	31.78897
1005.673	-6.14641
1005.842	-1.93175
1006.01	63.4076
1006.178	27.57355
1006.346	52.86748
1006.514	-29.32529
1006.683	12.82031
1006.851	14.92785
1007.019	36.00449
1007.187	111.89944
1007.355	-14.57544
1007.523	69.73195
1007.691	19.14299
1007.859	44.4358
1008.027	57.08346
1008.195	2.283
1008.363	95.03138
1008.531	54.97546
1008.699	2.283
1008.867	23.35822
1009.035	44.4358
1009.203	17.0354
1009.37	95.03138
1009.538	2.283
1009.706	52.86748
1009.874	57.08346
1010.042	6.49786
1010.209	-33.53931
1010.377	69.73195
1010.545	-18.7898
1010.713	52.86748
1010.88	10.7128
1011.048	40.22009
1011.216	38.11228
1011.383	36.00449
1011.551	76.05651
1011.718	44.4358
1011.886	90.81458
1012.054	86.59788
1012.221	-1.93175
1012.389	2.283
1012.556	-12.46822
1012.724	4.39042
1012.891	0.17561
1013.058	116.11668
1013.226	-69.35446
1013.393	6.49786
1013.561	36.00449
1013.728	38.11228
1013.895	44.4358
1014.063	-65.14129
1014.23	29.68125
1014.397	-31.43231
1014.565	-1.93175
1014.732	44.4358
1014.899	42.32793
1015.066	38.11228
1015.233	-12.46822
1015.401	31.78897
1015.568	130.87769
1015.735	-60.92802
1015.902	-1.93175
1016.069	78.16474
1016.236	111.89944
1016.403	-6.14641
1016.57	-27.21824
1016.737	73.9483
1016.904	103.46523
1017.071	27.57355
1017.238	-31.43231
1017.405	-20.89695
1017.572	17.0354
1017.739	71.84011
1017.906	-16.68263
1018.073	42.32793
1018.24	78.16474
1018.407	-23.00407
1018.573	19.14299
1018.74	48.65159
1018.907	-14.57544
1019.074	19.14299
1019.241	48.65159
1019.407	-71.461
1019.574	80.27299
1019.741	23.35822
1019.907	-31.43231
1020.074	-4.03909
1020.241	4.39042
1020.407	114.00805
1020.574	29.68125
1020.74	71.84011
1020.907	63.4076
1021.073	36.00449
1021.24	19.14299
1021.406	27.57355
1021.573	6.49786
1021.739	50.75953
1021.906	2.283
1022.072	10.7128
1022.239	-14.57544
1022.405	-39.86016
1022.571	27.57355
1022.738	88.70622
1022.904	-56.71465
1023.07	31.78897
1023.237	12.82031
1023.403	105.57375
1023.569	-31.43231
1023.735	86.59788
1023.902	44.4358
1024.068	-1.93175
1024.234	84.48956
1024.4	23.35822
1024.566	-52.50118
1024.732	-1.93175
1024.898	54.97546
1025.065	52.86748
1025.231	14.92785
1025.397	-6.14641
1025.563	33.89672
1025.729	54.97546
1025.895	27.57355
1026.061	40.22009
1026.227	6.49786
1026.392	82.38126
1026.558	6.49786
1026.724	-12.46822
1026.89	0.17561
1027.056	-29.32529
1027.222	44.4358
1027.388	10.7128
1027.553	14.92785
1027.719	-31.43231
1027.885	-37.75323
1028.051	27.57355
1028.216	42.32793
1028.382	61.29953
1028.548	10.7128
1028.713	-52.50118
1028.879	17.0354
1029.045	33.89672
1029.21	19.14299
1029.376	-35.64629
1029.541	40.22009
1029.707	10.7128
1029.873	23.35822
1030.038	36.00449
1030.204	52.86748
1030.369	14.92785
1030.534	17.0354
1030.7	2.283
1030.865	-10.36097
1031.031	19.14299
1031.196	-12.46822
1031.361	69.73195
1031.527	17.0354
1031.692	-48.28761
1031.857	12.82031
1032.023	76.05651
1032.188	-33.53931
1032.353	59.19149
1032.518	12.82031
1032.684	61.29953
1032.849	4.39042
1033.014	-14.57544
1033.179	2.283
1033.344	-31.43231
1033.509	-50.3944
1033.674	-29.32529
1033.839	80.27299
1034.004	-12.46822
1034.17	31.78897
1034.335	8.60532
1034.5	-23.00407
1034.664	-48.28761
1034.829	38.11228
1034.994	-29.32529
1035.159	78.16474
1035.324	14.92785
1035.489	84.48956
1035.654	71.84011
1035.819	63.4076
1035.984	-67.24789
1036.148	-31.43231
1036.313	97.13981
1036.478	-18.7898
1036.643	80.27299
1036.807	-29.32529
1036.972	14.92785
1037.137	-37.75323
1037.301	54.97546
1037.466	57.08346
1037.631	-1.93175
1037.795	-1.93175
1037.96	-6.14641
1038.124	69.73195
1038.289	-4.03909
1038.454	-16.68263
1038.618	-12.46822
1038.783	19.14299
1038.947	31.78897
1039.111	-52.50118
1039.276	27.57355
1039.44	-14.57544
1039.605	97.13981
1039.769	-37.75323
1039.933	-37.75323
1040.098	14.92785
1040.262	0.17561
1040.426	-18.7898
1040.591	-73.56752
1040.755	38.11228
1040.919	-63.03467
1041.083	-77.78048
1041.248	8.60532
1041.412	-39.86016
1041.576	6.49786
1041.74	-6.14641
1041.904	36.00449
1042.068	38.11228
1042.232	-6.14641
1042.397	-29.32529
1042.561	-20.89695
1042.725	-14.57544
1042.889	29.68125
1043.053	48.65159
1043.217	-6.14641
1043.381	36.00449
1043.544	-48.28761
1043.708	82.38126
1043.872	-4.03909
1044.036	-1.93175
1044.2	36.00449
1044.364	-67.24789
1044.528	-48.28761
1044.691	-1.93175
1044.855	-6.14641
1045.019	-14.57544
1045.183	23.35822
1045.346	71.84011
1045.51	-8.2537
1045.674	44.4358
1045.837	36.00449
1046.001	14.92785
1046.165	44.4358
1046.328	23.35822
1046.492	4.39042
1046.655	27.57355
1046.819	40.22009
1046.983	21.25059
1047.146	-86.2061
1047.31	-54.60793
1047.473	-39.86016
1047.636	76.05651
1047.8	-14.57544
1047.963	-73.56752
1048.127	31.78897
1048.29	42.32793
