Data from mixed_try1_USB4F045381__6__00071.txt Node

Date: Thu Apr 03 19:51:26 EDT 2025
User: mmckonesweet
Spectrometer: USB4F04538
Trigger mode: 4
Integration Time (sec): 2.700000E-3
Scans to average: 1
Electric dark correction enabled: true
Nonlinearity correction enabled: true
Boxcar width: 0
XAxis mode: Wavelengths
Number of Pixels in Spectrum: 3648
>>>>>Begin Spectral Data<<<<<
345.52	63.05626
345.736	63.05626
345.952	63.05626
346.168	-33.89048
346.384	54.62413
346.6	6.14661
346.816	-12.81942
347.032	54.62413
347.248	-14.92664
347.464	-42.31821
347.68	-31.78348
347.896	1.93177
348.112	12.46906
348.328	-17.03383
348.544	-6.49763
348.76	63.05626
348.975	-12.81942
349.191	-2.28298
349.407	-14.92664
349.623	8.25407
349.839	-44.42508
350.055	16.68414
350.27	4.03918
350.486	-12.81942
350.702	63.05626
350.918	6.14661
351.133	-2.28298
351.349	29.32996
351.565	-27.56942
351.781	-2.28298
351.996	8.25407
352.212	-0.17561
352.428	-2.28298
352.644	4.03918
352.859	58.84015
353.075	-25.46235
353.291	41.97663
353.506	44.08449
353.722	56.73213
353.938	1.93177
354.153	16.68414
354.369	-38.10439
354.584	-12.81942
354.8	29.32996
355.016	-33.89048
355.231	-59.17246
355.447	37.76098
355.662	-84.4508
355.878	-0.17561
356.093	-21.24814
356.309	8.25407
356.524	12.46906
356.74	-92.87609
356.955	-21.24814
357.171	8.25407
357.386	4.03918
357.602	-50.74553
357.817	25.11459
358.033	-25.46235
358.248	46.19237
358.464	54.62413
358.679	-31.78348
358.895	-21.24814
359.11	33.54542
359.325	-21.24814
359.541	-29.67646
359.756	-10.71218
359.972	37.76098
360.187	-42.31821
360.402	25.11459
360.618	-27.56942
360.833	31.43768
361.048	20.89932
361.264	33.54542
361.479	-2.28298
361.694	-25.46235
361.909	14.57659
362.125	6.14661
362.34	33.54542
362.555	-0.17561
362.77	29.32996
362.986	4.03918
363.201	-23.35526
363.416	-84.4508
363.631	16.68414
363.847	-17.03383
364.062	-25.46235
364.277	-21.24814
364.492	-21.24814
364.707	54.62413
364.922	8.25407
365.138	-67.59898
365.353	39.86879
365.568	50.4082
365.783	-27.56942
365.998	-27.56942
366.213	-44.42508
366.428	-2.28298
366.643	16.68414
366.858	-33.89048
367.073	-2.28298
367.288	-35.99745
367.503	37.76098
367.718	-38.10439
367.933	31.43768
368.148	-19.141
368.363	1.93177
368.578	16.68414
368.793	31.43768
369.008	75.70514
369.223	18.79172
369.438	33.54542
369.653	33.54542
369.868	-29.67646
370.083	-44.42508
370.298	-4.39031
370.513	37.76098
370.728	37.76098
370.943	-50.74553
371.157	-65.49239
371.372	-59.17246
371.587	4.03918
371.802	-4.39031
372.017	16.68414
372.232	4.03918
372.446	33.54542
372.661	-67.59898
372.876	-12.81942
373.091	-29.67646
373.306	-10.71218
373.52	-4.39031
373.735	-23.35526
373.95	-12.81942
374.165	115.76524
374.379	-21.24814
374.594	-4.39031
374.809	-27.56942
375.023	-27.56942
375.238	54.62413
375.453	-38.10439
375.667	12.46906
375.882	-48.63874
376.097	-54.95905
376.311	12.46906
376.526	-48.63874
376.741	-35.99745
376.955	12.46906
377.17	-50.74553
377.384	-12.81942
377.599	-42.31821
377.813	73.59693
378.028	37.76098
378.242	4.03918
378.457	1.93177
378.672	6.14661
378.886	12.46906
379.101	33.54542
379.315	6.14661
379.53	52.51615
379.744	27.22227
379.958	-38.10439
380.173	-54.95905
380.387	-76.0251
380.602	54.62413
380.816	46.19237
381.031	-38.10439
381.245	16.68414
381.459	-21.24814
381.674	4.03918
381.888	-31.78348
382.103	-2.28298
382.317	14.57659
382.531	4.03918
382.746	12.46906
382.96	-4.39031
383.174	46.19237
383.388	-21.24814
383.603	-103.40711
383.817	-33.89048
384.031	27.22227
384.246	-2.28298
384.46	12.46906
384.674	-0.17561
384.888	-63.38577
385.103	-63.38577
385.317	-38.10439
385.531	-4.39031
385.745	-33.89048
385.959	-63.38577
386.174	-19.141
386.388	-29.67646
386.602	-8.60492
386.816	-12.81942
387.03	-38.10439
387.244	8.25407
387.458	14.57659
387.672	-69.70555
387.887	29.32996
388.101	14.57659
388.315	4.03918
388.529	37.76098
388.743	12.46906
388.957	16.68414
389.171	-67.59898
389.385	58.84015
389.599	-90.7698
389.813	23.00695
390.027	-10.71218
390.241	-8.60492
390.455	-21.24814
390.669	-0.17561
390.883	-2.28298
391.097	67.27246
391.311	20.89932
391.525	41.97663
391.738	23.00695
391.952	4.03918
392.166	-10.71218
392.38	-25.46235
392.594	-23.35526
392.808	-33.89048
393.022	-21.24814
393.236	29.32996
393.449	12.46906
393.663	-17.03383
393.877	-4.39031
394.091	-67.59898
394.305	12.46906
394.518	-44.42508
394.732	-44.42508
394.946	-97.08857
395.16	37.76098
395.373	-38.10439
395.587	33.54542
395.801	63.05626
396.015	-88.66349
396.228	-35.99745
396.442	-14.92664
396.656	4.03918
396.869	27.22227
397.083	8.25407
397.297	-17.03383
397.51	-29.67646
397.724	-71.81209
397.938	-4.39031
398.151	20.89932
398.365	-29.67646
398.578	79.92161
398.792	-46.53192
399.005	-46.53192
399.219	37.76098
399.433	-54.95905
399.646	12.46906
399.86	33.54542
400.073	12.46906
400.287	-44.42508
400.5	-12.81942
400.714	6.14661
400.927	23.00695
401.141	69.38059
401.354	12.46906
401.567	-4.39031
401.781	-46.53192
401.994	-21.24814
402.208	-8.60492
402.421	-12.81942
402.635	-8.60492
402.848	8.25407
403.061	33.54542
403.275	39.86879
403.488	-14.92664
403.701	-38.10439
403.915	77.81336
404.128	4.03918
404.341	-10.71218
404.555	-63.38577
404.768	1.93177
404.981	-2.28298
405.195	6.14661
405.408	33.54542
405.621	-50.74553
405.834	8.25407
406.048	-21.24814
406.261	4.03918
406.474	48.30027
406.687	12.46906
406.9	-46.53192
407.114	54.62413
407.327	-12.81942
407.54	6.14661
407.753	-10.71218
407.966	-29.67646
408.179	-38.10439
408.392	-10.71218
408.605	-78.13156
408.819	31.43768
409.032	33.54542
409.245	-63.38577
409.458	-10.71218
409.671	50.4082
409.884	20.89932
410.097	27.22227
410.31	4.03918
410.523	-38.10439
410.736	35.65319
410.949	-27.56942
411.162	25.11459
411.375	96.7884
411.588	-19.141
411.801	50.4082
412.014	-6.49763
412.227	79.92161
412.44	29.32996
412.653	12.46906
412.865	20.89932
413.078	-2.28298
413.291	23.00695
413.504	-52.8523
413.717	84.13817
413.93	16.68414
414.143	6.14661
414.356	18.79172
414.568	-4.39031
414.781	20.89932
414.994	-10.71218
415.207	46.19237
415.42	-29.67646
415.632	20.89932
415.845	-17.03383
416.058	-2.28298
416.271	12.46906
416.483	63.05626
416.696	-35.99745
416.909	-4.39031
417.121	-19.141
417.334	52.51615
417.547	16.68414
417.759	-46.53192
417.972	-8.60492
418.185	-38.10439
418.397	73.59693
418.61	-10.71218
418.823	29.32996
419.035	20.89932
419.248	12.46906
419.46	35.65319
419.673	-21.24814
419.885	-4.39031
420.098	63.05626
420.311	-10.71218
420.523	-38.10439
420.736	-0.17561
420.948	-8.60492
421.161	-90.7698
421.373	-10.71218
421.586	-84.4508
421.798	-4.39031
422.01	29.32996
422.223	-29.67646
422.435	25.11459
422.648	20.89932
422.86	-17.03383
423.073	-40.21131
423.285	-21.24814
423.497	10.36155
423.71	-12.81942
423.922	-2.28298
424.134	-8.60492
424.347	31.43768
424.559	-59.17246
424.771	-12.81942
424.984	-52.8523
425.196	-69.70555
425.408	-31.78348
425.621	-50.74553
425.833	-12.81942
426.045	-12.81942
426.257	-21.24814
426.47	-4.39031
426.682	-21.24814
426.894	4.03918
427.106	8.25407
427.318	-0.17561
427.531	54.62413
427.743	-42.31821
427.955	50.4082
428.167	-21.24814
428.379	-33.89048
428.591	-33.89048
428.804	-21.24814
429.016	33.54542
429.228	-2.28298
429.44	48.30027
429.652	6.14661
429.864	52.51615
430.076	20.89932
430.288	12.46906
430.5	-21.24814
430.712	-2.28298
430.924	29.32996
431.136	-10.71218
431.348	-59.17246
431.56	-46.53192
431.772	-50.74553
431.984	-12.81942
432.196	29.32996
432.408	-78.13156
432.62	-54.95905
432.832	20.89932
433.044	-40.21131
433.256	41.97663
433.468	-38.10439
433.679	31.43768
433.891	4.03918
434.103	14.57659
434.315	-6.49763
434.527	-80.238
434.739	56.73213
434.95	-17.03383
435.162	-71.81209
435.374	-29.67646
435.586	6.14661
435.798	-52.8523
436.009	-48.63874
436.221	29.32996
436.433	54.62413
436.645	-46.53192
436.856	-21.24814
437.068	-35.99745
437.28	-19.141
437.491	29.32996
437.703	-10.71218
437.915	25.11459
438.126	-4.39031
438.338	-14.92664
438.55	37.76098
438.761	29.32996
438.973	-25.46235
439.184	-35.99745
439.396	-4.39031
439.608	-35.99745
439.819	29.32996
440.031	-27.56942
440.242	12.46906
440.454	39.86879
440.665	23.00695
440.877	-42.31821
441.088	14.57659
441.3	37.76098
441.511	-17.03383
441.723	-80.238
441.934	14.57659
442.146	-21.24814
442.357	-21.24814
442.569	-29.67646
442.78	-31.78348
442.991	-12.81942
443.203	23.00695
443.414	-33.89048
443.626	-63.38577
443.837	-0.17561
444.048	58.84015
444.26	-14.92664
444.471	-10.71218
444.682	-35.99745
444.894	6.14661
445.105	-63.38577
445.316	-8.60492
445.528	31.43768
445.739	-12.81942
445.95	25.11459
446.161	25.11459
446.373	25.11459
446.584	-42.31821
446.795	-54.95905
447.006	6.14661
447.217	75.70514
447.429	-6.49763
447.64	-12.81942
447.851	-8.60492
448.062	-0.17561
448.273	-80.238
448.484	39.86879
448.695	4.03918
448.907	-38.10439
449.118	58.84015
449.329	4.03918
449.54	-71.81209
449.751	50.4082
449.962	25.11459
450.173	-29.67646
450.384	-25.46235
450.595	12.46906
450.806	-80.238
451.017	-17.03383
451.228	-33.89048
451.439	-29.67646
451.65	14.57659
451.861	-35.99745
452.072	-54.95905
452.283	-4.39031
452.494	-31.78348
452.705	-6.49763
452.915	-27.56942
453.126	35.65319
453.337	-21.24814
453.548	29.32996
453.759	63.05626
453.97	48.30027
454.181	-71.81209
454.391	46.19237
454.602	-65.49239
454.813	-44.42508
455.024	-17.03383
455.235	4.03918
455.445	16.68414
455.656	29.32996
455.867	-71.81209
456.078	4.03918
456.288	10.36155
456.499	39.86879
456.71	33.54542
456.921	-63.38577
457.131	-71.81209
457.342	-42.31821
457.553	-4.39031
457.763	-109.72541
457.974	20.89932
458.184	12.46906
458.395	-12.81942
458.606	-4.39031
458.816	20.89932
459.027	103.11382
459.237	-29.67646
459.448	-4.39031
459.659	-10.71218
459.869	-27.56942
460.08	-71.81209
460.29	41.97663
460.501	-31.78348
460.711	27.22227
460.922	-12.81942
461.132	-44.42508
461.343	-10.71218
461.553	-38.10439
461.764	-4.39031
461.974	-21.24814
462.184	6.14661
462.395	-71.81209
462.605	-0.17561
462.816	-63.38577
463.026	-4.39031
463.236	-80.238
463.447	88.35483
463.657	37.76098
463.867	16.68414
464.078	63.05626
464.288	56.73213
464.498	37.76098
464.709	16.68414
464.919	25.11459
465.129	-12.81942
465.339	12.46906
465.55	25.11459
465.76	23.00695
465.97	4.03918
466.18	-38.10439
466.391	6.14661
466.601	-33.89048
466.811	33.54542
467.021	-10.71218
467.231	-12.81942
467.441	-76.0251
467.651	-19.141
467.862	-0.17561
468.072	-54.95905
468.282	29.32996
468.492	-0.17561
468.702	-38.10439
468.912	4.03918
469.122	-48.63874
469.332	-10.71218
469.542	-0.17561
469.752	-10.71218
469.962	20.89932
470.172	16.68414
470.382	-14.92664
470.592	29.32996
470.802	46.19237
471.012	4.03918
471.222	16.68414
471.432	-0.17561
471.642	73.59693
471.852	-21.24814
472.062	20.89932
472.272	-23.35526
472.482	-2.28298
472.691	-25.46235
472.901	-54.95905
473.111	1.93177
473.321	-0.17561
473.531	20.89932
473.741	-50.74553
473.95	12.46906
474.16	16.68414
474.37	25.11459
474.58	-50.74553
474.79	1.93177
474.999	-2.28298
475.209	-10.71218
475.419	-54.95905
475.628	-12.81942
475.838	-17.03383
476.048	16.68414
476.258	23.00695
476.467	96.7884
476.677	71.48875
476.886	-27.56942
477.096	-31.78348
477.306	-10.71218
477.515	-12.81942
477.725	-33.89048
477.935	31.43768
478.144	-0.17561
478.354	41.97663
478.563	-76.0251
478.773	20.89932
478.982	-8.60492
479.192	-38.10439
479.401	12.46906
479.611	37.76098
479.82	-12.81942
480.03	-42.31821
480.239	75.70514
480.449	-44.42508
480.658	29.32996
480.868	-8.60492
481.077	-31.78348
481.287	-46.53192
481.496	46.19237
481.705	29.32996
481.915	-27.56942
482.124	-101.30096
482.333	79.92161
482.543	-10.71218
482.752	-27.56942
482.961	31.43768
483.171	-54.95905
483.38	-25.46235
483.589	29.32996
483.799	-31.78348
484.008	29.32996
484.217	33.54542
484.426	-0.17561
484.636	8.25407
484.845	-2.28298
485.054	-21.24814
485.263	65.16435
485.472	-29.67646
485.682	12.46906
485.891	31.43768
486.1	-10.71218
486.309	6.14661
486.518	52.51615
486.727	-2.28298
486.936	25.11459
487.146	-21.24814
487.355	37.76098
487.564	10.36155
487.773	-12.81942
487.982	-17.03383
488.191	-19.141
488.4	56.73213
488.609	-0.17561
488.818	-44.42508
489.027	-33.89048
489.236	-0.17561
489.445	-25.46235
489.654	23.00695
489.863	39.86879
490.072	46.19237
490.281	-4.39031
490.49	-27.56942
490.698	-33.89048
490.907	31.43768
491.116	-0.17561
491.325	25.11459
491.534	35.65319
491.743	14.57659
491.952	4.03918
492.16	-46.53192
492.369	-88.66349
492.578	14.57659
492.787	-21.24814
492.996	46.19237
493.204	-23.35526
493.413	6.14661
493.622	-2.28298
493.831	-23.35526
494.039	-35.99745
494.248	-52.8523
494.457	-14.92664
494.665	6.14661
494.874	-29.67646
495.083	12.46906
495.291	20.89932
495.5	-35.99745
495.709	50.4082
495.917	-0.17561
496.126	-17.03383
496.335	-52.8523
496.543	46.19237
496.752	-4.39031
496.96	1.93177
497.169	-27.56942
497.377	18.79172
497.586	-0.17561
497.794	23.00695
498.003	-8.60492
498.211	39.86879
498.42	29.32996
498.628	79.92161
498.837	23.00695
499.045	52.51615
499.254	37.76098
499.462	56.73213
499.671	98.89685
499.879	-4.39031
500.087	31.43768
500.296	-17.03383
500.504	-2.28298
500.713	-33.89048
500.921	-46.53192
501.129	12.46906
501.338	29.32996
501.546	-29.67646
501.754	23.00695
501.962	71.48875
502.171	-17.03383
502.379	-12.81942
502.587	105.22233
502.795	56.73213
503.004	-21.24814
503.212	-6.49763
503.42	20.89932
503.628	12.46906
503.837	-44.42508
504.045	25.11459
504.253	31.43768
504.461	58.84015
504.669	39.86879
504.877	12.46906
505.085	-8.60492
505.294	-10.71218
505.502	79.92161
505.71	-0.17561
505.918	20.89932
506.126	-21.24814
506.334	6.14661
506.542	27.22227
506.75	46.19237
506.958	33.54542
507.166	-19.141
507.374	37.76098
507.582	56.73213
507.79	75.70514
507.998	-57.06577
508.206	31.43768
508.414	6.14661
508.622	6.14661
508.83	46.19237
509.037	20.89932
509.245	71.48875
509.453	-38.10439
509.661	31.43768
509.869	-54.95905
510.077	54.62413
510.285	71.48875
510.492	69.38059
510.7	-6.49763
510.908	-4.39031
511.116	56.73213
511.324	8.25407
511.531	31.43768
511.739	-27.56942
511.947	35.65319
512.155	86.24649
512.362	50.4082
512.57	4.03918
512.778	-78.13156
512.985	-21.24814
513.193	-29.67646
513.401	69.38059
513.608	29.32996
513.816	29.32996
514.024	54.62413
514.231	14.57659
514.439	-21.24814
514.646	54.62413
514.854	71.48875
515.061	-12.81942
515.269	71.48875
515.477	29.32996
515.684	-10.71218
515.892	25.11459
516.099	-10.71218
516.307	-25.46235
516.514	-12.81942
516.722	65.16435
516.929	-17.03383
517.136	-29.67646
517.344	54.62413
517.551	-12.81942
517.759	39.86879
517.966	71.48875
518.173	35.65319
518.381	27.22227
518.588	29.32996
518.796	35.65319
519.003	14.57659
519.21	63.05626
519.418	37.76098
519.625	44.08449
519.832	58.84015
520.039	46.19237
520.247	16.68414
520.454	-2.28298
520.661	79.92161
520.868	90.46319
521.076	54.62413
521.283	79.92161
521.49	65.16435
521.697	-27.56942
521.904	31.43768
522.112	27.22227
522.319	14.57659
522.526	132.63502
522.733	29.32996
522.94	52.51615
523.147	37.76098
523.354	63.05626
523.561	25.11459
523.768	23.00695
523.975	98.89685
524.183	20.89932
524.39	109.43943
524.597	-2.28298
524.804	77.81336
525.011	65.16435
525.218	119.98255
525.425	98.89685
525.632	-17.03383
525.838	41.97663
526.045	56.73213
526.252	75.70514
526.459	141.07043
526.666	20.89932
526.873	-50.74553
527.08	31.43768
527.287	33.54542
527.494	63.05626
527.701	31.43768
527.907	82.02988
528.114	20.89932
528.321	6.14661
528.528	8.25407
528.735	54.62413
528.941	27.22227
529.148	63.05626
529.355	63.05626
529.562	-2.28298
529.768	71.48875
529.975	52.51615
530.182	48.30027
530.388	33.54542
530.595	46.19237
530.802	63.05626
531.008	113.65661
531.215	29.32996
531.422	54.62413
531.628	75.70514
531.835	41.97663
532.042	94.67998
532.248	52.51615
532.455	73.59693
532.661	27.22227
532.868	63.05626
533.074	60.94819
533.281	84.13817
533.487	-12.81942
533.694	-17.03383
533.9	20.89932
534.107	69.38059
534.313	23.00695
534.52	105.22233
534.726	-54.95905
534.933	29.32996
535.139	88.35483
535.345	20.89932
535.552	115.76524
535.758	31.43768
535.965	111.54801
536.171	67.27246
536.377	130.52622
536.584	50.4082
536.79	46.19237
536.996	12.46906
537.203	98.89685
537.409	113.65661
537.615	48.30027
537.821	122.09124
538.028	147.39721
538.234	65.16435
538.44	50.4082
538.646	46.19237
538.853	90.46319
539.059	206.45618
539.265	63.05626
539.471	82.02988
539.677	75.70514
539.883	-12.81942
540.09	56.73213
540.296	71.48875
540.502	105.22233
540.708	33.54542
540.914	54.62413
541.12	92.57157
541.326	35.65319
541.532	119.98255
541.738	23.00695
541.944	20.89932
542.15	115.76524
542.356	52.51615
542.562	90.46319
542.768	4.03918
542.974	126.30869
543.18	20.89932
543.386	41.97663
543.592	-4.39031
543.798	41.97663
544.004	58.84015
544.21	71.48875
544.415	101.00532
544.621	69.38059
544.827	82.02988
545.033	122.09124
545.239	75.70514
545.445	130.52622
545.651	54.62413
545.856	119.98255
546.062	46.19237
546.268	96.7884
546.474	101.00532
546.679	58.84015
546.885	67.27246
547.091	88.35483
547.297	147.39721
547.502	126.30869
547.708	52.51615
547.914	128.41744
548.119	96.7884
548.325	130.52622
548.531	88.35483
548.736	90.46319
548.942	88.35483
549.147	90.46319
549.353	90.46319
549.559	138.96154
549.764	69.38059
549.97	115.76524
550.175	105.22233
550.381	119.98255
550.586	96.7884
550.792	160.05133
550.997	126.30869
551.203	39.86879
551.408	56.73213
551.614	54.62413
551.819	107.33087
552.025	134.74384
552.23	193.79933
552.435	82.02988
552.641	41.97663
552.846	46.19237
553.052	109.43943
553.257	107.33087
553.462	98.89685
553.668	88.35483
553.873	109.43943
554.078	69.38059
554.283	67.27246
554.489	122.09124
554.694	124.19996
554.899	126.30869
555.105	105.22233
555.31	122.09124
555.515	73.59693
555.72	107.33087
555.925	193.79933
556.131	174.81543
556.336	122.09124
556.541	130.52622
556.746	134.74384
556.951	160.05133
557.156	138.96154
557.361	176.92467
557.567	63.05626
557.772	79.92161
557.977	174.81543
558.182	145.28826
558.387	202.23715
558.592	122.09124
558.797	90.46319
559.002	166.37868
559.207	145.28826
559.412	124.19996
559.617	147.39721
559.822	210.67529
560.027	189.58055
560.232	56.73213
560.437	113.65661
560.642	134.74384
560.847	107.33087
561.051	206.45618
561.256	174.81543
561.461	113.65661
561.666	189.58055
561.871	147.39721
562.076	134.74384
562.281	166.37868
562.485	67.27246
562.69	145.28826
562.895	179.03394
563.1	259.20069
563.305	157.94226
563.509	219.11374
563.714	155.83321
563.919	185.36184
564.123	185.36184
564.328	155.83321
564.533	170.59702
564.737	202.23715
564.942	122.09124
565.147	176.92467
565.351	141.07043
565.556	136.85268
565.761	157.94226
565.965	221.22341
566.17	138.96154
566.374	214.89448
566.579	126.30869
566.784	217.0041
566.988	191.68993
567.193	214.89448
567.397	231.77202
567.602	299.2945
567.806	212.78487
568.011	202.23715
568.215	179.03394
568.42	252.87071
568.624	204.34665
568.828	198.0182
569.033	191.68993
569.237	149.50617
569.442	200.12766
569.646	202.23715
569.85	183.25252
570.055	138.96154
570.259	164.26954
570.463	235.99161
570.668	235.99161
570.872	217.0041
571.076	195.90876
571.281	221.22341
571.485	225.4428
571.689	299.2945
571.893	210.67529
572.098	290.85314
572.302	214.89448
572.506	261.31072
572.71	299.2945
572.914	202.23715
573.119	250.76076
573.323	246.5409
573.527	181.14322
573.731	240.21127
573.935	267.64093
574.139	309.84661
574.343	235.99161
574.547	225.4428
574.751	240.21127
574.955	299.2945
575.159	301.40489
575.364	307.73615
575.568	254.98069
575.772	250.76076
575.976	189.58055
576.18	320.39917
576.383	240.21127
576.587	254.98069
576.791	261.31072
576.995	223.33309
577.199	290.85314
577.403	261.31072
577.607	292.96345
577.811	284.52232
578.015	286.63257
578.219	257.09068
578.422	265.53084
578.626	242.32113
578.83	335.1735
579.034	252.87071
579.238	318.28862
579.442	297.18413
579.645	316.17809
579.849	316.17809
580.053	303.51529
580.257	383.72372
580.46	290.85314
580.664	284.52232
580.868	316.17809
581.071	387.9459
581.275	356.28118
581.479	362.61382
581.682	273.97131
581.886	383.72372
582.09	343.61636
582.293	301.40489
582.497	436.5057
582.7	358.39204
582.904	341.50562
583.107	360.50292
583.311	269.75104
583.515	354.17033
583.718	360.50292
583.922	438.61718
584.125	335.1735
584.329	349.94869
584.532	371.05758
584.735	417.50302
584.939	413.28038
585.142	354.17033
585.346	333.06283
585.549	358.39204
585.753	349.94869
585.956	478.73838
586.159	444.95174
586.363	434.39422
586.566	482.96198
586.769	419.61437
586.973	316.17809
587.176	438.61718
587.379	244.431
587.582	309.84661
587.786	366.83566
587.989	430.17133
588.192	482.96198
588.395	368.94661
588.599	417.50302
588.802	409.05781
589.005	411.16909
589.208	381.61266
589.411	379.50161
589.615	425.9485
589.818	411.16909
590.021	440.72869
590.224	425.9485
590.427	383.72372
590.63	375.27956
590.833	544.21075
591.036	476.6266
591.239	480.85017
591.442	438.61718
591.645	523.08913
591.848	404.83529
592.051	561.10904
592.254	428.0599
592.457	620.25976
592.66	451.28643
592.863	523.08913
593.066	419.61437
593.269	582.23313
593.472	571.67092
593.675	535.76193
593.878	495.63314
594.081	620.25976
594.284	480.85017
594.486	552.65979
594.689	525.20123
594.892	620.25976
595.095	558.99671
595.298	658.29044
595.5	546.32299
595.703	599.13334
595.906	512.52884
596.109	620.25976
596.311	514.64087
596.514	556.88439
596.717	586.4581
596.92	643.50026
597.122	588.57061
597.325	565.33375
597.528	605.47113
597.73	660.40337
597.933	552.65979
598.136	611.80904
598.338	544.21075
598.541	675.19421
598.743	575.89576
598.946	518.86497
599.148	535.76193
599.351	651.95172
599.554	647.72597
599.756	704.77757
599.959	588.57061
600.161	761.83724
600.363	656.17752
600.566	721.68333
600.768	586.4581
600.971	698.43809
601.173	683.64637
601.376	719.57007
601.578	649.83884
601.78	755.4969
601.983	605.47113
602.185	687.87252
602.388	647.72597
602.59	730.13647
602.792	709.00395
602.995	738.58978
603.197	656.17752
603.399	785.08593
603.601	637.1618
603.804	742.8165
604.006	715.34359
604.208	755.4969
604.41	730.13647
604.613	852.72501
604.815	780.85881
605.017	865.40836
605.219	592.79566
605.421	806.22212
605.623	766.06419
605.826	954.19992
606.028	711.11715
606.23	770.29117
606.432	681.53331
606.634	772.40468
606.836	656.17752
607.038	740.70313
607.24	715.34359
607.442	736.47644
607.644	673.0812
607.846	827.35926
608.048	763.95071
608.25	793.54029
608.452	721.68333
608.654	895.00401
608.856	776.63172
609.058	878.09201
609.26	700.55124
609.462	799.88117
609.664	789.31309
609.866	793.54029
610.067	755.4969
610.269	926.71537
610.471	772.40468
610.673	960.54268
610.875	759.72379
611.077	901.34614
611.278	882.31996
611.48	949.97145
611.682	827.35926
611.884	928.82952
612.085	901.34614
612.287	935.17202
612.489	854.83888
612.69	890.77596
612.892	789.31309
613.094	914.03062
613.295	725.90988
613.497	848.4973
613.699	848.4973
613.9	960.54268
614.102	865.40836
614.304	962.65695
614.505	890.77596
614.707	1021.85913
614.908	829.47302
615.11	911.91652
615.311	823.13176
615.513	926.71537
615.714	909.80243
615.916	873.8641
616.117	939.40039
616.319	1049.34751
616.52	920.37296
616.722	949.97145
616.923	1028.20252
617.124	975.34269
617.326	907.68835
617.527	992.2574
617.729	1023.97359
617.93	1036.66044
618.131	983.8
618.333	1036.66044
618.534	949.97145
618.735	1043.00395
618.937	964.77122
619.138	1002.82931
619.339	966.8855
619.54	1038.77494
619.742	1009.17253
619.943	1140.27702
620.144	882.31996
620.345	954.19992
620.546	1023.97359
620.748	1165.65421
620.949	1017.63024
621.15	941.51459
621.351	964.77122
621.552	1290.43267
621.753	1081.06605
621.954	1053.57658
622.155	920.37296
622.356	1055.69112
622.558	935.17202
622.759	1133.93281
622.96	901.34614
623.161	1119.12982
623.362	1062.03478
623.563	1093.7538
623.764	1125.47393
623.965	1267.16813
624.166	968.99979
624.366	1093.7538
624.567	1004.94371
624.768	1009.17253
624.969	968.99979
625.17	1265.05319
625.371	1059.92022
625.572	1036.66044
625.773	996.48615
625.973	1214.29538
626.174	1110.67107
626.375	1197.3765
626.576	1045.11847
626.777	1267.16813
626.977	1157.19508
627.178	1309.46748
627.379	1205.83591
627.58	1207.95077
627.78	1038.77494
627.981	1347.53755
628.182	1112.78575
628.382	1317.92745
628.583	1186.80231
628.784	1254.47851
628.984	1087.4099
629.185	1417.33374
629.386	1002.82931
629.586	1229.09956
629.787	1186.80231
629.987	1339.07749
630.188	1102.2124
630.388	1296.77759
630.589	1150.85078
630.79	1301.00754
630.99	1144.50651
631.191	1294.66261
631.391	1222.75489
631.591	1398.29832
631.792	1222.75489
631.992	1385.60808
632.193	1197.3765
632.393	1292.54764
632.594	1148.73602
632.794	1262.93825
632.994	1279.85784
633.195	1326.38745
633.395	1269.28308
633.595	1288.3177
633.796	1165.65421
633.996	1406.7585
634.196	1305.23751
634.397	1406.7585
634.597	1127.58865
634.797	1322.15744
634.997	1161.42464
635.198	1485.01538
635.398	1385.60808
635.598	1444.8294
635.798	1231.21446
635.998	1334.84747
636.199	1288.3177
636.399	1383.49304
636.599	1296.77759
636.799	1457.51971
636.999	1182.57266
637.199	1326.38745
637.399	1148.73602
637.599	1455.40466
637.799	1332.73246
637.999	1567.50171
638.199	1410.9886
638.399	1408.87355
638.599	1224.86978
638.799	1375.0329
638.999	1398.29832
639.199	1391.9532
639.399	1398.29832
639.599	1614.03157
639.799	1389.83816
639.999	1550.58156
640.199	1493.47557
640.399	1493.47557
640.599	1237.55917
640.799	1542.12146
640.998	1520.97113
641.198	1544.23649
641.398	1415.21869
641.598	1618.26152
641.798	1423.67889
641.997	1559.04165
642.197	1552.69659
642.397	1685.93932
642.597	1408.87355
642.796	1559.04165
642.996	1527.31624
643.196	1611.9166
643.395	1406.7585
643.595	1633.06625
643.795	1525.2012
643.994	1795.90902
644.194	1495.59062
644.394	1736.69576
644.593	1639.4111
644.793	1789.56489
644.992	1673.24993
645.192	1724.00682
645.392	1654.21567
645.591	1738.81057
645.791	1527.31624
645.99	1535.77637
646.19	1493.47557
646.389	1762.07324
646.589	1406.7585
646.788	1569.61672
646.987	1440.5993
647.187	1669.02012
647.386	1586.53675
647.586	1855.11898
647.785	1654.21567
647.984	1812.82651
648.184	1645.75593
648.383	1804.3678
648.582	1565.38669
648.782	1713.43262
648.981	1717.66231
649.18	1730.35131
649.38	1652.10074
649.579	1778.99126
649.778	1694.39885
649.977	1924.89719
650.177	1677.47974
650.376	1808.59716
650.575	1635.1812
650.774	1795.90902
650.973	1594.99673
651.173	1774.76177
651.372	1825.51444
651.571	1996.78344
651.77	1605.57166
651.969	1939.69786
652.168	1766.30277
652.367	1924.89719
652.566	1768.41752
652.765	1973.52689
652.964	1698.6286
653.163	1941.81222
653.362	1745.15498
653.561	2113.0539
653.76	1859.34812
653.959	1901.63843
654.158	1630.95129
654.357	2011.58266
654.556	1620.37648
654.755	2146.87385
654.954	1855.11898
655.153	1869.92089
655.352	1732.46613
655.551	1897.40949
655.749	1762.07324
655.948	2087.68765
656.147	1842.43143
656.346	2024.26744
656.545	1865.69179
656.743	1931.24037
656.942	1857.23355
657.141	2049.63629
657.34	1946.04092
657.538	1897.40949
657.737	1872.03543
657.936	2108.82627
658.135	1962.95549
658.333	1992.55503
658.532	1791.6796
658.731	2058.09234
658.929	2041.18011
659.128	2085.57374
659.326	1840.31682
659.525	2047.52225
659.724	1956.61257
659.922	1939.69786
660.121	2015.81095
660.319	2121.50908
660.518	1855.11898
660.716	2195.48643
660.915	1863.57724
661.113	2070.77622
661.312	1931.24037
661.51	2153.21487
661.709	1924.89719
661.907	2121.50908
662.105	1935.46913
662.304	2261.00059
662.502	1954.49825
662.701	2058.09234
662.899	1874.14996
663.097	2174.35106
663.296	2178.5782
663.494	2286.35859
663.692	1863.57724
663.891	2263.11381
664.089	1965.06978
664.287	2003.126
664.485	2007.35434
664.684	2273.67976
664.882	1922.78278
665.08	2261.00059
665.278	2041.18011
665.476	2136.30533
665.675	2036.95199
665.873	2286.35859
666.071	1948.15526
666.269	2261.00059
666.467	1891.06604
666.665	2142.64647
666.863	2108.82627
667.061	2286.35859
667.259	2210.28068
667.457	2353.97326
667.655	2047.52225
667.853	2161.66944
668.051	2108.82627
668.249	2142.64647
668.447	1912.21067
668.645	2254.66088
668.843	2108.82627
669.041	2172.23748
669.239	1981.98391
669.437	2275.79292
669.635	2159.55581
669.833	2161.66944
670.031	1914.32511
670.229	2170.12389
670.426	2083.45983
670.624	2007.35434
670.822	2049.63629
671.02	2246.20781
671.218	1975.64116
671.415	2201.82687
671.613	2218.73435
671.811	2277.90607
672.009	2081.34592
672.206	2320.16717
672.404	2127.85038
672.602	2286.35859
672.799	2087.68765
672.997	2098.25705
673.195	2244.09452
673.392	2417.35274
673.59	2227.18788
673.788	2214.50754
673.985	2168.01029
674.183	2203.94034
674.38	2168.01029
674.578	2326.506
674.775	2102.48476
674.973	2197.59992
675.17	2036.95199
675.368	2203.94034
675.565	2168.01029
675.763	2146.87385
675.96	2214.50754
676.158	2320.16717
676.355	2053.86433
676.553	2423.69018
676.75	2157.44217
676.947	2267.34022
677.145	2263.11381
677.342	2275.79292
677.539	2119.39529
677.737	2417.35274
677.934	2176.46464
678.131	2299.03709
678.329	2151.1012
678.526	2451.15128
678.723	2214.50754
678.92	2392.00206
679.118	2172.23748
679.315	2328.61893
679.512	2176.46464
679.709	2381.43884
679.906	2005.24018
680.104	2339.18341
680.301	2104.5986
680.498	2178.5782
680.695	2163.78307
680.892	2328.61893
681.089	2123.62285
681.286	2501.84385
681.483	2125.73662
681.68	2261.00059
681.877	2218.73435
682.075	2318.0542
682.272	2227.18788
682.469	2419.46523
682.665	1967.18407
682.862	2362.42439
683.059	2222.96114
683.256	2174.35106
683.453	2094.02931
683.65	2379.32616
683.847	2083.45983
684.044	2345.52198
684.241	2153.21487
684.438	2332.84475
684.635	2180.69176
684.831	2465.93727
685.028	2320.16717
685.225	2349.74764
685.422	2277.90607
685.619	2389.88944
685.815	2311.71525
686.012	2434.25236
686.209	2100.37091
686.405	2472.27396
686.602	2356.08606
686.799	2413.12774
686.996	2288.4717
687.192	2427.91508
687.389	2098.25705
687.586	2244.09452
687.782	2123.62285
687.979	2305.37622
688.175	2096.14319
688.372	2286.35859
688.568	2055.97834
688.765	2381.43884
688.962	2187.03238
689.158	2446.92661
689.355	2203.94034
689.551	2383.5515
689.748	2142.64647
689.944	2383.5515
690.14	2134.19161
690.337	2417.35274
690.533	2244.09452
690.73	2332.84475
690.926	2094.02931
691.123	2220.84775
691.319	2252.54763
691.515	2337.07053
691.712	2108.82627
691.908	2385.66416
692.104	2049.63629
692.301	2324.39307
692.497	2041.18011
692.693	2385.66416
692.889	2212.39411
693.086	2349.74764
693.282	2119.39529
693.478	2286.35859
693.674	2108.82627
693.87	2280.01922
694.067	2189.14591
694.263	2550.41812
694.459	2286.35859
694.655	2514.51598
694.851	2195.48643
695.047	2269.45341
695.243	2168.01029
695.439	2341.29627
695.635	2155.32852
695.831	2368.76263
696.027	2104.5986
696.224	2349.74764
696.42	2049.63629
696.615	2375.10078
696.811	2320.16717
697.007	2241.98122
697.203	2075.00412
697.399	2328.61893
697.595	2235.64127
697.791	2271.56659
697.987	2036.95199
698.183	2261.00059
698.379	2413.12774
698.575	2459.60048
698.77	2129.96413
698.966	2370.87536
699.162	2125.73662
699.358	2225.07451
699.554	2261.00059
699.749	2328.61893
699.945	2383.5515
700.141	2356.08606
700.337	2366.6499
700.532	2449.03895
700.728	2225.07451
700.924	2484.94704
701.119	2370.87536
701.315	2237.7546
701.511	2091.91543
701.706	2269.45341
701.902	2142.64647
702.097	2239.86792
702.293	2258.88736
702.489	2339.18341
702.684	2218.73435
702.88	2522.96385
703.075	2252.54763
703.271	2385.66416
703.466	2362.42439
703.662	2396.22728
703.857	2083.45983
704.053	2465.93727
704.248	2153.21487
704.443	2218.73435
704.639	2296.92403
704.834	2392.00206
705.03	2127.85038
705.225	2413.12774
705.42	2180.69176
705.616	2347.63481
705.811	2252.54763
706.006	2368.76263
706.202	2172.23748
706.397	2296.92403
706.592	2210.28068
706.787	2311.71525
706.983	2305.37622
707.178	2396.22728
707.373	2239.86792
707.568	2265.22702
707.763	2117.2815
707.959	2459.60048
708.154	2235.64127
708.349	2320.16717
708.544	2104.5986
708.739	2307.48924
708.934	2184.91885
709.129	2303.26319
709.324	2296.92403
709.519	2440.58953
709.714	2184.91885
709.909	2326.506
710.104	2307.48924
710.299	2305.37622
710.494	2218.73435
710.689	2244.09452
710.884	2206.0538
711.079	2440.58953
711.274	1969.29835
711.469	2398.33988
711.664	2142.64647
711.859	2337.07053
712.054	2193.37293
712.249	2309.60225
712.443	2203.94034
712.638	2299.03709
712.833	1994.66924
713.028	2337.07053
713.223	2343.40913
713.417	2330.73184
713.612	2174.35106
713.807	2315.94123
714.002	2132.07787
714.196	2415.24025
714.391	2168.01029
714.586	2400.45246
714.78	2254.66088
714.975	2430.02752
715.17	2305.37622
715.364	2474.38617
715.559	2225.07451
715.754	2468.04951
715.948	2290.5848
716.143	2271.56659
716.337	2142.64647
716.532	2497.61971
716.726	2110.94009
716.921	2417.35274
717.115	2320.16717
717.31	2451.15128
717.504	2385.66416
717.699	2430.02752
717.893	2180.69176
718.088	2375.10078
718.282	2303.26319
718.476	2176.46464
718.671	2106.71244
718.865	2330.73184
719.059	2159.55581
719.254	2345.52198
719.448	2184.91885
719.642	2318.0542
719.837	2261.00059
720.031	2427.91508
720.225	2068.66226
720.419	2208.16724
720.614	1960.84119
720.808	2328.61893
721.002	2235.64127
721.196	2265.22702
721.39	2184.91885
721.585	2558.86519
721.779	2261.00059
721.973	2337.07053
722.167	1994.66924
722.361	2472.27396
722.555	2068.66226
722.749	2201.82687
722.943	2176.46464
723.137	2210.28068
723.331	2163.78307
723.525	2451.15128
723.719	2261.00059
723.913	2216.62095
724.107	2142.64647
724.301	2349.74764
724.495	2176.46464
724.689	2364.53715
724.883	2077.11806
725.077	2356.08606
725.271	2210.28068
725.465	2269.45341
725.659	2229.30125
725.853	2301.15014
726.046	2261.00059
726.24	2501.84385
726.434	2127.85038
726.628	2383.5515
726.822	2180.69176
727.015	2315.94123
727.209	2108.82627
727.403	2339.18341
727.596	2193.37293
727.79	2387.77681
727.984	2315.94123
728.177	2239.86792
728.371	2269.45341
728.565	2457.4882
728.758	2296.92403
728.952	2408.90269
729.146	2235.64127
729.339	2294.81097
729.533	2383.5515
729.726	2387.77681
729.92	2370.87536
730.113	2394.11468
730.307	2218.73435
730.5	2273.67976
730.694	2197.59992
730.887	2362.42439
731.081	2301.15014
731.274	2396.22728
731.468	2077.11806
731.661	2320.16717
731.854	2168.01029
732.048	2330.73184
732.241	2269.45341
732.435	2239.86792
732.628	2127.85038
732.821	2077.11806
733.014	2320.16717
733.208	2351.86046
733.401	2322.28012
733.594	2497.61971
733.788	2455.3759
733.981	2343.40913
734.174	2408.90269
734.367	2296.92403
734.56	2159.55581
734.754	2271.56659
734.947	2244.09452
735.14	2239.86792
735.333	2184.91885
735.526	2151.1012
735.719	2075.00412
735.912	2134.19161
736.105	2303.26319
736.298	2290.5848
736.491	2311.71525
736.684	2286.35859
736.877	2227.18788
737.07	2286.35859
737.263	2117.2815
737.456	2237.7546
737.649	2261.00059
737.842	2309.60225
738.035	2210.28068
738.228	2155.32852
738.421	2305.37622
738.614	2178.5782
738.807	2398.33988
739	2326.506
739.192	2218.73435
739.385	2201.82687
739.578	2121.50908
739.771	2153.21487
739.964	2182.80531
740.156	2364.53715
740.349	2174.35106
740.542	2157.44217
740.735	2254.66088
740.927	2419.46523
741.12	2299.03709
741.313	2197.59992
741.505	2459.60048
741.698	2353.97326
741.891	2360.31162
742.083	2229.30125
742.276	2334.95764
742.468	2366.6499
742.661	2134.19161
742.854	2127.85038
743.046	2180.69176
743.239	2337.07053
743.431	2345.52198
743.624	2201.82687
743.816	2244.09452
744.009	2282.13235
744.201	2062.32033
744.393	2379.32616
744.586	2170.12389
744.778	2275.79292
744.971	2214.50754
745.163	2286.35859
745.355	2119.39529
745.548	2121.50908
745.74	2113.0539
745.932	2446.92661
746.125	2267.34022
746.317	2408.90269
746.509	2252.54763
746.702	2440.58953
746.894	2100.37091
747.086	2168.01029
747.278	2176.46464
747.471	2301.15014
747.663	2091.91543
747.855	2406.79014
748.047	2049.63629
748.239	2273.67976
748.431	2241.98122
748.623	2140.53276
748.815	2055.97834
749.008	2218.73435
749.2	2178.5782
749.392	2286.35859
749.584	2043.29417
749.776	2318.0542
749.968	2303.26319
750.16	2309.60225
750.352	2201.82687
750.544	2493.39553
750.736	2261.00059
750.928	2408.90269
751.12	2322.28012
751.311	2372.98808
751.503	2337.07053
751.695	2353.97326
751.887	2320.16717
752.079	2227.18788
752.271	2129.96413
752.463	2244.09452
752.654	2100.37091
752.846	2315.94123
753.038	2218.73435
753.23	2263.11381
753.421	2070.77622
753.613	2168.01029
753.805	2155.32852
753.997	2358.19885
754.188	2280.01922
754.38	2168.01029
754.572	2053.86433
754.763	2136.30533
754.955	2032.72383
755.146	2119.39529
755.338	1967.18407
755.53	2252.54763
755.721	2157.44217
755.913	2265.22702
756.104	2108.82627
756.296	2345.52198
756.487	1969.29835
756.679	2235.64127
756.87	1952.38393
757.062	2110.94009
757.253	2064.43431
757.445	2176.46464
757.636	2051.75031
757.827	2136.30533
758.019	2218.73435
758.21	2110.94009
758.401	2053.86433
758.593	2273.67976
758.784	1973.52689
758.975	2136.30533
759.167	1888.95155
759.358	2138.41905
759.549	2060.20634
759.74	2091.91543
759.932	2030.60975
760.123	2161.66944
760.314	1952.38393
760.505	1998.89763
760.696	1975.64116
760.888	2100.37091
761.079	2100.37091
761.27	2068.66226
761.461	2053.86433
761.652	2161.66944
761.843	1971.41263
762.034	2007.35434
762.225	1857.23355
762.416	1973.52689
762.607	2049.63629
762.798	2117.2815
762.989	2051.75031
763.18	1984.09815
763.371	1872.03543
763.562	2041.18011
763.753	1905.86734
763.944	2013.69681
764.135	1954.49825
764.326	1962.95549
764.517	1840.31682
764.708	1992.55503
764.899	1918.55396
765.089	2005.24018
765.28	1867.80634
765.471	2030.60975
765.662	1787.45017
765.853	1863.57724
766.043	1715.54747
766.234	2001.01182
766.425	1745.15498
766.615	1905.86734
766.806	1810.71184
766.997	2011.58266
767.187	1924.89719
767.378	2108.82627
767.569	1732.46613
767.759	1872.03543
767.95	1952.38393
768.141	1958.72688
768.331	1853.0044
768.522	2108.82627
768.712	1806.48248
768.903	1979.86966
769.093	1757.8437
769.284	1975.64116
769.474	1905.86734
769.665	1774.76177
769.855	1755.72892
770.046	1829.74372
770.236	1745.15498
770.426	1897.40949
770.617	1798.02372
770.807	1948.15526
770.998	1867.80634
771.188	2003.126
771.378	1810.71184
771.569	1922.78278
771.759	1749.38456
771.949	1804.3678
772.139	1692.28397
772.33	1700.74347
772.52	1609.80162
772.71	1721.89199
772.9	1717.66231
773.09	1865.69179
773.281	1814.94117
773.471	1833.97297
773.661	1669.02012
773.851	1833.97297
774.041	1654.21567
774.231	1728.23648
774.421	1611.9166
774.611	1624.60641
774.802	1713.43262
774.992	1630.95129
775.182	1546.35152
775.372	1641.52605
775.562	1783.22072
775.752	1778.99126
775.942	1641.52605
776.131	1669.02012
776.321	1609.80162
776.511	1787.45017
776.701	1666.9052
776.891	1694.39885
777.081	1620.37648
777.271	1732.46613
777.461	1719.77715
777.651	1795.90902
777.84	1594.99673
778.03	1690.16909
778.22	1457.51971
778.41	1535.77637
778.599	1499.82071
778.789	1656.3306
778.979	1662.67537
779.169	1603.45668
779.358	1461.74982
779.548	1702.85834
779.738	1493.47557
779.927	1592.88174
780.117	1592.88174
780.307	1578.07675
780.496	1432.13909
780.686	1525.2012
780.875	1375.0329
781.065	1544.23649
781.254	1605.57166
781.444	1614.03157
781.633	1402.52841
781.823	1580.19175
782.012	1451.17456
782.202	1692.28397
782.391	1375.0329
782.581	1571.73173
782.77	1315.81245
782.96	1474.44013
783.149	1383.49304
783.338	1575.96174
783.528	1366.57277
783.717	1495.59062
783.906	1550.58156
784.096	1474.44013
784.285	1457.51971
784.474	1542.12146
784.663	1410.9886
784.853	1537.8914
785.042	1520.97113
785.231	1482.90033
785.42	1330.61746
785.61	1514.62601
785.799	1406.7585
785.988	1493.47557
786.177	1277.74289
786.366	1417.33374
786.555	1288.3177
786.744	1415.21869
786.933	1408.87355
787.122	1512.51097
787.312	1284.08777
787.501	1523.08617
787.69	1309.46748
787.879	1385.60808
788.068	1400.41337
788.257	1313.69746
788.445	1157.19508
788.634	1465.97992
788.823	1243.9039
789.012	1432.13909
789.201	1180.45784
789.39	1364.45774
789.579	1298.89256
789.768	1381.378
789.957	1150.85078
790.145	1241.78899
790.334	1432.13909
790.523	1421.56384
790.712	1349.65257
790.9	1262.93825
791.089	1231.21446
791.278	1271.39803
791.467	1123.35923
791.655	1366.57277
791.844	1241.78899
792.033	1214.29538
792.221	1277.74289
792.41	1224.86978
792.599	1152.96554
792.787	1275.62793
792.976	1212.1805
793.164	1322.15744
793.353	1102.2124
793.541	1341.19251
793.73	1216.41025
793.918	1349.65257
794.107	1062.03478
794.295	1368.6878
794.484	1267.16813
794.672	1330.61746
794.861	1226.98467
795.049	1207.95077
795.238	1161.42464
795.426	1222.75489
795.614	1144.50651
795.803	1279.85784
795.991	1191.03198
796.179	1195.26165
796.368	1104.32706
796.556	1243.9039
796.744	1288.3177
796.932	1330.61746
797.121	1152.96554
797.309	1248.13374
797.497	1214.29538
797.685	1250.24866
797.874	1136.04754
798.062	1161.42464
798.25	1193.14681
798.438	1246.01882
798.626	1180.45784
798.814	1254.47851
799.002	1121.24452
799.19	1218.52513
799.378	1161.42464
799.566	1317.92745
799.755	1093.7538
799.943	1100.09774
800.131	1102.2124
800.318	1334.84747
800.506	1070.49307
800.694	1343.30752
800.882	1273.51298
801.07	1339.07749
801.258	1059.92022
801.446	1161.42464
801.634	1087.4099
801.822	1176.22822
802.01	1180.45784
802.197	1131.81809
802.385	1047.23299
802.573	1182.57266
802.761	945.743
802.949	1237.55917
803.136	1146.62126
803.324	1191.03198
803.512	1076.83684
803.699	1178.34303
803.887	1178.34303
804.075	1339.07749
804.262	1064.14935
804.45	1229.09956
804.638	1097.98309
804.825	1246.01882
805.013	1034.54595
805.201	1131.81809
805.388	1155.08031
805.576	1180.45784
805.763	1167.76901
805.951	1176.22822
806.138	1076.83684
806.326	1345.42254
806.513	990.14304
806.701	1127.58865
806.888	1068.37849
807.075	1239.67408
807.263	1002.82931
807.45	1182.57266
807.638	1171.9986
807.825	1307.35249
808.012	1178.34303
808.2	1136.04754
808.387	1072.60766
808.574	1381.378
808.761	1059.92022
808.949	1290.43267
809.136	1182.57266
809.323	1355.99764
809.51	1186.80231
809.698	1214.29538
809.885	1053.57658
810.072	1309.46748
810.259	1163.53942
810.446	1389.83816
810.633	1171.9986
810.82	1239.67408
811.008	1165.65421
811.195	1152.96554
811.382	1138.16228
811.569	1214.29538
811.756	1034.54595
811.943	1305.23751
812.13	1191.03198
812.317	1360.22769
812.504	1123.35923
812.691	1330.61746
812.878	1284.08777
813.064	1446.94445
813.251	1262.93825
813.438	1296.77759
813.625	1163.53942
813.812	1387.72312
813.999	1091.63916
814.186	1246.01882
814.372	1372.91786
814.559	1457.51971
814.746	1112.78575
814.933	1210.06564
815.12	1053.57658
815.306	1252.36358
815.493	1066.26392
815.68	1237.55917
815.866	1110.67107
816.053	1163.53942
816.24	1178.34303
816.426	1307.35249
816.613	1146.62126
816.799	1210.06564
816.986	1186.80231
817.173	1212.1805
817.359	1191.03198
817.546	1313.69746
817.732	1142.39176
817.919	1186.80231
818.105	1087.4099
818.292	1252.36358
818.478	1091.63916
818.665	1237.55917
818.851	1186.80231
819.037	1290.43267
819.224	1144.50651
819.41	1178.34303
819.597	1216.41025
819.783	1207.95077
819.969	1174.11341
820.156	1220.64001
820.342	1081.06605
820.528	1076.83684
820.714	1104.32706
820.901	1262.93825
821.087	1222.75489
821.273	1330.61746
821.459	1284.08777
821.646	1284.08777
821.832	1239.67408
822.018	1326.38745
822.204	1129.70336
822.39	1313.69746
822.576	1100.09774
822.762	1072.60766
822.948	1114.90044
823.134	1163.53942
823.32	1036.66044
823.507	1171.9986
823.693	1053.57658
823.879	1089.52453
824.065	1034.54595
824.25	1026.08805
824.436	1064.14935
824.622	1229.09956
824.808	1043.00395
824.994	1087.4099
825.18	1081.06605
825.366	1305.23751
825.552	1036.66044
825.738	1140.27702
825.923	1034.54595
826.109	1047.23299
826.295	890.77596
826.481	1119.12982
826.667	1070.49307
826.852	1275.62793
827.038	1161.42464
827.224	1366.57277
827.409	1078.95145
827.595	1136.04754
827.781	1055.69112
827.966	1286.20273
828.152	1070.49307
828.338	1106.44172
828.523	897.11805
828.709	1104.32706
828.894	1011.28694
829.08	1108.5564
829.266	1043.00395
829.451	968.99979
829.637	977.45701
829.822	1131.81809
830.008	935.17202
830.193	1087.4099
830.378	1002.82931
830.564	1102.2124
830.749	1017.63024
830.935	1034.54595
831.12	1007.05811
831.305	1034.54595
831.491	1085.29528
831.676	1078.95145
831.861	988.02869
832.047	1129.70336
832.232	903.4602
832.417	952.08568
832.602	960.54268
832.788	1059.92022
832.973	1034.54595
833.158	1250.24866
833.343	1026.08805
833.528	1051.46204
833.714	943.62879
833.899	1064.14935
834.084	962.65695
834.269	1051.46204
834.454	1002.82931
834.639	1000.71491
834.824	973.22839
835.009	966.8855
835.194	895.00401
835.379	1021.85913
835.564	1009.17253
835.749	952.08568
835.934	810.44948
836.119	928.82952
836.304	814.67687
836.489	907.68835
836.674	869.63621
836.859	875.97805
837.044	901.34614
837.228	928.82952
837.413	966.8855
837.598	960.54268
837.783	884.43395
837.968	971.11408
838.152	770.29117
838.337	1000.71491
838.522	899.23209
838.707	941.51459
838.891	763.95071
839.076	962.65695
839.261	840.04198
839.445	1034.54595
839.63	852.72501
839.815	962.65695
839.999	852.72501
840.184	922.48709
840.368	985.91434
840.553	941.51459
840.737	797.76753
840.922	899.23209
841.106	738.58978
841.291	725.90988
841.475	770.29117
841.66	937.28621
841.844	763.95071
842.029	791.42669
842.213	801.99481
842.397	850.61115
842.582	713.23036
842.766	886.54795
842.951	721.68333
843.135	818.90429
843.319	751.27006
843.504	658.29044
843.688	732.24978
843.872	713.23036
844.056	728.02317
844.241	814.67687
844.425	698.43809
844.609	808.3358
844.793	713.23036
844.977	749.15665
845.161	747.04326
845.346	766.06419
845.53	721.68333
845.714	810.44948
845.898	692.09872
846.082	774.5182
846.266	664.62926
846.45	810.44948
846.634	565.33375
846.818	816.79058
847.002	721.68333
847.186	704.77757
847.37	666.74223
847.554	751.27006
847.738	601.24592
847.922	698.43809
848.106	675.19421
848.29	635.049
848.473	637.1618
848.657	605.47113
848.841	730.13647
849.025	808.3358
849.209	666.74223
849.392	656.17752
849.576	666.74223
849.76	681.53331
849.944	654.06461
850.127	757.61034
850.311	698.43809
850.495	702.6644
850.678	673.0812
850.862	742.8165
851.046	620.25976
851.229	590.68313
851.413	531.53761
851.596	635.049
851.78	687.87252
851.964	704.77757
852.147	586.4581
852.331	518.86497
852.514	594.90821
852.698	670.9682
852.881	578.0082
853.065	597.02077
853.248	613.9217
853.431	573.78333
853.615	535.76193
853.798	518.86497
853.982	518.86497
854.165	618.14706
854.348	518.86497
854.532	603.35852
854.715	582.23313
854.898	582.23313
855.081	586.4581
855.265	728.02317
855.448	578.0082
855.631	546.32299
855.814	601.24592
855.997	550.54751
856.181	626.59793
856.364	495.63314
856.547	506.19285
856.73	535.76193
856.913	504.08088
857.096	556.88439
857.279	539.98631
857.462	645.61311
857.645	510.41683
857.828	493.52124
858.011	468.17963
858.194	525.20123
858.377	493.52124
858.56	444.95174
858.743	447.06329
858.926	512.52884
859.109	491.40936
859.292	567.44613
859.475	398.50165
859.658	434.39422
859.841	501.96892
860.023	461.84457
860.206	396.39047
860.389	485.0738
860.572	449.17485
860.755	474.51483
860.937	442.8402
861.12	470.29135
861.303	387.9459
861.486	447.06329
861.668	432.28277
861.851	440.72869
862.034	463.95624
862.216	461.84457
862.399	366.83566
862.581	394.2793
862.764	453.39803
862.947	470.29135
863.129	318.28862
863.312	417.50302
863.494	444.95174
863.677	425.9485
863.859	440.72869
864.042	485.0738
864.224	392.16815
864.406	495.63314
864.589	387.9459
864.771	531.53761
864.954	375.27956
865.136	425.9485
865.318	409.05781
865.501	360.50292
865.683	398.50165
865.865	428.0599
866.048	510.41683
866.23	449.17485
866.412	453.39803
866.594	442.8402
866.777	354.17033
866.959	385.8348
867.141	375.27956
867.323	398.50165
867.505	383.72372
867.687	409.05781
867.869	398.50165
868.052	358.39204
868.234	333.06283
868.416	493.52124
868.598	387.9459
868.78	413.28038
868.962	356.28118
869.144	417.50302
869.326	368.94661
869.508	366.83566
869.69	347.8379
869.872	333.06283
870.054	324.62032
870.236	360.50292
870.417	337.28419
870.599	421.72573
870.781	343.61636
870.963	335.1735
871.145	339.39489
871.327	335.1735
871.508	276.08147
871.69	425.9485
871.872	284.52232
872.054	360.50292
872.235	354.17033
872.417	476.6266
872.599	322.50973
872.78	358.39204
872.962	381.61266
873.144	354.17033
873.325	345.72712
873.507	425.9485
873.689	307.73615
873.87	438.61718
874.052	290.85314
874.233	480.85017
874.415	392.16815
874.596	311.95708
874.778	358.39204
874.959	354.17033
875.141	290.85314
875.322	328.84154
875.503	324.62032
875.685	366.83566
875.866	299.2945
876.048	290.85314
876.229	385.8348
876.41	349.94869
876.592	261.31072
876.773	354.17033
876.954	335.1735
877.136	349.94869
877.317	324.62032
877.498	409.05781
877.679	354.17033
877.86	337.28419
878.042	305.62571
878.223	377.39057
878.404	383.72372
878.585	360.50292
878.766	244.431
878.947	322.50973
879.128	282.41208
879.309	263.42077
879.49	417.50302
879.672	349.94869
879.853	219.11374
880.034	307.73615
880.215	383.72372
880.396	349.94869
880.576	328.84154
880.757	398.50165
880.938	307.73615
881.119	309.84661
881.3	358.39204
881.481	299.2945
881.662	419.61437
881.843	368.94661
882.023	430.17133
882.204	453.39803
882.385	366.83566
882.566	358.39204
882.747	341.50562
882.927	449.17485
883.108	368.94661
883.289	305.62571
883.469	415.39169
883.65	349.94869
883.831	326.73092
884.011	316.17809
884.192	394.2793
884.373	390.05702
884.553	349.94869
884.734	354.17033
884.914	333.06283
885.095	375.27956
885.275	360.50292
885.456	368.94661
885.636	383.72372
885.817	409.05781
885.997	406.94654
886.178	352.0595
886.358	305.62571
886.538	400.61285
886.719	307.73615
886.899	417.50302
887.08	356.28118
887.26	453.39803
887.44	326.73092
887.621	352.0595
887.801	290.85314
887.981	381.61266
888.161	349.94869
888.342	419.61437
888.522	307.73615
888.702	368.94661
888.882	333.06283
889.062	366.83566
889.242	341.50562
889.423	444.95174
889.603	290.85314
889.783	383.72372
889.963	271.86117
890.143	307.73615
890.323	362.61382
890.503	387.9459
890.683	349.94869
890.863	375.27956
891.043	349.94869
891.223	347.8379
891.403	333.06283
891.583	349.94869
891.763	231.77202
891.943	396.39047
892.122	335.1735
892.302	307.73615
892.482	240.21127
892.662	333.06283
892.842	303.51529
893.022	337.28419
893.201	257.09068
893.381	368.94661
893.561	240.21127
893.741	362.61382
893.92	345.72712
894.1	390.05702
894.28	316.17809
894.459	328.84154
894.639	320.39917
894.819	301.40489
894.998	273.97131
895.178	434.39422
895.357	292.96345
895.537	417.50302
895.716	316.17809
895.896	324.62032
896.075	292.96345
896.255	273.97131
896.434	326.73092
896.614	328.84154
896.793	254.98069
896.973	248.65082
897.152	286.63257
897.331	324.62032
897.511	324.62032
897.69	352.0595
897.87	250.76076
898.049	328.84154
898.228	240.21127
898.407	341.50562
898.587	286.63257
898.766	328.84154
898.945	244.431
899.124	356.28118
899.304	257.09068
899.483	233.8818
899.662	284.52232
899.841	276.08147
900.02	280.30186
900.199	217.0041
900.378	326.73092
900.557	250.76076
900.737	231.77202
900.916	250.76076
901.095	295.07378
901.274	231.77202
901.453	282.41208
901.632	269.75104
901.811	257.09068
901.989	242.32113
902.168	265.53084
902.347	198.0182
902.526	172.70621
902.705	257.09068
902.884	242.32113
903.063	183.25252
903.242	235.99161
903.42	214.89448
903.599	242.32113
903.778	219.11374
903.957	233.8818
904.135	273.97131
904.314	233.8818
904.493	204.34665
904.672	191.68993
904.85	244.431
905.029	193.79933
905.207	301.40489
905.386	126.30869
905.565	299.2945
905.743	227.55252
905.922	233.8818
906.1	208.56572
906.279	248.65082
906.457	214.89448
906.636	257.09068
906.814	162.16043
906.993	181.14322
907.171	240.21127
907.35	193.79933
907.528	147.39721
907.707	157.94226
907.885	132.63502
908.063	124.19996
908.242	122.09124
908.42	206.45618
908.598	155.83321
908.777	225.4428
908.955	107.33087
909.133	126.30869
909.311	191.68993
909.49	141.07043
909.668	164.26954
909.846	136.85268
910.024	174.81543
910.202	96.7884
910.38	103.11382
910.559	208.56572
910.737	126.30869
910.915	143.17933
911.093	233.8818
911.271	172.70621
911.449	155.83321
911.627	145.28826
911.805	130.52622
911.983	204.34665
912.161	124.19996
912.339	183.25252
912.517	141.07043
912.695	204.34665
912.872	122.09124
913.05	225.4428
913.228	166.37868
913.406	214.89448
913.584	67.27246
913.762	164.26954
913.939	147.39721
914.117	195.90876
914.295	75.70514
914.473	214.89448
914.65	183.25252
914.828	109.43943
915.006	105.22233
915.184	113.65661
915.361	149.50617
915.539	198.0182
915.716	88.35483
915.894	79.92161
916.072	179.03394
916.249	151.61516
916.427	189.58055
916.604	138.96154
916.782	113.65661
916.959	183.25252
917.137	111.54801
917.314	117.87389
917.492	130.52622
917.669	79.92161
917.847	86.24649
918.024	138.96154
918.201	164.26954
918.379	164.26954
918.556	117.87389
918.733	138.96154
918.911	107.33087
919.088	37.76098
919.265	164.26954
919.442	155.83321
919.62	73.59693
919.797	172.70621
919.974	198.0182
920.151	52.51615
920.328	172.70621
920.506	122.09124
920.683	88.35483
920.86	79.92161
921.037	98.89685
921.214	113.65661
921.391	149.50617
921.568	204.34665
921.745	151.61516
921.922	130.52622
922.099	157.94226
922.276	77.81336
922.453	71.48875
922.63	113.65661
922.807	96.7884
922.984	113.65661
923.161	101.00532
923.338	84.13817
923.514	157.94226
923.691	65.16435
923.868	143.17933
924.045	109.43943
924.222	65.16435
924.399	132.63502
924.575	122.09124
924.752	113.65661
924.929	113.65661
925.105	208.56572
925.282	56.73213
925.459	179.03394
925.635	39.86879
925.812	41.97663
925.989	58.84015
926.165	63.05626
926.342	20.89932
926.518	111.54801
926.695	107.33087
926.871	155.83321
927.048	65.16435
927.224	31.43768
927.401	67.27246
927.577	117.87389
927.754	105.22233
927.93	168.48784
928.107	113.65661
928.283	79.92161
928.459	77.81336
928.636	54.62413
928.812	46.19237
928.988	86.24649
929.165	132.63502
929.341	101.00532
929.517	84.13817
929.693	67.27246
929.87	50.4082
930.046	48.30027
930.222	46.19237
930.398	56.73213
930.574	75.70514
930.751	60.94819
930.927	46.19237
931.103	147.39721
931.279	48.30027
931.455	98.89685
931.631	56.73213
931.807	-0.17561
931.983	105.22233
932.159	37.76098
932.335	39.86879
932.511	92.57157
932.687	54.62413
932.863	58.84015
933.039	71.48875
933.215	65.16435
933.391	54.62413
933.566	46.19237
933.742	29.32996
933.918	39.86879
934.094	60.94819
934.27	-4.39031
934.445	41.97663
934.621	44.08449
934.797	65.16435
934.973	98.89685
935.148	63.05626
935.324	63.05626
935.5	-6.49763
935.675	92.57157
935.851	-12.81942
936.027	50.4082
936.202	-14.92664
936.378	65.16435
936.553	107.33087
936.729	37.76098
936.904	31.43768
937.08	12.46906
937.255	79.92161
937.431	56.73213
937.606	79.92161
937.782	4.03918
937.957	31.43768
938.133	-33.89048
938.308	6.14661
938.483	20.89932
938.659	56.73213
938.834	73.59693
939.009	58.84015
939.185	29.32996
939.36	113.65661
939.535	37.76098
939.71	4.03918
939.886	-69.70555
940.061	23.00695
940.236	37.76098
940.411	-54.95905
940.586	4.03918
940.761	48.30027
940.937	75.70514
941.112	8.25407
941.287	16.68414
941.462	48.30027
941.637	20.89932
941.812	12.46906
941.987	25.11459
942.162	-25.46235
942.337	58.84015
942.512	1.93177
942.687	14.57659
942.862	27.22227
943.037	58.84015
943.212	-59.17246
943.386	12.46906
943.561	-33.89048
943.736	-65.49239
943.911	71.48875
944.086	35.65319
944.26	-0.17561
944.435	-31.78348
944.61	14.57659
944.785	-10.71218
944.959	4.03918
945.134	14.57659
945.309	75.70514
945.483	29.32996
945.658	-6.49763
945.833	20.89932
946.007	73.59693
946.182	-0.17561
946.357	-17.03383
946.531	-21.24814
946.706	-8.60492
946.88	20.89932
947.055	46.19237
947.229	-8.60492
947.404	-19.141
947.578	-17.03383
947.752	-21.24814
947.927	-29.67646
948.101	14.57659
948.276	25.11459
948.45	-29.67646
948.624	60.94819
948.799	-33.89048
948.973	115.76524
949.147	-38.10439
949.321	-19.141
949.496	20.89932
949.67	-42.31821
949.844	20.89932
950.018	71.48875
950.193	71.48875
950.367	-42.31821
950.541	1.93177
950.715	-0.17561
950.889	25.11459
951.063	-12.81942
951.237	41.97663
951.411	20.89932
951.585	39.86879
951.759	12.46906
951.933	31.43768
952.107	-44.42508
952.281	58.84015
952.455	-12.81942
952.629	46.19237
952.803	-8.60492
952.977	67.27246
953.151	25.11459
953.325	23.00695
953.499	25.11459
953.672	-8.60492
953.846	20.89932
954.02	113.65661
954.194	6.14661
954.368	-17.03383
954.541	-2.28298
954.715	8.25407
954.889	56.73213
955.062	4.03918
955.236	37.76098
955.41	63.05626
955.583	-33.89048
955.757	-10.71218
955.93	-29.67646
956.104	151.61516
956.278	-14.92664
956.451	46.19237
956.625	-54.95905
956.798	37.76098
956.972	23.00695
957.145	14.57659
957.319	-17.03383
957.492	-29.67646
957.665	20.89932
957.839	27.22227
958.012	6.14661
958.185	-35.99745
958.359	-14.92664
958.532	-29.67646
958.705	-4.39031
958.879	50.4082
959.052	-59.17246
959.225	-4.39031
959.398	-17.03383
959.572	46.19237
959.745	-4.39031
959.918	29.32996
960.091	14.57659
960.264	35.65319
960.438	-17.03383
960.611	-4.39031
960.784	4.03918
960.957	8.25407
961.13	12.46906
961.303	138.96154
961.476	67.27246
961.649	37.76098
961.822	54.62413
961.995	46.19237
962.168	16.68414
962.341	98.89685
962.514	-33.89048
962.686	67.27246
962.859	-19.141
963.032	-27.56942
963.205	-21.24814
963.378	-10.71218
963.551	-10.71218
963.723	56.73213
963.896	88.35483
964.069	-4.39031
964.242	20.89932
964.414	75.70514
964.587	16.68414
964.76	-2.28298
964.932	-12.81942
965.105	16.68414
965.278	46.19237
965.45	25.11459
965.623	-63.38577
965.795	12.46906
965.968	48.30027
966.14	73.59693
966.313	-42.31821
966.485	50.4082
966.658	48.30027
966.83	14.57659
967.003	107.33087
967.175	-12.81942
967.348	41.97663
967.52	50.4082
967.692	14.57659
967.865	4.03918
968.037	50.4082
968.209	48.30027
968.382	4.03918
968.554	54.62413
968.726	-25.46235
968.898	12.46906
969.071	33.54542
969.243	-0.17561
969.415	-65.49239
969.587	-12.81942
969.759	31.43768
969.932	20.89932
970.104	-0.17561
970.276	-25.46235
970.448	56.73213
970.62	-46.53192
970.792	12.46906
970.964	12.46906
971.136	-23.35526
971.308	33.54542
971.48	14.57659
971.652	71.48875
971.824	-10.71218
971.996	79.92161
972.168	-21.24814
972.339	-38.10439
972.511	46.19237
972.683	-50.74553
972.855	27.22227
973.027	37.76098
973.199	-2.28298
973.37	-63.38577
973.542	41.97663
973.714	-25.46235
973.886	23.00695
974.057	25.11459
974.229	-17.03383
974.401	-61.27913
974.572	25.11459
974.744	71.48875
974.915	12.46906
975.087	96.7884
975.259	-35.99745
975.43	-21.24814
975.602	-29.67646
975.773	-29.67646
975.945	-80.238
976.116	31.43768
976.288	8.25407
976.459	-2.28298
976.63	29.32996
976.802	-4.39031
976.973	58.84015
977.145	-21.24814
977.316	25.11459
977.487	16.68414
977.659	-2.28298
977.83	71.48875
978.001	50.4082
978.172	-46.53192
978.344	10.36155
978.515	-0.17561
978.686	16.68414
978.857	20.89932
979.028	-0.17561
979.2	-19.141
979.371	8.25407
979.542	23.00695
979.713	52.51615
979.884	-42.31821
980.055	-54.95905
980.226	-54.95905
980.397	31.43768
980.568	-14.92664
980.739	12.46906
980.91	31.43768
981.081	54.62413
981.252	6.14661
981.423	29.32996
981.594	-48.63874
981.765	29.32996
981.936	29.32996
982.106	-4.39031
982.277	-46.53192
982.448	6.14661
982.619	-19.141
982.79	-19.141
982.96	-29.67646
983.131	31.43768
983.302	20.89932
983.472	-25.46235
983.643	20.89932
983.814	25.11459
983.984	-61.27913
984.155	-38.10439
984.326	-4.39031
984.496	4.03918
984.667	-8.60492
984.837	33.54542
985.008	12.46906
985.178	-21.24814
985.349	-35.99745
985.519	4.03918
985.69	79.92161
985.86	-10.71218
986.031	33.54542
986.201	12.46906
986.371	-19.141
986.542	48.30027
986.712	31.43768
986.882	-63.38577
987.053	65.16435
987.223	-50.74553
987.393	65.16435
987.563	29.32996
987.734	-14.92664
987.904	12.46906
988.074	25.11459
988.244	12.46906
988.414	-2.28298
988.585	-0.17561
988.755	37.76098
988.925	54.62413
989.095	20.89932
989.265	-0.17561
989.435	4.03918
989.605	12.46906
989.775	-65.49239
989.945	4.03918
990.115	4.03918
990.285	-52.8523
990.455	46.19237
990.625	37.76098
990.795	12.46906
990.965	-19.141
991.134	29.32996
991.304	-21.24814
991.474	-2.28298
991.644	-29.67646
991.814	-19.141
991.984	-33.89048
992.153	107.33087
992.323	50.4082
992.493	-12.81942
992.662	4.03918
992.832	6.14661
993.002	-21.24814
993.171	39.86879
993.341	-42.31821
993.511	35.65319
993.68	-10.71218
993.85	-29.67646
994.019	-38.10439
994.189	71.48875
994.358	1.93177
994.528	29.32996
994.697	-38.10439
994.867	-38.10439
995.036	-27.56942
995.206	63.05626
995.375	-29.67646
995.544	-29.67646
995.714	-17.03383
995.883	54.62413
996.052	37.76098
996.222	37.76098
996.391	-0.17561
996.56	-33.89048
996.73	23.00695
996.899	-29.67646
997.068	20.89932
997.237	-48.63874
997.406	12.46906
997.576	16.68414
997.745	-44.42508
997.914	63.05626
998.083	12.46906
998.252	-10.71218
998.421	-17.03383
998.59	12.46906
998.759	20.89932
998.928	4.03918
999.097	-29.67646
999.266	-21.24814
999.435	67.27246
999.604	25.11459
999.773	10.36155
999.942	-2.28298
1000.111	-2.28298
1000.28	-12.81942
1000.448	-63.38577
1000.617	8.25407
1000.786	29.32996
1000.955	46.19237
1001.124	71.48875
1001.292	-4.39031
1001.461	27.22227
1001.63	29.32996
1001.798	39.86879
1001.967	4.03918
1002.136	4.03918
1002.304	10.36155
1002.473	-23.35526
1002.642	-35.99745
1002.81	-33.89048
1002.979	-12.81942
1003.147	-61.27913
1003.316	37.76098
1003.484	63.05626
1003.653	-12.81942
1003.821	-59.17246
1003.99	-10.71218
1004.158	58.84015
1004.327	41.97663
1004.495	-10.71218
1004.663	14.57659
1004.832	1.93177
1005	-33.89048
1005.168	-14.92664
1005.337	31.43768
1005.505	-25.46235
1005.673	71.48875
1005.842	23.00695
1006.01	-69.70555
1006.178	54.62413
1006.346	46.19237
1006.514	-52.8523
1006.683	-29.67646
1006.851	14.57659
1007.019	79.92161
1007.187	41.97663
1007.355	25.11459
1007.523	6.14661
1007.691	12.46906
1007.859	-12.81942
1008.027	-17.03383
1008.195	-63.38577
1008.363	-69.70555
1008.531	12.46906
1008.699	25.11459
1008.867	71.48875
1009.035	25.11459
1009.203	-44.42508
1009.37	-4.39031
1009.538	-50.74553
1009.706	-8.60492
1009.874	-31.78348
1010.042	-4.39031
1010.209	4.03918
1010.377	71.48875
1010.545	37.76098
1010.713	25.11459
1010.88	-38.10439
1011.048	-59.17246
1011.216	33.54542
1011.383	-42.31821
1011.551	-40.21131
1011.718	-71.81209
1011.886	25.11459
1012.054	4.03918
1012.221	-21.24814
1012.389	39.86879
1012.556	4.03918
1012.724	-14.92664
1012.891	-4.39031
1013.058	-2.28298
1013.226	-17.03383
1013.393	-38.10439
1013.561	14.57659
1013.728	-21.24814
1013.895	18.79172
1014.063	23.00695
1014.23	-31.78348
1014.397	-12.81942
1014.565	-38.10439
1014.732	20.89932
1014.899	-27.56942
1015.066	31.43768
1015.233	-10.71218
1015.401	-21.24814
1015.568	29.32996
1015.735	4.03918
1015.902	4.03918
1016.069	-71.81209
1016.236	-27.56942
1016.403	-17.03383
1016.57	31.43768
1016.737	31.43768
1016.904	12.46906
1017.071	37.76098
1017.238	63.05626
1017.405	-27.56942
1017.572	-12.81942
1017.739	29.32996
1017.906	-19.141
1018.073	-6.49763
1018.24	-27.56942
1018.407	-4.39031
1018.573	25.11459
1018.74	-17.03383
1018.907	-4.39031
1019.074	-4.39031
1019.241	20.89932
1019.407	-33.89048
1019.574	23.00695
1019.741	41.97663
1019.907	-4.39031
1020.074	-27.56942
1020.241	-19.141
1020.407	23.00695
1020.574	-12.81942
1020.74	-38.10439
1020.907	14.57659
1021.073	-42.31821
1021.24	37.76098
1021.406	35.65319
1021.573	-44.42508
1021.739	-21.24814
1021.906	-0.17561
1022.072	63.05626
1022.239	-8.60492
1022.405	16.68414
1022.571	12.46906
1022.738	16.68414
1022.904	-40.21131
1023.07	-103.40711
1023.237	-21.24814
1023.403	79.92161
1023.569	10.36155
1023.735	37.76098
1023.902	-8.60492
1024.068	6.14661
1024.234	-19.141
1024.4	56.73213
1024.566	-2.28298
1024.732	37.76098
1024.898	-71.81209
1025.065	12.46906
1025.231	-48.63874
1025.397	79.92161
1025.563	96.7884
1025.729	20.89932
1025.895	37.76098
1026.061	50.4082
1026.227	35.65319
1026.392	58.84015
1026.558	4.03918
1026.724	12.46906
1026.89	-4.39031
1027.056	92.57157
1027.222	10.36155
1027.388	29.32996
1027.553	12.46906
1027.719	-12.81942
1027.885	-35.99745
1028.051	41.97663
1028.216	-10.71218
1028.382	-21.24814
1028.548	-38.10439
1028.713	46.19237
1028.879	12.46906
1029.045	71.48875
1029.21	25.11459
1029.376	-33.89048
1029.541	-25.46235
1029.707	4.03918
1029.873	37.76098
1030.038	-12.81942
1030.204	-61.27913
1030.369	20.89932
1030.534	-0.17561
1030.7	29.32996
1030.865	-48.63874
1031.031	20.89932
1031.196	6.14661
1031.361	-57.06577
1031.527	-29.67646
1031.692	33.54542
1031.857	-2.28298
1032.023	8.25407
1032.188	-73.91861
1032.353	-4.39031
1032.518	-21.24814
1032.684	37.76098
1032.849	33.54542
1033.014	8.25407
1033.179	-19.141
1033.344	48.30027
1033.509	20.89932
1033.674	-4.39031
1033.839	-23.35526
1034.004	8.25407
1034.17	-40.21131
1034.335	-46.53192
1034.5	-12.81942
1034.664	-2.28298
1034.829	39.86879
1034.994	54.62413
1035.159	-8.60492
1035.324	-40.21131
1035.489	60.94819
1035.654	-8.60492
1035.819	4.03918
1035.984	-12.81942
1036.148	-12.81942
1036.313	-27.56942
1036.478	29.32996
1036.643	-27.56942
1036.807	8.25407
1036.972	1.93177
1037.137	-2.28298
1037.301	-8.60492
1037.466	-63.38577
1037.631	1.93177
1037.795	8.25407
1037.96	-4.39031
1038.124	-21.24814
1038.289	52.51615
1038.454	-84.4508
1038.618	12.46906
1038.783	-33.89048
1038.947	25.11459
1039.111	-33.89048
1039.276	-23.35526
1039.44	29.32996
1039.605	31.43768
1039.769	-4.39031
1039.933	6.14661
1040.098	-46.53192
1040.262	-12.81942
1040.426	-12.81942
1040.591	113.65661
1040.755	-17.03383
1040.919	16.68414
1041.083	-12.81942
1041.248	-8.60492
1041.412	-59.17246
1041.576	-65.49239
1041.74	-48.63874
1041.904	-46.53192
1042.068	-14.92664
1042.232	-6.49763
1042.397	-48.63874
1042.561	-42.31821
1042.725	-19.141
1042.889	27.22227
1043.053	-2.28298
1043.217	-38.10439
1043.381	29.32996
1043.544	-40.21131
1043.708	-78.13156
1043.872	14.57659
1044.036	-54.95905
1044.2	14.57659
1044.364	-42.31821
1044.528	39.86879
1044.691	33.54542
1044.855	12.46906
1045.019	12.46906
1045.183	6.14661
1045.346	29.32996
1045.51	4.03918
1045.674	-38.10439
1045.837	-31.78348
1046.001	50.4082
1046.165	-44.42508
1046.328	-25.46235
1046.492	-2.28298
1046.655	-42.31821
1046.819	-12.81942
1046.983	-29.67646
1047.146	-2.28298
1047.31	-17.03383
1047.473	-4.39031
1047.636	-59.17246
1047.8	-61.27913
1047.963	-12.81942
1048.127	37.76098
1048.29	29.32996
