Data from mixed_try1_USB4F045381__2__00024.txt Node

Date: Thu Apr 03 19:31:57 EDT 2025
User: mmckonesweet
Spectrometer: USB4F04538
Trigger mode: 4
Integration Time (sec): 2.700000E-3
Scans to average: 1
Electric dark correction enabled: true
Nonlinearity correction enabled: true
Boxcar width: 0
XAxis mode: Wavelengths
Number of Pixels in Spectrum: 3648
>>>>>Begin Spectral Data<<<<<
345.52	-21.95051
345.736	-21.95051
345.952	-21.95051
346.168	-19.84338
346.384	-17.73622
346.6	41.27401
346.816	58.13747
347.032	-15.62904
347.248	24.41204
347.464	-21.95051
347.68	39.16618
347.896	-104.10916
348.112	-53.55456
348.328	-17.73622
348.544	64.46165
348.76	-76.72725
348.975	62.35357
349.191	-38.8067
349.407	53.92147
349.623	-36.69976
349.839	70.78603
350.055	-28.27177
350.27	11.76656
350.486	-55.66129
350.702	41.27401
350.918	-2.98542
351.133	-28.27177
351.349	-55.66129
351.565	15.98162
351.781	11.76656
351.996	-21.95051
352.212	-70.40773
352.428	28.62739
352.644	45.48974
352.859	20.19678
353.075	47.59764
353.291	-80.94014
353.506	-9.30734
353.722	-30.3788
353.938	-72.51427
354.153	-30.3788
354.369	32.84284
354.584	39.16618
354.8	-55.66129
355.016	28.62739
355.231	-5.09275
355.447	18.08919
355.662	5.44413
355.878	-11.4146
356.093	60.24551
356.309	-47.2342
356.524	32.84284
356.74	-47.2342
356.955	-11.4146
357.171	53.92147
357.386	7.55158
357.602	-5.09275
357.817	-13.52183
358.033	-30.3788
358.248	1.22931
358.464	-9.30734
358.679	22.3044
358.895	-17.73622
359.11	-19.84338
359.325	-64.08798
359.541	-11.4146
359.756	24.41204
359.972	-26.16471
360.187	-9.30734
360.402	-43.0205
360.618	-61.98135
360.833	-5.09275
361.048	-0.87807
361.264	-19.84338
361.479	-9.30734
361.694	-34.5928
361.909	7.55158
362.125	-97.79065
362.34	28.62739
362.555	-38.8067
362.77	11.76656
362.986	5.44413
363.201	-2.98542
363.416	-80.94014
363.631	20.19678
363.847	24.41204
364.062	-26.16471
364.277	-26.16471
364.492	89.7604
364.707	-45.12736
364.922	41.27401
365.138	-0.87807
365.353	26.51971
365.568	-32.48582
365.783	26.51971
365.998	-36.69976
366.213	15.98162
366.428	-45.12736
366.643	3.33671
366.858	-0.87807
367.073	32.84284
367.288	15.98162
367.503	-26.16471
367.718	-19.84338
367.933	-2.98542
368.148	28.62739
368.363	66.56975
368.578	47.59764
368.793	41.27401
369.008	-0.87807
369.223	28.62739
369.438	28.62739
369.653	20.19678
369.868	-21.95051
370.083	37.05838
370.298	96.08559
370.513	3.33671
370.728	28.62739
370.943	56.02946
371.157	45.48974
371.372	-51.44779
371.587	32.84284
371.802	79.21886
372.017	-7.20006
372.232	3.33671
372.446	-11.4146
372.661	98.19403
372.876	-36.69976
373.091	13.87408
373.306	-5.09275
373.52	32.84284
373.735	-36.69976
373.95	20.19678
374.165	11.76656
374.379	66.56975
374.594	11.76656
374.809	37.05838
375.023	43.38186
375.238	20.19678
375.453	-28.27177
375.667	-53.55456
375.882	20.19678
376.097	15.98162
376.311	30.7351
376.526	39.16618
376.741	39.16618
376.955	34.9506
377.17	87.65205
377.384	-13.52183
377.599	-11.4146
377.813	28.62739
378.028	58.13747
378.242	64.46165
378.457	79.21886
378.672	-64.08798
378.886	3.33671
379.101	-64.08798
379.315	-17.73622
379.53	3.33671
379.744	11.76656
379.958	53.92147
380.173	79.21886
380.387	-32.48582
380.602	26.51971
380.816	15.98162
381.031	-53.55456
381.245	-13.52183
381.459	-5.09275
381.674	3.33671
381.888	11.76656
382.103	11.76656
382.317	-68.30117
382.531	45.48974
382.746	62.35357
382.96	-0.87807
383.174	-43.0205
383.388	72.8942
383.603	58.13747
383.817	-49.34101
384.031	-53.55456
384.246	-38.8067
384.46	-21.95051
384.674	26.51971
384.888	3.33671
385.103	-34.5928
385.317	-53.55456
385.531	41.27401
385.745	7.55158
385.959	11.76656
386.174	-9.30734
386.388	22.3044
386.602	-21.95051
386.816	-43.0205
387.03	58.13747
387.244	-5.09275
387.458	3.33671
387.672	106.62802
387.887	-28.27177
388.101	79.21886
388.315	-21.95051
388.529	41.27401
388.743	-19.84338
388.957	70.78603
389.171	-21.95051
389.385	-0.87807
389.599	3.33671
389.813	-34.5928
390.027	47.59764
390.241	-53.55456
390.455	-9.30734
390.669	49.70556
390.883	-11.4146
391.097	11.76656
391.311	-87.25927
391.525	64.46165
391.738	53.92147
391.952	123.49705
392.166	-80.94014
392.38	-34.5928
392.594	39.16618
392.808	53.92147
393.022	-40.91361
393.236	-5.09275
393.449	79.21886
393.663	7.55158
393.877	34.9506
394.091	-26.16471
394.305	45.48974
394.518	-5.09275
394.732	-53.55456
394.946	37.05838
395.16	62.35357
395.373	45.48974
395.587	-43.0205
395.801	30.7351
396.015	-2.98542
396.228	26.51971
396.442	-30.3788
396.656	-17.73622
396.869	79.21886
397.083	37.05838
397.297	7.55158
397.51	-61.98135
397.724	9.65906
397.938	53.92147
398.151	3.33671
398.365	20.19678
398.578	-57.768
398.792	28.62739
399.005	26.51971
399.219	-7.20006
399.433	-5.09275
399.646	60.24551
399.86	-0.87807
400.073	-19.84338
400.287	53.92147
400.5	-21.95051
400.714	41.27401
400.927	91.86877
401.141	83.43541
401.354	-5.09275
401.567	34.9506
401.781	7.55158
401.994	45.48974
402.208	47.59764
402.421	-11.4146
402.635	77.11062
402.848	72.8942
403.061	1.22931
403.275	11.76656
403.488	60.24551
403.701	22.3044
403.915	24.41204
404.128	-2.98542
404.341	-21.95051
404.555	72.8942
404.768	98.19403
404.981	49.70556
405.195	5.44413
405.408	64.46165
405.621	-61.98135
405.834	70.78603
406.048	64.46165
406.261	45.48974
406.474	30.7351
406.687	-30.3788
406.9	39.16618
407.114	89.7604
407.327	13.87408
407.54	117.171
407.753	56.02946
407.966	11.76656
408.179	45.48974
408.392	1.22931
408.605	64.46165
408.819	20.19678
409.032	104.51949
409.245	96.08559
409.458	28.62739
409.671	-30.3788
409.884	7.55158
410.097	39.16618
410.31	37.05838
410.523	11.76656
410.736	85.54372
410.949	32.84284
411.162	64.46165
411.375	123.49705
411.588	5.44413
411.801	91.86877
412.014	70.78603
412.227	20.19678
412.44	-36.69976
412.653	-15.62904
412.865	62.35357
413.078	24.41204
413.291	20.19678
413.504	41.27401
413.717	62.35357
413.93	11.76656
414.143	-30.3788
414.356	112.95374
414.568	-11.4146
414.781	32.84284
414.994	30.7351
415.207	70.78603
415.42	64.46165
415.632	30.7351
415.845	-9.30734
416.058	-26.16471
416.271	85.54372
416.483	22.3044
416.696	43.38186
416.909	62.35357
417.121	47.59764
417.334	62.35357
417.547	66.56975
417.759	110.84515
417.972	45.48974
418.185	58.13747
418.397	87.65205
418.61	87.65205
418.823	15.98162
419.035	131.93208
419.248	28.62739
419.46	39.16618
419.673	66.56975
419.885	131.93208
420.098	72.8942
420.311	26.51971
420.523	87.65205
420.736	70.78603
420.948	47.59764
421.161	53.92147
421.373	-9.30734
421.586	45.48974
421.798	89.7604
422.01	37.05838
422.223	121.38835
422.435	115.06236
422.648	-2.98542
422.86	98.19403
423.073	163.5665
423.285	96.08559
423.497	49.70556
423.71	72.8942
423.922	64.46165
424.134	45.48974
424.347	172.00315
424.559	62.35357
424.771	138.25859
424.984	100.3025
425.196	102.41098
425.408	106.62802
425.621	134.0409
425.833	110.84515
426.045	121.38835
426.257	197.31505
426.47	123.49705
426.682	146.69422
426.894	66.56975
427.106	75.0024
427.318	43.38186
427.531	56.02946
427.743	138.25859
427.955	115.06236
428.167	66.56975
428.379	174.11236
428.591	172.00315
428.804	115.06236
429.016	129.82329
429.228	155.13019
429.44	142.47636
429.652	222.62986
429.864	134.0409
430.076	87.65205
430.288	112.95374
430.5	203.64348
430.712	148.80318
430.924	174.11236
431.136	125.60578
431.348	188.87742
431.56	117.171
431.772	134.0409
431.984	112.95374
432.196	174.11236
432.408	222.62986
432.62	165.67563
432.832	150.91217
433.044	125.60578
433.256	163.5665
433.468	174.11236
433.679	197.31505
433.891	184.65873
434.103	247.94751
434.315	172.00315
434.527	258.49735
434.739	300.70142
434.95	180.44012
435.162	233.17854
435.374	239.50798
435.586	266.93757
435.798	338.69132
436.009	283.8189
436.221	250.05744
436.433	271.15779
436.645	302.81182
436.856	323.91679
437.068	273.26793
437.28	345.02353
437.491	252.16739
437.703	233.17854
437.915	285.92915
438.126	326.02738
438.338	277.48826
438.55	374.57589
438.761	385.13111
438.973	357.68842
439.184	239.50798
439.396	351.3559
439.608	311.25359
439.819	399.90911
440.031	334.46994
440.242	309.14312
440.454	429.46752
440.665	404.13155
440.877	486.48169
441.088	416.79924
441.3	391.46444
441.511	425.2447
441.723	378.79793
441.934	391.46444
442.146	412.57661
442.357	478.03445
442.569	391.46444
442.78	444.24789
442.991	326.02738
443.203	416.79924
443.414	412.57661
443.626	446.35944
443.837	414.68792
444.048	328.13799
444.26	475.92268
444.471	421.02194
444.682	484.36986
444.894	450.58257
445.105	490.7054
445.316	484.36986
445.528	442.13636
445.739	545.61891
445.95	501.26494
446.161	592.09148
446.373	573.07919
446.584	539.28225
446.795	469.58744
447.006	619.55552
447.217	560.40493
447.429	448.471
447.64	549.84342
447.851	606.87955
448.062	535.05787
448.273	619.55552
448.484	564.62963
448.695	545.61891
448.907	509.71283
449.118	653.36032
449.329	556.18028
449.54	634.34474
449.751	594.20402
449.962	630.11918
450.173	636.45753
450.384	680.82896
450.595	744.22541
450.806	807.63124
451.017	731.54534
451.228	644.90883
451.439	720.97891
451.65	807.63124
451.861	674.48987
452.072	881.6153
452.283	737.88533
452.494	961.95219
452.705	841.45119
452.915	945.03827
453.126	894.29933
453.337	936.58148
453.548	816.086
453.759	961.95219
453.97	887.95728
454.181	957.72367
454.391	932.35313
454.602	1194.55671
454.813	985.20956
455.024	1150.14586
455.235	1069.78821
455.445	1118.42492
455.656	1076.13198
455.867	1143.80159
456.078	932.35313
456.288	991.55261
456.499	1128.99846
456.71	1171.29367
456.921	1052.87173
457.131	1173.40847
457.342	1107.8515
457.553	1198.7864
457.763	1137.45737
457.974	1264.34821
458.184	1190.32703
458.395	1454.69964
458.606	1312.99246
458.816	1456.8147
459.027	1484.31036
459.237	1532.95633
459.448	1526.61123
459.659	1535.07136
459.869	1617.55653
460.08	1532.95633
460.29	1653.51069
460.501	1755.02399
460.711	1695.80877
460.922	1687.34924
461.132	1797.31882
461.343	1695.80877
461.553	1829.03884
461.764	1917.84915
461.974	1774.05686
462.184	1839.61195
462.395	1854.41412
462.605	2175.76011
462.816	1892.4757
463.026	2027.79095
463.236	2065.84363
463.447	2120.80448
463.657	2127.14579
463.867	2247.61667
464.078	2260.29618
464.288	2406.08596
464.498	2300.4458
464.709	2393.41047
464.919	2264.52261
465.129	2634.17645
465.339	2575.05489
465.55	2566.60818
465.76	2490.57939
465.97	2577.16653
466.18	2674.28912
466.391	2944.3964
466.601	2651.06655
466.811	2946.5057
467.021	2988.6886
467.231	3188.97301
467.441	2904.31687
467.651	3115.20064
467.862	2995.01552
468.072	3370.15576
468.282	3353.30689
468.492	3279.58007
468.702	3576.46176
468.912	3549.10469
469.122	3357.51921
469.332	3626.95884
469.542	3517.53496
469.752	3896.08993
469.962	3687.96165
470.172	4017.93289
470.382	3885.58304
470.592	4059.93177
470.802	3805.71442
471.012	4215.25512
471.222	4420.7742
471.432	4278.19108
471.642	4225.74578
471.852	4422.87026
472.062	4385.13782
472.272	4600.95497
472.482	4693.07686
472.691	4852.09359
472.901	4695.17003
473.111	4893.91825
473.321	4868.82455
473.531	5067.3924
473.741	5153.02568
473.95	5249.0555
474.16	5167.6421
474.37	5580.60289
474.58	5407.60506
474.79	5661.83498
474.999	5728.46015
475.209	5413.86082
475.419	5678.49354
475.628	6106.93138
475.838	5830.43311
476.048	6050.83386
476.258	6050.83386
476.467	6335.2999
476.677	6627.61403
476.886	6538.51745
477.096	6766.35408
477.306	6675.25283
477.515	6683.5366
477.725	6861.54897
477.935	6793.26188
478.144	6948.42405
478.354	6909.12837
478.563	7264.56251
478.773	7204.68086
478.982	7237.72131
479.192	7448.222
479.401	7442.03404
479.611	7454.40976
479.82	7619.34533
480.03	7850.02687
480.239	7983.7848
480.449	7987.89906
480.658	8216.11343
480.868	8037.26375
481.077	8191.4535
481.287	8324.99414
481.496	8532.33276
481.705	8764.07711
481.915	8755.8778
482.124	8790.72284
482.333	8903.42097
482.543	8987.39713
482.752	9153.21477
482.961	9167.53938
483.171	9396.62113
483.38	9069.2966
483.589	9449.77122
483.799	9562.16826
484.008	9664.30591
484.217	9586.68486
484.426	9739.86283
484.636	9752.11334
484.845	10074.51756
485.054	9982.73065
485.263	10435.27418
485.472	10233.54743
485.682	10471.93794
485.891	10482.12158
486.1	10612.44418
486.309	10809.86835
486.518	10854.6294
486.727	10653.15952
486.936	10929.89675
487.146	10708.11748
487.355	10964.47382
487.564	10978.71049
487.773	11125.11345
487.982	11251.13813
488.191	11584.30699
488.4	11537.59772
488.609	11825.90042
488.818	11846.19678
489.027	11909.11015
489.236	11990.27704
489.445	11972.01561
489.654	11998.39302
489.863	12395.92803
490.072	12166.77152
490.281	12468.91512
490.49	12657.42656
490.698	12612.83731
490.907	12381.73509
491.116	12671.61343
491.325	12645.26614
491.534	13012.01552
491.743	13131.52667
491.952	13117.34825
492.16	13285.44942
492.369	13078.86281
492.578	13356.32648
492.787	13408.97477
492.996	13336.07641
493.204	13710.64147
493.413	13595.248
493.622	13777.44345
493.831	13927.23022
494.039	13805.78269
494.248	13619.54226
494.457	14164.02653
494.665	13884.72472
494.874	14192.35907
495.083	14329.96888
495.291	14591.00222
495.5	14325.92165
495.709	14690.14894
495.917	14378.53508
496.126	14528.27536
496.335	14564.69755
496.543	14694.19569
496.752	14888.43614
496.96	14819.64339
497.169	14872.24967
497.377	15187.88179
497.586	15212.16104
497.794	15220.25413
498.003	15143.36983
498.211	15513.63151
498.42	15270.83597
498.628	15535.88813
498.837	15600.63512
499.045	15548.02813
499.254	15576.35491
499.462	15675.49983
499.671	15788.81096
499.879	16221.85726
500.087	15839.39734
500.296	16213.7623
500.504	15964.85481
500.713	16296.73697
500.921	16438.40824
501.129	16146.97992
501.338	15786.78752
501.546	16588.1858
501.754	16460.67175
501.962	16596.28222
502.171	16648.90982
502.379	17264.37336
502.587	16772.3884
502.795	17053.79227
503.004	16855.38726
503.212	17140.85572
503.42	16916.12081
503.628	17236.0241
503.837	16936.36584
504.045	17286.64819
504.253	17153.00452
504.461	17383.8517
504.669	17718.04384
504.877	17472.96112
505.085	17474.9864
505.294	17519.54345
505.502	17483.08757
505.71	17938.86272
505.918	17699.8129
506.126	18032.06474
506.334	17610.6877
506.542	18236.73067
506.75	17784.89298
506.958	17977.3583
507.166	17932.78459
507.374	18050.3008
507.582	18362.3858
507.79	18475.89321
507.998	18305.63655
508.206	18611.71251
508.414	18421.16494
508.622	18706.99915
508.83	18512.38028
509.037	18636.04019
509.245	18394.81528
509.453	18775.93532
509.661	18994.93958
509.869	18826.62661
510.077	19031.44485
510.285	18775.93532
510.492	19009.13592
510.7	18814.46047
510.908	18952.35176
511.116	19039.55731
511.324	19289.04731
511.531	19274.84703
511.739	19289.04731
511.947	19007.10786
512.155	19234.27591
512.362	19358.02299
512.57	19252.53271
512.778	19220.0764
512.985	19461.49547
513.193	19244.41853
513.401	19599.4756
513.608	19918.12123
513.816	19680.64939
514.024	19623.82703
514.231	19605.5634
514.439	19633.97364
514.646	19709.0618
514.854	20072.40725
515.061	19532.51225
515.269	19916.09131
515.477	19889.70277
515.684	20236.87042
515.892	19981.05075
516.099	20003.38155
516.307	20218.59537
516.514	20742.61471
516.722	20681.66794
516.929	20639.00744
517.136	20527.28625
517.344	20295.759
517.551	20537.4422
517.759	20722.29871
517.966	20825.91466
518.173	20651.19596
518.381	20720.26713
518.588	20758.86781
518.796	20817.78753
519.003	20925.47738
519.21	20756.83616
519.418	21183.57359
519.625	21169.34611
519.832	21382.77924
520.039	21144.95659
520.247	21307.5644
520.454	21620.65671
520.661	21537.29176
520.868	21453.93347
521.076	21769.1033
521.283	21427.50418
521.49	21891.12969
521.697	21679.62615
521.904	21905.367
522.112	21791.47376
522.319	22167.77369
522.526	21724.36378
522.733	22275.60225
522.94	21984.69261
523.147	22080.29782
523.354	21732.4981
523.561	22678.52391
523.768	22352.91967
523.975	22466.87072
524.183	22407.85894
524.39	22753.83279
524.597	22867.8228
524.804	22731.44316
525.011	22523.85049
525.218	22513.67532
525.425	22625.60702
525.632	22647.99465
525.838	22996.07433
526.045	22827.11084
526.252	22884.10796
526.459	22831.18198
526.666	23218.00108
526.873	23327.96076
527.08	23462.3685
527.287	23452.18561
527.494	23350.36109
527.701	23621.23144
527.907	23411.45486
528.114	23395.16291
528.321	23405.34536
528.528	23584.56911
528.735	24089.77866
528.941	23886.04367
529.148	23549.94448
529.355	23676.22678
529.562	23879.93206
529.768	24303.73025
529.975	23721.0394
530.182	24499.3688
530.388	24044.95455
530.595	23922.71387
530.802	23851.41155
531.008	24434.15329
531.215	24177.39331
531.422	24515.67309
531.628	24646.11321
531.835	24368.94043
532.042	24886.63854
532.248	25078.26692
532.455	24758.2183
532.661	25057.87997
532.868	25353.51239
533.074	25172.0498
533.281	25504.40412
533.487	25263.79842
533.694	25190.39917
533.9	25549.26598
534.107	24984.4888
534.313	25373.9025
534.52	25316.81072
534.726	25643.07119
534.933	25541.10921
535.139	25583.93263
535.345	25235.25393
535.552	25484.01268
535.758	25316.81072
535.965	25708.32944
536.171	25594.12882
536.377	25796.02331
536.584	26075.443
536.79	25922.47178
536.996	26295.73886
537.203	25877.60215
537.409	25793.98388
537.615	25687.93602
537.821	25959.18395
538.028	26412.01401
538.234	26426.29378
538.44	26701.70443
538.646	26028.53076
538.853	26291.65913
539.059	26640.49963
539.265	26514.01409
539.471	26764.95081
539.677	26726.18673
539.883	27113.85092
540.09	26981.22321
540.296	26811.87646
540.502	27238.32214
540.708	27003.66749
540.914	27071.00133
541.12	26913.8914
541.326	27430.13981
541.532	27291.37695
541.738	27724.00965
541.944	27593.3977
542.15	27777.07215
542.356	27448.50593
542.562	27707.68289
542.768	27301.5799
542.974	27554.62324
543.18	28095.46359
543.386	28213.84689
543.592	28393.46995
543.798	28509.82115
544.004	28166.90134
544.21	28244.46386
544.415	27809.72639
544.621	28111.7921
544.827	27942.38731
545.033	28391.42873
545.239	28252.62843
545.445	29379.50104
545.651	28507.77987
545.856	28816.02491
546.062	28448.58324
546.268	28499.61477
546.474	28089.34042
546.679	28403.67606
546.885	28281.20455
547.091	28371.01661
547.297	27752.58166
547.502	28448.58324
547.708	28517.98628
547.914	28779.27921
548.119	29185.54198
548.325	29124.29371
548.531	28791.52774
548.736	29005.88303
548.942	28846.64658
549.147	28779.27921
549.353	29181.45873
549.559	29536.71692
549.764	29310.08303
549.97	29626.55739
550.175	29399.91833
550.381	29551.00958
550.586	29146.7513
550.792	29700.06478
550.997	29573.46959
551.203	29446.87851
551.408	30000.2347
551.614	29744.98665
551.819	29798.07682
552.025	30114.59153
552.23	29789.90905
552.435	30024.73943
552.641	30947.87856
552.846	30188.10856
553.052	30077.83359
553.257	30143.18131
553.462	30608.81937
553.668	30298.38696
553.873	30049.24433
554.078	30623.11631
554.283	30766.08918
554.489	31137.85026
554.694	30974.43299
554.899	30659.88014
555.105	30964.21972
555.31	31023.45719
555.515	30700.72935
555.72	31201.177
555.925	30590.43769
556.131	31166.44925
556.336	30770.17422
556.541	31143.97859
556.746	30939.70801
556.951	31266.54807
557.156	31405.46693
557.361	30992.81697
557.567	31705.80286
557.772	31756.88413
557.977	31448.36984
558.182	31558.69497
558.387	31756.88413
558.592	31538.26402
558.797	31425.8968
559.002	31491.27348
559.207	31754.84085
559.412	31940.78615
559.617	32245.28068
559.822	32284.11211
560.027	31854.96333
560.232	31642.46364
560.437	31724.19199
560.642	32100.18042
560.847	31926.48212
561.051	31732.36498
561.256	31299.2342
561.461	31462.67097
561.666	32081.78816
561.871	32063.39606
562.076	32171.70742
562.281	32147.1836
562.485	31546.43638
562.69	32233.01829
562.895	31885.61396
563.1	32439.44562
563.305	32116.52923
563.509	32181.92577
563.714	32594.79204
563.919	32756.28494
564.123	32374.0405
564.328	32461.92915
564.533	32314.76905
564.737	32388.34767
564.942	32901.43725
565.147	32887.12589
565.351	32737.88625
565.556	32347.47031
565.761	32627.49826
565.965	32694.95675
566.17	32427.18198
566.374	32694.95675
566.579	33044.55788
566.784	32999.57572
566.988	33218.36503
567.193	33165.19836
567.397	32889.17036
567.602	33406.50884
567.806	33418.77995
568.011	33459.68445
568.215	33357.42545
568.42	32911.65972
568.624	32889.17036
568.828	33269.48863
569.033	32940.283
569.237	33410.5992
569.442	33443.32251
569.646	33124.30221
569.85	33490.36363
570.055	33860.61532
570.259	33778.78251
570.463	33711.27447
570.668	33484.22774
570.872	33580.35988
571.076	33498.54486
571.281	34085.68406
571.485	33964.96008
571.689	33386.05722
571.893	33390.14752
572.098	33731.73107
572.302	33611.04181
572.506	33915.85554
572.71	33797.19442
572.914	34235.07195
573.119	33840.15661
573.323	34245.30473
573.527	34106.14699
573.731	34484.77926
573.935	34599.41888
574.139	34730.45158
574.343	33619.22378
574.547	34396.76101
574.751	34734.54663
574.955	34607.60792
575.159	34306.70337
575.364	34515.48505
575.568	34433.60496
575.772	34632.17544
575.976	34558.47469
576.18	34750.92701
576.383	35217.88837
576.587	35209.69398
576.791	34525.72051
576.995	34941.36949
577.199	34871.74092
577.403	34613.74975
577.607	35359.25389
577.811	35191.25689
578.015	34607.60792
578.219	34677.21746
578.422	34980.28185
578.626	35164.62621
578.83	34810.30821
579.034	35564.17386
579.238	35144.14163
579.442	35672.80249
579.645	35617.46152
579.849	35498.59389
580.053	35476.052
580.257	35467.85511
580.46	35418.67544
580.664	35654.35507
580.868	35445.31406
581.071	35379.7436
581.275	35572.37173
581.479	35750.69641
581.682	35322.37367
581.886	36037.74294
582.09	35549.82778
582.293	35838.84903
582.497	35935.21364
582.7	35656.40476
582.904	35767.09613
583.107	35621.56072
583.311	35566.22332
583.515	35717.89802
583.718	36326.95456
583.922	36458.2678
584.125	36199.76886
584.329	36382.34923
584.532	36052.09819
584.735	36589.60686
584.939	35961.86988
585.142	36443.90417
585.346	36189.51296
585.549	36850.31188
585.753	36712.76127
585.956	36655.28628
586.159	36790.77135
586.363	36989.94666
586.566	36770.24145
586.769	36692.23389
586.973	36552.6651
587.176	37244.65829
587.379	37004.32265
587.582	37437.82051
587.786	36907.80471
587.989	36975.57102
588.192	36981.73197
588.395	37462.48427
588.599	37256.98584
588.802	37012.53765
589.005	36727.13082
589.208	37458.37357
589.411	36975.57102
589.615	37107.01825
589.818	37770.87446
590.021	37836.68722
590.224	37493.31549
590.427	37409.04751
590.63	37269.31366
590.833	36955.03498
591.036	37150.15568
591.239	37396.71667
591.442	37472.76115
591.645	37668.05829
591.848	37661.88994
592.051	37867.53978
592.254	37855.19854
592.457	37709.1824
592.66	37783.21373
592.863	38295.55294
593.066	38277.0256
593.269	38344.9626
593.472	38178.22481
593.675	39080.54007
593.878	38616.80593
594.081	38338.78612
594.284	38600.32617
594.486	38454.09334
594.689	39144.46966
594.892	38705.39455
595.095	39150.65689
595.298	38744.54372
595.5	38880.56137
595.703	39103.2237
595.906	38231.73947
596.109	38303.78754
596.311	38907.3575
596.514	38660.06804
596.717	38462.33062
596.92	39674.83051
597.122	39134.15781
597.325	38738.36205
597.528	38587.96672
597.73	38874.37788
597.933	38758.96793
598.136	39148.59447
598.338	39097.03714
598.541	39090.85067
598.743	39268.23077
598.946	38874.37788
599.148	39449.81099
599.351	39014.55787
599.554	39004.24903
599.756	38750.72547
599.959	39910.30261
600.161	39813.20561
600.363	39670.70062
600.566	39751.24086
600.768	39926.83207
600.971	39307.42911
601.173	39313.61865
601.376	39586.04694
601.578	39658.3112
601.78	39788.41859
601.983	39858.65239
602.185	39280.60881
602.388	39699.6107
602.59	39745.0449
602.792	39904.10423
602.995	39138.28252
603.197	39439.49187
603.399	39850.38896
603.601	39902.03813
603.804	39503.47446
604.006	39920.63344
604.208	40164.51829
604.41	40485.10499
604.613	40019.8229
604.815	39478.70586
605.017	39804.9431
605.219	39627.33927
605.421	39468.38604
605.623	39908.23647
605.826	39718.19681
606.028	39860.71827
606.23	39480.76986
606.432	40121.10415
606.634	40646.5334
606.836	39517.92347
607.038	40466.48303
607.24	39823.53398
607.442	40334.08609
607.644	40412.6913
607.846	40081.82877
608.048	40133.5077
608.25	39982.62399
608.452	40474.75934
608.654	40700.35814
608.856	39736.78377
609.058	40478.89757
609.26	40205.86954
609.462	40410.62254
609.664	40565.81065
609.866	39891.70777
610.067	40369.24961
610.269	40526.49038
610.471	40309.2667
610.673	40555.46281
610.875	40615.48416
611.077	41448.50508
611.278	40300.99392
611.48	40441.65514
611.682	40013.62284
611.884	40493.38171
612.085	40373.3867
612.287	40298.92575
612.489	40493.38171
612.69	40309.2667
612.892	39959.89302
613.094	40127.30588
613.295	40015.68952
613.497	40433.37954
613.699	39848.32313
613.9	40600.99538
614.102	40389.93552
614.304	40449.93092
614.505	40667.23432
614.707	40932.30699
614.908	40466.48303
615.11	40990.31686
615.311	40603.06517
615.513	40783.18047
615.714	40369.24961
615.916	40383.72963
616.117	40346.49638
616.319	40969.598
616.52	40245.15725
616.722	40354.77013
616.923	40392.00417
617.124	39183.6569
617.326	39325.99799
617.527	40549.25425
617.729	40675.515
617.93	40309.2667
618.131	39920.63344
618.333	40267.90456
618.534	40721.06201
618.735	40199.66658
618.937	40619.62391
619.138	40028.0898
619.339	39984.69051
619.54	40325.81278
619.742	40096.2982
619.943	39914.43491
620.144	40220.3435
620.345	40309.2667
620.546	40845.30925
620.748	40878.44884
620.949	40230.68237
621.15	40501.65861
621.351	40431.31066
621.552	40524.421
621.753	40669.30447
621.954	40857.73625
622.155	40576.15876
622.356	40743.83759
622.558	40141.77696
622.759	40561.67148
622.96	40112.83532
623.161	40549.25425
623.362	40377.52384
623.563	40961.31078
623.764	40400.27889
623.965	40491.31251
624.166	40787.32207
624.366	40286.51698
624.567	40543.04579
624.768	40658.95382
624.969	40166.58575
625.17	40634.1134
625.371	40605.13497
625.572	40907.44841
625.773	40878.44884
625.973	41093.92869
626.174	40832.88267
626.375	41033.83026
626.576	40460.2759
626.777	40418.89765
626.977	40178.99074
627.178	40418.89765
627.379	40358.90707
627.58	40344.42797
627.78	40791.46371
627.981	40814.24357
628.182	40799.74714
628.382	40924.02061
628.583	40716.92115
628.784	40886.7342
628.984	40129.37314
629.185	40687.93637
629.386	40212.0726
629.586	41471.32609
629.787	40992.38881
629.987	41720.37842
630.188	41056.62505
630.388	40988.24492
630.589	40694.1472
630.79	40607.20479
630.99	41108.43669
631.191	41093.92869
631.391	41336.49581
631.591	40872.23494
631.792	41017.25312
631.992	41678.85745
632.193	41170.62038
632.393	40899.16259
632.594	40776.96816
632.794	41081.49372
632.994	40839.09591
633.195	40955.09549
633.395	41411.16475
633.595	41239.03475
633.796	41160.25569
633.996	40907.44841
634.196	40739.69647
634.397	41548.09847
634.597	40979.95728
634.797	41382.12498
634.997	40895.01975
635.198	40992.38881
635.398	40741.76702
635.598	41404.94174
635.798	41160.25569
635.998	40934.37861
636.199	41562.62485
636.399	41550.17363
636.599	40928.16378
636.799	41670.55385
636.999	41637.3414
637.199	41722.4546
637.399	41311.60963
637.599	41685.08528
637.799	40946.8086
637.999	41757.75152
638.199	41259.76894
638.399	40990.31686
638.599	41533.57269
638.799	41826.27927
638.999	41786.82225
639.199	41676.78153
639.399	41334.4219
639.599	41510.74767
639.799	41429.83442
639.999	41309.53585
640.199	41015.18103
640.399	40953.02375
640.599	40191.39611
640.799	42402.03618
640.998	41734.91193
641.198	41239.03475
641.398	41228.66811
641.598	42048.56867
641.798	41433.98337
641.997	41591.6794
642.197	41456.80346
642.397	42229.41489
642.597	41859.50971
642.796	41297.09348
642.996	40843.23813
643.196	41990.38563
643.395	41597.90569
643.595	41558.4744
643.795	41442.28142
643.994	41533.57269
644.194	42081.82056
644.394	42360.43261
644.593	41892.74334
644.793	42418.67904
644.992	42038.17812
645.192	41817.97216
645.392	41475.47553
645.591	41842.8941
645.791	41521.1225
645.99	42036.10005
646.19	42088.05565
646.389	42148.33403
646.589	42019.47592
646.788	41955.06501
646.987	41170.62038
647.187	42079.74222
647.386	41878.20324
647.586	42443.64488
647.785	42283.47955
647.984	42870.43344
648.184	42383.31394
648.383	42427.00078
648.582	42287.63872
648.782	43016.29229
648.981	42183.67459
649.18	42223.17721
649.38	42512.31053
649.579	42618.4579
649.778	42741.29806
649.977	42851.68484
650.177	42543.52684
650.376	42335.47294
650.575	42291.79795
650.774	42096.36927
650.973	41774.36307
651.173	41815.89541
651.372	41878.20324
651.571	42560.17674
651.77	42271.00232
651.969	42789.19723
652.168	42354.19252
652.367	42410.35751
652.566	42360.43261
652.765	42876.6832
652.964	42807.94227
653.163	42660.09354
653.362	42610.13139
653.561	42027.78788
653.76	42601.8051
653.959	42364.59274
654.158	42185.75356
654.357	42152.49156
654.556	42300.11656
654.755	43007.95576
654.954	42674.66725
655.153	42385.39414
655.352	42025.70987
655.551	42408.27716
655.749	42551.85169
655.948	42564.33934
656.147	42424.92033
656.346	42682.99537
656.545	42716.30994
656.743	42339.63276
656.942	42156.64913
657.141	41975.84141
657.34	41836.66344
657.538	42194.06957
657.737	42179.51669
657.936	42510.22955
658.135	42491.50127
658.333	42252.28734
658.532	42785.03181
658.731	43039.21886
658.929	42476.93556
659.128	42860.01742
659.326	42732.96848
659.525	42882.93309
659.724	42580.99027
659.922	42429.08125
660.121	42664.2574
660.319	42402.03618
660.518	42393.71505
660.716	42720.4745
660.915	43078.82309
661.113	42599.72356
661.312	42949.60592
661.51	42685.07743
661.709	42705.89878
661.907	42439.48378
662.105	42466.53187
662.304	42920.4349
662.502	42743.38049
662.701	42768.37065
662.899	42660.09354
663.097	42835.02032
663.296	42624.70291
663.494	43135.11103
663.692	43026.71326
663.891	42920.4349
664.089	42524.79671
664.287	42510.22955
664.485	41828.35608
664.684	42860.01742
664.882	42372.91314
665.08	42268.92283
665.278	42420.75946
665.476	42635.11153
665.675	42279.32042
665.873	42156.64913
666.071	42350.03253
666.269	43047.5562
666.467	42177.43776
666.665	43335.32474
666.863	42208.62308
667.061	41840.8172
667.259	42171.20104
667.457	42131.70445
667.655	42088.05565
667.853	42362.51267
668.051	42260.60498
668.249	42327.15346
668.447	42063.11597
668.645	42036.10005
668.843	42275.16135
669.041	42204.46487
669.239	41245.25488
669.437	41471.32609
669.635	41849.12486
669.833	41641.49278
670.031	41274.28358
670.229	41635.26572
670.426	41477.55026
670.624	42102.60463
670.822	42052.72498
671.02	42108.8401
671.218	41512.82261
671.415	41380.0508
671.613	41815.89541
671.811	41795.12862
672.009	41948.83234
672.206	41948.83234
672.404	41463.02737
672.602	41813.81868
672.799	41890.66615
672.997	42726.72143
673.195	42553.93293
673.392	42741.29806
673.59	42422.83989
673.788	41982.07457
673.985	41529.42258
674.183	41942.59978
674.38	42181.59564
674.578	42108.8401
674.775	42306.35566
674.973	41678.85745
675.17	41871.97195
675.368	42343.79263
675.565	42470.69331
675.763	41759.82792
675.96	41734.91193
676.158	41803.43519
676.355	41114.65458
676.553	42329.23331
676.75	41647.71995
676.947	41477.55026
677.145	41797.20524
677.342	41938.4448
677.539	41807.58855
677.737	41413.23911
677.934	41145.74563
678.131	41460.95272
678.329	41550.17363
678.526	41510.74767
678.723	41529.42258
678.92	41477.55026
679.118	41355.16158
679.315	41616.58521
679.512	42036.10005
679.709	42210.7022
679.906	41502.44803
680.104	41714.14996
680.301	41031.75807
680.498	40143.8443
680.695	40392.00417
680.892	41419.46226
681.089	41040.04688
681.286	41164.40153
681.483	40251.36093
681.68	40979.95728
681.877	40924.02061
682.075	40509.93569
682.272	40162.45085
682.469	41127.09068
682.665	40810.10167
682.862	40924.02061
683.059	40385.79825
683.256	39621.14516
683.453	40396.14151
683.65	40201.73422
683.847	40841.16701
684.044	40849.45154
684.241	40762.47317
684.438	40795.6054
684.635	40085.96284
684.831	41060.76971
685.028	40369.24961
685.225	40276.17664
685.422	39705.80598
685.619	40329.94942
685.815	40222.41125
686.012	40489.24333
686.209	40183.12582
686.405	40280.31274
686.602	40245.15725
686.799	39829.73112
686.996	40702.42848
687.192	40280.31274
687.389	40085.96284
687.586	40232.75018
687.782	39868.9819
687.979	39559.2091
688.175	39852.4548
688.372	39920.63344
688.568	39631.46873
688.765	39881.37767
688.962	39819.4026
689.158	39557.14473
689.355	39902.03813
689.551	39493.15403
689.748	39123.8462
689.944	39026.92879
690.14	39456.00259
690.337	39066.10563
690.533	40023.95633
690.73	39235.22438
690.926	39503.47446
691.123	39412.66333
691.319	39598.43421
691.515	39714.06649
691.712	38660.06804
691.908	38936.21663
692.104	39072.29176
692.301	38789.87846
692.497	38423.20479
692.693	38956.83143
692.889	39323.93474
693.086	38899.11237
693.282	39453.93871
693.478	39645.92215
693.674	39443.61949
693.87	39416.79069
694.067	38847.58369
694.263	38921.78683
694.459	38899.11237
694.655	38433.50075
694.851	38081.50126
695.047	38447.91547
695.243	38686.85136
695.439	38200.86493
695.635	38462.33062
695.831	38272.90851
696.027	38711.57578
696.224	38285.25989
696.42	38338.78612
696.615	37918.96475
696.811	38357.3158
697.007	38309.96358
697.203	37801.72318
697.399	38388.20015
697.595	37980.68143
697.791	37875.76744
697.987	38067.09721
698.183	38075.32805
698.379	37624.88135
698.575	38207.03968
698.77	38161.75992
698.966	38320.25715
699.162	38740.4226
699.358	38899.11237
699.554	37984.79613
699.749	38324.37464
699.945	38172.05041
700.141	38075.32805
700.337	38375.84617
700.532	38433.50075
700.728	38260.55744
700.924	38443.79693
701.119	38147.35358
701.315	37018.69897
701.511	36842.09906
701.706	38526.17434
701.902	37820.23327
702.097	37869.59668
702.293	37797.60991
702.489	38625.04602
702.684	38649.76718
702.88	38227.62275
703.075	37729.74563
703.271	37643.38533
703.466	37392.60645
703.662	37193.29628
703.857	36924.23221
704.053	37104.96416
704.248	37844.91439
704.443	38019.77247
704.639	38184.39929
704.834	38260.55744
705.03	37439.87579
705.225	37748.25321
705.42	37121.39704
705.616	37281.64175
705.811	37012.53765
706.006	37104.96416
706.202	36751.76511
706.397	37154.26417
706.592	37234.38552
706.787	37367.94576
706.983	37536.48207
707.178	37643.38533
707.373	37143.993
707.568	36868.79113
707.763	36513.67328
707.959	36562.92649
708.154	37176.86139
708.349	36790.77135
708.544	37324.79212
708.739	36854.41833
708.934	36378.24576
709.129	36737.39499
709.324	36345.41895
709.519	36749.71221
709.714	36283.87292
709.909	36591.65924
710.104	35972.12254
710.299	35781.44617
710.494	35683.05125
710.689	35637.95772
710.884	36095.16565
711.079	36530.0906
711.274	36854.41833
711.469	37028.96799
711.664	36337.21249
711.859	35873.70289
712.054	35972.12254
712.249	36216.17862
712.443	36181.30835
712.638	36601.92124
712.833	35459.65829
713.028	35904.45763
713.223	36191.56413
713.417	36146.43981
713.612	36322.85143
713.807	36554.71736
714.002	36774.34737
714.196	37341.23122
714.391	37345.34107
714.586	37429.59951
714.78	36848.25866
714.975	36417.22967
715.17	36720.9724
715.364	36499.30845
715.559	36431.59273
715.754	36431.59273
715.948	36240.79397
716.143	36140.28672
716.337	35898.30658
716.532	36380.29749
716.726	36017.23593
716.921	36378.24576
717.115	36409.02234
717.31	35937.26409
717.504	36207.97369
717.699	36140.28672
717.893	35730.19725
718.088	36415.17783
718.282	36091.06388
718.476	35668.70303
718.671	34963.8975
718.865	35140.04477
719.059	34904.50666
719.254	34679.26487
719.448	34251.44444
719.642	34339.45073
719.837	34464.30924
720.031	35082.69071
720.225	34644.45942
720.419	34869.6931
720.614	34963.8975
720.808	35078.59414
721.002	34388.57364
721.196	34875.83657
721.39	35090.88392
721.585	34937.27355
721.779	35277.30002
721.973	34838.97631
722.167	34224.83927
722.361	34642.41208
722.555	34540.05033
722.749	34400.85472
722.943	34216.65319
723.137	33977.23653
723.331	33723.54839
723.525	34042.71308
723.719	34241.2116
723.913	34486.82628
724.107	34005.88207
724.301	33958.8219
724.495	34406.99531
724.689	34302.61002
724.883	33899.4878
725.077	33870.8448
725.271	34083.63779
725.465	33508.77146
725.659	33874.93661
725.853	34388.57364
726.046	33911.76358
726.24	33459.68445
726.434	32746.06342
726.628	33776.73676
726.822	33615.13279
727.015	34171.63084
727.209	33670.36224
727.403	33895.3959
727.596	34781.64097
727.79	34462.26226
727.984	34736.59416
728.177	34750.92701
728.371	34413.13594
728.565	34257.58418
728.758	33774.69101
728.952	34255.5376
729.146	34486.82628
729.339	34462.26226
729.533	34138.88845
729.726	34167.53799
729.92	34091.8229
730.113	34576.89937
730.307	34314.89012
730.5	34175.72371
730.694	34124.56395
730.887	34386.52681
731.081	34149.12034
731.274	34157.30593
731.468	33619.22378
731.661	33635.58787
731.854	33940.40756
732.048	33958.8219
732.241	33482.18245
732.435	33504.68081
732.628	33185.64685
732.821	33159.06387
733.014	33455.59395
733.208	33369.69614
733.401	33887.21215
733.594	33913.80956
733.788	33836.06491
733.981	33766.50805
734.174	33866.75299
734.367	33893.34996
734.56	33997.69756
734.754	34059.08279
734.947	33889.25808
735.14	33531.27027
735.333	33179.51228
735.526	32997.5311
735.719	33089.54135
735.912	32723.5763
736.105	33210.18542
736.298	33377.87665
736.491	32972.99595
736.684	33187.69172
736.877	33161.1087
737.07	32878.94803
737.263	32981.17429
737.456	33089.54135
737.649	32836.01491
737.842	32966.86222
738.035	32901.43725
738.228	33334.92947
738.421	33563.99648
738.614	33795.14864
738.807	33424.91555
739	32991.39728
739.192	32977.08512
739.385	33429.00596
739.578	33363.56078
739.771	33991.55921
739.964	33285.84856
740.156	33627.4058
740.349	33044.55788
740.542	32868.72575
740.735	32602.96854
740.927	33287.89357
741.12	32975.04053
741.313	33187.69172
741.505	32791.03856
741.698	32909.61522
741.891	32570.26277
742.083	33154.97422
742.276	33803.33179
742.468	33075.22829
742.661	32731.7534
742.854	32549.82197
743.046	32435.35773
743.239	32347.47031
743.431	33065.00475
743.624	32433.31379
743.816	32752.19633
744.009	32803.30472
744.201	32531.42545
744.393	32114.48562
744.586	32112.44201
744.778	32327.03196
744.971	32590.70381
745.163	31930.56898
745.355	31797.74995
745.548	31274.71957
745.74	31793.66333
745.932	31908.09135
746.125	31734.40823
746.317	32075.65744
746.509	31611.81623
746.702	32275.93701
746.894	31096.99506
747.086	31767.10051
747.278	32104.26761
747.471	31991.87276
747.663	32012.30775
747.855	31987.78579
748.047	32202.36262
748.239	32304.55002
748.431	32071.57031
748.623	31975.52492
748.815	31452.45587
749.008	31458.58493
749.2	31133.76471
749.392	31523.96246
749.584	31550.52257
749.776	31918.30843
749.968	31691.50031
750.16	32541.64572
750.352	31660.85227
750.544	31959.17719
750.736	31746.66778
750.928	31491.27348
751.12	31726.23523
751.311	31215.47678
751.503	31440.1978
751.695	31188.92009
751.887	31045.92689
752.079	31532.13477
752.271	30735.45159
752.463	30267.75372
752.654	30216.69892
752.846	30245.28951
753.038	30710.94173
753.23	30786.51441
753.421	31023.45719
753.613	30929.49486
753.805	31193.00572
753.997	30923.36699
754.188	30518.95438
754.38	29957.35181
754.572	30404.58429
754.763	30474.0228
754.955	30333.10495
755.146	30712.98421
755.338	30310.64033
755.53	30496.48851
755.721	30619.03146
755.913	30606.77696
756.104	30784.47188
756.296	30680.30468
756.487	30471.98047
756.679	30500.57321
756.87	30494.44617
757.062	29992.06649
757.253	29847.08379
757.445	29787.86712
757.636	29749.07049
757.827	29375.41759
758.019	29446.87851
758.21	29820.53827
758.401	29685.77157
758.593	29679.64592
758.784	29667.39466
758.975	29894.0494
759.167	29640.85038
759.358	29646.97597
759.549	29171.25063
759.74	29095.7115
759.932	29016.09071
760.123	29326.41657
760.314	29234.54128
760.505	28991.59232
760.696	28526.15142
760.888	29075.29576
761.079	29073.25419
761.27	29355.00043
761.461	29342.75018
761.652	29034.4646
761.843	28664.96144
762.034	28750.69946
762.225	28346.5222
762.416	29020.17379
762.607	29150.83451
762.798	29128.3769
762.989	29105.91941
763.18	28887.47583
763.371	28468.99577
763.562	28360.81059
763.753	28544.52305
763.944	28520.02756
764.135	28266.91646
764.326	28979.34318
764.517	28450.62449
764.708	28270.99877
764.899	28391.42873
765.089	28313.86324
765.28	27746.45907
765.471	27766.86776
765.662	27662.78468
765.853	28068.92991
766.043	27707.68289
766.234	28093.42253
766.425	27556.66399
766.615	27999.53504
766.806	28309.78089
766.997	28275.08108
767.187	27779.11303
767.378	28158.73696
767.569	27997.49404
767.759	27921.97762
767.95	27599.52003
768.141	27597.47925
768.331	27450.54661
768.522	27536.25654
768.712	27601.5608
768.903	27707.68289
769.093	27511.76777
769.284	27268.93058
769.474	27342.39202
769.665	26960.81947
769.855	27285.2552
770.046	26997.54631
770.236	26887.36717
770.426	26399.77427
770.617	26934.29481
770.807	26789.43366
770.998	27081.20356
771.188	26875.1253
771.378	27083.24401
771.569	26895.52844
771.759	26620.09834
771.949	26340.61636
772.139	27030.19276
772.33	25842.93078
772.52	26320.2174
772.71	26465.05355
772.9	26434.45369
773.09	26254.94183
773.281	27011.82909
773.471	26389.57453
773.661	26193.74756
773.851	25749.11685
774.041	25661.42487
774.231	25742.99869
774.421	25777.66849
774.611	25651.22836
774.802	25581.8934
774.992	25475.85617
775.182	25622.67839
775.372	25632.87477
775.562	25906.15545
775.752	25830.69395
775.942	25528.8741
776.131	25249.52612
776.321	25051.76392
776.511	25583.93263
776.701	25141.46791
776.891	25367.78544
777.081	24862.17682
777.271	24980.4116
777.461	25606.3643
777.651	25624.71767
777.84	25257.68171
778.03	25059.91865
778.22	24939.6401
778.41	25528.8741
778.599	25718.52622
778.789	25496.24752
778.979	25329.04453
779.169	25339.23944
779.358	25086.42177
779.548	24994.68184
779.738	25121.08026
779.927	24841.7923
780.117	24762.29499
780.307	24340.41064
780.496	24709.29881
780.686	25017.10673
780.875	24574.7775
781.065	24829.56171
781.254	24662.41895
781.444	24468.7987
781.633	24452.49489
781.823	24452.49489
782.012	24672.61011
782.202	24444.34304
782.391	24185.54376
782.581	24028.6552
782.77	23714.92851
782.96	23857.52304
783.149	23395.16291
783.338	23684.37442
783.528	23668.07918
783.717	23949.19848
783.906	24049.02941
784.096	24063.29152
784.285	23908.45312
784.474	24124.4164
784.663	23767.89051
784.853	23651.78413
785.042	23625.3051
785.231	23672.15297
785.42	23686.41134
785.61	23272.97975
785.799	23382.94408
785.988	23250.58075
786.177	22774.18735
786.366	23321.85164
786.555	23211.89248
786.744	23195.60303
786.933	23046.97149
787.122	23729.18731
787.312	23619.19462
787.501	22973.68024
787.69	22338.67659
787.879	22892.25062
788.068	22405.82411
788.257	22670.38269
788.445	22709.05396
788.634	22890.21495
788.823	22627.64224
789.012	22485.18534
789.201	22839.32428
789.39	22690.73583
789.579	22434.31212
789.768	22462.80085
789.957	23008.28946
790.145	22837.2887
790.334	22892.25062
790.523	22869.85843
790.712	22690.73583
790.9	22259.32558
791.089	22118.94909
791.278	22269.49847
791.467	22279.67146
791.655	22411.92862
791.844	21944.01209
792.033	21376.68054
792.221	21874.8587
792.41	21842.31747
792.599	21399.04263
792.787	21994.86298
792.976	22019.27225
793.164	22320.36433
793.353	22112.84617
793.541	22324.43369
793.73	21976.55639
793.918	22141.32676
794.107	21795.54117
794.295	22057.92138
794.484	21929.77427
794.672	21604.38986
794.861	21543.39141
795.049	21854.52032
795.238	21350.25323
795.426	21948.08007
795.614	21297.40065
795.803	21323.8266
795.991	21476.29723
796.179	21630.82362
796.368	21069.75926
796.556	21195.76874
796.744	20870.61507
796.932	21153.08636
797.121	20803.56521
797.309	20730.42506
797.497	21100.24399
797.685	21130.72964
797.874	20809.66047
798.062	21083.98536
798.25	21086.01767
798.438	21240.48554
798.626	21285.20429
798.814	21476.29723
799.002	21277.07346
799.19	20886.87026
799.378	20909.22157
799.566	20913.2855
799.755	20823.88287
799.943	20852.3283
800.131	20630.88183
800.318	20598.38009
800.506	20653.2274
800.694	20533.3798
800.882	20504.94352
801.07	21004.72825
801.258	20636.97603
801.446	20836.07367
801.634	20592.28613
801.822	20578.06704
802.01	20720.26713
802.197	21146.98902
802.385	20825.91466
802.573	21167.31362
802.761	20809.66047
802.949	20998.63181
803.136	20886.87026
803.324	21370.58187
803.512	21362.45037
803.699	21029.11439
803.887	21134.79446
804.075	21321.79381
804.262	21102.27634
804.45	20968.15015
804.638	20929.54138
804.825	21098.21165
805.013	21051.46887
805.201	21411.24035
805.388	20701.98312
805.576	20667.44757
805.763	20364.80528
805.951	20419.63961
806.138	20701.98312
806.326	20903.12571
806.513	20783.24796
806.701	20970.18223
806.888	20545.56703
807.075	21047.40438
807.263	20919.38142
807.45	20899.06182
807.638	20547.59825
807.825	20836.07367
808.012	20728.39346
808.2	20645.10168
808.387	20561.8169
808.574	20789.34309
808.761	20494.78791
808.949	20960.02187
809.136	20348.55866
809.323	20592.28613
809.51	20486.66349
809.698	20626.81906
809.885	20653.2274
810.072	20874.67884
810.259	20789.34309
810.446	20951.89365
810.633	21073.82384
810.82	21297.40065
811.008	21293.33518
811.195	21632.85701
811.382	21187.63863
811.569	21275.04077
811.756	20972.21432
811.943	21539.32497
812.13	20807.62871
812.317	20943.76549
812.504	20947.82956
812.691	21069.75926
812.878	20710.1093
813.064	20992.5354
813.251	20927.50938
813.438	20829.97825
813.625	20582.12962
813.812	20490.72569
813.999	20068.34678
814.186	20777.15287
814.372	20393.23752
814.559	20576.03576
814.746	20344.49705
814.933	20525.25507
815.12	20630.88183
815.306	20332.31231
815.493	20263.26831
815.68	20844.20095
815.866	20641.03885
816.053	20606.50542
816.24	20448.07343
816.426	20832.01005
816.613	20752.77287
816.799	20488.69459
816.986	20598.38009
817.173	20425.7325
817.359	20167.83314
817.546	20257.17643
817.732	20078.49799
817.919	20236.87042
818.105	20222.65646
818.292	20115.0432
818.478	20184.07677
818.665	20214.5343
818.851	19899.85212
819.037	19871.43419
819.224	19658.32593
819.41	19723.26831
819.597	19826.77911
819.783	20366.83613
819.969	20287.63623
820.156	20157.681
820.342	19983.0808
820.528	19928.27088
820.714	19593.38783
820.901	19987.14092
821.087	19849.10639
821.273	20553.69193
821.459	20033.83347
821.646	20238.901
821.832	19796.33362
822.018	20242.96218
822.204	19587.3001
822.39	19258.61838
822.576	19230.21889
822.762	19487.87253
822.948	19213.99096
823.134	19355.99422
823.32	19191.678
823.507	19427.00344
823.693	19611.65124
823.879	19960.75046
824.065	19834.89806
824.25	19640.06166
824.436	19297.16185
824.622	19179.5075
824.808	19558.8912
824.994	19567.00795
825.18	19303.2478
825.366	19512.22122
825.552	19311.36245
825.738	19607.59267
825.923	19106.48759
826.109	19623.82703
826.295	19487.87253
826.481	19481.78546
826.667	19609.62195
826.852	19461.49547
827.038	19021.30437
827.224	19059.83875
827.409	18998.99566
827.595	18913.82145
827.781	18810.40513
827.966	18767.82495
828.152	18232.67752
828.338	18445.48827
828.523	18719.16403
828.709	18921.93297
828.894	18621.84898
829.08	18599.54888
829.266	18725.24652
829.451	18676.58758
829.637	18589.41263
829.822	18767.82495
830.008	18475.89321
830.193	18652.25896
830.378	18443.4613
830.564	18540.75997
830.749	18344.14465
830.935	18565.08602
831.12	18218.4916
831.305	18593.46712
831.491	18392.78841
831.676	18240.78384
831.861	17770.71255
832.047	18421.16494
832.232	18139.45907
832.417	18042.19585
832.602	18003.69811
832.788	18366.43943
832.973	18382.65411
833.158	18331.98405
833.343	18163.77618
833.528	18200.25283
833.714	17892.2645
833.899	17975.33218
834.084	17661.32623
834.269	17857.82352
834.454	17450.6832
834.639	17758.55803
834.824	17343.34939
835.009	17643.09612
835.194	17592.45832
835.379	17928.73251
835.564	17693.73598
835.749	17742.35219
835.934	17632.9684
836.119	17624.86628
836.304	17306.89835
836.489	17624.86628
836.674	17521.56881
836.859	17770.71255
837.044	17521.56881
837.228	17736.27506
837.413	17353.47486
837.598	17519.54345
837.783	17191.4764
837.968	17100.36045
838.152	16650.93399
838.337	16891.82711
838.522	16661.05486
838.707	16847.28962
838.891	16272.45139
839.076	16442.45614
839.261	16361.49981
839.445	16580.08941
839.63	16535.55992
839.815	16798.70466
839.999	16855.38726
840.184	17209.70029
840.368	17144.90531
840.553	17238.04903
840.737	17304.87332
840.922	17213.75008
841.106	16857.41167
841.291	16847.28962
841.475	16371.61918
841.66	16505.19951
841.844	16130.79052
842.029	16638.78901
842.213	16436.3843
842.397	17009.25015
842.582	16446.50404
842.766	16395.90586
842.951	16132.81419
843.135	16484.95949
843.319	15900.10196
843.504	15954.73709
843.688	15914.26653
843.872	16225.90475
844.056	16264.35626
844.241	16201.61991
844.425	15948.66647
844.609	16365.54755
844.793	16165.19312
844.977	15964.85481
845.161	15384.13982
845.346	16041.75061
845.53	15720.01455
845.714	15865.70254
845.898	15187.88179
846.082	15709.89752
846.266	15790.8344
846.45	15722.03795
846.634	15108.97422
846.818	15357.83705
847.002	15481.25839
847.186	15726.08477
847.37	15823.20962
847.554	16045.79782
847.738	15683.59338
847.922	15916.29005
848.106	15960.80771
848.29	15570.28488
848.473	15438.76888
848.657	15483.2817
848.841	15414.48926
849.025	15463.04857
849.209	15248.57995
849.392	14957.22827
849.576	15163.60254
849.76	15153.48619
849.944	14985.5543
850.127	15030.0665
850.311	15159.556
850.495	15357.83705
850.678	15094.81132
850.862	15406.39606
851.046	14898.55266
851.229	14754.89657
851.413	14682.05542
851.596	15262.74287
851.78	15072.55531
851.964	15208.1145
852.147	14943.06523
852.331	15003.76385
852.514	14508.04063
852.698	14663.84494
852.881	13977.8305
853.065	14159.97899
853.248	14143.78875
853.431	14089.14567
853.615	14002.11807
853.798	14281.40168
853.982	13937.35041
854.165	13985.92639
854.348	14400.79429
854.532	14244.97561
854.715	14006.16596
854.898	14157.95521
855.081	13815.90371
855.265	14176.16909
855.448	14040.57266
855.631	13880.67652
855.814	13892.8211
855.997	13617.51776
856.181	13619.54226
856.364	13747.07933
856.547	13712.66582
856.73	13498.06587
856.913	13261.14752
857.096	13619.54226
857.279	13346.2015
857.462	13479.84329
857.645	13536.53478
857.828	13655.98274
858.011	13398.85031
858.194	13477.81854
858.377	13376.57615
858.56	13514.26347
858.743	13311.77578
858.926	13360.37645
859.109	13293.54992
859.292	13386.70083
859.475	13277.34886
859.658	13423.14886
859.841	13297.60014
860.023	13028.22142
860.206	12732.41106
860.389	13028.22142
860.572	12823.59779
860.755	12845.88616
860.937	12776.99267
861.12	12890.46092
861.303	12783.07176
861.486	12876.27833
861.668	12501.35109
861.851	12704.03949
862.034	12499.32389
862.216	12493.24226
862.399	12045.05746
862.581	12324.95998
862.764	12296.57038
862.947	12588.51466
863.129	12422.28548
863.312	12598.6492
863.494	12353.34821
863.677	12371.59707
863.859	12537.83959
864.042	12308.73752
864.224	12207.33686
864.406	12095.77499
864.589	12045.05746
864.771	11874.61026
864.954	11704.10429
865.136	11815.75193
865.318	11499.00805
865.501	11740.64641
865.683	11594.46053
865.865	11842.13757
866.048	11460.41496
866.23	11588.36844
866.412	11395.40818
866.594	11718.31545
866.777	11765.00626
866.959	11746.73649
867.141	11580.24551
867.323	11789.36485
867.505	11438.07
867.687	11076.31875
867.869	11683.80187
868.052	11679.74128
868.234	11196.26137
868.416	11419.78689
868.598	11263.33194
868.78	11125.11345
868.962	11275.52538
869.144	11289.75059
869.326	11192.19612
869.508	11226.74939
869.69	11033.61826
869.872	11360.86925
870.054	11125.11345
870.236	11444.16419
870.417	11395.40818
870.599	11293.81485
870.781	11029.55129
870.963	11153.57418
871.145	11102.74999
871.327	11299.91116
871.508	11177.96743
871.69	11612.73633
871.872	11240.97633
872.054	11527.44287
872.235	11245.04108
872.417	11551.8141
872.599	11352.74202
872.78	11492.91463
872.962	11135.27824
873.144	11283.65413
873.325	11102.74999
873.507	11206.4243
873.689	10925.82864
873.87	10988.8792
874.052	11393.37656
874.233	11371.02805
874.415	11291.78273
874.596	11186.09817
874.778	10883.11078
874.959	10632.80247
875.141	10651.12387
875.322	11025.48428
875.503	10897.35063
875.685	11131.21236
875.866	10944.13476
876.048	10877.00782
876.229	10754.92658
876.41	11232.84671
876.592	10822.07647
876.773	10746.78632
876.954	10520.81649
877.136	10830.21498
877.317	10647.05254
877.498	10838.35331
877.679	10769.17157
877.86	11232.84671
878.042	11216.58698
878.223	11222.68446
878.404	11119.01446
878.585	11147.47563
878.766	10679.62187
878.947	11228.78184
879.128	11110.88231
879.309	10925.82864
879.49	11011.2494
879.672	11220.65197
879.853	10714.22337
880.034	10846.49145
880.215	10549.32561
880.396	11167.80376
880.576	10868.87038
880.757	11005.14857
880.938	11188.13083
881.119	11084.45163
881.3	11169.83651
881.481	11592.42984
881.662	11631.01138
881.843	11724.40582
882.023	11354.77384
882.204	11289.75059
882.385	11169.83651
882.566	11291.78273
882.747	10907.5216
882.927	11090.55118
883.108	10793.59021
883.289	11135.27824
883.469	11033.61826
883.65	11173.90199
883.831	10931.93078
884.011	11194.22875
884.192	11088.51801
884.373	11200.32658
884.553	11051.91906
884.734	11169.83651
884.914	11001.0813
885.095	11488.85231
885.275	11074.2855
885.456	11037.68518
885.636	11082.41843
885.817	11119.01446
885.997	10921.76049
886.178	10968.54149
886.358	10952.27052
886.538	10976.67671
886.719	10834.28417
886.899	11271.46094
887.08	10905.48743
887.26	11135.27824
887.44	10966.50766
887.621	11240.97633
887.801	10818.00715
887.981	11084.45163
888.161	11202.35916
888.342	11049.88568
888.522	10836.31875
888.702	10935.99882
888.882	10907.5216
889.062	11104.78308
889.242	11031.58478
889.423	10903.45325
889.603	11129.1794
889.783	11275.52538
889.963	10874.97348
890.143	11265.3642
890.323	11088.51801
890.503	11356.80565
890.683	11196.26137
890.863	11478.69633
891.043	11259.26737
891.223	11375.09151
891.403	11151.54134
891.583	11129.1794
891.763	10903.45325
891.943	11114.9484
892.122	10793.59021
892.302	11198.29398
892.482	10868.87038
892.662	11116.98143
892.842	10974.64292
893.022	11226.74939
893.201	10858.69831
893.381	10931.93078
893.561	11096.65063
893.741	11385.24997
893.92	10942.10079
894.1	11167.80376
894.28	10899.38485
894.459	11153.57418
894.639	10771.20652
894.819	10602.26458
894.998	10592.08466
895.178	10549.32561
895.357	10488.23161
895.537	10754.92658
895.716	10581.90443
895.896	10980.74425
896.075	10779.34621
896.255	11039.71862
896.434	10911.58991
896.614	11232.84671
896.793	10966.50766
896.973	11234.87913
897.152	10754.92658
897.331	10968.54149
897.511	10699.97612
897.69	10826.14575
897.87	10756.96161
898.049	10978.71049
898.228	10349.70901
898.407	10451.5697
898.587	10174.43078
898.766	10378.2333
898.945	10388.41992
899.124	10486.19494
899.304	10618.5518
899.483	10429.16314
899.662	10092.87149
899.841	10060.24149
900.02	9921.52318
900.199	10035.76661
900.378	9999.05044
900.557	10215.20212
900.737	9878.67012
900.916	10215.20212
901.095	9890.91451
901.274	10086.75364
901.453	9968.45007
901.632	10117.34162
901.811	10015.36931
901.989	10392.49448
902.168	10070.43876
902.347	10292.65263
902.526	9986.81068
902.705	9992.93063
902.884	10043.92513
903.063	9980.69061
903.242	9907.23954
903.42	10088.79294
903.599	9717.40216
903.778	10117.34162
903.957	9876.62934
904.135	9684.72877
904.314	9727.61178
904.493	9919.4827
904.672	9566.25452
904.85	9433.41851
905.029	9212.55417
905.207	9466.12289
905.386	9498.82314
905.565	9701.06596
905.743	9492.69216
905.922	9623.45553
906.1	9384.35416
906.279	9562.16826
906.457	9490.64846
906.636	9641.83897
906.814	9365.95261
906.993	9032.4453
907.171	9165.49306
907.35	9245.28705
907.528	8975.1098
907.707	9427.28598
907.885	8897.2752
908.063	9014.01753
908.242	9179.81696
908.42	9106.14229
908.598	8772.27612
908.777	8954.62949
908.955	8835.80864
909.133	8934.14741
909.311	8721.02747
909.49	8686.17183
909.668	8597.98364
909.846	8809.16809
910.024	8415.34399
910.202	8686.17183
910.38	8439.97837
910.559	8712.82662
910.737	8497.44786
910.915	8876.78814
911.093	8573.36682
911.271	8737.42828
911.449	8394.81323
911.627	8376.33388
911.805	8253.09798
911.983	8043.43352
912.161	8016.69655
912.339	8129.79114
912.517	7987.89906
912.695	8269.53351
912.872	7897.36654
913.05	8214.05855
913.228	8277.7508
913.406	8345.53149
913.584	8193.50861
913.762	8275.69651
913.939	8014.63972
914.117	8123.62392
914.295	7907.65633
914.473	8045.49006
914.65	8031.09381
914.828	8333.20931
915.006	7895.30852
915.184	8111.28893
915.361	7679.10071
915.539	7802.67622
915.716	7788.26297
915.894	7880.90181
916.072	7691.46167
916.249	7584.30799
916.427	7390.46012
916.604	7619.34533
916.782	7400.77599
916.959	7747.0766
917.137	7316.16975
917.314	7499.78075
917.492	7274.88506
917.669	7390.46012
917.847	7029.05807
918.024	7142.71473
918.201	6983.57642
918.379	7101.39286
918.556	6718.73851
918.733	6936.01577
918.911	6343.59887
919.088	6461.8187
919.265	6420.34667
919.442	6865.68679
919.62	6553.02446
919.797	7097.26018
919.974	6834.65095
920.151	6861.54897
920.328	6602.75416
920.506	6849.13498
920.683	6836.72017
920.86	6501.20851
921.037	6387.16235
921.214	6586.17907
921.391	6492.91661
921.568	6844.9968
921.745	6600.68236
921.922	6569.6025
922.099	6611.04115
922.276	6658.68419
922.453	6304.17543
922.63	6293.79943
922.807	6098.62171
922.984	6243.98652
923.161	6011.34755
923.338	6069.53494
923.514	5994.71919
923.691	5944.82506
923.868	5786.73735
924.045	5863.71813
924.222	5832.5136
924.399	5903.23624
924.575	5620.18198
924.752	5955.22079
924.929	5547.26653
925.105	5726.37848
925.282	5603.51814
925.459	5880.35837
925.635	5655.58763
925.812	5828.35259
925.989	5490.99775
926.165	5782.57531
926.342	5591.01926
926.518	5618.09908
926.695	5541.01529
926.871	5340.86385
927.048	5261.57748
927.224	5259.49054
927.401	4870.91581
927.577	5127.96632
927.754	4979.63013
927.93	5201.04676
928.107	5000.5296
928.283	5219.83426
928.459	5315.8297
928.636	5175.99382
928.812	4797.70788
928.988	4952.45737
929.165	4847.91062
929.341	5040.23224
929.517	4644.92765
929.693	4898.10021
929.87	4339.01083
930.046	4651.20865
930.222	4473.16916
930.398	4734.93605
930.574	4315.9434
930.751	4613.5196
930.927	4387.23426
931.103	4745.39944
931.279	4554.8778
931.455	4634.45886
931.631	4355.7855
931.807	4607.23738
931.983	4179.58292
932.159	4215.25512
932.335	3778.3844
932.511	3919.20331
932.687	3732.12607
932.863	4085.12712
933.039	4074.62942
933.215	4309.65183
933.391	3954.9192
933.566	3906.59631
933.742	3525.95396
933.918	3694.27138
934.094	3467.01485
934.27	3483.85605
934.445	3357.51921
934.621	3685.85838
934.797	3207.93983
934.973	3517.53496
935.148	3054.06013
935.324	3138.38837
935.5	2792.48877
935.675	2919.08363
935.851	2775.60567
936.027	2902.20728
936.202	2598.28235
936.378	2678.51125
936.553	2319.46285
936.729	2629.9538
936.904	2218.02989
937.08	2458.89639
937.255	2086.98301
937.431	2213.80306
937.606	1862.87239
937.782	2040.47543
937.957	1714.84252
938.133	1822.69491
938.308	1617.55653
938.483	1757.13877
938.659	1442.00933
938.834	1516.03604
939.009	1422.97387
939.185	1494.8856
939.36	1357.40765
939.535	1353.17761
939.71	1222.04993
939.886	1179.7529
940.061	1219.93505
940.236	1380.67299
940.411	1063.44449
940.586	1156.49016
940.761	1031.72664
940.937	1082.47579
941.112	930.23896
941.287	1063.44449
941.462	1012.69656
941.637	917.55413
941.812	930.23896
941.987	930.23896
942.162	780.15429
942.337	890.07129
942.512	816.086
942.687	759.0193
942.862	602.65432
943.037	759.0193
943.212	676.60289
943.386	805.51757
943.561	589.97895
943.736	621.66823
943.911	530.83356
944.086	803.40391
944.26	604.76693
944.435	756.90586
944.61	644.90883
944.785	788.60856
944.959	522.3851
945.134	706.18636
945.309	497.04108
945.483	647.02168
945.658	579.4165
945.833	714.63918
946.007	754.79243
946.182	723.09218
946.357	596.31658
946.531	704.07318
946.706	619.55552
946.88	720.97891
947.055	706.18636
947.229	657.58613
947.404	619.55552
947.578	763.24622
947.752	644.90883
947.927	858.36202
948.101	756.90586
948.276	890.07129
948.45	636.45753
948.624	818.19972
948.799	562.51727
948.973	737.88533
949.147	623.78095
949.321	773.81369
949.496	706.18636
949.67	830.8822
949.844	784.38141
950.018	809.74492
950.193	644.90883
950.367	682.94202
950.541	739.99868
950.715	670.26386
950.889	653.36032
951.063	828.76843
951.237	712.52596
951.411	923.89651
951.585	754.79243
951.759	877.38736
951.933	775.92721
952.107	879.50133
952.281	780.15429
952.455	849.90653
952.629	839.33737
952.803	807.63124
952.977	687.16816
953.151	824.54092
953.325	674.48987
953.499	945.03827
953.672	678.71592
953.846	949.2667
954.02	685.05508
954.194	858.36202
954.368	792.83576
954.541	712.52596
954.715	670.26386
954.889	687.16816
955.062	822.42718
955.236	913.32592
955.41	746.3388
955.583	854.13426
955.757	651.24742
955.93	813.9723
956.104	729.43204
956.278	767.47318
956.451	670.26386
956.625	720.97891
956.798	689.28125
956.972	860.47591
957.145	661.812
957.319	756.90586
957.492	649.13455
957.665	864.70372
957.839	706.18636
958.012	784.38141
958.185	682.94202
958.359	780.15429
958.532	695.62058
958.705	765.35969
958.879	744.22541
959.052	756.90586
959.225	822.42718
959.398	904.86958
959.572	813.9723
959.745	864.70372
959.918	898.52741
960.091	947.15248
960.264	794.94937
960.438	752.679
960.611	636.45753
960.784	788.60856
960.957	849.90653
961.13	864.70372
961.303	687.16816
961.476	953.49517
961.649	714.63918
961.822	773.81369
961.995	628.00643
962.168	691.39435
962.341	636.45753
962.514	752.679
962.686	511.82484
962.859	625.89368
963.032	594.20402
963.205	661.812
963.378	613.21748
963.551	617.44283
963.723	598.42915
963.896	689.28125
964.069	543.50667
964.242	737.88533
964.414	570.96678
964.587	704.07318
964.76	518.16095
964.932	647.02168
965.105	649.13455
965.278	718.86566
965.45	634.34474
965.623	655.47322
965.795	600.54173
965.968	644.90883
966.14	619.55552
966.313	718.86566
966.485	558.2926
966.658	689.28125
966.83	435.80187
967.003	623.78095
967.175	613.21748
967.348	763.24622
967.52	672.37686
967.692	666.03791
967.865	577.30405
968.037	704.07318
968.209	611.10482
968.382	613.21748
968.554	619.55552
968.726	560.40493
968.898	596.31658
969.071	556.18028
969.243	410.46532
969.415	421.02194
969.587	425.2447
969.759	503.37689
969.932	342.91278
970.104	452.69416
970.276	389.35331
970.448	435.80187
970.62	385.13111
970.792	456.91739
970.964	389.35331
971.136	530.83356
971.308	492.81728
971.48	486.48169
971.652	444.24789
971.824	530.83356
971.996	366.13202
972.168	399.90911
972.339	285.92915
972.511	444.24789
972.683	397.79792
972.855	454.80577
973.027	315.47458
973.199	492.81728
973.37	433.6904
973.542	418.91058
973.714	351.3559
973.886	484.36986
974.057	349.24509
974.229	351.3559
974.401	372.4649
974.572	387.2422
974.744	319.69565
974.915	361.91018
975.087	395.68674
975.259	389.35331
975.43	273.26793
975.602	315.47458
975.773	247.94751
975.945	361.91018
976.116	342.91278
976.288	391.46444
976.459	247.94751
976.63	345.02353
976.802	273.26793
976.973	317.58511
977.145	328.13799
977.316	340.80204
977.487	258.49735
977.659	423.13331
977.83	300.70142
978.001	288.03942
978.172	334.46994
978.344	338.69132
978.515	222.62986
978.686	233.17854
978.857	237.39815
979.028	231.06877
979.2	112.95374
979.371	256.38735
979.542	283.8189
979.713	260.60738
979.884	188.87742
980.055	250.05744
980.226	180.44012
980.397	326.02738
980.568	239.50798
980.739	294.37034
980.91	159.34831
981.081	226.84928
981.252	300.70142
981.423	307.03267
981.594	292.26001
981.765	302.81182
981.936	188.87742
982.106	157.23924
982.277	110.84515
982.448	163.5665
982.619	163.5665
982.79	182.54942
982.96	222.62986
983.131	142.47636
983.302	247.94751
983.472	239.50798
983.643	148.80318
983.814	205.753
983.984	209.9721
984.155	273.26793
984.326	176.22159
984.496	207.86254
984.667	214.19127
984.837	201.53399
985.008	222.62986
985.178	165.67563
985.349	140.36746
985.519	180.44012
985.69	150.91217
985.86	131.93208
986.031	186.76807
986.201	216.30089
986.371	184.65873
986.542	199.42451
986.712	237.39815
986.882	201.53399
987.053	146.69422
987.223	142.47636
987.393	96.08559
987.563	188.87742
987.734	81.32712
987.904	169.89395
988.074	49.70556
988.244	163.5665
988.414	106.62802
988.585	125.60578
988.755	260.60738
988.925	123.49705
989.095	155.13019
989.265	131.93208
989.435	155.13019
989.605	112.95374
989.775	62.35357
989.945	193.0962
990.115	112.95374
990.285	157.23924
990.455	157.23924
990.625	112.95374
990.795	115.06236
990.965	155.13019
991.134	112.95374
991.304	91.86877
991.474	125.60578
991.644	79.21886
991.814	136.14973
991.984	142.47636
992.153	104.51949
992.323	100.3025
992.493	83.43541
992.662	87.65205
992.832	134.0409
993.002	125.60578
993.171	32.84284
993.341	70.78603
993.511	58.13747
993.68	104.51949
993.85	15.98162
994.019	24.41204
994.189	70.78603
994.358	32.84284
994.528	60.24551
994.697	49.70556
994.867	131.93208
995.036	41.27401
995.206	47.59764
995.375	58.13747
995.544	87.65205
995.714	77.11062
995.883	106.62802
996.052	83.43541
996.222	62.35357
996.391	100.3025
996.56	15.98162
996.73	89.7604
996.899	47.59764
997.068	47.59764
997.237	70.78603
997.406	70.78603
997.576	5.44413
997.745	-38.8067
997.914	104.51949
998.083	87.65205
998.252	37.05838
998.421	64.46165
998.59	22.3044
998.759	89.7604
998.928	68.67788
999.097	11.76656
999.266	41.27401
999.435	20.19678
999.604	37.05838
999.773	39.16618
999.942	91.86877
1000.111	77.11062
1000.28	22.3044
1000.448	70.78603
1000.617	106.62802
1000.786	66.56975
1000.955	60.24551
1001.124	64.46165
1001.292	-17.73622
1001.461	-13.52183
1001.63	53.92147
1001.798	45.48974
1001.967	87.65205
1002.136	41.27401
1002.304	89.7604
1002.473	47.59764
1002.642	28.62739
1002.81	53.92147
1002.979	13.87408
1003.147	18.08919
1003.316	112.95374
1003.484	104.51949
1003.653	70.78603
1003.821	127.71452
1003.99	3.33671
1004.158	85.54372
1004.327	60.24551
1004.495	81.32712
1004.663	41.27401
1004.832	37.05838
1005	5.44413
1005.168	62.35357
1005.337	-9.30734
1005.505	66.56975
1005.673	37.05838
1005.842	41.27401
1006.01	-11.4146
1006.178	-13.52183
1006.346	24.41204
1006.514	53.92147
1006.683	13.87408
1006.851	32.84284
1007.019	39.16618
1007.187	70.78603
1007.355	56.02946
1007.523	79.21886
1007.691	41.27401
1007.859	37.05838
1008.027	-7.20006
1008.195	-24.05762
1008.363	37.05838
1008.531	5.44413
1008.699	11.76656
1008.867	53.92147
1009.035	20.19678
1009.203	-7.20006
1009.37	7.55158
1009.538	68.67788
1009.706	89.7604
1009.874	-72.51427
1010.042	58.13747
1010.209	22.3044
1010.377	11.76656
1010.545	32.84284
1010.713	-21.95051
1010.88	3.33671
1011.048	58.13747
1011.216	-5.09275
1011.383	15.98162
1011.551	-5.09275
1011.718	96.08559
1011.886	45.48974
1012.054	-57.768
1012.221	22.3044
1012.389	37.05838
1012.556	18.08919
1012.724	30.7351
1012.891	79.21886
1013.058	3.33671
1013.226	-13.52183
1013.393	115.06236
1013.561	58.13747
1013.728	18.08919
1013.895	53.92147
1014.063	30.7351
1014.23	70.78603
1014.397	-28.27177
1014.565	47.59764
1014.732	41.27401
1014.899	22.3044
1015.066	-9.30734
1015.233	1.22931
1015.401	11.76656
1015.568	18.08919
1015.735	91.86877
1015.902	20.19678
1016.069	106.62802
1016.236	79.21886
1016.403	41.27401
1016.57	37.05838
1016.737	1.22931
1016.904	39.16618
1017.071	41.27401
1017.238	7.55158
1017.405	26.51971
1017.572	104.51949
1017.739	37.05838
1017.906	-13.52183
1018.073	51.8135
1018.24	-0.87807
1018.407	11.76656
1018.573	5.44413
1018.74	20.19678
1018.907	5.44413
1019.074	7.55158
1019.241	-13.52183
1019.407	47.59764
1019.574	20.19678
1019.741	3.33671
1019.907	-5.09275
1020.074	7.55158
1020.241	11.76656
1020.407	45.48974
1020.574	-61.98135
1020.74	58.13747
1020.907	20.19678
1021.073	3.33671
1021.24	37.05838
1021.406	58.13747
1021.573	45.48974
1021.739	-2.98542
1021.906	15.98162
1022.072	43.38186
1022.239	32.84284
1022.405	-0.87807
1022.571	-9.30734
1022.738	34.9506
1022.904	32.84284
1023.07	45.48974
1023.237	-9.30734
1023.403	30.7351
1023.569	-47.2342
1023.735	1.22931
1023.902	37.05838
1024.068	13.87408
1024.234	-13.52183
1024.4	-11.4146
1024.566	-26.16471
1024.732	13.87408
1024.898	60.24551
1025.065	22.3044
1025.231	7.55158
1025.397	-0.87807
1025.563	13.87408
1025.729	-51.44779
1025.895	-40.91361
1026.061	41.27401
1026.227	64.46165
1026.392	28.62739
1026.558	-43.0205
1026.724	15.98162
1026.89	5.44413
1027.056	22.3044
1027.222	22.3044
1027.388	3.33671
1027.553	-91.4719
1027.719	3.33671
1027.885	66.56975
1028.051	-11.4146
1028.216	-0.87807
1028.382	-38.8067
1028.548	3.33671
1028.713	-30.3788
1028.879	-24.05762
1029.045	3.33671
1029.21	47.59764
1029.376	20.19678
1029.541	5.44413
1029.707	-32.48582
1029.873	64.46165
1030.038	-38.8067
1030.204	18.08919
1030.369	20.19678
1030.534	-55.66129
1030.7	32.84284
1030.865	13.87408
1031.031	28.62739
1031.196	11.76656
1031.361	64.46165
1031.527	13.87408
1031.692	7.55158
1031.857	79.21886
1032.023	-34.5928
1032.188	-13.52183
1032.353	24.41204
1032.518	56.02946
1032.684	-13.52183
1032.849	11.76656
1033.014	-43.0205
1033.179	5.44413
1033.344	3.33671
1033.509	9.65906
1033.674	37.05838
1033.839	-21.95051
1034.004	100.3025
1034.17	-9.30734
1034.335	30.7351
1034.5	30.7351
1034.664	20.19678
1034.829	87.65205
1034.994	30.7351
1035.159	58.13747
1035.324	39.16618
1035.489	13.87408
1035.654	-43.0205
1035.819	30.7351
1035.984	32.84284
1036.148	83.43541
1036.313	-21.95051
1036.478	81.32712
1036.643	58.13747
1036.807	-36.69976
1036.972	11.76656
1037.137	64.46165
1037.301	37.05838
1037.466	26.51971
1037.631	32.84284
1037.795	-2.98542
1037.96	-9.30734
1038.124	24.41204
1038.289	41.27401
1038.454	-59.87469
1038.618	-11.4146
1038.783	37.05838
1038.947	28.62739
1039.111	-13.52183
1039.276	72.8942
1039.44	-34.5928
1039.605	26.51971
1039.769	32.84284
1039.933	-0.87807
1040.098	62.35357
1040.262	62.35357
1040.426	-11.4146
1040.591	37.05838
1040.755	7.55158
1040.919	20.19678
1041.083	-5.09275
1041.248	5.44413
1041.412	37.05838
1041.576	22.3044
1041.74	-21.95051
1041.904	-9.30734
1042.068	-13.52183
1042.232	-40.91361
1042.397	3.33671
1042.561	11.76656
1042.725	7.55158
1042.889	11.76656
1043.053	62.35357
1043.217	37.05838
1043.381	-30.3788
1043.544	-5.09275
1043.708	1.22931
1043.872	-38.8067
1044.036	-26.16471
1044.2	37.05838
1044.364	-2.98542
1044.528	-26.16471
1044.691	45.48974
1044.855	-38.8067
1045.019	24.41204
1045.183	51.8135
1045.346	-28.27177
1045.51	56.02946
1045.674	-0.87807
1045.837	45.48974
1046.001	-26.16471
1046.165	-38.8067
1046.328	11.76656
1046.492	-51.44779
1046.655	-9.30734
1046.819	20.19678
1046.983	-34.5928
1047.146	3.33671
1047.31	-17.73622
1047.473	15.98162
1047.636	-30.3788
1047.8	-13.52183
1047.963	68.67788
1048.127	-21.95051
1048.29	-21.95051
