Data from mixed_try1_USB4F045381__13__00035.txt Node

Date: Thu Apr 03 19:33:07 EDT 2025
User: mmckonesweet
Spectrometer: USB4F04538
Trigger mode: 4
Integration Time (sec): 2.700000E-3
Scans to average: 1
Electric dark correction enabled: true
Nonlinearity correction enabled: true
Boxcar width: 0
XAxis mode: Wavelengths
Number of Pixels in Spectrum: 3648
>>>>>Begin Spectral Data<<<<<
345.52	18.08919
345.736	18.08919
345.952	18.08919
346.168	-11.4146
346.384	-5.09275
346.6	70.78603
346.816	-11.4146
347.032	-17.73622
347.248	-5.09275
347.464	-2.98542
347.68	28.62739
347.896	-19.84338
348.112	22.3044
348.328	-13.52183
348.544	-72.51427
348.76	32.84284
348.975	-11.4146
349.191	-36.69976
349.407	39.16618
349.623	-68.30117
349.839	-9.30734
350.055	-15.62904
350.27	-51.44779
350.486	-38.8067
350.702	-70.40773
350.918	-36.69976
351.133	-13.52183
351.349	-30.3788
351.565	9.65906
351.781	-28.27177
351.996	3.33671
352.212	-57.768
352.428	15.98162
352.644	-2.98542
352.859	30.7351
353.075	-9.30734
353.291	20.19678
353.506	-15.62904
353.722	-0.87807
353.938	-5.09275
354.153	39.16618
354.369	-26.16471
354.584	11.76656
354.8	-80.94014
355.016	-5.09275
355.231	5.44413
355.447	-0.87807
355.662	-43.0205
355.878	-38.8067
356.093	-43.0205
356.309	-34.5928
356.524	3.33671
356.74	-38.8067
356.955	-17.73622
357.171	-59.87469
357.386	-68.30117
357.602	-36.69976
357.817	-34.5928
358.033	3.33671
358.248	32.84284
358.464	15.98162
358.679	-2.98542
358.895	-21.95051
359.11	3.33671
359.325	3.33671
359.541	-45.12736
359.756	-53.55456
359.972	-9.30734
360.187	26.51971
360.402	11.76656
360.618	-0.87807
360.833	66.56975
361.048	-21.95051
361.264	-51.44779
361.479	-38.8067
361.694	-30.3788
361.909	41.27401
362.125	-13.52183
362.34	-45.12736
362.555	-28.27177
362.77	-2.98542
362.986	-38.8067
363.201	-0.87807
363.416	-47.2342
363.631	-5.09275
363.847	-64.08798
364.062	-5.09275
364.277	-28.27177
364.492	28.62739
364.707	51.8135
364.922	11.76656
365.138	75.0024
365.353	26.51971
365.568	30.7351
365.783	-28.27177
365.998	13.87408
366.213	-26.16471
366.428	-5.09275
366.643	20.19678
366.858	-0.87807
367.073	-38.8067
367.288	39.16618
367.503	70.78603
367.718	-21.95051
367.933	11.76656
368.148	-55.66129
368.363	-28.27177
368.578	20.19678
368.793	37.05838
369.008	24.41204
369.223	-34.5928
369.438	7.55158
369.653	-51.44779
369.868	-83.04654
370.083	5.44413
370.298	49.70556
370.513	3.33671
370.728	22.3044
370.943	-97.79065
371.157	-21.95051
371.372	5.44413
371.587	-30.3788
371.802	3.33671
372.017	-13.52183
372.232	72.8942
372.446	-11.4146
372.661	53.92147
372.876	20.19678
373.091	-53.55456
373.306	-5.09275
373.52	-47.2342
373.735	24.41204
373.95	-11.4146
374.165	-74.62077
374.379	24.41204
374.594	-9.30734
374.809	-47.2342
375.023	-55.66129
375.238	13.87408
375.453	-43.0205
375.667	20.19678
375.882	28.62739
376.097	-5.09275
376.311	-7.20006
376.526	7.55158
376.741	-26.16471
376.955	-51.44779
377.17	-59.87469
377.384	-47.2342
377.599	-2.98542
377.813	22.3044
378.028	-19.84338
378.242	-87.25927
378.457	3.33671
378.672	3.33671
378.886	-28.27177
379.101	-13.52183
379.315	1.22931
379.53	-30.3788
379.744	-13.52183
379.958	5.44413
380.173	-26.16471
380.387	60.24551
380.602	-2.98542
380.816	-93.57817
381.031	45.48974
381.245	-70.40773
381.459	-55.66129
381.674	47.59764
381.888	-85.15292
382.103	20.19678
382.317	-21.95051
382.531	1.22931
382.746	-36.69976
382.96	-21.95051
383.174	-47.2342
383.388	-7.20006
383.603	15.98162
383.817	-59.87469
384.031	-51.44779
384.246	-47.2342
384.46	43.38186
384.674	-28.27177
384.888	9.65906
385.103	39.16618
385.317	-30.3788
385.531	20.19678
385.745	3.33671
385.959	7.55158
386.174	-13.52183
386.388	-80.94014
386.602	-11.4146
386.816	11.76656
387.03	-61.98135
387.244	-19.84338
387.458	-5.09275
387.672	-87.25927
387.887	-7.20006
388.101	39.16618
388.315	-47.2342
388.529	-38.8067
388.743	-11.4146
388.957	20.19678
389.171	-89.3656
389.385	45.48974
389.599	-36.69976
389.813	-47.2342
390.027	-43.0205
390.241	20.19678
390.455	9.65906
390.669	-5.09275
390.883	26.51971
391.097	24.41204
391.311	-24.05762
391.525	3.33671
391.738	-26.16471
391.952	-38.8067
392.166	-5.09275
392.38	-47.2342
392.594	-30.3788
392.808	49.70556
393.022	-34.5928
393.236	-30.3788
393.449	-108.32136
393.663	-21.95051
393.877	5.44413
394.091	-51.44779
394.305	28.62739
394.518	22.3044
394.732	24.41204
394.946	-45.12736
395.16	-70.40773
395.373	-5.09275
395.587	-11.4146
395.801	11.76656
396.015	15.98162
396.228	3.33671
396.442	13.87408
396.656	-26.16471
396.869	-9.30734
397.083	-59.87469
397.297	39.16618
397.51	-47.2342
397.724	-19.84338
397.938	-78.83371
398.151	-38.8067
398.365	83.43541
398.578	28.62739
398.792	-43.0205
399.005	-76.72725
399.219	-0.87807
399.433	-59.87469
399.646	-38.8067
399.86	34.9506
400.073	-2.98542
400.287	-30.3788
400.5	-36.69976
400.714	-53.55456
400.927	32.84284
401.141	-11.4146
401.354	-21.95051
401.567	-70.40773
401.781	-78.83371
401.994	41.27401
402.208	-53.55456
402.421	53.92147
402.635	-38.8067
402.848	-0.87807
403.061	-30.3788
403.275	3.33671
403.488	-28.27177
403.701	7.55158
403.915	53.92147
404.128	-43.0205
404.341	5.44413
404.555	-72.51427
404.768	-47.2342
404.981	13.87408
405.195	-13.52183
405.408	-38.8067
405.621	-21.95051
405.834	-24.05762
406.048	75.0024
406.261	-112.53347
406.474	-9.30734
406.687	-11.4146
406.9	-17.73622
407.114	24.41204
407.327	-21.95051
407.54	-17.73622
407.753	7.55158
407.966	-21.95051
408.179	20.19678
408.392	49.70556
408.605	-43.0205
408.819	-38.8067
409.032	-21.95051
409.245	20.19678
409.458	-24.05762
409.671	-61.98135
409.884	32.84284
410.097	41.27401
410.31	-17.73622
410.523	-55.66129
410.736	34.9506
410.949	-11.4146
411.162	-24.05762
411.375	-51.44779
411.588	-32.48582
411.801	37.05838
412.014	39.16618
412.227	-30.3788
412.44	-2.98542
412.653	-93.57817
412.865	-53.55456
413.078	-102.00301
413.291	45.48974
413.504	-11.4146
413.717	-72.51427
413.93	-47.2342
414.143	22.3044
414.356	-30.3788
414.568	-9.30734
414.781	-51.44779
414.994	28.62739
415.207	-9.30734
415.42	-89.3656
415.632	-19.84338
415.845	-61.98135
416.058	-17.73622
416.271	-38.8067
416.483	-11.4146
416.696	28.62739
416.909	47.59764
417.121	41.27401
417.334	-5.09275
417.547	30.7351
417.759	24.41204
417.972	-21.95051
418.185	-53.55456
418.397	-24.05762
418.61	-11.4146
418.823	-55.66129
419.035	24.41204
419.248	-19.84338
419.46	-13.52183
419.673	-13.52183
419.885	-28.27177
420.098	-142.0152
420.311	13.87408
420.523	-36.69976
420.736	-55.66129
420.948	-13.52183
421.161	-13.52183
421.373	20.19678
421.586	22.3044
421.798	-55.66129
422.01	-30.3788
422.223	-19.84338
422.435	-21.95051
422.648	28.62739
422.86	-80.94014
423.073	-5.09275
423.285	-26.16471
423.497	11.76656
423.71	3.33671
423.922	11.76656
424.134	-28.27177
424.347	15.98162
424.559	-47.2342
424.771	3.33671
424.984	32.84284
425.196	-43.0205
425.408	-11.4146
425.621	-15.62904
425.833	-30.3788
426.045	-13.52183
426.257	-21.95051
426.47	-61.98135
426.682	-47.2342
426.894	-104.10916
427.106	7.55158
427.318	-17.73622
427.531	-68.30117
427.743	-38.8067
427.955	20.19678
428.167	-17.73622
428.379	-19.84338
428.591	-21.95051
428.804	-9.30734
429.016	-38.8067
429.228	-38.8067
429.44	-13.52183
429.652	24.41204
429.864	30.7351
430.076	-32.48582
430.288	-51.44779
430.5	13.87408
430.712	-19.84338
430.924	-76.72725
431.136	13.87408
431.348	-30.3788
431.56	-13.52183
431.772	-13.52183
431.984	-5.09275
432.196	18.08919
432.408	-70.40773
432.62	-43.0205
432.832	-72.51427
433.044	-85.15292
433.256	-34.5928
433.468	-19.84338
433.679	-89.3656
433.891	-34.5928
434.103	37.05838
434.315	3.33671
434.527	-47.2342
434.739	-47.2342
434.95	-43.0205
435.162	-36.69976
435.374	-28.27177
435.586	22.3044
435.798	-49.34101
436.009	-7.20006
436.221	45.48974
436.433	-9.30734
436.645	-13.52183
436.856	-30.3788
437.068	32.84284
437.28	-2.98542
437.491	45.48974
437.703	-15.62904
437.915	3.33671
438.126	47.59764
438.338	-5.09275
438.55	15.98162
438.761	-0.87807
438.973	-80.94014
439.184	-13.52183
439.396	30.7351
439.608	5.44413
439.819	15.98162
440.031	30.7351
440.242	-30.3788
440.454	-43.0205
440.665	96.08559
440.877	66.56975
441.088	3.33671
441.3	47.59764
441.511	-19.84338
441.723	-28.27177
441.934	-21.95051
442.146	-13.52183
442.357	-64.08798
442.569	-43.0205
442.78	-15.62904
442.991	-11.4146
443.203	37.05838
443.414	-13.52183
443.626	-34.5928
443.837	-43.0205
444.048	15.98162
444.26	49.70556
444.471	28.62739
444.682	-47.2342
444.894	20.19678
445.105	-17.73622
445.316	-51.44779
445.528	13.87408
445.739	-36.69976
445.95	7.55158
446.161	37.05838
446.373	-24.05762
446.584	15.98162
446.795	-26.16471
447.006	-55.66129
447.217	-13.52183
447.429	-47.2342
447.64	3.33671
447.851	-5.09275
448.062	49.70556
448.273	13.87408
448.484	-66.19459
448.695	-26.16471
448.907	15.98162
449.118	-7.20006
449.329	-5.09275
449.54	11.76656
449.751	28.62739
449.962	-38.8067
450.173	-21.95051
450.384	24.41204
450.595	77.11062
450.806	-21.95051
451.017	-59.87469
451.228	-30.3788
451.439	-24.05762
451.65	32.84284
451.861	30.7351
452.072	53.92147
452.283	45.48974
452.494	-9.30734
452.705	-2.98542
452.915	-47.2342
453.126	-36.69976
453.337	-78.83371
453.548	-51.44779
453.759	66.56975
453.97	-38.8067
454.181	-13.52183
454.391	-38.8067
454.602	-61.98135
454.813	7.55158
455.024	-9.30734
455.235	-38.8067
455.445	-21.95051
455.656	32.84284
455.867	-21.95051
456.078	-13.52183
456.288	-30.3788
456.499	-26.16471
456.71	-17.73622
456.921	53.92147
457.131	-97.79065
457.342	-13.52183
457.553	-36.69976
457.763	-47.2342
457.974	24.41204
458.184	3.33671
458.395	11.76656
458.606	11.76656
458.816	7.55158
459.027	-9.30734
459.237	-53.55456
459.448	-19.84338
459.659	-5.09275
459.869	-64.08798
460.08	-9.30734
460.29	11.76656
460.501	-11.4146
460.711	7.55158
460.922	34.9506
461.132	-7.20006
461.343	13.87408
461.553	-30.3788
461.764	32.84284
461.974	37.05838
462.184	37.05838
462.395	5.44413
462.605	-61.98135
462.816	-72.51427
463.026	-34.5928
463.236	3.33671
463.447	11.76656
463.657	-21.95051
463.867	45.48974
464.078	20.19678
464.288	-64.08798
464.498	41.27401
464.709	-9.30734
464.919	-76.72725
465.129	-28.27177
465.339	41.27401
465.55	28.62739
465.76	-0.87807
465.97	5.44413
466.18	87.65205
466.391	-59.87469
466.601	-72.51427
466.811	53.92147
467.021	-21.95051
467.231	30.7351
467.441	13.87408
467.651	-28.27177
467.862	75.0024
468.072	-47.2342
468.282	3.33671
468.492	-13.52183
468.702	45.48974
468.912	-34.5928
469.122	-59.87469
469.332	47.59764
469.542	-43.0205
469.752	-57.768
469.962	1.22931
470.172	-17.73622
470.382	37.05838
470.592	56.02946
470.802	70.78603
471.012	28.62739
471.222	11.76656
471.432	5.44413
471.642	3.33671
471.852	13.87408
472.062	-2.98542
472.272	-43.0205
472.482	28.62739
472.691	45.48974
472.901	43.38186
473.111	-34.5928
473.321	20.19678
473.531	-26.16471
473.741	32.84284
473.95	22.3044
474.16	-19.84338
474.37	58.13747
474.58	39.16618
474.79	-21.95051
474.999	58.13747
475.209	-36.69976
475.419	28.62739
475.628	30.7351
475.838	5.44413
476.048	34.9506
476.258	66.56975
476.467	3.33671
476.677	-28.27177
476.886	-45.12736
477.096	22.3044
477.306	62.35357
477.515	37.05838
477.725	15.98162
477.935	-15.62904
478.144	15.98162
478.354	20.19678
478.563	39.16618
478.773	37.05838
478.982	7.55158
479.192	-19.84338
479.401	11.76656
479.611	-17.73622
479.82	34.9506
480.03	11.76656
480.239	22.3044
480.449	45.48974
480.658	-5.09275
480.868	-30.3788
481.077	58.13747
481.287	39.16618
481.496	56.02946
481.705	-2.98542
481.915	77.11062
482.124	-21.95051
482.333	13.87408
482.543	83.43541
482.752	-13.52183
482.961	41.27401
483.171	62.35357
483.38	115.06236
483.589	81.32712
483.799	70.78603
484.008	37.05838
484.217	32.84284
484.426	58.13747
484.636	39.16618
484.845	79.21886
485.054	15.98162
485.263	-21.95051
485.472	56.02946
485.682	64.46165
485.891	20.19678
486.1	-2.98542
486.309	87.65205
486.518	58.13747
486.727	53.92147
486.936	112.95374
487.146	47.59764
487.355	22.3044
487.564	104.51949
487.773	100.3025
487.982	70.78603
488.191	64.46165
488.4	64.46165
488.609	100.3025
488.818	142.47636
489.027	56.02946
489.236	47.59764
489.445	70.78603
489.654	87.65205
489.863	153.02117
490.072	121.38835
490.281	53.92147
490.49	30.7351
490.698	115.06236
490.907	87.65205
491.116	115.06236
491.325	56.02946
491.534	197.31505
491.743	15.98162
491.952	89.7604
492.16	-34.5928
492.369	121.38835
492.578	5.44413
492.787	123.49705
492.996	216.30089
493.204	70.78603
493.413	70.78603
493.622	112.95374
493.831	108.73657
494.039	96.08559
494.248	66.56975
494.457	110.84515
494.665	119.27966
494.874	79.21886
495.083	180.44012
495.291	104.51949
495.5	123.49705
495.709	112.95374
495.917	163.5665
496.126	184.65873
496.335	129.82329
496.543	117.171
496.752	193.0962
496.96	104.51949
497.169	117.171
497.377	89.7604
497.586	7.55158
497.794	203.64348
498.003	184.65873
498.211	96.08559
498.42	134.0409
498.628	155.13019
498.837	138.25859
499.045	165.67563
499.254	125.60578
499.462	172.00315
499.671	121.38835
499.879	180.44012
500.087	186.76807
500.296	98.19403
500.504	144.58528
500.713	290.14971
500.921	239.50798
501.129	157.23924
501.338	184.65873
501.546	241.61784
501.754	180.44012
501.962	283.8189
502.171	180.44012
502.379	172.00315
502.587	233.17854
502.795	260.60738
503.004	140.36746
503.212	224.73956
503.42	250.05744
503.628	216.30089
503.837	298.59104
504.045	157.23924
504.253	180.44012
504.461	241.61784
504.669	222.62986
504.877	222.62986
505.085	195.20561
505.294	205.753
505.502	178.33085
505.71	209.9721
505.918	226.84928
506.126	311.25359
506.334	237.39815
506.542	279.59846
506.75	264.82749
506.958	247.94751
507.166	296.48068
507.374	254.27736
507.582	214.19127
507.79	330.24862
507.998	290.14971
508.206	298.59104
508.414	340.80204
508.622	330.24862
508.83	307.03267
509.037	370.35392
509.245	383.02003
509.453	433.6904
509.661	410.46532
509.869	389.35331
510.077	374.57589
510.285	418.91058
510.492	323.91679
510.7	467.47573
510.908	332.35927
511.116	359.79929
511.324	429.46752
511.531	429.46752
511.739	374.57589
511.947	421.02194
512.155	359.79929
512.362	475.92268
512.57	391.46444
512.778	450.58257
512.985	323.91679
513.193	494.92917
513.401	425.2447
513.608	366.13202
513.816	406.24279
514.024	494.92917
514.231	492.81728
514.439	497.04108
514.646	459.02903
514.854	528.72142
515.061	528.72142
515.269	560.40493
515.477	463.25235
515.684	535.05787
515.892	530.83356
516.099	560.40493
516.307	393.57558
516.514	494.92917
516.722	560.40493
516.929	545.61891
517.136	499.153
517.344	568.85439
517.551	507.60084
517.759	537.17005
517.966	581.52897
518.173	560.40493
518.381	530.83356
518.588	655.47322
518.796	596.31658
519.003	632.23195
519.21	666.03791
519.418	699.84686
519.625	644.90883
519.832	644.90883
520.039	649.13455
520.247	718.86566
520.454	615.33015
520.661	638.57033
520.868	560.40493
521.076	788.60856
521.283	594.20402
521.49	765.35969
521.697	756.90586
521.904	640.68315
522.112	723.09218
522.319	680.82896
522.526	723.09218
522.733	782.26784
522.94	775.92721
523.147	873.15945
523.354	782.26784
523.561	750.56559
523.768	816.086
523.975	881.6153
524.183	775.92721
524.39	824.54092
524.597	864.70372
524.804	835.10977
525.011	875.2734
525.218	852.02039
525.425	854.13426
525.632	945.03827
525.838	746.3388
526.045	997.89573
526.252	847.79268
526.459	868.93157
526.666	1033.84112
526.873	1021.15431
527.08	849.90653
527.287	1078.24658
527.494	949.2667
527.701	1023.26877
527.907	1042.29912
528.114	1128.99846
528.321	991.55261
528.528	1135.34263
528.735	1069.78821
528.941	1171.29367
529.148	1006.35331
529.355	1209.36068
529.562	1052.87173
529.768	1270.69304
529.975	985.20956
530.182	1158.60493
530.388	1101.50751
530.595	1175.52328
530.802	1213.59042
531.008	1401.8234
531.215	1148.0311
531.422	1287.61271
531.628	1095.16356
531.835	1215.70529
532.042	1317.22245
532.248	1566.7967
532.455	1361.6377
532.661	1541.41645
532.868	1338.37249
533.074	1393.36322
533.281	1338.37249
533.487	1346.83255
533.694	1272.80799
533.9	1600.6367
534.107	1382.78803
534.313	1469.50501
534.52	1410.28358
534.726	1473.73511
534.933	1346.83255
535.139	1503.34579
535.345	1355.29263
535.552	1456.8147
535.758	1450.46954
535.965	1727.53154
536.171	1431.43407
536.377	1651.39576
536.584	1575.25674
536.79	1761.36832
536.996	1492.77056
537.203	1685.23436
537.409	1549.87656
537.615	1609.09663
537.821	1488.54046
538.028	1702.15338
538.234	1571.02672
538.44	1551.99158
538.646	1659.85547
538.853	1803.6629
539.059	1592.17674
539.265	1761.36832
539.471	1695.80877
539.677	1922.07798
539.883	1693.69389
540.09	1835.38272
540.296	1651.39576
540.502	1856.52869
540.708	1782.51581
540.914	1941.10744
541.12	1938.99308
541.326	2032.01914
541.532	1799.43352
541.738	1972.82214
541.944	1774.05686
542.15	2019.3345
542.356	1833.2681
542.562	2125.03203
542.768	2008.76378
542.974	2133.48703
543.18	1896.70467
543.386	2089.09691
543.592	1949.56482
543.798	2127.14579
544.004	1900.93361
544.21	2152.51031
544.415	2057.38768
544.621	2435.66063
544.827	1812.12162
545.033	2262.4094
545.239	2154.62397
545.445	2509.58798
545.651	2150.39665
545.856	2412.42356
546.062	2048.93161
546.268	2296.21968
546.474	2192.66843
546.679	2165.19214
546.885	2061.61567
547.091	2313.12392
547.297	2116.5769
547.502	2505.36393
547.708	2209.5762
547.914	2403.97341
548.119	2471.56989
548.325	2437.77302
548.531	2218.02989
548.736	2389.18523
548.942	2251.84321
549.147	2414.53608
549.353	2477.90649
549.559	2682.73332
549.764	2378.62194
549.97	2465.23319
550.175	2530.70756
550.381	2560.27302
550.586	2496.91569
550.792	2667.95585
550.997	2340.59198
551.203	2800.93
551.408	2632.06513
551.614	2712.28637
551.819	2549.71419
552.025	2712.28637
552.23	2461.00867
552.435	2870.56163
552.641	2691.1773
552.846	2765.05328
553.052	2691.1773
553.257	2879.00079
553.462	2765.05328
553.668	2879.00079
553.873	2708.06466
554.078	2889.54941
554.283	2670.06695
554.489	3045.62593
554.694	2781.93693
554.899	2855.79256
555.105	2710.17552
555.31	3024.53933
555.515	2824.14223
555.72	2914.86463
555.925	2851.5727
556.131	3148.92761
556.336	2940.17775
556.541	3165.78955
556.746	2944.3964
556.951	3117.30869
557.156	2900.09767
557.361	3142.60412
557.567	3157.35871
557.772	3382.79168
557.977	3100.4438
558.182	3231.11967
558.387	3132.06464
558.592	3353.30689
558.797	3134.17257
559.002	3319.60581
559.207	3062.49409
559.412	3382.79168
559.617	3197.40287
559.822	3462.80438
560.027	3186.86551
560.232	3439.64545
560.437	3247.97647
560.642	3332.24424
560.847	3172.11251
561.051	3325.9251
561.256	3258.51142
561.461	3412.27303
561.666	3513.32535
561.871	3418.59001
562.076	3292.22044
562.281	3528.05866
562.485	3334.35058
562.69	3408.06162
562.895	3332.24424
563.1	3673.2383
563.305	3441.7509
563.509	3584.87869
563.714	3370.15576
563.919	3561.73142
564.123	3450.1725
564.328	3542.79107
564.533	3517.53496
564.737	3586.98287
564.942	3534.37266
565.147	4036.83341
565.351	3624.85501
565.556	3862.46613
565.761	3601.71165
565.965	3877.17717
566.17	3620.6473
566.374	3820.42921
566.579	3778.3844
566.784	3746.84565
566.988	3727.9203
567.193	3940.21337
567.397	3650.09972
567.602	4009.53213
567.806	3820.42921
568.011	4005.33163
568.215	3788.89634
568.42	3980.12688
568.624	3797.30554
568.828	3824.63326
569.033	3717.40554
569.237	4112.4187
569.442	3900.29254
569.646	4131.31081
569.85	4261.41004
570.055	4034.73343
570.259	3980.12688
570.463	4148.10237
570.668	4026.33333
570.872	4150.20122
571.076	3896.08993
571.281	4148.10237
571.485	3864.56777
571.689	4057.83202
571.893	4074.62942
572.098	4353.68874
572.302	3954.9192
572.506	4309.65183
572.71	4068.33055
572.914	4353.68874
573.119	4225.74578
573.323	4424.9663
573.527	4078.82856
573.731	4307.5546
573.935	4357.88223
574.139	4441.73383
574.343	4200.56731
574.547	4525.55036
574.751	4349.49516
574.955	4483.6465
575.159	4487.83728
575.364	4619.80161
575.568	4303.36007
575.772	4686.7972
575.976	4320.13767
576.18	4427.06232
576.383	4466.88249
576.587	4529.74026
576.791	4290.77596
576.995	4611.42555
577.199	4234.13792
577.403	4521.36037
577.607	4464.78689
577.811	4498.31386
578.015	4688.89044
578.219	4730.75054
578.422	4628.17731
578.626	4793.52373
578.83	4697.26318
579.034	4893.91825
579.238	4701.44942
579.442	4810.25979
579.645	4588.38954
579.849	4898.10021
580.053	4711.91461
580.257	4705.63556
580.46	4845.8191
580.664	4973.35984
580.868	4795.61581
581.071	4948.2766
581.275	4927.37138
581.479	4985.90021
581.682	4896.00924
581.886	5084.10439
582.09	4795.61581
582.293	5094.54864
582.497	4760.04723
582.7	5044.41098
582.904	4902.28208
583.107	5056.94665
583.311	4793.52373
583.515	5031.87448
583.718	4852.09359
583.922	5031.87448
584.125	4977.54006
584.329	5311.65701
584.532	5048.58963
584.735	5113.34682
584.939	5069.48148
585.142	5320.00229
585.346	5153.02568
585.549	5428.45676
585.753	5253.22959
585.956	5328.3472
586.159	5102.90362
586.363	5461.81459
586.566	5134.23148
586.769	5315.8297
586.973	5428.45676
587.176	5370.06608
587.379	5418.0312
587.582	5461.81459
587.786	5332.51951
587.989	5566.01897
588.192	5440.96665
588.395	5857.47765
588.599	5453.47569
588.802	5370.06608
589.005	5084.10439
589.208	5591.01926
589.411	5505.5876
589.615	5553.51756
589.818	5665.99976
590.021	5751.35697
590.224	5499.33495
590.427	5622.26485
590.63	5580.60289
590.833	5609.76725
591.036	5586.85278
591.239	5690.98646
591.442	5730.5418
591.645	5917.7934
591.848	5705.56047
592.051	6015.5044
592.254	5711.80612
592.457	5982.24693
592.66	5728.46015
592.863	5986.40444
593.066	5759.68238
593.269	5946.90425
593.472	5832.5136
593.675	6082.00126
593.878	5805.46538
594.081	6202.46545
594.284	5996.79781
594.486	6104.854
594.689	6113.16337
594.892	5992.64054
595.095	5978.08932
595.298	6227.37922
595.5	6229.45521
595.703	6310.40074
595.906	6146.39713
596.109	6492.91661
596.311	6179.62487
596.514	6206.61798
596.717	6252.28961
596.92	6324.92566
597.122	6219.075
597.325	6351.89747
597.528	6254.36532
597.73	6422.42049
597.933	6111.08606
598.136	6329.07543
598.338	6079.9236
598.541	6486.69745
598.743	6360.1957
598.946	6385.08813
599.148	6391.31072
599.351	6314.55083
599.554	6146.39713
599.756	6327.00055
599.959	6293.79943
600.161	6559.2414
600.363	6443.15744
600.566	6378.86534
600.768	6455.59848
600.971	6834.65095
601.173	6401.68123
601.376	6374.71669
601.578	6536.44493
601.78	6480.47807
601.983	6453.52503
602.185	6675.25283
602.388	6501.20851
602.59	6892.58037
602.792	6509.50003
602.995	6758.07398
603.197	6596.53868
603.399	6803.61
603.601	6652.47057
603.804	6727.02035
604.006	6718.73851
604.208	6727.02035
604.41	6577.89097
604.613	6758.07398
604.815	6849.13498
605.017	6861.54897
605.219	6811.88809
605.421	6919.47013
605.623	6706.31506
605.826	7031.12516
606.028	6793.26188
606.23	6782.91318
606.432	6760.14404
606.634	7039.3933
606.836	6774.63381
607.038	6985.64401
607.24	6778.77354
607.442	6954.62788
607.644	7072.46224
607.846	6983.57642
608.048	6849.13498
608.25	7072.46224
608.452	7060.06206
608.654	7163.37233
608.856	6919.47013
609.058	7072.46224
609.26	7026.99096
609.462	7206.74606
609.664	6888.44315
609.866	7074.52886
610.067	6946.35606
610.269	7270.7561
610.471	7026.99096
610.673	7144.78059
610.875	7088.99456
611.077	7188.15851
611.278	6927.74313
611.48	7262.49793
611.682	7190.22389
611.884	7245.98054
612.085	7082.79511
612.287	7295.5285
612.489	7035.25927
612.69	7212.9415
612.892	7330.61732
613.094	7330.61732
613.295	7122.05491
613.497	7505.9669
613.699	7287.27139
613.9	7148.91225
614.102	7146.84643
614.304	7289.3357
614.505	7134.45107
614.707	7314.10572
614.908	7138.58295
615.11	7394.58653
615.311	7254.23941
615.513	7239.78615
615.714	7231.52666
615.916	7402.8391
616.117	7456.4723
616.319	7324.42563
616.52	7291.39999
616.722	7493.59441
616.923	7276.9495
617.124	7495.65655
617.326	7086.9281
617.527	7798.55825
617.729	7419.34318
617.93	7611.1018
618.131	7281.07832
618.333	7390.46012
618.534	7390.46012
618.735	7878.84363
618.937	7538.9564
619.138	7633.77067
619.339	7501.84282
619.54	7642.01326
619.742	7464.72227
619.943	7691.46167
620.144	7423.46899
620.345	7576.06302
620.546	7792.38114
620.748	7745.01706
620.949	7600.79692
621.15	7642.01326
621.351	7619.34533
621.552	7794.4402
621.753	7419.34318
621.954	7707.94177
622.155	7338.87259
622.356	7845.90986
622.558	7518.3386
622.759	7856.20223
622.96	7609.04087
623.161	7821.20604
623.362	7448.222
623.563	7847.96837
623.764	7530.70954
623.965	7850.02687
624.166	7592.55263
624.366	7833.55832
624.567	7642.01326
624.768	7794.4402
624.969	7724.42052
625.17	7852.08534
625.371	7788.26297
625.572	7847.96837
625.773	7948.81034
625.973	7983.7848
626.174	7786.20385
626.375	7710.00169
626.576	7983.7848
626.777	7909.71423
626.977	7728.53999
627.178	8111.28893
627.379	7845.90986
627.58	8125.67968
627.78	7897.36654
627.981	8164.73535
628.182	7448.222
628.382	7983.7848
628.583	7666.73899
628.784	7821.20604
628.984	7784.14471
629.185	8084.56063
629.386	7679.10071
629.586	8103.0652
629.787	7757.37397
629.987	8214.05855
630.188	7987.89906
630.388	8146.2362
630.589	7775.90793
630.79	8053.71605
630.99	7878.84363
631.191	8101.00921
631.391	7979.67047
631.591	8080.44828
631.792	7992.01323
631.992	8329.10176
632.193	8261.3159
632.393	8300.34673
632.594	7905.59842
632.794	8164.73535
632.994	8105.12116
633.195	8390.70684
633.395	7932.34972
633.595	8119.51233
633.796	8070.16706
633.996	8257.20698
634.196	8066.05443
634.397	8419.44992
634.597	8240.77051
634.797	8341.42418
634.997	8251.04345
635.198	8251.04345
635.398	8068.11075
635.598	8345.53149
635.798	8341.42418
635.998	8409.18497
636.199	8366.06691
636.399	8725.12778
636.599	8474.87235
636.799	8589.77834
636.999	8351.69232
637.199	8320.88643
637.399	8177.06722
637.599	8653.36164
637.799	8191.4535
637.999	8729.22802
638.199	8421.50285
638.399	8688.22231
638.599	8581.57273
638.799	8497.44786
638.999	8394.81323
639.199	8764.07711
639.399	8499.50007
639.599	8636.95476
639.799	8509.76081
639.999	8398.91953
640.199	8628.75087
640.399	8616.44449
640.599	7924.11892
640.799	8987.39713
640.998	8612.34221
641.198	8827.61187
641.398	8497.44786
641.598	9024.25535
641.798	8731.27811
641.997	8866.54394
642.197	8491.29113
642.397	8716.92708
642.597	8762.02731
642.796	8577.46981
642.996	8581.57273
643.196	8778.42519
643.395	8753.82792
643.595	8809.16809
643.795	8583.62416
643.994	8919.80891
644.194	8573.36682
644.394	8854.2503
644.593	8737.42828
644.793	9100.00173
644.992	8831.71029
645.192	8768.17665
645.392	8641.05659
645.591	9005.82695
645.791	8735.37825
645.99	8846.05419
646.19	8764.07711
646.389	8899.32381
646.589	8923.90571
646.788	9226.87533
646.987	8755.8778
647.187	9065.20229
647.386	9022.20782
647.586	9130.70298
647.785	9044.72969
647.984	9253.4696
648.184	8946.43687
648.383	9388.44322
648.582	9104.09545
648.782	9257.56077
648.981	9145.02891
649.18	8991.49277
649.38	9040.63497
649.579	9308.6948
649.778	9034.49274
649.977	9314.83019
650.177	9063.15511
650.376	9003.77927
650.575	8809.16809
650.774	9091.81408
650.973	8964.86986
651.173	9136.84276
651.372	8917.76048
651.571	9449.77122
651.77	9228.92115
651.969	9198.23217
652.168	9439.5509
652.367	9472.2545
652.566	9048.82435
652.765	9449.77122
652.964	9329.1455
653.163	9365.95261
653.362	9374.13124
653.561	9351.63937
653.76	9251.42399
653.959	9435.46266
654.158	9112.28269
654.357	9220.73779
654.556	9081.57912
654.755	9506.99756
654.954	9382.30961
655.153	9235.05849
655.352	9367.99729
655.551	9431.37435
655.749	9506.99756
655.948	9654.0939
656.147	9629.58349
656.346	9729.65366
656.545	9500.86677
656.743	9719.44411
656.942	9402.75439
657.141	9488.60475
657.34	9425.24177
657.538	9553.99555
657.737	9294.37832
657.936	9839.8927
658.135	9396.62113
658.333	9539.69271
658.532	9392.53221
658.731	9455.90321
658.929	9259.60633
659.128	9623.45553
659.326	9282.10641
659.525	9598.94232
659.724	9455.90321
659.922	9721.48605
660.121	9419.10904
660.319	9529.47591
660.518	9400.70999
660.716	9727.61178
660.915	9562.16826
661.113	9799.06855
661.312	9629.58349
661.51	9858.26162
661.709	9455.90321
661.907	9570.34071
662.105	9515.17173
662.304	9754.15503
662.502	9645.92401
662.701	9639.79643
662.899	9645.92401
663.097	9839.8927
663.296	9699.02386
663.494	9764.36329
663.692	9596.89945
663.891	9794.9858
664.089	9539.69271
664.287	9729.65366
664.485	9776.6127
664.684	10074.51756
664.882	9721.48605
665.08	9664.30591
665.278	9690.85533
665.476	9952.12855
665.675	9721.48605
665.873	9829.68722
666.071	9784.77868
666.269	10109.18514
666.467	9833.76946
666.665	9913.36119
666.863	9792.94441
667.061	9890.91451
667.259	9917.44221
667.457	10131.61493
667.655	9709.23418
667.853	9825.60492
668.051	10050.04387
668.249	10048.00431
668.447	9919.4827
668.645	10048.00431
668.843	9705.1501
669.041	9737.82103
669.239	9417.06477
669.437	9662.26354
669.635	9696.98175
669.833	9750.07162
670.031	9615.28471
670.229	9872.54772
670.426	9860.30253
670.624	9874.58854
670.822	9758.23838
671.02	10160.15951
671.218	9694.93963
671.415	9807.23385
671.613	9782.7372
671.811	10005.17013
672.009	10043.92513
672.206	10043.92513
672.404	9639.79643
672.602	9948.04802
672.799	9692.89749
672.997	10070.43876
673.195	9972.53031
673.392	10078.59631
673.59	9827.64608
673.788	9966.40993
673.985	9678.60207
674.183	10031.68727
674.38	9880.71089
674.578	10062.28097
674.775	9543.77931
674.973	10064.32044
675.17	10019.44889
675.368	9890.91451
675.565	10174.43078
675.763	10013.3295
675.96	9888.87382
676.158	10166.27585
676.355	9672.47524
676.553	10015.36931
676.75	9929.68493
676.947	10249.85345
677.145	9941.92712
677.342	9837.85163
677.539	9907.23954
677.737	10048.00431
677.934	10052.08343
678.131	10072.47817
678.329	10031.68727
678.526	10235.58573
678.723	10135.6929
678.92	10243.73879
679.118	9819.48137
679.315	9997.01052
679.512	10017.40911
679.709	10050.04387
679.906	9839.8927
680.104	9939.88679
680.301	9701.06596
680.498	9866.4252
680.695	10005.17013
680.892	10054.12296
681.089	10096.94999
681.286	10162.19831
681.483	9692.89749
681.68	9835.81055
681.877	10005.17013
682.075	9927.64451
682.272	9778.65422
682.469	10217.24054
682.665	9635.7113
682.862	9762.32167
683.059	9829.68722
683.256	9956.20902
683.453	9941.92712
683.65	9856.22069
683.847	9988.85068
684.044	9658.17875
684.241	9717.40216
684.438	9890.91451
684.635	9899.07715
684.831	9915.40171
685.028	9880.71089
685.225	10113.26341
685.422	9480.42975
685.619	9680.64432
685.815	9882.75164
686.012	9909.28011
686.209	9790.903
686.405	9870.5069
686.602	9707.19215
686.799	9790.903
686.996	9833.76946
687.192	9794.9858
687.389	9629.58349
687.586	9788.86157
687.782	9645.92401
687.979	9974.57041
688.175	9580.55592
688.372	9970.4902
688.568	9455.90321
688.765	9852.13878
688.962	9539.69271
689.158	9645.92401
689.355	9713.3182
689.551	9578.51291
689.748	9623.45553
689.944	9801.1099
690.14	9864.38432
690.337	9670.43293
690.533	9631.62611
690.73	9717.40216
690.926	9574.42684
691.123	9778.65422
691.319	9760.28003
691.515	9809.27514
691.712	9568.29762
691.908	9647.9665
692.104	9750.07162
692.301	9803.15123
692.497	9643.8815
692.693	9976.61049
692.889	9715.36018
693.086	9739.86283
693.282	9725.56989
693.478	9627.54085
693.674	9431.37435
693.87	9850.0978
694.067	9784.77868
694.263	9980.69061
694.459	9807.23385
694.655	9925.60408
694.851	9570.34071
695.047	9705.1501
695.243	9615.28471
695.439	9678.60207
695.635	9678.60207
695.831	9790.903
696.027	9774.57117
696.224	9637.75387
696.42	9611.19921
696.615	9839.8927
696.811	9556.03875
697.007	9752.11334
697.203	9764.36329
697.399	9709.23418
697.595	9664.30591
697.791	9670.43293
697.987	9809.27514
698.183	9643.8815
698.379	9570.34071
698.575	9913.36119
698.77	9717.40216
698.966	9627.54085
699.162	9792.94441
699.358	9890.91451
699.554	9684.72877
699.749	9668.3906
699.945	9670.43293
700.141	9954.16879
700.337	9688.81316
700.532	9990.89066
700.728	9801.1099
700.924	9864.38432
701.119	9590.77074
701.315	9707.19215
701.511	9294.37832
701.706	9515.17173
701.902	9907.23954
702.097	9829.68722
702.293	9739.86283
702.489	9864.38432
702.684	9705.1501
702.88	9511.08468
703.075	9515.17173
703.271	9639.79643
703.466	9752.11334
703.662	9586.68486
703.857	9549.9091
704.053	9837.85163
704.248	9682.68656
704.443	9874.58854
704.639	9525.38908
704.834	9506.99756
705.03	9750.07162
705.225	9917.44221
705.42	9609.15643
705.616	9529.47591
705.811	9547.86586
706.006	9643.8815
706.202	9590.77074
706.397	9797.02718
706.592	9654.0939
706.787	9406.84315
706.983	9498.82314
707.178	9623.45553
707.373	9533.56268
707.568	9776.6127
707.763	9472.2545
707.959	9553.99555
708.154	9586.68486
708.349	9515.17173
708.544	9408.88751
708.739	9386.3987
708.934	9110.23591
709.129	9490.64846
709.324	9194.14002
709.519	9222.78366
709.714	9218.69191
709.909	9355.72895
710.104	9316.87528
710.299	9605.07083
710.494	9513.12821
710.689	9701.06596
710.884	9357.77371
711.079	9596.89945
711.274	9721.48605
711.469	9848.05681
711.664	9666.34826
711.859	9598.94232
712.054	9484.51729
712.249	9600.98517
712.443	9267.78841
712.638	9464.07898
712.833	9206.41627
713.028	9717.40216
713.223	9216.64601
713.417	9668.3906
713.612	9421.1533
713.807	9774.57117
714.002	9372.08661
714.196	9809.27514
714.391	9359.81846
714.586	9711.2762
714.78	9637.75387
714.975	9474.29834
715.17	9498.82314
715.364	9711.2762
715.559	9670.43293
715.754	9564.2114
715.948	9337.32532
716.143	9529.47591
716.337	9233.01272
716.532	9429.33017
716.726	9169.58569
716.921	9635.7113
717.115	9400.70999
717.31	9739.86283
717.504	9609.15643
717.699	9709.23418
717.893	9333.23545
718.088	9325.0555
718.282	9394.57668
718.476	9490.64846
718.671	9308.6948
718.865	9390.48772
719.059	9423.19754
719.254	9384.35416
719.448	9120.46966
719.642	9249.37836
719.837	9048.82435
720.031	9100.00173
720.225	9265.74292
720.419	9251.42399
720.614	9210.50822
720.808	9161.40037
721.002	9163.44672
721.196	9333.23545
721.39	9069.2966
721.585	9455.90321
721.779	9425.24177
721.973	9433.41851
722.167	9384.35416
722.361	9378.22046
722.555	9349.59455
722.749	9406.84315
722.943	9349.59455
723.137	9243.24137
723.331	8905.46953
723.525	9265.74292
723.719	8905.46953
723.913	9147.0754
724.107	9235.05849
724.301	9085.67316
724.495	9022.20782
724.689	9384.35416
724.883	9050.87166
725.077	9263.69741
725.271	9132.74959
725.465	9142.9824
725.659	9367.99729
725.853	9259.60633
726.046	9153.21477
726.24	9032.4453
726.434	8952.58136
726.628	9196.1861
726.822	9120.46966
727.015	9527.4325
727.209	9204.37027
727.403	9288.24244
727.596	9216.64601
727.79	9423.19754
727.984	9361.86319
728.177	9363.90791
728.371	9496.7795
728.565	9476.34216
728.758	9194.14002
728.952	9388.44322
729.146	9294.37832
729.339	9570.34071
729.533	9302.55927
729.726	9310.73995
729.92	9312.78508
730.113	9388.44322
730.307	9104.09545
730.5	9325.0555
730.694	9298.46883
730.887	9551.95234
731.081	9347.54972
731.274	9341.41513
731.468	9130.70298
731.661	9239.14996
731.854	8872.69051
732.048	9259.60633
732.241	8911.61508
732.435	9083.62615
732.628	8841.95602
732.821	9028.35036
733.014	9095.90794
733.208	9179.81696
733.401	9054.96621
733.594	9136.84276
733.788	8973.06185
733.981	9028.35036
734.174	9085.67316
734.367	8940.29222
734.56	8872.69051
734.754	9095.90794
734.947	9054.96621
735.14	9114.32946
735.333	8997.6361
735.526	9179.81696
735.719	9024.25535
735.912	9024.25535
736.105	9048.82435
736.298	9275.97022
736.491	9190.0478
736.684	9050.87166
736.877	9382.30961
737.07	9535.60604
737.263	9329.1455
737.456	9453.85923
737.649	9226.87533
737.842	9095.90794
738.035	9130.70298
738.228	8975.1098
738.421	9110.23591
738.614	9261.65188
738.807	8878.83693
739	9018.11271
739.192	9003.77927
739.385	8780.47485
739.578	8934.14741
739.771	9263.69741
739.964	9192.09392
740.156	9713.3182
740.349	9161.40037
740.542	9059.0607
740.735	8981.25354
740.927	8932.09911
741.12	8743.57829
741.313	9040.63497
741.505	8948.48505
741.698	9020.16028
741.891	8915.71203
742.083	8956.6776
742.276	8725.12778
742.468	8950.53322
742.661	8903.42097
742.854	8636.95476
743.046	8423.55576
743.239	8821.46411
743.431	8983.30143
743.624	9030.39784
743.816	9206.41627
744.009	9116.37621
744.201	8960.77377
744.393	8784.5741
744.586	8768.17665
744.778	8921.85732
744.971	8780.47485
745.163	8968.96589
745.355	8649.26003
745.548	8932.09911
745.74	8991.49277
745.932	9028.35036
746.125	8899.32381
746.317	8948.48505
746.509	8735.37825
746.702	9034.49274
746.894	8911.61508
747.086	8813.26683
747.278	8997.6361
747.471	8915.71203
747.663	8909.56658
747.855	9048.82435
748.047	8919.80891
748.239	8796.87142
748.431	8731.27811
748.623	8897.2752
748.815	8878.83693
749.008	9145.02891
749.2	9032.4453
749.392	9050.87166
749.584	8745.62825
749.776	8866.54394
749.968	8907.51806
750.16	9001.73156
750.352	8706.67579
750.544	8928.00245
750.736	8645.15835
750.928	9009.92228
751.12	8837.85778
751.311	8807.11869
751.503	9054.96621
751.695	8677.96972
751.887	8706.67579
752.079	8710.77636
752.271	8591.82969
752.463	8813.26683
752.654	8581.57273
752.846	8655.41241
753.038	8612.34221
753.23	8608.23985
753.421	8320.88643
753.613	8809.16809
753.805	8766.12689
753.997	8604.13743
754.188	8573.36682
754.38	8423.55576
754.572	8641.05659
754.763	8757.92765
754.955	8686.17183
755.146	8655.41241
755.338	8735.37825
755.53	8675.91915
755.721	8688.22231
755.913	8727.17791
756.104	8489.23885
756.296	8630.80187
756.487	8661.56463
756.679	8620.54669
756.87	8273.64219
757.062	8526.177
757.253	8261.3159
757.445	8513.86497
757.636	8386.60038
757.827	8727.17791
758.019	8663.61533
758.21	8353.74589
758.401	8573.36682
758.593	8591.82969
758.784	8682.07081
758.975	8536.43651
759.167	8474.87235
759.358	8415.34399
759.549	8493.34339
759.74	8542.59199
759.932	8185.28807
760.123	8382.49384
760.314	8275.69651
760.505	8478.97716
760.696	8175.01196
760.888	8193.50861
761.079	8185.28807
761.27	8197.61875
761.461	8269.53351
761.652	8382.49384
761.843	8113.34481
762.034	8302.40079
762.225	8195.56369
762.416	8554.90243
762.607	8127.73542
762.798	8175.01196
762.989	8261.3159
763.18	8164.73535
763.371	8113.34481
763.562	8197.61875
763.753	7874.72719
763.944	8396.86639
764.135	8020.81015
764.326	8226.38756
764.517	8082.50446
764.708	8072.22334
764.899	7932.34972
765.089	7926.17665
765.28	7701.76189
765.471	8012.58287
765.662	7710.00169
765.853	7917.94561
766.043	7841.79276
766.234	7940.5802
766.425	7969.38427
766.615	7893.25048
766.806	7858.26064
766.997	7944.69531
767.187	7847.96837
767.378	8031.09381
767.569	7798.55825
767.759	8037.26375
767.95	8020.81015
768.141	8035.20712
768.331	7734.71905
768.522	7792.38114
768.712	7876.78542
768.903	7891.19242
769.093	7734.71905
769.284	7712.06158
769.474	7720.30096
769.665	7891.19242
769.855	7588.43035
770.046	7738.83832
770.236	7541.01806
770.426	7518.3386
770.617	7730.5997
770.807	7753.25509
770.998	7773.84869
771.188	7761.49278
771.378	7674.98022
771.569	7742.9575
771.759	7413.15431
771.949	7442.03404
772.139	7707.94177
772.33	7359.50924
772.52	7241.85097
772.71	7604.91894
772.9	7522.46233
773.09	7720.30096
773.281	7520.40048
773.471	7625.52775
773.661	7330.61732
773.851	7526.58598
774.041	7155.10956
774.231	7693.52176
774.421	7386.33362
774.611	7365.69981
774.802	7330.61732
774.992	7208.81123
775.182	7132.3851
775.372	7421.4061
775.562	7421.4061
775.752	7406.96525
775.942	7181.96227
776.131	7413.15431
776.321	7111.72417
776.511	7175.76582
776.701	7179.89681
776.891	7146.84643
777.081	7194.35456
777.271	7080.72858
777.461	7479.15887
777.651	7330.61732
777.84	7047.66107
778.03	7320.29774
778.22	7155.10956
778.41	7272.82059
778.599	7132.3851
778.789	7338.87259
778.979	7171.63475
779.169	7452.34719
779.358	7417.28025
779.548	7322.3617
779.738	7303.78526
779.927	7208.81123
780.117	7250.11002
780.307	7014.58782
780.496	6995.98159
780.686	7097.26018
780.875	6809.8186
781.065	7115.85653
781.254	6890.51177
781.444	6931.87949
781.633	6936.01577
781.823	6923.60667
782.012	6921.53841
782.202	7115.85653
782.391	6925.67491
782.581	6751.86367
782.77	6633.82848
782.96	6886.3745
783.149	6617.25615
783.338	7002.18387
783.528	6917.40182
783.717	6873.96214
783.906	6782.91318
784.096	6987.71157
784.285	6851.20403
784.474	7041.46027
784.663	6981.50882
784.853	6977.37354
785.042	6830.51246
785.231	6917.40182
785.42	6780.84337
785.61	6880.16842
785.799	6737.37213
785.988	6758.07398
786.177	6343.59887
786.366	6517.79119
786.555	6457.67191
786.744	6718.73851
786.933	6592.3949
787.122	6824.30454
787.312	6654.5418
787.501	6584.10708
787.69	6586.17907
787.879	6813.95755
788.068	6482.55122
788.257	6536.44493
788.445	6395.45899
788.634	6679.39476
788.823	6492.91661
789.012	6476.33171
789.201	6436.9366
789.39	6389.23655
789.579	6436.9366
789.768	6368.49355
789.957	6376.79103
790.145	6310.40074
790.334	6393.38487
790.523	6476.33171
790.712	6401.68123
790.9	6277.19663
791.089	6121.47238
791.278	6123.54957
791.467	6021.73951
791.655	6304.17543
791.844	6067.45714
792.033	6119.39516
792.221	5872.03844
792.41	6096.54424
792.599	5963.53695
792.787	6050.83386
792.976	6036.28726
793.164	6310.40074
793.353	5965.61593
793.541	6312.4758
793.73	6196.23648
793.918	6453.52503
794.107	6102.77659
794.295	6115.24066
794.484	6233.60713
794.672	6086.15652
794.861	6258.51668
795.049	6185.8544
795.238	5913.63433
795.426	6221.15109
795.614	6005.11209
795.803	5980.16813
795.991	5853.31721
796.179	6160.935
796.368	6050.83386
796.556	6212.8466
796.744	6082.00126
796.932	6219.075
797.121	5847.07637
797.309	6248.13811
797.497	6111.08606
797.685	6190.0073
797.874	5988.48316
798.062	5911.55476
798.25	5905.31591
798.438	6196.23648
798.626	5878.27842
798.814	6252.28961
799.002	5963.53695
799.19	6179.62487
799.378	5811.70763
799.566	6094.46674
799.755	5765.92619
799.943	5961.45794
800.131	5963.53695
800.318	6138.08925
800.506	5928.19066
800.694	6005.11209
800.882	5749.27556
801.07	6036.28726
801.258	5759.68238
801.446	5944.82506
801.634	5713.88796
801.822	5844.99605
802.01	5751.35697
802.197	6196.23648
802.385	5921.95238
802.573	6030.05265
802.761	5797.14205
802.949	5913.63433
803.136	5736.7866
803.324	5921.95238
803.512	5865.79824
803.699	5830.43311
803.887	5770.08861
804.075	5913.63433
804.262	5647.2575
804.45	5951.06257
804.638	5830.43311
804.825	6065.37931
805.013	5811.70763
805.201	6071.61272
805.388	5959.37891
805.576	6102.77659
805.763	5971.85273
805.951	6138.08925
806.138	6015.5044
806.326	6133.93517
806.513	5736.7866
806.701	6036.28726
806.888	5813.78833
807.075	6005.11209
807.263	5730.5418
807.45	5880.35837
807.638	5688.90437
807.825	5984.3257
808.012	5836.67451
808.2	6160.935
808.387	5921.95238
808.574	6154.70463
808.761	5936.50805
808.949	6136.01223
809.136	6003.03356
809.323	6036.28726
809.51	5917.7934
809.698	5936.50805
809.885	5882.43829
810.072	5907.39555
810.259	6027.9744
810.446	6175.47173
810.633	6017.58279
810.82	6302.10027
811.008	6210.77042
811.195	6152.62779
811.382	5892.83756
811.569	6221.15109
811.756	5813.78833
811.943	6111.08606
812.13	5872.03844
812.317	6017.58279
812.504	5665.99976
812.691	5869.95839
812.878	6202.46545
813.064	6219.075
813.251	5919.8729
813.438	5890.75776
813.625	6090.31168
813.812	6115.24066
813.999	5913.63433
814.186	5817.94967
814.372	5865.79824
814.559	6192.08372
814.746	6000.955
814.933	5815.86901
815.12	5853.31721
815.306	5884.5182
815.493	5944.82506
815.68	6102.77659
815.866	5830.43311
816.053	5963.53695
816.24	5703.47854
816.426	6044.59975
816.613	5551.4339
816.799	5805.46538
816.986	5830.43311
817.173	5836.67451
817.359	5855.39744
817.546	5932.3494
817.732	5591.01926
817.919	5636.84431
818.105	5563.93546
818.292	5971.85273
818.478	5801.30376
818.665	5948.98342
818.851	5872.03844
819.037	6017.58279
819.224	5859.55783
819.41	5986.40444
819.597	5663.91738
819.783	6003.03356
819.969	5813.78833
820.156	5890.75776
820.342	5926.11126
820.528	5844.99605
820.714	5765.92619
820.901	5969.77382
821.087	5728.46015
821.273	5869.95839
821.459	5876.19845
821.646	5869.95839
821.832	5863.71813
822.018	5984.3257
822.204	5486.82901
822.39	5882.43829
822.576	5684.74011
822.762	5749.27556
822.948	5443.05155
823.134	5595.18565
823.32	5313.74337
823.507	5653.50513
823.693	5405.51976
823.879	5728.46015
824.065	5557.68479
824.25	5880.35837
824.436	5788.81834
824.622	5917.7934
824.808	5807.54615
824.994	5847.07637
825.18	5676.4113
825.366	5611.85024
825.552	5397.17833
825.738	5672.24675
825.923	5405.51976
826.109	5820.0303
826.295	5463.89925
826.481	5561.85193
826.667	5395.09291
826.852	5490.99775
827.038	5611.85024
827.224	5913.63433
827.409	5591.01926
827.595	5761.76367
827.781	5420.11636
827.966	5749.27556
828.152	5372.15178
828.338	5797.14205
828.523	5455.56045
828.709	5647.2575
828.894	5282.44559
829.08	5597.26881
829.266	5140.49642
829.451	5395.09291
829.637	5196.8715
829.822	5219.83426
830.008	5288.70557
830.193	5470.1531
830.378	5155.11381
830.564	5584.76951
830.749	5451.39091
830.935	5386.75101
831.12	5359.63724
831.305	5449.30611
831.491	5186.43295
831.676	5332.51951
831.861	5259.49054
832.047	5451.39091
832.232	5023.51636
832.417	5221.92164
832.602	4929.46201
832.788	5198.95914
832.973	5121.70096
833.158	5255.3166
833.343	5056.94665
833.528	5213.57197
833.714	5146.76116
833.899	5044.41098
834.084	5040.23224
834.269	5123.78944
834.454	4923.19006
834.639	5119.61246
834.824	4914.82714
835.009	5006.79899
835.194	4726.56494
835.379	5345.03588
835.564	4896.00924
835.749	5153.02568
835.934	4843.72756
836.119	5196.8715
836.304	4896.00924
836.489	5063.21417
836.674	4749.58464
836.859	4762.13968
837.044	4942.00528
837.228	4923.19006
837.413	4826.9944
837.598	5184.34517
837.783	5086.19329
837.968	4929.46201
838.152	4714.00758
838.337	4910.64555
838.522	4588.38954
838.707	4554.8778
838.891	4588.38954
839.076	4835.36116
839.261	4659.58301
839.445	4875.09828
839.63	4722.37924
839.815	4803.98394
839.999	4613.5196
840.184	5059.03584
840.368	4760.04723
840.553	4935.73375
840.737	4588.38954
840.922	4810.25979
841.106	4552.78312
841.291	4933.64319
841.475	4492.02798
841.66	4661.67655
841.844	4450.11707
842.029	4647.02134
842.213	4471.07362
842.397	4477.36016
842.582	4341.10774
842.766	4785.15515
842.951	4336.9139
843.135	4445.92549
843.319	4561.16168
843.504	4538.11979
843.688	4315.9434
843.872	4404.00493
844.056	4263.50774
844.241	4605.14327
844.425	4378.8484
844.609	4395.61977
844.793	4483.6465
844.977	4582.10652
845.161	4177.48436
845.346	4408.19738
845.53	4265.60543
845.714	4311.74904
845.898	4141.80569
846.082	4391.42705
846.266	4106.12096
846.45	4580.01214
846.634	4261.41004
846.818	4433.35024
847.002	4345.30149
847.186	4571.63438
847.37	4240.43181
847.554	4311.74904
847.738	4232.03992
847.922	4416.58201
848.106	4282.38612
848.29	4336.9139
848.473	4158.59641
848.657	4135.50883
848.841	4032.63344
849.025	4005.33163
849.209	4022.13315
849.392	4118.71626
849.576	4057.83202
849.76	4164.89259
849.944	4011.63235
850.127	4009.53213
850.311	3875.07565
850.495	4030.53342
850.678	3870.87256
850.862	4194.27221
851.046	4064.1312
851.229	4284.48362
851.413	3959.12068
851.596	4290.77596
851.78	3954.9192
851.964	4238.33387
852.147	3931.80959
852.331	3982.22739
852.514	3984.32788
852.698	4057.83202
852.881	3887.68446
853.065	4013.73255
853.248	3687.96165
853.431	3900.29254
853.615	3574.35748
853.798	3917.1022
853.982	3744.74291
854.165	3751.05107
854.348	3822.53125
854.532	3847.75411
854.715	3765.76942
854.898	3921.30441
855.081	3435.4345
855.265	3828.83723
855.448	3679.54842
855.631	3687.96165
855.814	3458.59382
855.997	3494.38121
856.181	3424.90683
856.364	3618.54341
856.547	3542.79107
856.73	3542.79107
856.913	3530.16335
857.096	3854.05938
857.279	3578.56602
857.462	3618.54341
857.645	3368.04971
857.828	3626.95884
858.011	3547.00017
858.194	3584.87869
858.377	3180.54289
858.56	3576.46176
858.743	3155.25096
858.926	3408.06162
859.109	3351.2007
859.292	3420.69563
859.475	3374.3678
859.658	3641.68512
859.841	3374.3678
860.023	3266.93909
860.206	3269.04596
860.389	3292.22044
860.572	3119.41673
860.755	3418.59001
860.937	3188.97301
861.12	3458.59382
861.303	3085.68619
861.486	3401.74437
861.668	3233.22683
861.851	3182.65045
862.034	2969.70704
862.216	3041.40873
862.399	2828.36246
862.581	3092.01097
862.764	2904.31687
862.947	3311.17985
863.129	3001.3423
863.312	2980.2525
863.494	3056.16865
863.677	3224.79809
863.859	3108.87637
864.042	3106.76825
864.224	2914.86463
864.406	3113.09257
864.589	2843.13281
864.771	3142.60412
864.954	2822.0321
865.136	3045.62593
865.318	2902.20728
865.501	2978.14344
865.683	3013.99546
865.865	3199.5103
866.048	2883.22028
866.23	3043.51734
866.412	2902.20728
866.594	3134.17257
866.777	2868.45181
866.959	2876.89102
867.141	2868.45181
867.323	2893.76876
867.505	2883.22028
867.687	2809.371
867.869	2627.84245
868.052	2978.14344
868.234	2604.61686
868.416	2788.26808
868.598	2674.28912
868.78	2773.49522
868.962	2530.70756
869.144	2800.93
869.326	2598.28235
869.508	2824.14223
869.69	2598.28235
869.872	2862.12225
870.054	2420.87355
870.236	2881.11054
870.417	2710.17552
870.599	2781.93693
870.781	2665.84473
870.963	2902.20728
871.145	2467.34543
871.327	2800.93
871.508	2708.06466
871.69	2935.95904
871.872	2553.93776
872.054	2876.89102
872.235	2674.28912
872.417	2784.04733
872.599	2509.58798
872.78	2657.40013
872.962	2640.51033
873.144	2760.83224
873.325	2589.83617
873.507	2765.05328
873.689	2670.06695
873.87	2862.12225
874.052	2541.26691
874.233	2699.62109
874.415	2581.38979
874.596	2703.8429
874.778	2296.21968
874.959	2543.37875
875.141	2387.07259
875.322	2598.28235
875.503	2501.13983
875.685	2792.48877
875.866	2568.71987
876.048	2794.5991
876.229	2380.73462
876.41	2534.93133
876.592	2473.6821
876.773	2617.28555
876.954	2302.55884
877.136	2741.83686
877.317	2467.34543
877.498	2558.16128
877.679	2228.59679
877.86	2532.81945
878.042	2454.6718
878.223	2610.95126
878.404	2484.24299
878.585	2581.38979
878.766	2480.01867
878.947	2773.49522
879.128	2422.98602
879.309	2640.51033
879.49	2570.83155
879.672	2604.61686
879.853	2454.6718
880.034	2634.17645
880.215	2575.05489
880.396	2640.51033
880.576	2425.09848
880.757	2767.16379
880.938	2539.15507
881.119	2864.23212
881.3	2564.49647
881.481	2929.63087
881.662	2845.2428
881.843	2817.81179
882.023	2857.90247
882.204	2722.84041
882.385	2425.09848
882.566	2862.12225
882.747	2701.732
882.927	2727.06194
883.108	2596.17082
883.289	2632.06513
883.469	2634.17645
883.65	2640.51033
883.831	2534.93133
884.011	2758.72169
884.192	2549.71419
884.373	2872.67144
884.553	2623.61973
884.734	2826.25235
884.914	2471.56989
885.095	2735.50483
885.275	2560.27302
885.456	2995.01552
885.636	2684.84433
885.817	2980.2525
885.997	2754.50057
886.178	2897.98805
886.358	2539.15507
886.538	2769.27428
886.719	2452.55949
886.899	2686.95534
887.08	2545.49057
887.26	2693.28827
887.44	2600.39386
887.621	2771.38475
887.801	2422.98602
887.981	2691.1773
888.161	2387.07259
888.342	2710.17552
888.522	2503.25188
888.702	2803.04027
888.882	2739.7262
889.062	2674.28912
889.242	2642.6216
889.423	2767.16379
889.603	2556.04952
889.783	2838.91278
889.963	2613.0627
890.143	2743.94751
890.323	2496.91569
890.503	2845.2428
890.683	2632.06513
890.863	2733.39413
891.043	2589.83617
891.223	2826.25235
891.403	2477.90649
891.583	2636.28775
891.763	2534.93133
891.943	2691.1773
892.122	2564.49647
892.302	2817.81179
892.482	2600.39386
892.662	2513.81199
892.842	2638.39905
893.022	2648.95533
893.201	2488.46727
893.381	2775.60567
893.561	2682.73332
893.741	2724.95118
893.92	2606.72834
894.1	2619.39695
894.28	2391.29786
894.459	2596.17082
894.639	2306.7849
894.819	2355.3818
894.998	2336.36624
895.178	2509.58798
895.357	2270.86219
895.537	2425.09848
895.716	2387.07259
895.896	2594.05928
896.075	2395.52308
896.255	2632.06513
896.434	2245.50338
896.614	2518.03595
896.793	2220.14328
896.973	2368.05839
897.152	2141.9419
897.331	2448.33484
897.511	2283.5411
897.69	2319.46285
897.87	2311.01092
898.049	2355.3818
898.228	2287.76733
898.407	2321.5758
898.587	2150.39665
898.766	2167.30575
898.945	2114.4631
899.124	2207.46276
899.304	2230.71015
899.483	2177.87368
899.662	2150.39665
899.841	2008.76378
900.02	2002.42128
900.199	2099.66629
900.378	2048.93161
900.557	2002.42128
900.737	1898.81914
900.916	2095.43856
901.095	1862.87239
901.274	2080.64128
901.453	1799.43352
901.632	2032.01914
901.811	1653.51069
901.989	1924.19239
902.168	1752.90921
902.347	2032.01914
902.526	1845.95577
902.705	1947.45048
902.884	1932.64996
903.063	1974.9364
903.242	1841.72656
903.42	1993.96451
903.599	1594.29173
903.778	1778.28634
903.957	1621.78646
904.135	1799.43352
904.314	1638.70612
904.493	1835.38272
904.672	1581.60175
904.85	1545.64651
905.029	1568.91171
905.207	1697.92364
905.386	1613.32658
905.565	1670.43006
905.743	1604.86667
905.922	1600.6367
906.1	1509.69092
906.279	1657.74055
906.457	1372.21285
906.636	1735.99082
906.814	1382.78803
906.993	1403.93844
907.171	1401.8234
907.35	1477.96521
907.528	1194.55671
907.707	1429.31902
907.885	1160.71971
908.063	1363.75273
908.242	1245.31384
908.42	1367.98279
908.598	1148.0311
908.777	1329.91245
908.955	1245.31384
909.133	1186.09737
909.311	1188.2122
909.49	1228.3946
909.668	1114.19554
909.846	1264.34821
910.024	1025.38323
910.202	1355.29263
910.38	1101.50751
910.559	1389.13314
910.737	1035.95561
910.915	1389.13314
911.093	1245.31384
911.271	1329.91245
911.449	1169.17887
911.627	1253.77354
911.805	1099.39286
911.983	1414.51368
912.161	1253.77354
912.339	1406.05349
912.517	1213.59042
912.695	1266.46315
912.872	1258.0034
913.05	1480.08026
913.228	1458.92975
913.406	1486.42541
913.584	1338.37249
913.762	1448.35449
913.939	1281.26782
914.117	1323.56744
914.295	1203.0161
914.473	1499.1157
914.65	1370.09782
914.828	1359.52268
915.006	1279.15286
915.184	1378.55795
915.361	1171.29367
915.539	1196.67155
915.716	1097.2782
915.894	1230.50949
916.072	1093.04892
916.249	1304.53251
916.427	1152.26062
916.604	1213.59042
916.782	1040.18461
916.959	1272.80799
917.137	1052.87173
917.314	1219.93505
917.492	1010.58214
917.669	1067.67363
917.847	957.72367
918.024	1033.84112
918.201	1035.95561
918.379	1120.53962
918.556	852.02039
918.733	1082.47579
918.911	885.84328
919.088	1054.98627
919.265	934.4673
919.442	1109.96618
919.62	989.43826
919.797	1044.41363
919.974	1061.32993
920.151	1162.8345
920.328	826.65467
920.506	987.3239
920.683	1016.92543
920.86	991.55261
921.037	868.93157
921.214	1154.37539
921.391	868.93157
921.568	983.09522
921.745	942.92406
921.922	970.40932
922.099	894.29933
922.276	983.09522
922.453	822.42718
922.63	881.6153
922.807	767.47318
922.984	856.24813
923.161	771.70018
923.338	945.03827
923.514	797.06299
923.691	780.15429
923.868	775.92721
924.045	723.09218
924.222	765.35969
924.399	945.03827
924.575	769.58667
924.752	746.3388
924.929	854.13426
925.105	856.24813
925.282	784.38141
925.459	964.06646
925.635	780.15429
925.812	765.35969
925.989	784.38141
926.165	864.70372
926.342	687.16816
926.518	720.97891
926.695	560.40493
926.871	720.97891
927.048	716.75241
927.224	577.30405
927.401	600.54173
927.577	668.15088
927.754	566.742
927.93	579.4165
928.107	619.55552
928.283	704.07318
928.459	638.57033
928.636	780.15429
928.812	564.62963
928.988	556.18028
929.165	530.83356
929.341	551.95569
929.517	545.61891
929.693	596.31658
929.87	463.25235
930.046	602.65432
930.222	509.71283
930.398	606.87955
930.574	492.81728
930.751	520.27302
930.927	505.48886
931.103	528.72142
931.279	416.79924
931.455	547.73116
931.631	395.68674
931.807	520.27302
931.983	475.92268
932.159	431.57895
932.335	437.91335
932.511	414.68792
932.687	332.35927
932.863	433.6904
933.039	397.79792
933.215	412.57661
933.391	336.58062
933.566	435.80187
933.742	378.79793
933.918	399.90911
934.094	340.80204
934.27	357.68842
934.445	357.68842
934.621	435.80187
934.797	233.17854
934.973	370.35392
935.148	243.72771
935.324	332.35927
935.5	233.17854
935.675	317.58511
935.851	294.37034
936.027	266.93757
936.202	224.73956
936.378	243.72771
936.553	209.9721
936.729	239.50798
936.904	138.25859
937.08	174.11236
937.255	83.43541
937.431	197.31505
937.606	89.7604
937.782	159.34831
937.957	91.86877
938.133	159.34831
938.308	56.02946
938.483	37.05838
938.659	98.19403
938.834	56.02946
939.009	56.02946
939.185	148.80318
939.36	96.08559
939.535	108.73657
939.71	112.95374
939.886	62.35357
940.061	81.32712
940.236	134.0409
940.411	53.92147
940.586	39.16618
940.761	75.0024
940.937	81.32712
941.112	-5.09275
941.287	98.19403
941.462	87.65205
941.637	64.46165
941.812	112.95374
941.987	49.70556
942.162	104.51949
942.337	49.70556
942.512	45.48974
942.687	155.13019
942.862	-9.30734
943.037	3.33671
943.212	53.92147
943.386	79.21886
943.561	-74.62077
943.736	-11.4146
943.911	26.51971
944.086	70.78603
944.26	112.95374
944.435	-9.30734
944.61	51.8135
944.785	41.27401
944.959	22.3044
945.134	115.06236
945.309	43.38186
945.483	-13.52183
945.658	28.62739
945.833	15.98162
946.007	11.76656
946.182	64.46165
946.357	56.02946
946.531	87.65205
946.706	32.84284
946.88	64.46165
947.055	24.41204
947.229	87.65205
947.404	32.84284
947.578	142.47636
947.752	45.48974
947.927	-43.0205
948.101	28.62739
948.276	58.13747
948.45	66.56975
948.624	83.43541
948.799	45.48974
948.973	-26.16471
949.147	106.62802
949.321	-30.3788
949.496	96.08559
949.67	53.92147
949.844	-13.52183
950.018	72.8942
950.193	62.35357
950.367	7.55158
950.541	64.46165
950.715	45.48974
950.889	72.8942
951.063	66.56975
951.237	64.46165
951.411	56.02946
951.585	3.33671
951.759	150.91217
951.933	66.56975
952.107	62.35357
952.281	98.19403
952.455	15.98162
952.629	56.02946
952.803	81.32712
952.977	62.35357
953.151	104.51949
953.325	-0.87807
953.499	87.65205
953.672	3.33671
953.846	123.49705
954.02	-5.09275
954.194	28.62739
954.368	37.05838
954.541	72.8942
954.715	104.51949
954.889	62.35357
955.062	58.13747
955.236	41.27401
955.41	28.62739
955.583	81.32712
955.757	-5.09275
955.93	28.62739
956.104	79.21886
956.278	106.62802
956.451	11.76656
956.625	98.19403
956.798	72.8942
956.972	102.41098
957.145	89.7604
957.319	26.51971
957.492	-53.55456
957.665	127.71452
957.839	70.78603
958.012	7.55158
958.185	37.05838
958.359	87.65205
958.532	104.51949
958.705	70.78603
958.879	148.80318
959.052	20.19678
959.225	85.54372
959.398	-9.30734
959.572	115.06236
959.745	53.92147
959.918	-36.69976
960.091	60.24551
960.264	22.3044
960.438	75.0024
960.611	66.56975
960.784	58.13747
960.957	37.05838
961.13	134.0409
961.303	30.7351
961.476	93.97717
961.649	68.67788
961.822	37.05838
961.995	98.19403
962.168	70.78603
962.341	62.35357
962.514	45.48974
962.686	108.73657
962.859	30.7351
963.032	58.13747
963.205	18.08919
963.378	87.65205
963.551	121.38835
963.723	15.98162
963.896	30.7351
964.069	20.19678
964.242	-68.30117
964.414	87.65205
964.587	15.98162
964.76	49.70556
964.932	20.19678
965.105	20.19678
965.278	79.21886
965.45	56.02946
965.623	20.19678
965.795	43.38186
965.968	-13.52183
966.14	30.7351
966.313	-7.20006
966.485	45.48974
966.658	45.48974
966.83	37.05838
967.003	26.51971
967.175	9.65906
967.348	62.35357
967.52	134.0409
967.692	62.35357
967.865	20.19678
968.037	106.62802
968.209	41.27401
968.382	47.59764
968.554	45.48974
968.726	20.19678
968.898	-53.55456
969.071	-13.52183
969.243	37.05838
969.415	64.46165
969.587	-21.95051
969.759	-2.98542
969.932	106.62802
970.104	24.41204
970.276	15.98162
970.448	70.78603
970.62	22.3044
970.792	-28.27177
970.964	75.0024
971.136	106.62802
971.308	-28.27177
971.48	22.3044
971.652	75.0024
971.824	-5.09275
971.996	13.87408
972.168	32.84284
972.339	62.35357
972.511	70.78603
972.683	96.08559
972.855	5.44413
973.027	15.98162
973.199	108.73657
973.37	24.41204
973.542	104.51949
973.714	47.59764
973.886	11.76656
974.057	-49.34101
974.229	20.19678
974.401	11.76656
974.572	5.44413
974.744	-40.91361
974.915	53.92147
975.087	3.33671
975.259	45.48974
975.43	-0.87807
975.602	1.22931
975.773	11.76656
975.945	22.3044
976.116	62.35357
976.288	77.11062
976.459	22.3044
976.63	72.8942
976.802	47.59764
976.973	53.92147
977.145	75.0024
977.316	-26.16471
977.487	37.05838
977.659	41.27401
977.83	22.3044
978.001	24.41204
978.172	37.05838
978.344	11.76656
978.515	62.35357
978.686	64.46165
978.857	-38.8067
979.028	32.84284
979.2	34.9506
979.371	5.44413
979.542	34.9506
979.713	-57.768
979.884	-21.95051
980.055	49.70556
980.226	56.02946
980.397	7.55158
980.568	53.92147
980.739	20.19678
980.91	22.3044
981.081	-9.30734
981.252	28.62739
981.423	28.62739
981.594	22.3044
981.765	1.22931
981.936	37.05838
982.106	-13.52183
982.277	70.78603
982.448	-21.95051
982.619	-43.0205
982.79	30.7351
982.96	7.55158
983.131	7.55158
983.302	-13.52183
983.472	-30.3788
983.643	66.56975
983.814	11.76656
983.984	11.76656
984.155	39.16618
984.326	49.70556
984.496	28.62739
984.667	20.19678
984.837	30.7351
985.008	-24.05762
985.178	5.44413
985.349	1.22931
985.519	-38.8067
985.69	1.22931
985.86	28.62739
986.031	-36.69976
986.201	30.7351
986.371	-13.52183
986.542	-17.73622
986.712	56.02946
986.882	-30.3788
987.053	18.08919
987.223	47.59764
987.393	45.48974
987.563	-11.4146
987.734	62.35357
987.904	-19.84338
988.074	-0.87807
988.244	32.84284
988.414	72.8942
988.585	-13.52183
988.755	-2.98542
988.925	-47.2342
989.095	-2.98542
989.265	11.76656
989.435	20.19678
989.605	-72.51427
989.775	115.06236
989.945	28.62739
990.115	-21.95051
990.285	37.05838
990.455	-30.3788
990.625	-47.2342
990.795	-68.30117
990.965	-13.52183
991.134	-72.51427
991.304	49.70556
991.474	34.9506
991.644	-24.05762
991.814	39.16618
991.984	7.55158
992.153	41.27401
992.323	-15.62904
992.493	-9.30734
992.662	-5.09275
992.832	5.44413
993.002	-9.30734
993.171	37.05838
993.341	20.19678
993.511	-87.25927
993.68	15.98162
993.85	13.87408
994.019	-43.0205
994.189	13.87408
994.358	-15.62904
994.528	20.19678
994.697	-55.66129
994.867	-15.62904
995.036	-55.66129
995.206	22.3044
995.375	9.65906
995.544	-38.8067
995.714	-26.16471
995.883	13.87408
996.052	-59.87469
996.222	22.3044
996.391	-13.52183
996.56	-40.91361
996.73	20.19678
996.899	-17.73622
997.068	5.44413
997.237	-40.91361
997.406	3.33671
997.576	62.35357
997.745	-64.08798
997.914	-9.30734
998.083	58.13747
998.252	49.70556
998.421	5.44413
998.59	53.92147
998.759	-49.34101
998.928	-2.98542
999.097	-85.15292
999.266	3.33671
999.435	-21.95051
999.604	-49.34101
999.773	-28.27177
999.942	53.92147
1000.111	-30.3788
1000.28	32.84284
1000.448	-21.95051
1000.617	20.19678
1000.786	-43.0205
1000.955	58.13747
1001.124	37.05838
1001.292	39.16618
1001.461	-0.87807
1001.63	96.08559
1001.798	28.62739
1001.967	-51.44779
1002.136	-13.52183
1002.304	13.87408
1002.473	32.84284
1002.642	-47.2342
1002.81	-45.12736
1002.979	51.8135
1003.147	11.76656
1003.316	-47.2342
1003.484	-89.3656
1003.653	-83.04654
1003.821	34.9506
1003.99	-9.30734
1004.158	62.35357
1004.327	-38.8067
1004.495	-19.84338
1004.663	-26.16471
1004.832	-72.51427
1005	-59.87469
1005.168	20.19678
1005.337	-21.95051
1005.505	-19.84338
1005.673	18.08919
1005.842	-5.09275
1006.01	32.84284
1006.178	-55.66129
1006.346	22.3044
1006.514	28.62739
1006.683	-34.5928
1006.851	-11.4146
1007.019	-13.52183
1007.187	-5.09275
1007.355	-21.95051
1007.523	-21.95051
1007.691	-0.87807
1007.859	28.62739
1008.027	58.13747
1008.195	24.41204
1008.363	-38.8067
1008.531	-9.30734
1008.699	-104.10916
1008.867	-55.66129
1009.035	-40.91361
1009.203	20.19678
1009.37	47.59764
1009.538	-32.48582
1009.706	-13.52183
1009.874	22.3044
1010.042	20.19678
1010.209	-36.69976
1010.377	39.16618
1010.545	-72.51427
1010.713	62.35357
1010.88	-19.84338
1011.048	-30.3788
1011.216	-0.87807
1011.383	-36.69976
1011.551	-11.4146
1011.718	-34.5928
1011.886	56.02946
1012.054	22.3044
1012.221	53.92147
1012.389	37.05838
1012.556	41.27401
1012.724	-11.4146
1012.891	-28.27177
1013.058	-80.94014
1013.226	-11.4146
1013.393	20.19678
1013.561	-28.27177
1013.728	13.87408
1013.895	28.62739
1014.063	32.84284
1014.23	-7.20006
1014.397	11.76656
1014.565	-34.5928
1014.732	26.51971
1014.899	30.7351
1015.066	3.33671
1015.233	37.05838
1015.401	-53.55456
1015.568	28.62739
1015.735	-45.12736
1015.902	11.76656
1016.069	22.3044
1016.236	41.27401
1016.403	11.76656
1016.57	20.19678
1016.737	83.43541
1016.904	11.76656
1017.071	30.7351
1017.238	-17.73622
1017.405	-38.8067
1017.572	-21.95051
1017.739	37.05838
1017.906	20.19678
1018.073	-5.09275
1018.24	-74.62077
1018.407	30.7351
1018.573	-19.84338
1018.74	15.98162
1018.907	-21.95051
1019.074	20.19678
1019.241	11.76656
1019.407	13.87408
1019.574	20.19678
1019.741	-24.05762
1019.907	-13.52183
1020.074	-51.44779
1020.241	-2.98542
1020.407	-55.66129
1020.574	-68.30117
1020.74	-13.52183
1020.907	-38.8067
1021.073	5.44413
1021.24	58.13747
1021.406	-17.73622
1021.573	20.19678
1021.739	-59.87469
1021.906	3.33671
1022.072	-30.3788
1022.239	-30.3788
1022.405	-2.98542
1022.571	3.33671
1022.738	-17.73622
1022.904	-7.20006
1023.07	-30.3788
1023.237	-30.3788
1023.403	-38.8067
1023.569	-28.27177
1023.735	13.87408
1023.902	-0.87807
1024.068	9.65906
1024.234	-40.91361
1024.4	-51.44779
1024.566	-7.20006
1024.732	-47.2342
1024.898	-5.09275
1025.065	-24.05762
1025.231	-5.09275
1025.397	28.62739
1025.563	-38.8067
1025.729	13.87408
1025.895	-7.20006
1026.061	-34.5928
1026.227	-13.52183
1026.392	28.62739
1026.558	20.19678
1026.724	15.98162
1026.89	-34.5928
1027.056	-51.44779
1027.222	-2.98542
1027.388	-17.73622
1027.553	-5.09275
1027.719	-9.30734
1027.885	11.76656
1028.051	-64.08798
1028.216	37.05838
1028.382	-93.57817
1028.548	-0.87807
1028.713	11.76656
1028.879	13.87408
1029.045	26.51971
1029.21	-38.8067
1029.376	11.76656
1029.541	-26.16471
1029.707	39.16618
1029.873	9.65906
1030.038	20.19678
1030.204	-28.27177
1030.369	41.27401
1030.534	-47.2342
1030.7	56.02946
1030.865	-0.87807
1031.031	3.33671
1031.196	58.13747
1031.361	62.35357
1031.527	-0.87807
1031.692	-32.48582
1031.857	-53.55456
1032.023	-47.2342
1032.188	-47.2342
1032.353	15.98162
1032.518	-36.69976
1032.684	13.87408
1032.849	-19.84338
1033.014	-19.84338
1033.179	-11.4146
1033.344	-21.95051
1033.509	30.7351
1033.674	-0.87807
1033.839	-64.08798
1034.004	-21.95051
1034.17	-24.05762
1034.335	26.51971
1034.5	5.44413
1034.664	-32.48582
1034.829	-24.05762
1034.994	-9.30734
1035.159	1.22931
1035.324	20.19678
1035.489	-36.69976
1035.654	58.13747
1035.819	-36.69976
1035.984	45.48974
1036.148	-5.09275
1036.313	-72.51427
1036.478	-21.95051
1036.643	53.92147
1036.807	-38.8067
1036.972	-21.95051
1037.137	28.62739
1037.301	-26.16471
1037.466	-83.04654
1037.631	-32.48582
1037.795	-43.0205
1037.96	53.92147
1038.124	3.33671
1038.289	-13.52183
1038.454	20.19678
1038.618	-24.05762
1038.783	30.7351
1038.947	11.76656
1039.111	-43.0205
1039.276	-30.3788
1039.44	26.51971
1039.605	-11.4146
1039.769	-19.84338
1039.933	7.55158
1040.098	-30.3788
1040.262	-9.30734
1040.426	-47.2342
1040.591	11.76656
1040.755	-9.30734
1040.919	18.08919
1041.083	-32.48582
1041.248	45.48974
1041.412	-85.15292
1041.576	13.87408
1041.74	81.32712
1041.904	-47.2342
1042.068	-9.30734
1042.232	-5.09275
1042.397	-45.12736
1042.561	-34.5928
1042.725	30.7351
1042.889	11.76656
1043.053	-17.73622
1043.217	-30.3788
1043.381	-19.84338
1043.544	-59.87469
1043.708	20.19678
1043.872	43.38186
1044.036	-28.27177
1044.2	-11.4146
1044.364	41.27401
1044.528	-13.52183
1044.691	11.76656
1044.855	-38.8067
1045.019	-5.09275
1045.183	-0.87807
1045.346	-80.94014
1045.51	-59.87469
1045.674	-53.55456
1045.837	11.76656
1046.001	28.62739
1046.165	-11.4146
1046.328	-30.3788
1046.492	45.48974
1046.655	-53.55456
1046.819	39.16618
1046.983	45.48974
1047.146	37.05838
1047.31	26.51971
1047.473	-45.12736
1047.636	30.7351
1047.8	-13.52183
1047.963	-80.94014
1048.127	45.48974
1048.29	-64.08798
