Data from mixed_try1_USB4F045381__2__00067.txt Node

Date: Thu Apr 03 19:50:55 EDT 2025
User: mmckonesweet
Spectrometer: USB4F04538
Trigger mode: 4
Integration Time (sec): 2.700000E-3
Scans to average: 1
Electric dark correction enabled: true
Nonlinearity correction enabled: true
Boxcar width: 0
XAxis mode: Wavelengths
Number of Pixels in Spectrum: 3648
>>>>>Begin Spectral Data<<<<<
345.52	-12.11701
345.736	-12.11701
345.952	-12.11701
346.168	-47.93647
346.384	44.78711
346.6	-18.43861
346.816	-18.43861
347.032	2.63424
347.248	-31.08114
347.464	-5.79519
347.68	57.4348
347.896	4.74166
348.112	-1.58052
348.328	25.81715
348.544	-47.93647
348.76	-1.58052
348.975	34.24801
349.191	-5.79519
349.407	6.8491
349.623	49.00291
349.839	74.29967
350.055	34.24801
350.27	23.70949
350.486	-16.33143
350.702	53.21881
350.918	-81.64228
351.133	53.21881
351.349	-26.86706
351.565	70.08331
351.781	-18.43861
351.996	2.63424
352.212	-1.58052
352.428	-56.36353
352.644	-12.11701
352.859	23.70949
353.075	65.86705
353.291	-58.47023
353.506	13.17157
353.722	78.51611
353.938	-3.68787
354.153	-24.75999
354.369	-7.90249
354.584	-37.40208
354.8	-64.79019
355.016	-52.15005
355.231	-22.65289
355.447	-31.08114
355.662	49.00291
355.878	-10.00976
356.093	-41.61591
356.309	-20.54576
356.524	-18.43861
356.74	2.63424
356.955	-66.89679
357.171	-18.43861
357.386	-33.18815
357.602	0.52684
357.817	8.95656
358.033	-69.00336
358.248	6.8491
358.464	34.24801
358.679	25.81715
358.895	-35.29512
359.11	6.8491
359.325	-10.00976
359.541	15.2791
359.756	-5.79519
359.972	8.95656
360.187	44.78711
360.402	6.8491
360.618	-7.90249
360.833	-39.50901
361.048	-60.57691
361.264	-22.65289
361.479	-66.89679
361.694	82.73264
361.909	11.06405
362.125	-1.58052
362.34	-18.43861
362.555	6.8491
362.77	32.14026
362.986	78.51611
363.201	-26.86706
363.416	40.5714
363.631	40.5714
363.847	-28.97412
364.062	40.5714
364.277	-85.85504
364.492	51.11085
364.707	19.49425
364.922	-10.00976
365.138	15.2791
365.353	84.84094
365.568	44.78711
365.783	-22.65289
365.998	23.70949
366.213	30.03253
366.428	-20.54576
366.643	-1.58052
366.858	-33.18815
367.073	49.00291
367.288	25.81715
367.503	-7.90249
367.718	-60.57691
367.933	23.70949
368.148	-7.90249
368.363	34.24801
368.578	-26.86706
368.793	23.70949
369.008	65.86705
369.223	6.8491
369.438	17.38667
369.653	27.92483
369.868	27.92483
370.083	-31.08114
370.298	-10.00976
370.513	36.35578
370.728	32.14026
370.943	0.52684
371.157	-60.57691
371.372	-56.36353
371.587	-7.90249
371.802	-47.93647
372.017	0.52684
372.232	-31.08114
372.446	-85.85504
372.661	-54.2568
372.876	0.52684
373.091	11.06405
373.306	-14.22423
373.52	-24.75999
373.735	-47.93647
373.95	67.97517
374.165	-1.58052
374.379	-10.00976
374.594	-26.86706
374.809	49.00291
375.023	-12.11701
375.238	-26.86706
375.453	6.8491
375.667	57.4348
375.882	-22.65289
376.097	65.86705
376.311	-10.00976
376.526	-18.43861
376.741	27.92483
376.955	-5.79519
377.17	91.16598
377.384	15.2791
377.599	15.2791
377.813	8.95656
378.028	11.06405
378.242	23.70949
378.457	-1.58052
378.672	34.24801
378.886	27.92483
379.101	61.65088
379.315	67.97517
379.53	99.59967
379.744	-28.97412
379.958	-43.72279
380.173	4.74166
380.387	-16.33143
380.602	-1.58052
380.816	67.97517
381.031	6.8491
381.245	-10.00976
381.459	42.67924
381.674	59.54283
381.888	-28.97412
382.103	27.92483
382.317	-47.93647
382.531	-50.04327
382.746	-14.22423
382.96	-26.86706
383.174	15.2791
383.388	23.70949
383.603	49.00291
383.817	-41.61591
384.031	-10.00976
384.246	38.46358
384.46	-64.79019
384.674	-14.22423
384.888	-75.32294
385.103	21.60186
385.317	-10.00976
385.531	-5.79519
385.745	-1.58052
385.959	-45.82964
386.174	-43.72279
386.388	15.2791
386.602	-24.75999
386.816	-24.75999
387.03	-7.90249
387.244	49.00291
387.458	32.14026
387.672	82.73264
387.887	-31.08114
388.101	32.14026
388.315	-66.89679
388.529	25.81715
388.743	13.17157
388.957	55.32679
389.171	15.2791
389.385	32.14026
389.599	17.38667
389.813	55.32679
390.027	61.65088
390.241	91.16598
390.455	55.32679
390.669	0.52684
390.883	-24.75999
391.097	-14.22423
391.311	82.73264
391.525	-7.90249
391.738	40.5714
391.952	-39.50901
392.166	40.5714
392.38	-18.43861
392.594	-18.43861
392.808	19.49425
393.022	2.63424
393.236	15.2791
393.449	-18.43861
393.663	-22.65289
393.877	-31.08114
394.091	108.03372
394.305	23.70949
394.518	61.65088
394.732	84.84094
394.946	65.86705
395.16	74.29967
395.373	-33.18815
395.587	105.92518
395.801	-1.58052
396.015	23.70949
396.228	116.46812
396.442	59.54283
396.656	40.5714
396.869	57.4348
397.083	15.2791
397.297	-1.58052
397.51	65.86705
397.724	46.895
397.938	70.08331
398.151	-37.40208
398.365	-41.61591
398.578	-31.08114
398.792	49.00291
399.005	21.60186
399.219	65.86705
399.433	25.81715
399.646	0.52684
399.86	11.06405
400.073	-26.86706
400.287	23.70949
400.5	-50.04327
400.714	21.60186
400.927	-10.00976
401.141	-16.33143
401.354	34.24801
401.567	-58.47023
401.781	84.84094
401.994	59.54283
402.208	70.08331
402.421	67.97517
402.635	-18.43861
402.848	103.81665
403.061	93.27437
403.275	0.52684
403.488	67.97517
403.701	11.06405
403.915	25.81715
404.128	53.21881
404.341	15.2791
404.555	15.2791
404.768	32.14026
404.981	84.84094
405.195	15.2791
405.408	84.84094
405.621	78.51611
405.834	44.78711
406.048	67.97517
406.261	32.14026
406.474	82.73264
406.687	27.92483
406.9	-7.90249
407.114	2.63424
407.327	120.68545
407.54	59.54283
407.753	40.5714
407.966	-20.54576
408.179	40.5714
408.392	91.16598
408.605	116.46812
408.819	17.38667
409.032	59.54283
409.245	-12.11701
409.458	78.51611
409.671	23.70949
409.884	158.64528
410.097	36.35578
410.31	15.2791
410.523	32.14026
410.736	-37.40208
410.949	-7.90249
411.162	-14.22423
411.375	76.40788
411.588	55.32679
411.801	65.86705
412.014	86.94927
412.227	-39.50901
412.44	36.35578
412.653	67.97517
412.865	65.86705
413.078	70.08331
413.291	30.03253
413.504	36.35578
413.717	4.74166
413.93	42.67924
414.143	57.4348
414.356	34.24801
414.568	51.11085
414.781	76.40788
414.994	27.92483
415.207	70.08331
415.42	-14.22423
415.632	6.8491
415.845	49.00291
416.058	2.63424
416.271	2.63424
416.483	70.08331
416.696	61.65088
416.909	91.16598
417.121	65.86705
417.334	70.08331
417.547	23.70949
417.759	86.94927
417.972	82.73264
418.185	17.38667
418.397	25.81715
418.61	40.5714
418.823	40.5714
419.035	34.24801
419.248	15.2791
419.46	108.03372
419.673	-7.90249
419.885	57.4348
420.098	67.97517
420.311	19.49425
420.523	-7.90249
420.736	61.65088
420.948	118.57677
421.161	65.86705
421.373	116.46812
421.586	74.29967
421.798	67.97517
422.01	114.35949
422.223	116.46812
422.435	76.40788
422.648	53.21881
422.86	65.86705
423.073	74.29967
423.285	-10.00976
423.497	82.73264
423.71	141.77339
423.922	120.68545
424.134	8.95656
424.347	103.81665
424.559	150.20917
424.771	78.51611
424.984	82.73264
425.196	124.90287
425.408	63.75895
425.621	110.14229
425.833	99.59967
426.045	127.01161
426.257	124.90287
426.47	89.05761
426.682	167.08173
426.894	143.8823
427.106	141.77339
427.318	46.895
427.531	103.81665
427.743	116.46812
427.955	158.64528
428.167	268.3443
428.379	116.46812
428.591	108.03372
428.804	158.64528
429.016	108.03372
429.228	190.28367
429.44	135.44678
429.652	131.22915
429.864	150.20917
430.076	209.26891
430.288	175.51851
430.5	167.08173
430.712	116.46812
430.924	234.58507
431.136	181.84631
431.348	135.44678
431.56	177.62776
431.772	186.06495
431.984	207.15936
432.196	169.1909
432.408	245.1343
432.62	160.75436
432.832	82.73264
433.044	192.39306
433.256	236.69488
433.468	175.51851
433.679	281.00526
433.891	234.58507
434.103	278.89506
434.315	226.14603
434.527	116.46812
434.739	264.12413
434.95	213.48807
435.162	238.8047
435.374	257.79401
435.586	228.25576
435.798	268.3443
436.009	289.44628
436.221	247.24421
436.433	278.89506
436.645	179.73703
436.856	217.70731
437.068	245.1343
437.28	302.10835
437.491	268.3443
437.703	346.43071
437.915	295.77723
438.126	340.09847
438.338	350.65229
438.55	420.31815
438.761	352.76311
438.973	312.66058
439.184	323.21326
439.396	335.87706
439.608	323.21326
439.819	335.87706
440.031	276.78487
440.242	386.5385
440.454	369.65026
440.665	378.09425
440.877	327.43445
441.088	416.09547
441.3	331.65572
441.511	430.87514
441.723	344.31995
441.934	323.21326
442.146	416.09547
442.357	394.98302
442.569	348.54149
442.78	454.1019
442.991	369.65026
443.203	447.76714
443.414	449.87871
443.626	462.54846
443.837	428.76371
444.048	509.00883
444.26	382.31634
444.471	487.88959
444.682	561.81316
444.894	487.88959
445.105	468.88354
445.316	517.45693
445.528	456.21352
445.739	481.5541
445.95	464.66014
446.161	454.1019
446.373	439.32102
446.584	506.89684
446.795	593.49984
447.006	496.33711
447.217	521.68107
447.429	513.23285
447.64	589.27478
447.851	633.64047
448.062	549.13933
448.273	616.7386
448.484	591.3873
448.695	572.37505
448.907	606.17534
449.118	591.3873
449.329	652.65602
449.54	637.86606
449.751	606.17534
449.962	561.81316
450.173	563.92551
450.384	724.50103
450.595	800.58571
450.806	650.54313
451.017	758.31482
451.228	735.06755
451.439	768.88217
451.65	783.67688
451.861	678.01157
452.072	705.48196
452.283	777.33623
452.494	910.50712
452.705	861.88518
452.915	828.06384
453.126	868.22692
453.337	794.24483
453.548	868.22692
453.759	944.33353
453.97	912.62122
454.181	963.3617
454.391	853.42963
454.602	1041.59428
454.813	921.07767
455.024	1231.91943
455.235	944.33353
455.445	957.01892
455.656	1045.82331
455.867	982.39044
456.078	978.16178
456.288	1058.51052
456.499	1107.14661
456.71	1208.65573
456.921	1045.82331
457.131	1276.33291
457.342	1035.25078
457.553	1160.01479
457.763	1162.12957
457.974	1316.51745
458.184	1164.24435
458.395	1257.29842
458.606	1305.9425
458.816	1352.4726
459.027	1411.69361
459.237	1335.55247
459.448	1418.03876
459.659	1248.83871
459.869	1578.78175
460.08	1443.41937
460.29	1528.02125
460.501	1775.46669
460.711	1631.65628
460.922	1595.70173
461.132	1695.10381
461.343	1667.61017
461.553	1695.10381
461.764	1832.56322
461.974	1747.9747
462.184	1764.89292
462.395	1868.51119
462.605	2128.55496
462.816	1857.93841
463.026	1974.23165
463.236	2092.62006
463.447	2122.21367
463.657	2139.12362
463.867	2350.45191
464.078	2164.48761
464.288	2187.73689
464.498	2373.69231
464.709	2437.06889
464.919	2295.51532
465.129	2614.47032
465.339	2536.33925
465.55	2620.80455
465.76	2434.95649
465.97	2491.98746
466.18	2382.14306
466.391	3028.05387
466.601	2644.0291
466.811	3000.63933
467.021	2871.96817
467.231	3038.59723
467.441	2821.32872
467.651	3129.25404
467.862	2983.76757
468.072	3200.91524
468.282	3103.9574
468.492	3217.77395
468.702	3200.91524
468.912	3607.32237
469.122	3516.83337
469.332	3487.36449
469.542	3449.47071
469.752	3601.0103
469.962	3798.70704
470.172	3828.13657
470.382	3916.40182
470.592	3924.80619
470.802	3868.07045
471.012	4055.03232
471.222	4164.19302
471.432	4311.04997
471.642	4143.20497
471.852	4407.49864
472.062	4243.92833
472.272	4378.14956
472.482	4487.13883
472.691	4843.03037
472.901	4598.16272
473.111	4811.6544
473.321	5058.33945
473.531	4899.49418
473.741	4849.30495
473.95	5081.31916
474.16	5114.7392
474.37	5317.22057
474.58	5344.34054
474.79	5579.90844
474.999	5390.22685
475.209	5331.82413
475.419	5654.89347
475.628	6085.46398
475.838	5802.69098
476.048	5973.23866
476.258	5796.44842
476.467	6276.50481
476.677	6241.21874
476.886	6417.58154
477.096	6537.82661
477.306	6554.40602
477.515	6440.39264
477.725	6736.68203
477.935	6722.18932
478.144	6906.37047
478.354	6807.05925
478.563	7208.12284
478.773	7129.63044
478.982	7416.5926
479.192	7325.80158
479.401	7305.16136
479.611	7459.90983
479.82	7505.27956
480.03	7550.63886
480.239	7830.81344
480.449	7845.22368
480.658	7906.97036
480.868	8083.87524
481.077	8373.59607
481.287	7958.41176
481.496	8550.11512
481.705	8303.77015
481.915	8683.43783
482.124	8486.50245
482.333	8820.78101
482.543	8853.5673
482.752	8726.49454
482.961	8716.24368
483.171	9283.46998
483.38	9033.81026
483.589	9320.28374
483.799	9377.53893
484.008	9786.13965
484.217	9577.83191
484.426	9737.14043
484.636	9704.46941
484.845	9977.97054
485.054	9906.55935
485.263	10084.03456
485.472	9975.93046
485.682	10349.02983
485.891	10214.52264
486.1	10059.56166
486.309	10603.62188
486.518	10611.76555
486.727	10805.12064
486.936	10898.70678
487.146	10729.82683
487.355	10969.89738
487.564	10890.56982
487.773	11402.85738
487.982	11067.50793
488.191	11439.42427
488.4	11463.80045
488.609	11577.53784
488.818	11337.8417
489.027	11849.57942
489.236	11530.82785
489.445	11975.39741
489.654	11758.23976
489.863	12166.09541
490.072	12188.40674
490.281	12308.06157
490.49	12346.58923
490.698	12616.21539
490.907	12478.37579
491.116	12790.5017
491.325	12316.17287
491.534	12705.39054
491.743	12737.81504
491.952	12887.7595
492.16	13019.44326
492.369	13159.20768
492.578	13057.9314
492.787	13217.94261
492.996	13343.50149
493.204	13487.26734
493.413	13442.72227
493.622	13602.6713
493.831	13483.21787
494.039	13815.22898
494.248	13740.33166
494.457	14132.99518
494.665	13825.34992
494.874	14116.80471
495.083	13928.57959
495.291	14497.24873
495.5	14474.9903
495.709	14549.85893
495.917	14215.96922
496.126	14709.70821
496.335	14802.78231
496.543	14533.67127
496.752	14448.68466
496.96	14825.03893
497.169	15009.15927
497.377	14754.22212
497.586	14738.03529
497.794	15264.09172
498.003	15065.81106
498.211	15383.46539
498.42	15326.81335
498.628	15300.5107
498.837	15517.00372
499.045	15136.6256
499.254	15330.85992
499.462	15775.99585
499.671	15802.30059
499.879	16119.99764
500.087	16012.74581
500.296	15966.20384
500.504	16016.79298
500.713	15952.03903
500.921	16233.32517
501.129	16136.18697
501.338	16075.4775
501.546	16294.03856
501.754	16312.25289
501.962	16595.60751
502.171	16545.00549
502.379	16856.73687
502.587	16389.15953
502.795	16721.10661
503.004	16453.92521
503.212	17063.24076
503.42	16798.02988
503.628	16719.08236
503.837	17073.36422
504.045	16668.47688
504.253	17055.14205
504.461	17063.24076
504.669	17385.2018
504.877	17354.82492
505.085	17385.2018
505.294	17812.57905
505.502	17166.50331
505.71	17928.05717
505.918	17427.73059
506.126	17737.62553
506.334	17415.57936
506.542	17919.95307
506.75	17470.26074
506.958	17794.34669
507.166	17733.57412
507.374	18270.50752
507.582	17879.43343
507.79	18302.93427
507.998	18373.87113
508.206	18313.06783
508.414	18384.00534
508.622	18276.58747
508.83	17988.83968
509.037	18270.50752
509.245	17932.10924
509.453	18686.04886
509.661	18604.95492
509.869	18884.75568
510.077	18600.90039
510.285	18503.59624
510.492	18684.02144
510.7	18738.76329
510.908	18684.02144
511.116	18797.5633
511.324	18836.08926
511.531	18860.42218
511.739	18976.01144
511.947	19150.43412
512.155	19026.71261
512.362	19233.59974
512.57	19146.37744
512.778	19209.25787
512.985	19087.55737
513.193	19239.6853
513.401	19373.57699
513.608	19288.37111
513.816	19203.17249
514.024	19412.1249
514.231	19631.26787
514.439	19921.50443
514.646	19422.26934
514.854	19720.56229
515.061	19712.44428
515.269	19696.20846
515.477	19665.76703
515.684	19860.60853
515.892	19647.50262
516.099	20321.48156
516.307	20146.85218
516.514	20152.94338
516.722	20339.75852
516.929	20175.2781
517.136	20209.7964
517.344	20492.07976
517.551	20205.73536
517.759	20662.70749
517.966	20459.58259
518.173	20504.26648
518.381	20557.07733
518.588	20609.891
518.796	20672.86483
519.003	20713.49523
519.21	21028.43699
519.418	21085.34023
519.625	20770.38059
519.832	20977.63324
520.039	20579.42123
520.247	21028.43699
520.454	21312.98511
520.661	21648.44649
520.868	21402.43087
521.076	21556.94631
521.283	21367.87136
521.49	21461.388
521.697	21595.57875
521.904	21428.85952
522.112	21402.43087
522.319	22219.99125
522.526	21776.56007
522.733	21931.13024
522.94	21744.02182
523.147	21975.87837
523.354	21874.18075
523.561	22337.99836
523.768	22213.88778
523.975	22089.79099
524.183	21882.31621
524.39	22510.96196
524.597	22431.59895
524.804	22435.66871
525.011	22525.20718
525.218	22238.30189
525.425	22773.50886
525.632	22531.31233
525.838	22567.9439
526.045	22751.11887
526.252	22631.03429
526.459	22897.6791
526.666	23152.16552
526.873	23294.70036
527.08	23221.39475
527.287	23341.53667
527.494	23148.09333
527.701	23805.91574
527.907	23439.28741
528.114	23663.32644
528.321	23233.61206
528.528	23400.59354
528.735	23889.43902
528.941	23445.39707
529.148	23441.32396
529.355	23856.84399
529.562	23418.92207
529.768	23864.99267
529.975	23339.50028
530.182	24089.0995
530.388	23453.54333
530.595	23903.69957
530.802	23414.84905
531.008	24219.50447
531.215	24219.50447
531.422	24195.05269
531.628	24233.76819
531.835	24339.73137
532.042	24435.51192
532.248	24480.34734
532.455	24468.11938
532.661	24816.65173
532.868	24810.53651
533.074	24892.07452
533.281	24775.88401
533.487	24667.85423
533.694	24741.23221
533.9	25599.5668
534.107	24406.98094
534.313	25124.47819
534.52	25240.69094
534.726	25067.39385
534.933	25104.09072
535.139	25497.60695
535.345	25597.52756
535.552	25581.21366
535.758	25448.66802
535.965	25493.52866
536.171	25287.58581
536.377	25752.51583
536.584	25564.89989
536.79	25662.78441
536.996	25864.6853
537.203	25899.35701
537.409	25838.17201
537.615	25797.38294
537.821	25595.48831
538.028	26339.93639
538.234	26123.71599
538.44	26545.97492
538.646	26097.19972
538.853	26543.93486
539.059	26213.46555
539.265	26252.22206
539.471	26356.25567
539.677	26176.74942
539.883	26272.62046
540.09	26374.61499
540.296	26798.95483
540.502	26900.96931
540.708	26670.42181
540.914	27131.53505
541.12	26800.99508
541.326	27331.50874
541.532	27335.58996
541.738	27053.99769
541.944	26854.0422
542.15	27445.78502
542.356	27066.2403
542.562	27535.57629
542.768	27374.36187
542.974	27698.83926
543.18	27535.57629
543.386	27796.80072
543.592	27776.39185
543.798	27715.16598
544.004	27609.04366
544.21	27974.36272
544.415	27737.61534
544.621	27860.06893
544.827	27729.45192
545.033	28143.76897
545.239	28009.05975
545.445	28513.22328
545.651	27833.53696
545.856	27996.8137
546.062	28249.9069
546.268	28531.59486
546.474	28015.18279
546.679	28013.14178
546.885	27802.9234
547.091	28043.75711
547.297	27874.35546
547.502	28460.15033
547.708	28133.56355
547.914	28274.40069
548.119	28792.88869
548.325	28801.0544
548.531	28196.83756
548.736	28578.54482
548.942	28845.96609
549.147	28490.76925
549.353	28723.48084
549.559	29213.44428
549.764	28833.7174
549.97	28319.30638
550.175	29080.73995
550.381	29307.36078
550.586	28901.08568
550.792	29578.91446
550.997	29284.90229
551.203	29503.36757
551.408	29487.0333
551.614	29560.53805
551.819	29470.6991
552.025	29752.47368
552.23	29727.97073
552.435	29758.59945
552.641	29944.41897
552.846	29350.23644
553.052	29901.53672
553.257	29940.33492
553.462	30185.38568
553.668	30099.61603
553.873	30173.13274
554.078	30083.27918
554.283	30420.24187
554.489	30420.24187
554.694	30426.36877
554.899	30583.62969
555.105	30924.72874
555.31	30834.85466
555.515	30836.89723
555.72	30718.43083
555.925	30630.6052
556.131	30747.02575
556.336	30567.29054
556.541	31276.08149
556.746	31437.4738
556.951	30581.58729
557.156	30877.74877
557.361	31339.41146
557.567	31335.32561
557.772	31298.55324
557.977	31077.9295
558.182	31169.85391
558.387	31290.38167
558.592	31496.72161
558.797	30722.51581
559.002	31531.45374
559.207	31269.95286
559.412	31488.54942
559.617	30959.45354
559.822	31006.4348
560.027	30932.89924
560.232	31004.39213
560.437	31553.92773
560.642	30934.94187
560.847	30959.45354
561.051	31674.47357
561.256	31194.3676
561.461	31325.11101
561.666	31752.11649
561.871	31797.06885
562.076	31280.16725
562.281	32034.10528
562.485	31143.29766
562.69	31425.2158
562.895	31114.6989
563.1	32013.67008
563.305	31615.22147
563.509	31386.3992
563.714	32332.48216
563.919	32128.10971
564.123	32013.67008
564.328	32079.06339
564.533	32005.49606
564.737	32269.12445
564.942	32003.45256
565.147	32354.96443
565.351	32150.58966
565.556	31715.33795
565.761	32530.7441
565.965	32461.24783
566.17	31960.5395
566.374	32265.03693
566.579	32500.08366
566.784	32457.1599
566.988	32778.09105
567.193	32622.72856
567.397	32238.46823
567.602	32720.85061
567.806	32197.594
568.011	32953.91332
568.215	33135.88934
568.42	32659.52368
568.624	32659.52368
568.828	33072.50201
569.033	32459.20386
569.237	32943.69057
569.442	33299.48198
569.646	32943.69057
569.85	33274.94192
570.055	33407.87229
570.259	32915.06723
570.463	33428.32423
570.668	33522.40706
570.872	33268.80697
571.076	33436.50509
571.281	33598.08713
571.485	33129.75497
571.689	33156.33744
571.893	33485.59127
572.098	33264.71702
572.302	33209.50378
572.506	33583.76895
572.71	33798.55828
572.914	33508.08969
573.119	33579.67807
573.323	33618.54195
573.527	33823.10794
573.731	34191.41317
573.935	33976.5545
574.139	34170.9487
574.343	33935.63351
574.547	34338.76849
574.751	34490.238
574.955	34449.29815
575.159	33755.59752
575.364	33645.13369
575.568	33835.38296
575.772	33790.37516
575.976	33710.59259
576.18	33636.95156
576.383	34044.07721
576.587	34422.6881
576.791	33982.69277
576.995	33909.03562
577.199	33475.36483
577.403	33630.81499
577.607	34394.03188
577.811	34848.53254
578.015	34222.11057
578.219	34565.981
578.422	34023.61538
578.626	34819.86415
578.83	34496.37912
579.034	34672.44018
579.238	34606.9255
579.442	35299.15361
579.645	34901.77614
579.849	34733.86412
580.053	35190.57404
580.257	35170.08885
580.46	35241.78912
580.664	35385.20761
580.868	35401.59985
581.071	35104.53944
581.275	35493.81223
581.479	35512.25595
581.682	35368.8157
581.886	35924.27803
582.09	35950.93387
582.293	35409.79609
582.497	35709.01536
582.7	35698.76626
582.904	35659.82093
583.107	35780.76283
583.311	35260.22729
583.515	35569.63909
583.718	35112.73285
583.922	35268.42216
584.125	34926.35113
584.329	35211.05971
584.532	35965.28742
584.735	36258.57226
584.939	36172.42013
585.142	35758.21291
585.346	35592.18359
585.549	35914.02603
585.753	35750.0131
585.956	36174.47125
586.159	36106.78747
586.363	36205.23874
586.566	36605.34194
586.769	36139.60304
586.973	36400.13119
587.176	37003.63807
587.379	36377.56186
587.582	36065.77012
587.786	36410.39022
587.989	36816.77686
588.192	36277.03481
588.395	36788.03399
588.599	36646.3918
588.802	36792.14004
589.005	36642.2867
589.208	36890.69319
589.411	36942.02918
589.615	36740.81642
589.818	36878.37319
590.021	36790.08701
590.224	37075.52305
590.427	37223.42811
590.63	36939.97566
590.833	36907.12024
591.036	37110.44174
591.239	37135.09146
591.442	36829.09564
591.645	36907.12024
591.848	37165.90506
592.051	37521.40764
592.254	37034.44486
592.457	37583.07836
592.66	37280.95685
592.863	37624.19603
593.066	37891.53747
593.269	38101.39324
593.472	37544.01944
593.675	38093.16198
593.878	37476.18682
594.081	37546.0751
594.284	37605.69269
594.486	37897.70848
594.689	38126.08783
594.892	37926.5075
595.095	38043.77723
595.298	37759.90646
595.5	37687.93455
595.703	38430.75514
595.906	37982.05299
596.109	38035.5469
596.311	37848.34242
596.514	38185.7714
596.717	38200.17885
596.92	38675.86315
597.122	38968.51356
597.325	38416.34093
597.528	38249.57897
597.73	38541.96496
597.933	38154.8997
598.136	38741.7963
598.338	38251.63741
598.541	38972.63674
598.743	38886.05789
598.946	38690.28523
599.148	38729.43312
599.351	38395.74995
599.554	39189.15714
599.756	38414.2818
599.959	39271.66908
600.161	39352.13331
600.363	38768.58432
600.566	39323.24699
600.768	39672.07724
600.971	38832.46972
601.173	38985.0065
601.376	39145.84459
601.578	39281.98417
601.78	39284.04722
601.983	39246.91386
602.185	39131.40803
602.388	39073.66646
602.59	39698.92234
602.792	39292.29951
602.995	39595.68145
603.197	39197.40763
603.399	39482.14586
603.601	39232.47396
603.804	38892.24154
604.006	39397.53003
604.208	38855.14087
604.41	39164.40659
604.613	39203.5956
604.815	38993.2532
605.017	39568.843
605.219	39273.73208
605.421	39327.37349
605.623	39855.89789
605.826	39678.27211
606.028	39265.48014
606.23	39851.76619
606.432	39688.5971
606.634	40114.21345
606.836	39678.27211
607.038	39515.17124
607.24	39626.65103
607.442	40021.20071
607.644	39358.32349
607.846	40308.57729
608.048	39926.14333
608.25	40002.60075
608.452	39888.95305
608.654	39994.33439
608.856	39447.0592
609.058	40190.70691
609.26	39930.27579
609.462	39895.15119
609.664	40401.65803
609.866	39519.2996
610.067	40232.06091
610.269	39860.02964
610.471	39924.07711
610.673	39907.54776
610.875	39822.84541
611.077	40081.13976
611.278	40167.96407
611.48	39688.5971
611.682	39713.37811
611.884	39965.40344
612.085	39471.82595
612.287	39659.68779
612.489	40269.28323
612.69	39984.00167
612.892	39378.95806
613.094	39909.61389
613.295	39339.75323
613.497	40560.98162
613.699	40143.15518
613.9	40000.53415
614.102	40006.734
614.304	39855.89789
614.505	39560.58536
614.707	40174.16653
614.908	39808.38579
615.11	40041.86833
615.311	39841.4371
615.513	39729.89961
615.714	40182.43663
615.916	39804.25457
616.117	40093.54207
616.319	40238.26438
616.52	39570.90744
616.722	39665.88247
616.923	40064.60395
617.124	40523.73121
617.326	40445.10336
617.527	41002.05806
617.729	40654.12361
617.93	40110.07909
618.131	40294.10007
618.333	40256.87539
618.534	39940.60713
618.735	40440.9655
618.937	40213.45107
619.138	39729.89961
619.339	39793.92669
619.54	40176.23404
619.742	40335.46499
619.943	39843.5029
620.144	39893.08514
620.345	39967.46986
620.546	39822.84541
620.748	40128.68405
620.949	39672.07724
621.15	39562.64976
621.351	39488.33792
621.552	40387.17733
621.753	39760.87921
621.954	40186.57175
622.155	39874.49109
622.356	40364.42305
622.558	39934.4083
622.759	39946.80607
622.96	39822.84541
623.161	40190.70691
623.362	40112.14626
623.563	40892.25788
623.764	40434.75879
623.965	40902.61499
624.166	40453.37922
624.366	40196.90973
624.567	40130.75132
624.768	40089.40793
624.969	39738.16061
625.17	40422.34567
625.371	40598.23567
625.572	40248.60372
625.773	40252.73954
625.973	40747.28855
626.174	40985.48235
626.375	40751.42975
626.576	40799.05684
626.777	40643.77337
626.977	40004.66737
627.178	40246.53583
627.379	40072.87177
627.58	40033.60115
627.78	40194.84212
627.981	40569.25999
628.182	40944.04635
628.382	40248.60372
628.583	40476.13875
628.784	40312.71374
628.984	39690.66212
629.185	40608.58467
629.386	39746.42177
629.586	40846.69001
629.787	40261.01129
629.987	40602.37524
630.188	40631.35345
630.388	40513.38452
630.589	40002.60075
630.79	40921.25853
630.99	40962.69197
631.191	41055.93428
631.391	41155.41894
631.591	41055.93428
631.792	40461.65526
631.992	40587.88696
632.193	40801.12772
632.393	40265.14724
632.594	41418.77079
632.794	41167.85644
632.994	40910.90089
633.195	41018.63452
633.395	40718.30143
633.595	40794.91512
633.796	40834.26338
633.996	41186.51348
634.196	41153.34607
634.397	40871.54452
634.597	40428.55218
634.797	41049.71739
634.997	40538.21705
635.198	40432.68991
635.398	40643.77337
635.598	40848.76116
635.798	40927.47325
635.998	41122.25437
636.199	41302.62337
636.399	41547.40676
636.599	41578.53538
636.799	41348.24822
636.999	40637.56336
637.199	40962.69197
637.399	41192.7327
637.599	41472.70923
637.799	40910.90089
637.999	41225.90372
638.199	40616.86407
638.399	40407.8642
638.599	40432.68991
638.799	40873.6158
638.999	41004.13008
639.199	41317.13974
639.399	41281.88672
639.599	41499.68152
639.799	41244.56375
639.999	41010.34619
640.199	41126.39978
640.399	41277.73953
640.599	39760.87921
640.799	41921.13293
640.998	41690.62123
641.198	41006.2021
641.398	40952.33317
641.598	41371.06283
641.798	40979.26665
641.997	40712.0902
642.197	40281.69145
642.397	40718.30143
642.597	40944.04635
642.796	40939.903
642.996	41159.56472
643.196	41607.59124
643.395	41723.83873
643.595	41634.57383
643.795	41717.61021
643.994	41404.2503
644.194	41734.21985
644.394	41611.74228
644.593	41051.78967
644.793	41358.61832
644.992	40732.79471
645.192	40987.55427
645.392	41271.51884
645.591	41107.74582
645.791	41460.26117
645.99	41499.68152
646.19	41134.69073
646.389	41412.54765
646.589	41676.08956
646.788	41499.68152
646.987	41323.36122
647.187	41869.20253
647.386	41578.53538
647.586	41900.35983
647.785	42503.29303
647.984	41815.20316
648.184	41989.69303
648.383	42353.49919
648.582	42135.16888
648.782	42594.86668
648.981	42164.27148
649.18	42041.6416
649.38	42047.87596
649.579	41761.21219
649.778	42571.97091
649.977	42859.32303
650.177	42363.89938
650.376	42079.04944
650.575	41404.2503
650.774	41576.46005
650.973	41364.84052
651.173	41744.60127
651.372	41584.76144
651.571	41512.13096
651.77	41586.83681
651.969	41690.62123
652.168	41956.45007
652.367	41236.27029
652.566	41644.95231
652.765	42097.7549
652.964	42205.85094
653.163	42297.34367
653.362	42168.4292
653.561	42326.46018
653.76	42894.73875
653.959	41896.20536
654.158	42480.40353
654.357	42064.50146
654.556	41871.27959
654.755	42395.10189
654.954	42626.09071
655.153	42180.90265
655.352	42043.71971
655.551	42207.93004
655.749	42701.04035
655.948	42463.75761
656.147	42357.65923
656.346	42596.94819
656.545	42341.01938
656.743	42076.97112
656.942	41941.90728
657.141	42388.86116
657.34	41906.59163
657.538	42066.57971
657.737	42089.44124
657.936	42553.23918
658.135	42228.72181
658.333	42293.18437
658.532	41734.21985
658.731	42139.32624
658.929	41887.89657
659.128	42131.01157
659.326	42160.11381
659.525	42351.41919
659.724	42155.9562
659.922	42081.12778
660.121	41914.90087
660.319	41522.50583
660.518	42006.31572
660.716	42164.27148
660.915	42243.2768
661.113	42569.88956
661.312	42382.62054
661.51	42538.67078
661.709	42357.65923
661.907	42326.46018
662.105	42264.07073
662.304	42187.13955
662.502	41831.81746
662.701	42149.71987
662.899	41499.68152
663.097	41694.77324
663.296	42122.6971
663.494	42270.30916
663.692	42035.40736
663.891	41734.21985
664.089	41829.74063
664.287	41790.28321
664.485	41964.76051
664.684	42905.15587
664.882	41873.35667
665.08	42255.753
665.278	42976.00099
665.476	42363.89938
665.675	42270.30916
665.873	42010.47152
666.071	42528.26517
666.269	42482.48433
666.467	41958.52766
666.665	42316.06114
666.863	42382.62054
667.061	41850.50949
667.259	41582.68607
667.457	41991.77082
667.655	41653.2553
667.853	42054.11043
668.051	41613.81781
668.249	41759.13578
668.447	41759.13578
668.645	41564.00835
668.843	41422.91961
669.041	41257.00431
669.239	40687.24628
669.437	41070.44077
669.635	41634.57383
669.833	41431.2174
670.031	41138.83628
670.229	41140.90907
670.426	41464.41048
670.624	40956.47666
670.822	41406.32462
671.02	41460.26117
671.218	42070.73624
671.415	41472.70923
671.613	41715.53406
671.811	41561.93311
672.009	41414.62202
672.206	41574.38474
672.404	41308.8446
672.602	40883.97239
672.799	41315.06594
672.997	41468.55983
673.195	41931.51995
673.392	42191.29755
673.59	41914.90087
673.788	41464.41048
673.985	41454.03731
674.183	41615.89336
674.38	41561.93311
674.578	41545.33161
674.775	41806.89632
674.973	41344.10027
675.17	41615.89336
675.368	40962.69197
675.565	41252.85741
675.763	41368.98871
675.96	40730.72421
676.158	40517.52316
676.355	40610.6545
676.553	41441.5899
676.75	41058.0066
676.947	41288.10759
677.145	40755.571
677.342	41232.12362
677.539	40871.54452
677.737	41201.02517
677.934	40917.11544
678.131	40618.93395
678.329	40780.41943
678.526	41033.13953
678.723	40915.04391
678.92	41391.80464
679.118	41192.7327
679.315	41703.07742
679.512	41491.38214
679.709	41263.22475
679.906	40687.24628
680.104	41526.65586
680.301	41433.29188
680.498	40743.1474
680.695	40825.97919
680.892	40689.31654
681.089	40465.79334
681.286	40908.8294
681.483	39760.87921
681.68	39480.08186
681.877	39694.79221
682.075	40536.14761
682.272	39915.81235
682.469	40807.34044
682.665	40548.56442
682.862	40598.23567
683.059	40546.49492
683.256	40509.24592
683.453	39919.94471
683.65	39969.5363
683.847	40141.08785
684.044	40368.5601
684.241	40292.03194
684.438	40554.77297
684.635	39818.71404
684.831	40267.21523
685.028	39539.94197
685.225	39729.89961
685.422	39343.87988
685.619	40110.07909
685.815	40093.54207
686.012	40172.09903
686.209	39649.36352
686.405	40147.28989
686.602	38974.69834
686.799	39195.34499
686.996	39928.20955
687.192	39696.85727
687.389	39160.28164
687.586	38851.01876
687.782	39015.9324
687.979	39595.68145
688.175	39090.16329
688.372	39703.05251
688.568	39158.21917
688.765	39700.98742
688.962	39521.36379
689.158	39273.73208
689.355	39296.42571
689.551	39833.17402
689.748	39343.87988
689.944	39284.04722
690.14	38818.0432
690.337	39478.01786
690.533	39740.22589
690.73	39397.53003
690.926	39756.74846
691.123	38743.85686
691.319	39164.40659
691.515	39306.74139
691.712	38346.33516
691.908	38723.25166
692.104	39269.60609
692.301	38914.91566
692.497	38562.56221
692.693	38651.14061
692.889	38420.45923
693.086	38630.5395
693.282	38583.16036
693.478	38021.14414
693.674	38490.47573
693.87	38317.51218
694.067	38669.68239
694.263	38609.93929
694.459	38712.9494
694.655	38603.7594
694.851	38366.92405
695.047	38428.69594
695.243	38455.46621
695.439	38669.68239
695.635	38385.45479
695.831	38103.45108
696.027	37951.19365
696.224	38257.8128
696.42	38321.62964
696.615	38768.58432
696.811	38618.17927
697.007	38257.8128
697.203	38095.21979
697.399	38533.72631
697.595	38218.70332
697.791	38134.31962
697.987	38159.01582
698.183	38338.09985
698.379	37480.29765
698.575	37873.02487
698.77	38249.57897
698.966	38544.02465
699.162	38653.20078
699.358	38655.26095
699.554	38101.39324
699.749	37772.24548
699.945	37910.05072
700.141	38309.27735
700.337	38210.47014
700.532	38451.34761
700.728	38305.15999
700.924	37967.65174
701.119	37774.30201
701.315	37239.86431
701.511	37225.48261
701.706	37963.53717
701.902	38049.95006
702.097	37891.53747
702.293	37354.93083
702.489	37500.85227
702.684	37221.37361
702.88	37539.90813
703.075	37541.96378
703.271	37461.79915
703.466	36574.55626
703.662	36849.62747
703.857	37059.09144
704.053	37646.81206
704.248	37447.41184
704.443	37891.53747
704.639	37470.02063
704.834	37537.85249
705.03	37367.26075
705.225	37274.79278
705.42	37011.85306
705.616	36939.97566
705.811	37085.79304
706.006	37326.16203
706.202	37445.35655
706.397	37515.24095
706.592	37266.57413
706.787	37451.52246
706.983	37435.08016
707.178	37529.63001
707.373	36755.18661
707.568	36983.10108
707.763	36824.98935
707.959	36738.76356
708.154	36668.97033
708.349	36812.67066
708.544	36872.21328
708.739	36824.98935
708.934	36496.57233
709.129	36414.49388
709.324	36188.82924
709.519	36455.53184
709.714	36373.45842
709.909	37161.79648
710.104	36400.13119
710.299	36256.52089
710.494	36022.70441
710.689	36508.88497
710.884	36338.58023
711.079	36352.94162
711.274	35985.79297
711.469	36277.03481
711.664	36053.46537
711.859	35776.66279
712.054	35743.8633
712.249	35985.79297
712.443	36322.16758
712.638	36406.28659
712.833	35282.76337
713.028	35957.08536
713.223	35627.02635
713.417	35793.06307
713.612	36137.55203
713.807	36270.88057
714.002	35684.41776
714.196	36174.47125
714.391	35670.06951
714.586	35547.09523
714.78	35538.89762
714.975	35512.25595
715.17	35301.20242
715.364	36090.38025
715.559	36221.64862
715.754	35887.37151
715.948	35832.01513
716.143	35905.82454
716.337	35692.61687
716.532	36135.50102
716.726	35762.31284
716.921	36078.07508
717.115	35821.76439
717.31	36254.46953
717.504	35975.54013
717.699	36350.88998
717.893	35940.68151
718.088	35807.41359
718.282	35538.89762
718.476	34631.493
718.671	34545.50937
718.865	35188.5255
719.059	34619.20918
719.254	35147.55569
719.448	34606.9255
719.642	34604.87824
719.837	34144.34545
720.031	34475.90887
720.225	34297.83447
720.419	34764.57754
720.614	34406.31302
720.808	34758.43477
721.002	34267.13496
721.196	34545.50937
721.39	34484.09692
721.585	34537.32083
721.779	34764.57754
721.973	34846.48477
722.167	34385.84453
722.361	34469.76787
722.555	34432.92266
722.749	34156.62379
722.943	34162.76302
723.137	33722.8665
723.331	34238.48286
723.525	34606.9255
723.719	34545.50937
723.913	34639.6823
724.107	34340.81523
724.301	34467.72088
724.495	33841.52051
724.689	33986.78496
724.883	33616.49645
725.077	33929.49549
725.271	34119.78915
725.465	33694.22755
725.659	33698.31879
725.853	33716.72953
726.046	34170.9487
726.24	33565.36009
726.434	33393.55611
726.628	34119.78915
726.822	33463.09322
727.015	33986.78496
727.209	33424.23381
727.403	33231.99781
727.596	33596.04167
727.79	34218.01754
727.984	33923.35749
728.177	34297.83447
728.371	34858.77146
728.565	34072.72439
728.758	33786.28363
728.952	33696.27317
729.146	33622.63295
729.339	33974.50842
729.533	34263.04176
729.726	34326.48812
729.92	34195.50611
730.113	34101.37228
730.307	33960.18594
730.5	33835.38296
730.694	33540.81533
730.887	33231.99781
731.081	33645.13369
731.274	33978.60058
731.468	33189.05496
731.661	33207.45889
731.854	33399.6916
732.048	33369.01443
732.241	33176.78581
732.435	33371.05955
732.628	33107.26248
732.821	33217.68339
733.014	33581.72351
733.208	33702.41004
733.401	33882.43831
733.594	33485.59127
733.788	33017.29581
733.981	33017.29581
734.174	33634.90603
734.367	33250.40228
734.56	33086.81505
734.754	33538.76996
734.947	33630.81499
735.14	33346.51826
735.333	32751.51489
735.526	32242.5557
735.719	32285.47463
735.912	32258.90566
736.105	32500.08366
736.298	33060.23379
736.491	32794.44582
736.684	32921.20076
736.877	32880.311
737.07	32994.80496
737.263	32935.51242
737.456	33019.34045
737.649	33407.87229
737.842	33125.6654
738.035	33305.61706
738.228	32823.06705
738.421	33223.81813
738.614	33350.60845
738.807	32698.36381
739	32847.59993
739.192	33107.26248
739.385	33379.24008
739.578	33381.28522
739.771	33154.29261
739.964	33356.74375
740.156	33669.68039
740.349	33189.05496
740.542	33630.81499
740.735	33459.0027
740.927	33289.2569
741.12	32980.49276
741.313	32753.5592
741.505	32796.49018
741.698	32759.69213
741.891	32931.42336
742.083	32872.13317
742.276	32581.846
742.468	32743.33769
742.661	32518.47986
742.854	32493.95163
743.046	31609.09203
743.239	31880.84606
743.431	32301.82495
743.624	32267.08069
743.816	32553.22876
744.009	32945.73512
744.201	32338.61367
744.393	32117.89163
744.586	32287.51842
744.778	32338.61367
744.971	32430.58854
745.163	32146.50238
745.355	31846.10879
745.548	31602.9626
745.74	31835.89204
745.932	31938.06157
746.125	32342.70134
746.317	32357.00829
746.509	31909.45363
746.702	32285.47463
746.894	31386.3992
747.086	31809.32873
747.278	31872.67253
747.471	31435.43079
747.663	31633.6099
747.855	31856.32557
748.047	31850.1955
748.239	31917.62729
748.431	31770.50599
748.623	32083.15054
748.815	32056.58421
749.008	32218.03101
749.2	31731.6839
749.392	31263.82425
749.584	31237.26708
749.776	31335.32561
749.968	31253.60992
750.16	30953.3256
750.352	30979.88008
750.544	30683.70878
750.736	30710.2609
750.928	30838.93979
751.12	31169.85391
751.311	31408.8719
751.503	31574.35881
751.695	31202.53888
751.887	30565.24816
752.079	30939.02714
752.271	30939.02714
752.463	31108.57064
752.654	31120.82718
752.846	31098.35689
753.038	31075.88677
753.23	30820.55676
753.421	30346.71995
753.613	30771.5359
753.805	30479.46902
753.997	30224.18691
754.188	30483.55369
754.38	30381.43843
754.572	30326.29747
754.763	30389.60754
754.955	30236.44002
755.146	30818.51421
755.338	30597.92651
755.53	30663.28422
755.721	30612.2234
755.913	29977.09149
756.104	30608.13857
756.296	30583.62969
756.487	30371.22708
756.679	30395.73438
756.87	30042.4374
757.062	29881.11678
757.253	29907.66273
757.445	29979.13353
757.636	30156.79556
757.827	30354.88897
758.019	30375.31162
758.21	29893.36873
758.401	29758.59945
758.593	29384.94564
758.784	30026.10081
758.975	29848.4451
759.167	29954.6291
759.358	30019.97461
759.549	29817.81566
759.74	29752.47368
759.932	29660.58842
760.123	29156.2788
760.314	29350.23644
760.505	28852.09045
760.696	28927.62501
760.888	28943.95699
761.079	28580.58614
761.27	28884.75387
761.461	28778.59874
761.652	29344.11132
761.843	28939.87399
762.034	29137.90435
762.225	28833.7174
762.416	28986.82876
762.607	28686.736
762.798	28541.80132
762.989	28325.42992
763.18	28794.93012
763.371	28388.70711
763.562	28668.36371
763.753	28690.81874
763.944	29099.11413
764.135	28635.70206
764.326	29252.23561
764.517	28950.0815
764.708	28286.64765
764.899	28270.31838
765.089	27919.25634
765.28	27864.15079
765.471	28292.77114
765.662	27472.31401
765.853	27621.28838
766.043	27674.34932
766.234	27417.21557
766.425	27229.47976
766.615	27611.08445
766.806	27943.74796
766.997	28033.55197
767.187	27653.94117
767.378	27847.82338
767.569	27960.0758
767.759	27866.19172
767.95	27725.37021
768.141	27413.13424
768.331	27380.4838
768.522	27580.47283
768.712	27539.65777
768.903	27427.41892
769.093	27143.77797
769.284	27315.18388
769.474	27260.08811
769.665	27002.98736
769.855	27039.71471
770.046	27392.72768
770.236	27137.65651
770.426	26590.85675
770.617	26890.7677
770.807	26568.41574
770.998	27194.79066
771.188	27215.19597
771.378	26860.16308
771.569	27062.15943
771.759	26654.10058
771.949	26395.01439
772.139	27009.10855
772.33	26140.03385
772.52	26272.62046
772.71	26168.59035
772.9	26117.59683
773.09	26082.92185
773.281	26142.07359
773.471	26572.49591
773.661	25605.68455
773.851	25314.09211
774.041	25707.64965
774.231	25666.86303
774.421	25707.64965
774.611	25550.62545
774.802	25371.1838
774.992	25685.21691
775.182	25927.91058
775.372	25809.61958
775.562	25813.69847
775.752	25742.31889
775.942	25303.89733
776.131	25252.92428
776.321	25587.33136
776.511	25603.6453
776.701	25051.08436
776.891	25407.88648
777.081	25634.23429
777.271	25585.29212
777.461	25554.70385
777.651	25442.55073
777.84	25367.10577
778.03	25383.41795
778.22	25026.6204
778.41	24894.11302
778.599	24922.65225
778.789	24877.8051
778.979	24898.19003
779.169	24955.26906
779.358	24894.11302
779.548	25171.3702
779.738	25020.50447
779.927	24673.96894
780.117	24792.19099
780.307	24398.82932
780.496	24303.05099
780.686	24610.78467
780.875	24651.54844
781.065	24243.95664
781.254	23883.32739
781.444	24380.48834
781.633	24555.75516
781.823	24531.29819
782.012	24594.47944
782.202	24512.9557
782.391	24203.20324
782.581	24211.35383
782.77	24362.14757
782.96	23952.59398
783.149	23198.99665
783.338	23754.98932
783.528	23414.84905
783.717	23526.86188
783.906	23962.78052
784.096	23783.50789
784.285	23659.25267
784.474	23754.98932
784.663	23726.47134
784.853	23716.28648
785.042	23781.47083
785.231	23781.47083
785.42	23816.10124
785.61	23657.2158
785.799	23612.40524
785.988	23644.99459
786.177	22936.35766
786.366	22700.23409
786.555	22504.85692
786.744	22584.22496
786.933	22887.50073
787.122	23168.45442
787.312	23304.88203
787.501	23013.71844
787.69	22726.6939
787.879	23119.58837
788.068	22653.42201
788.257	22559.80345
788.445	22272.88946
788.634	22832.53902
788.823	22663.59839
789.012	22293.23559
789.201	22354.27617
789.39	22045.03819
789.579	21963.67415
789.768	22409.2155
789.957	22270.85487
790.145	22846.78812
790.334	23097.19206
790.523	22911.92895
790.712	22852.89492
790.9	21918.92653
791.089	21835.53817
791.278	21778.59374
791.467	22047.07237
791.655	22409.2155
791.844	22130.47693
792.033	21477.65263
792.221	21764.35811
792.41	21567.11261
792.599	21394.29912
792.787	22195.57754
792.976	21835.53817
793.164	21859.94385
793.353	22047.07237
793.541	21902.65512
793.73	21477.65263
793.918	21689.11579
794.107	21567.11261
794.295	21650.47992
794.484	21528.48122
794.672	21371.93713
794.861	21579.31229
795.049	21642.34623
795.238	21430.89252
795.426	21841.63954
795.614	21380.0687
795.803	21617.94555
795.991	21284.52672
796.179	21644.37965
796.368	21487.81815
796.556	21402.43087
796.744	21312.98511
796.932	21341.44428
797.121	21398.36499
797.309	21284.52672
797.497	21260.13445
797.685	21170.7011
797.874	20924.80005
798.062	20766.31724
798.25	20768.34891
798.438	21231.67753
798.626	20811.01497
798.814	20829.30099
799.002	20721.62151
799.19	20768.34891
799.378	20654.58169
799.566	20965.44072
799.755	20479.8932
799.943	21209.31908
800.131	20930.89605
800.318	21225.57972
800.506	21109.72832
800.694	20719.58994
800.882	20597.70298
801.07	20313.35857
801.258	20325.54308
801.446	20475.83104
801.634	20356.005
801.822	20510.3599
802.01	20605.82831
802.197	20806.95146
802.385	20855.71471
802.573	20672.86483
802.761	20640.36171
802.949	20902.44839
803.136	20532.70274
803.324	20975.60114
803.512	20591.60903
803.699	20660.67604
803.887	20451.45846
804.075	20481.92428
804.262	20386.46786
804.45	20423.02455
804.638	20264.62207
804.825	20492.07976
805.013	20288.99002
805.201	20475.83104
805.388	20230.10184
805.576	20455.52052
805.763	20689.11679
805.951	20418.96262
806.138	20719.58994
806.326	20743.96912
806.513	20392.56055
806.701	20382.40609
806.888	20288.99002
807.075	20640.36171
807.263	20449.42744
807.45	20516.45335
807.638	20666.77041
807.825	20975.60114
808.012	20874.00154
808.2	20654.58169
808.387	20502.23535
808.574	20760.22225
808.761	20723.65309
808.949	20483.95537
809.136	20567.23358
809.323	20291.02071
809.51	20646.45596
809.698	20524.57801
809.885	20286.95933
810.072	20514.42219
810.259	20575.35866
810.446	20721.62151
810.633	20752.09565
810.82	20591.60903
811.008	20465.67573
811.195	20646.45596
811.382	20240.25472
811.569	21020.30822
811.756	20707.40057
811.943	21111.76068
812.13	20839.46003
812.317	20680.99078
812.504	20380.37521
812.691	21099.56654
812.878	20792.72929
813.064	20825.2374
813.251	20020.97588
813.438	20636.29889
813.625	20343.82011
813.812	20165.12589
813.999	20144.82179
814.186	19964.13381
814.372	19937.74398
814.559	20122.48776
814.746	19984.43417
814.933	19820.01336
815.12	20319.4508
815.306	20081.88175
815.493	20025.03615
815.68	20390.52965
815.866	20110.30578
816.053	20384.43697
816.24	20181.36948
816.426	20236.19356
816.613	20264.62207
816.799	20347.88173
816.986	20410.83883
817.173	20725.68468
817.359	20459.58259
817.546	20457.55155
817.732	20041.27741
817.919	20449.42744
818.105	19974.28394
818.292	19830.162
818.478	20061.57937
818.665	20063.60959
818.851	19886.99629
819.037	20047.36796
819.224	19765.21255
819.41	19992.55443
819.597	19771.30138
819.783	19976.31398
819.969	20018.94575
820.156	19625.17991
820.342	19927.59423
820.528	19880.90674
820.714	19261.99933
820.901	19598.79918
821.087	19880.90674
821.273	19852.48936
821.459	20167.15632
821.646	20189.49137
821.832	20118.42709
822.018	20116.39675
822.204	19673.88465
822.39	20167.15632
822.576	19740.85761
822.762	19544.01068
822.948	19389.80751
823.134	19414.15378
823.32	18838.11698
823.507	19468.93508
823.693	19105.8115
823.879	19176.80296
824.065	19359.3755
824.25	19278.22803
824.436	19188.97343
824.622	18992.23554
824.808	19373.57699
824.994	19255.91364
825.18	18973.98345
825.366	19158.54754
825.552	19097.69851
825.738	19759.12376
825.923	19130.15087
826.109	19079.44452
826.295	18779.31467
826.481	18710.37827
826.667	18803.64625
826.852	18572.51909
827.038	18560.35591
827.224	18939.50816
827.409	18465.08247
827.595	18242.1349
827.781	18479.27159
827.966	19046.99379
828.152	18807.70157
828.338	18827.97841
828.523	18448.86655
828.709	18834.06154
828.894	18323.20148
829.08	18696.18605
829.266	18414.40855
829.451	18838.11698
829.637	18430.62395
829.822	18456.97448
830.008	18298.88088
830.193	18369.81747
830.378	18388.05906
830.564	18698.21349
830.749	18031.38934
830.935	18424.54314
831.12	18294.8275
831.305	18181.33886
831.491	18189.44481
831.676	17816.63072
831.861	17678.8814
832.047	17877.40749
832.232	18033.41555
832.417	18163.10069
832.602	18179.31238
832.788	18266.45425
832.973	17889.56321
833.158	18067.86173
833.343	17844.99283
833.528	17948.31766
833.714	17946.29159
833.899	18140.81
834.084	18134.7308
834.269	18120.54612
834.454	17518.86833
834.639	17658.62546
834.824	17496.58963
835.009	17134.10643
835.194	17235.34912
835.379	17221.17471
835.564	16968.08359
835.749	17431.78102
835.934	17010.59989
836.119	17012.6245
836.304	16996.42766
836.489	17158.40402
836.674	17344.69945
836.859	17117.90826
837.044	17472.28602
837.228	17279.89821
837.413	16984.28013
837.598	17482.41247
837.783	17296.09823
837.968	17551.27441
838.152	17209.02533
838.337	17083.48775
838.522	16743.37351
838.707	16838.51723
838.891	16668.47688
839.076	16721.10661
839.261	16619.89698
839.445	16555.12578
839.63	16401.30294
839.815	16753.49493
839.999	16506.54885
840.184	16980.23098
840.368	17142.20558
840.553	17689.0095
840.737	16917.47047
840.922	17247.49873
841.106	16781.83522
841.291	16818.27343
841.475	16522.74102
841.66	16496.42881
841.844	15982.39227
842.029	16168.56595
842.213	16045.12328
842.397	16202.96907
842.582	15972.27449
842.766	16105.83206
842.951	15757.78498
843.135	15986.43939
843.319	15897.40396
843.504	15778.01928
843.688	15962.15674
843.872	15854.91064
844.056	16223.20642
844.241	16233.32517
844.425	15780.04272
844.609	15780.04272
844.793	16008.69866
844.977	15751.71471
845.161	15417.86142
845.346	15298.48742
845.53	15399.65174
845.714	15474.514
845.898	15304.55726
846.082	15595.91396
846.266	15193.27718
846.45	15482.60726
846.634	15138.64887
846.818	15039.50847
847.002	15130.55579
847.186	15221.60297
847.37	15197.32372
847.554	15599.96067
847.738	15796.23025
847.922	15561.51706
848.106	15992.51008
848.29	15432.02453
848.473	15288.37103
848.657	14841.2255
848.841	15150.78849
849.025	15195.30045
849.209	15096.16017
849.392	15128.53251
849.576	14901.92483
849.76	14966.67029
849.944	14901.92483
850.127	14865.5053
850.311	14738.03529
850.495	14810.87564
850.678	14825.03893
850.862	14980.8333
851.046	14177.51826
851.229	14497.24873
851.413	14533.67127
851.596	14875.62185
851.78	14857.41204
851.964	15162.92812
852.147	14810.87564
852.331	14738.03529
852.514	14242.27735
852.698	14555.92928
852.881	14132.99518
853.065	14175.49451
853.248	14056.08918
853.431	14143.11415
853.615	13861.78475
853.798	14066.20858
853.982	13849.63991
854.165	14009.5392
854.348	14169.42323
854.532	14250.3721
854.715	13695.79612
854.898	13865.833
855.081	13622.91642
855.265	14361.67193
855.448	13890.12231
855.631	14236.20627
855.814	13857.73648
855.997	13944.77184
856.181	13857.73648
856.364	13711.99104
856.547	13732.2344
856.73	13394.12553
856.913	13323.25115
857.096	13637.08781
857.279	13487.26734
857.462	13620.89193
857.645	13377.92611
857.828	13288.82463
858.011	13130.85151
858.194	13147.05514
858.377	13086.28996
858.56	13440.69745
858.743	13177.43617
858.926	13234.14469
859.109	12980.95333
859.292	12966.77237
859.475	12638.51027
859.658	12549.32628
859.841	12494.59374
860.023	12879.65516
860.206	12407.41732
860.389	12745.92093
860.572	12230.99862
860.755	12567.56944
860.937	12470.26666
861.12	12717.5499
861.303	12591.89286
861.486	12595.94667
861.668	12703.36396
861.851	12458.10276
862.034	12226.94239
862.216	12666.88451
862.399	12036.26592
862.581	12273.58731
862.764	11953.07715
862.947	12399.30726
863.129	12241.13907
863.312	12048.43877
863.494	11987.57168
863.677	12091.04155
863.859	11796.80751
864.042	12105.24173
864.224	11877.9927
864.406	12275.61527
864.589	11967.28106
864.771	12251.27935
864.954	11681.09481
865.136	11709.51812
865.318	11419.10972
865.501	11549.10626
865.683	11624.24293
865.865	11691.24619
866.048	11918.58029
866.23	11593.78364
866.412	11364.25554
866.594	11504.42435
866.777	11492.23758
866.959	11449.58118
867.141	11423.17271
867.323	11579.56859
867.505	11488.17525
867.687	11321.58618
867.869	11140.69935
868.052	11224.03944
868.234	11376.44598
868.416	11534.88978
868.598	11636.42607
868.78	11626.27348
868.962	11642.51752
869.144	11780.56883
869.326	11439.42427
869.508	11447.54982
869.69	11536.92073
869.872	11421.14122
870.054	11270.78353
870.236	11240.29887
870.417	11209.81189
870.599	11370.35081
870.781	10906.84355
870.963	11012.60513
871.145	11073.60775
871.327	11065.47464
871.508	10884.46698
871.69	11362.22377
871.872	10697.26229
872.054	11238.26648
872.235	10860.0546
872.417	11100.03917
872.599	10910.91187
872.78	11171.19168
872.962	11034.9739
873.144	11358.16019
873.325	10853.95125
873.507	11179.32256
873.689	11008.53793
873.87	11148.83087
874.052	10890.56982
874.233	11000.40341
874.415	10878.36404
874.596	10919.04836
874.778	10780.7028
874.959	10817.32892
875.141	10713.54495
875.322	11240.29887
875.503	11252.49301
875.685	11211.84443
875.866	11032.94043
876.048	11122.4028
876.229	10923.11655
876.41	10896.67255
876.592	11045.14109
876.773	10990.23501
876.954	10772.56315
877.136	10833.60598
877.317	10748.14304
877.498	10646.37397
877.679	10457.00135
877.86	10790.87711
878.042	10750.17811
878.223	11213.87696
878.404	11098.00605
878.585	11073.60775
878.766	10788.84227
878.947	10967.86355
879.128	10493.66265
879.309	10776.633
879.49	10695.2269
879.672	11110.20462
879.853	10957.69426
880.034	11053.27464
880.215	11041.07425
880.396	11063.44133
880.576	11024.80644
880.757	11181.35526
880.938	10945.49073
881.119	11213.87696
881.3	11002.43706
881.481	11187.45328
881.662	11002.43706
881.843	11384.57274
882.023	11156.96222
882.204	10912.94601
882.385	10701.33302
882.566	10931.25277
882.747	10790.87711
882.927	11150.86372
883.108	10988.2013
883.289	11167.12617
883.469	10990.23501
883.65	10994.30241
883.831	11020.73938
884.011	11110.20462
884.192	10965.82971
884.373	11150.86372
884.553	11106.13847
884.734	11012.60513
884.914	10894.63832
885.095	11118.33678
885.275	11211.84443
885.456	11282.97674
885.636	10994.30241
885.817	11343.93735
885.997	10908.87771
886.178	11195.58383
886.358	10695.2269
886.538	10955.66036
886.719	10910.91187
886.899	11177.28986
887.08	10984.13384
887.26	11244.36363
887.44	11118.33678
887.621	11305.33002
887.801	11158.99503
887.981	11459.73785
888.161	11041.07425
888.342	11087.84028
888.522	11085.8071
888.702	11006.50432
888.882	11057.34135
889.062	11132.56766
889.242	11022.77292
889.423	11100.03917
889.603	11041.07425
889.783	11095.97292
889.963	10992.26871
890.143	11217.94198
890.323	10908.87771
890.503	11091.90662
890.683	10829.53678
890.863	11140.69935
891.043	10611.76555
891.223	11095.97292
891.403	10646.37397
891.583	10874.29536
891.763	10585.29788
891.943	10914.98014
892.122	10860.0546
892.302	10978.03256
892.482	10984.13384
892.662	10925.15062
892.842	10969.89738
893.022	11150.86372
893.201	11032.94043
893.381	11437.39286
893.561	11081.74069
893.741	11018.70584
893.92	10937.35482
894.1	11122.4028
894.28	10792.91193
894.459	10876.32971
894.639	10683.01433
894.819	10821.39826
894.998	10707.43904
895.178	10923.11655
895.357	10719.65074
895.537	10821.39826
895.716	10784.77256
895.896	11140.69935
896.075	10642.30258
896.255	10689.12067
896.434	10296.04914
896.614	10648.40965
896.793	10188.02184
896.973	10422.37297
897.152	10173.75121
897.331	10530.31981
897.511	10611.76555
897.69	10483.47937
897.87	10503.8456
898.049	10416.26169
898.228	10509.95522
898.407	10412.18743
898.587	10241.02113
898.766	10393.85265
898.945	9994.2906
899.124	10406.07596
899.304	10351.06737
899.483	10430.52116
899.662	9906.55935
899.841	10063.64062
900.02	9875.94907
900.199	9814.71851
900.378	9904.51877
900.557	10130.93527
900.737	10212.4842
900.916	10255.2886
901.095	10165.59627
901.274	10132.97426
901.453	10283.82154
901.632	10004.49017
901.811	9753.47447
901.989	9812.67726
902.168	9829.00684
902.347	10281.78356
902.526	9961.64955
902.705	9939.20668
902.884	10108.50542
903.063	10277.70756
903.242	10255.2886
903.42	10351.06737
903.599	10153.36343
903.778	10214.52264
903.957	9786.13965
904.135	9965.72988
904.314	9851.45845
904.493	9875.94907
904.672	9346.86811
904.85	9688.13243
905.029	9741.22403
905.207	9690.17461
905.386	9841.2534
905.565	9706.51146
905.743	9653.41308
905.922	9536.96827
906.1	9207.78026
906.279	9408.20606
906.457	8970.33122
906.636	9373.4497
906.814	9265.06108
906.993	9283.46998
907.171	9451.13389
907.35	9322.32879
907.528	8734.6949
907.707	8869.95872
907.885	8775.69229
908.063	8978.52301
908.242	8837.17473
908.42	8847.42023
908.598	8523.44105
908.777	8849.46927
908.955	8964.18719
909.133	9082.94381
909.311	8636.27111
909.49	8872.00757
909.668	8357.16847
909.846	8742.89496
910.024	8697.79097
910.202	8699.84134
910.38	8361.27548
910.559	8693.69016
910.737	8426.97724
910.915	8400.28829
911.093	8272.95742
911.271	8593.19725
911.449	8621.91408
911.627	8523.44105
911.805	8024.23809
911.983	8190.76847
912.161	7839.04799
912.339	8196.93373
912.517	8143.49544
912.695	8240.08563
912.872	8104.43584
913.05	8490.60704
913.228	8184.60302
913.406	8231.86689
913.584	8262.68552
913.762	8092.09972
913.939	7806.1078
914.117	7985.15623
914.295	7804.04886
914.473	7861.69128
914.65	7937.83674
914.828	8205.15382
915.006	7845.22368
915.184	7904.91244
915.361	7486.72048
915.539	7736.09215
915.716	7400.08828
915.894	7760.80632
916.072	7678.41397
916.249	7701.07523
916.427	7622.78003
916.604	7941.95191
916.782	7783.45832
916.959	7719.61435
917.137	7480.53373
917.314	7571.25329
917.492	7323.73766
917.669	7441.34647
917.847	7195.73143
918.024	7519.71319
918.201	7154.42098
918.379	7488.78268
918.556	7203.99246
918.733	6862.92825
918.911	6490.15256
919.088	6697.34206
919.265	6415.50766
919.442	6577.20028
919.62	6492.2256
919.797	6873.27255
919.974	6512.95473
920.151	6662.13611
920.328	6488.0795
920.506	6498.44458
920.683	6430.02431
920.86	6089.61916
921.037	6077.15335
921.214	6276.50481
921.391	6181.00923
921.568	6523.31842
921.745	6481.86017
921.922	6430.02431
922.099	6149.85863
922.276	6450.7604
922.453	6031.43814
922.63	6220.45907
922.807	5923.33868
922.984	6172.70292
923.161	5742.33735
923.338	6097.92923
923.514	5802.69098
923.691	5958.6859
923.868	5765.23244
924.045	5946.21119
924.222	5698.62061
924.399	5873.42512
924.575	5692.37451
924.752	5908.78196
924.929	5806.85256
925.105	6023.12506
925.282	5444.44147
925.459	5500.72444
925.635	5361.02779
925.812	5675.71722
925.989	5298.44289
926.165	5515.31353
926.342	5237.92413
926.518	5448.61117
926.695	5340.1685
926.871	5323.47938
927.048	4949.6702
927.224	5196.17562
927.401	4813.74629
927.577	4824.2054
927.754	4776.08878
927.93	4907.85776
928.107	4715.40289
928.283	4709.12395
928.459	4763.53464
928.636	4981.0235
928.812	4480.8526
928.988	4690.28592
929.165	4474.56617
929.341	4671.44608
929.517	4640.04228
929.693	4717.49582
929.87	4306.85552
930.046	4461.99272
930.222	4269.10152
930.398	4373.95649
930.574	4279.58944
930.751	4346.69939
930.927	4128.51209
931.103	4598.16272
931.279	4099.12324
931.455	4422.17158
931.631	4046.63302
931.807	4210.3593
931.983	4013.03249
932.159	4000.43094
932.335	3790.29789
932.511	3859.66391
932.687	3746.14474
932.863	3960.52116
933.039	3832.34048
933.215	3958.42044
933.391	3828.13657
933.566	3996.23025
933.742	3773.47866
933.918	3823.93259
934.094	3537.88037
934.27	3462.10262
934.445	3234.63159
934.621	3508.41405
934.797	2985.8766
934.973	3190.37801
935.148	3034.37993
935.324	3274.6642
935.5	2861.41896
935.675	2985.8766
935.851	2791.78533
936.027	2964.78569
936.202	2551.12205
936.378	2711.58275
936.553	2289.17607
936.729	2466.64135
936.904	2346.22626
937.08	2538.45111
937.255	2069.36691
937.431	2065.13897
937.606	1762.77816
937.782	1976.34591
937.957	1663.38034
938.133	1790.26979
938.308	1549.17155
938.483	1576.66675
938.659	1369.39281
938.834	1561.86167
939.009	1399.00334
939.185	1485.72039
939.36	1312.28747
939.535	1236.14923
939.71	1329.20745
939.886	1379.96798
940.061	1130.40827
940.236	1248.83871
940.411	1073.31252
940.586	1206.54086
940.761	997.19094
940.937	1174.81834
941.112	1058.51052
941.287	1090.22941
941.462	819.60887
941.637	954.90467
941.812	876.6827
941.987	849.20191
942.162	944.33353
942.337	969.70455
942.512	861.88518
942.687	918.96355
942.862	745.63433
943.037	768.88217
943.212	777.33623
943.386	779.44977
943.561	620.96399
943.736	724.50103
943.911	703.36879
944.086	762.54173
944.26	597.72496
944.435	711.82155
944.61	606.17534
944.785	840.74658
944.959	669.55954
945.134	785.79045
945.309	650.54313
945.483	694.9162
945.658	623.07671
945.833	690.68998
946.007	589.27478
946.182	671.67253
946.357	568.15026
946.531	842.8604
946.706	540.69038
946.88	667.44655
947.055	509.00883
947.229	631.5277
947.404	623.07671
947.578	652.65602
947.752	646.31739
947.927	711.82155
948.101	766.76868
948.276	817.49515
948.45	627.30218
948.624	783.67688
948.799	576.59991
948.973	678.01157
949.147	642.09171
949.321	724.50103
949.496	610.4006
949.67	741.40759
949.844	716.048
950.018	758.31482
950.193	678.01157
950.367	832.29139
950.541	650.54313
950.715	815.38144
950.889	758.31482
951.063	825.95009
951.237	707.59515
951.411	792.13122
951.585	838.63277
951.759	1033.1363
951.933	766.76868
952.107	828.06384
952.281	855.54351
952.455	779.44977
952.629	806.92668
952.803	847.08807
952.977	701.25563
953.151	878.79667
953.325	741.40759
953.499	927.42009
953.672	709.70835
953.846	984.50478
954.02	783.67688
954.194	836.51897
954.368	716.048
954.541	796.35845
954.715	703.36879
954.889	906.27896
955.062	694.9162
955.236	847.08807
955.41	749.86112
955.583	794.24483
955.757	606.17534
955.93	859.77128
956.104	885.13862
956.278	1003.53411
956.451	661.10768
956.625	735.06755
956.798	718.16124
956.972	766.76868
957.145	654.76892
957.319	749.86112
957.492	768.88217
957.665	794.24483
957.839	711.82155
958.012	855.54351
958.185	684.35073
958.359	741.40759
958.532	760.42827
958.705	726.61431
958.879	701.25563
959.052	745.63433
959.225	599.83753
959.398	876.6827
959.572	703.36879
959.745	800.58571
959.918	694.9162
960.091	785.79045
960.264	665.33358
960.438	639.97888
960.611	690.68998
960.784	787.90403
960.957	665.33358
961.13	851.31577
961.303	658.99475
961.476	730.84091
961.649	509.00883
961.822	635.75326
961.995	610.4006
962.168	737.18088
962.341	572.37505
962.514	703.36879
962.686	547.02707
962.859	775.2227
963.032	519.56899
963.205	656.88183
963.378	523.79316
963.551	656.88183
963.723	498.44903
963.896	694.9162
964.069	506.89684
964.242	703.36879
964.414	601.95012
964.587	614.62592
964.76	532.24166
964.932	690.68998
965.105	542.8026
965.278	521.68107
965.45	530.12951
965.623	580.82481
965.795	530.12951
965.968	741.40759
966.14	616.7386
966.313	644.20454
966.485	475.21875
966.658	614.62592
966.83	614.62592
967.003	639.97888
967.175	580.82481
967.348	618.85129
967.52	648.43026
967.692	574.48747
967.865	538.57818
968.037	534.35382
968.209	509.00883
968.382	566.03788
968.554	496.33711
968.726	443.54405
968.898	513.23285
969.071	625.18944
969.243	418.2068
969.415	462.54846
969.587	413.98415
969.759	443.54405
969.932	502.6729
970.104	513.23285
970.276	426.6523
970.448	401.31658
970.62	407.65029
970.792	614.62592
970.964	456.21352
971.136	542.8026
971.308	585.04977
971.48	506.89684
971.652	466.77183
971.824	513.23285
971.996	441.43252
972.168	555.47618
972.339	432.98659
972.511	561.81316
972.683	348.54149
972.855	456.21352
973.027	413.98415
973.199	371.76124
973.37	287.336
973.542	411.87285
973.714	363.31745
973.886	411.87285
974.057	312.66058
974.229	435.09805
974.401	314.77108
974.572	310.5501
974.744	371.76124
974.915	327.43445
975.087	287.336
975.259	344.31995
975.43	289.44628
975.602	295.77723
975.773	217.70731
975.945	342.2092
976.116	314.77108
976.288	375.98323
976.459	245.1343
976.63	354.87394
976.802	289.44628
976.973	373.87222
977.145	259.90403
977.316	327.43445
977.487	272.56455
977.659	295.77723
977.83	268.3443
978.001	318.99213
978.172	268.3443
978.344	255.68401
978.515	321.10269
978.686	270.45441
978.857	217.70731
979.028	226.14603
979.2	329.54508
979.371	287.336
979.542	186.06495
979.713	335.87706
979.884	194.50247
980.055	213.48807
980.226	238.8047
980.397	188.1743
980.568	213.48807
980.739	224.03632
980.91	177.62776
981.081	333.76638
981.252	158.64528
981.423	217.70731
981.594	207.15936
981.765	293.6669
981.936	186.06495
982.106	278.89506
982.277	129.12037
982.448	264.12413
982.619	200.83082
982.79	226.14603
982.96	169.1909
983.131	202.94032
983.302	211.37848
983.472	228.25576
983.643	160.75436
983.814	302.10835
983.984	118.57677
984.155	171.30008
984.326	217.70731
984.496	167.08173
984.667	194.50247
984.837	141.77339
985.008	179.73703
985.178	154.42718
985.349	202.94032
985.519	183.95562
985.69	175.51851
985.86	162.86346
986.031	135.44678
986.201	145.99124
986.371	240.91455
986.542	175.51851
986.712	145.99124
986.882	162.86346
987.053	158.64528
987.223	207.15936
987.393	133.33796
987.563	167.08173
987.734	93.27437
987.904	217.70731
988.074	127.01161
988.244	82.73264
988.414	133.33796
988.585	154.42718
988.755	177.62776
988.925	110.14229
989.095	74.29967
989.265	120.68545
989.435	226.14603
989.605	124.90287
989.775	127.01161
989.945	141.77339
990.115	127.01161
990.285	169.1909
990.455	141.77339
990.625	99.59967
990.795	173.40929
990.965	91.16598
991.134	99.59967
991.304	93.27437
991.474	110.14229
991.644	175.51851
991.814	118.57677
991.984	190.28367
992.153	116.46812
992.323	137.55563
992.493	141.77339
992.662	162.86346
992.832	127.01161
993.002	160.75436
993.171	122.79415
993.341	116.46812
993.511	25.81715
993.68	59.54283
993.85	74.29967
994.019	-1.58052
994.189	120.68545
994.358	116.46812
994.528	57.4348
994.697	118.57677
994.867	49.00291
995.036	65.86705
995.206	72.19148
995.375	57.4348
995.544	124.90287
995.714	23.70949
995.883	167.08173
996.052	152.31817
996.222	67.97517
996.391	42.67924
996.56	-1.58052
996.73	101.70815
996.899	57.4348
997.068	97.49122
997.237	118.57677
997.406	67.97517
997.576	-10.00976
997.745	95.38278
997.914	99.59967
998.083	95.38278
998.252	51.11085
998.421	67.97517
998.59	137.55563
998.759	76.40788
998.928	103.81665
999.097	36.35578
999.266	-7.90249
999.435	70.08331
999.604	-18.43861
999.773	91.16598
999.942	59.54283
1000.111	-7.90249
1000.28	57.4348
1000.448	32.14026
1000.617	46.895
1000.786	27.92483
1000.955	42.67924
1001.124	40.5714
1001.292	53.21881
1001.461	78.51611
1001.63	74.29967
1001.798	86.94927
1001.967	108.03372
1002.136	82.73264
1002.304	32.14026
1002.473	36.35578
1002.642	84.84094
1002.81	15.2791
1002.979	124.90287
1003.147	95.38278
1003.316	38.46358
1003.484	84.84094
1003.653	13.17157
1003.821	65.86705
1003.99	67.97517
1004.158	59.54283
1004.327	65.86705
1004.495	-5.79519
1004.663	80.62436
1004.832	23.70949
1005	82.73264
1005.168	70.08331
1005.337	36.35578
1005.505	49.00291
1005.673	82.73264
1005.842	49.00291
1006.01	51.11085
1006.178	61.65088
1006.346	15.2791
1006.514	38.46358
1006.683	19.49425
1006.851	32.14026
1007.019	82.73264
1007.187	8.95656
1007.355	6.8491
1007.523	84.84094
1007.691	148.10019
1007.859	-18.43861
1008.027	99.59967
1008.195	93.27437
1008.363	-24.75999
1008.531	40.5714
1008.699	36.35578
1008.867	30.03253
1009.035	23.70949
1009.203	53.21881
1009.37	-1.58052
1009.538	-7.90249
1009.706	4.74166
1009.874	4.74166
1010.042	-7.90249
1010.209	-10.00976
1010.377	82.73264
1010.545	-1.58052
1010.713	49.00291
1010.88	32.14026
1011.048	0.52684
1011.216	-45.82964
1011.383	11.06405
1011.551	57.4348
1011.718	-1.58052
1011.886	36.35578
1012.054	63.75895
1012.221	-5.79519
1012.389	49.00291
1012.556	70.08331
1012.724	-10.00976
1012.891	-26.86706
1013.058	25.81715
1013.226	15.2791
1013.393	-31.08114
1013.561	-26.86706
1013.728	15.2791
1013.895	-3.68787
1014.063	61.65088
1014.23	70.08331
1014.397	61.65088
1014.565	82.73264
1014.732	17.38667
1014.899	-1.58052
1015.066	127.01161
1015.233	-10.00976
1015.401	6.8491
1015.568	21.60186
1015.735	-10.00976
1015.902	36.35578
1016.069	32.14026
1016.236	25.81715
1016.403	84.84094
1016.57	15.2791
1016.737	120.68545
1016.904	23.70949
1017.071	34.24801
1017.238	84.84094
1017.405	-24.75999
1017.572	-10.00976
1017.739	32.14026
1017.906	-18.43861
1018.073	-3.68787
1018.24	44.78711
1018.407	-20.54576
1018.573	53.21881
1018.74	-5.79519
1018.907	17.38667
1019.074	65.86705
1019.241	-7.90249
1019.407	-43.72279
1019.574	-43.72279
1019.741	15.2791
1019.907	99.59967
1020.074	86.94927
1020.241	-35.29512
1020.407	63.75895
1020.574	15.2791
1020.74	86.94927
1020.907	17.38667
1021.073	17.38667
1021.24	17.38667
1021.406	19.49425
1021.573	-1.58052
1021.739	2.63424
1021.906	27.92483
1022.072	-77.42941
1022.239	-47.93647
1022.405	0.52684
1022.571	-22.65289
1022.738	-5.79519
1022.904	42.67924
1023.07	6.8491
1023.237	6.8491
1023.403	19.49425
1023.569	-26.86706
1023.735	32.14026
1023.902	-16.33143
1024.068	-1.58052
1024.234	25.81715
1024.4	17.38667
1024.566	6.8491
1024.732	-33.18815
1024.898	17.38667
1025.065	27.92483
1025.231	38.46358
1025.397	11.06405
1025.563	72.19148
1025.729	11.06405
1025.895	-35.29512
1026.061	-5.79519
1026.227	23.70949
1026.392	32.14026
1026.558	-12.11701
1026.724	61.65088
1026.89	30.03253
1027.056	42.67924
1027.222	19.49425
1027.388	-85.85504
1027.553	23.70949
1027.719	8.95656
1027.885	65.86705
1028.051	-50.04327
1028.216	40.5714
1028.382	11.06405
1028.548	32.14026
1028.713	-24.75999
1028.879	-60.57691
1029.045	32.14026
1029.21	51.11085
1029.376	57.4348
1029.541	4.74166
1029.707	8.95656
1029.873	34.24801
1030.038	-43.72279
1030.204	34.24801
1030.369	-58.47023
1030.534	-28.97412
1030.7	27.92483
1030.865	-69.00336
1031.031	32.14026
1031.196	17.38667
1031.361	-47.93647
1031.527	6.8491
1031.692	6.8491
1031.857	25.81715
1032.023	0.52684
1032.188	25.81715
1032.353	-28.97412
1032.518	6.8491
1032.684	-22.65289
1032.849	2.63424
1033.014	34.24801
1033.179	32.14026
1033.344	-26.86706
1033.509	6.8491
1033.674	40.5714
1033.839	49.00291
1034.004	91.16598
1034.17	42.67924
1034.335	-1.58052
1034.5	44.78711
1034.664	59.54283
1034.829	15.2791
1034.994	59.54283
1035.159	11.06405
1035.324	108.03372
1035.489	34.24801
1035.654	-18.43861
1035.819	-18.43861
1035.984	44.78711
1036.148	74.29967
1036.313	36.35578
1036.478	55.32679
1036.643	23.70949
1036.807	8.95656
1036.972	99.59967
1037.137	-35.29512
1037.301	-35.29512
1037.466	-26.86706
1037.631	-92.17399
1037.795	51.11085
1037.96	27.92483
1038.124	-26.86706
1038.289	-35.29512
1038.454	19.49425
1038.618	8.95656
1038.783	-26.86706
1038.947	17.38667
1039.111	-45.82964
1039.276	2.63424
1039.44	25.81715
1039.605	-33.18815
1039.769	27.92483
1039.933	-1.58052
1040.098	-92.17399
1040.262	-18.43861
1040.426	-50.04327
1040.591	42.67924
1040.755	-10.00976
1040.919	40.5714
1041.083	-66.89679
1041.248	4.74166
1041.412	11.06405
1041.576	6.8491
1041.74	2.63424
1041.904	-16.33143
1042.068	-24.75999
1042.232	2.63424
1042.397	4.74166
1042.561	-52.15005
1042.725	-14.22423
1042.889	57.4348
1043.053	36.35578
1043.217	-1.58052
1043.381	-18.43861
1043.544	6.8491
1043.708	17.38667
1043.872	23.70949
1044.036	67.97517
1044.2	27.92483
1044.364	65.86705
1044.528	15.2791
1044.691	15.2791
1044.855	80.62436
1045.019	44.78711
1045.183	19.49425
1045.346	-31.08114
1045.51	-24.75999
1045.674	-7.90249
1045.837	40.5714
1046.001	32.14026
1046.165	32.14026
1046.328	-52.15005
1046.492	-26.86706
1046.655	42.67924
1046.819	-22.65289
1046.983	27.92483
1047.146	-5.79519
1047.31	-10.00976
1047.473	34.24801
1047.636	-5.79519
1047.8	4.74166
1047.963	78.51611
1048.127	36.35578
1048.29	2.63424
