Data from Scatter_Coeff_Baseline_USB4F045381__49__0049.txt Node

Date: Thu Feb 13 19:32:20 EST 2025
User: mmckonesweet
Spectrometer: USB4F04538
Trigger mode: 4
Integration Time (sec): 2.400000E-3
Scans to average: 1
Electric dark correction enabled: true
Nonlinearity correction enabled: true
Boxcar width: 0
XAxis mode: Wavelengths
Number of Pixels in Spectrum: 3648
>>>>>Begin Spectral Data<<<<<
345.52	42.8549
345.736	42.8549
345.952	42.8549
346.168	32.3159
346.384	42.8549
346.6	4.91728
346.816	-24.5844
347.032	30.20817
347.248	-60.40135
347.464	59.7185
347.68	-7.72688
347.896	57.61047
348.112	-49.86771
348.328	0.70246
348.544	-3.51226
348.76	-66.72124
348.975	59.7185
349.191	-26.69148
349.407	49.17857
349.623	0.70246
349.839	-28.79853
350.055	0.70246
350.27	-39.33343
350.486	-33.01256
350.702	47.07066
350.918	49.17857
351.133	85.01664
351.349	59.7185
351.565	9.13219
351.781	-24.5844
351.996	-91.99847
352.212	9.13219
352.428	34.42366
352.644	30.20817
352.859	120.86117
353.075	-26.69148
353.291	-14.04863
353.506	47.07066
353.722	-100.42339
353.938	-14.04863
354.153	30.20817
354.369	34.42366
354.584	-5.61958
354.8	38.63923
355.016	-24.5844
355.231	40.74705
355.447	51.28651
355.662	34.42366
355.878	68.15085
356.093	-7.72688
356.309	42.8549
356.524	13.34719
356.74	25.99279
356.955	0.70246
357.171	110.318
357.386	13.34719
357.602	91.34168
357.817	-14.04863
358.033	-30.90556
358.248	-39.33343
358.464	42.8549
358.679	9.13219
358.895	-22.47729
359.11	-5.61958
359.325	47.07066
359.541	28.10047
359.756	-3.51226
359.972	38.63923
360.187	78.6918
360.402	74.47535
360.618	-7.72688
360.833	-16.15583
361.048	-16.15583
361.264	-20.37016
361.479	-24.5844
361.694	61.82655
361.909	23.88513
362.125	-14.04863
362.34	21.7775
362.555	-43.54722
362.77	55.50246
362.986	-14.04863
363.201	-3.51226
363.416	11.23968
363.631	42.8549
363.847	4.91728
364.062	-5.61958
364.277	7.02472
364.492	68.15085
364.707	51.28651
364.922	80.80005
365.138	-49.86771
365.353	25.99279
365.568	-79.36032
365.783	63.93463
365.998	49.17857
366.213	-5.61958
366.428	4.91728
366.643	13.34719
366.858	-5.61958
367.073	42.8549
367.288	85.01664
367.503	-26.69148
367.718	-66.72124
367.933	-33.01256
368.148	47.07066
368.363	-77.25387
368.578	25.99279
368.793	2.80986
369.008	-28.79853
369.223	28.10047
369.438	11.23968
369.653	-11.94141
369.868	-14.04863
370.083	2.80986
370.298	-16.15583
370.513	19.66988
370.728	-20.37016
370.943	34.42366
371.157	34.42366
371.372	-1.40491
371.587	-66.72124
371.802	59.7185
372.017	0.70246
372.232	21.7775
372.446	106.10089
372.661	2.80986
372.876	74.47535
373.091	0.70246
373.306	-30.90556
373.52	17.5623
373.735	-37.2265
373.95	70.25899
374.165	34.42366
374.379	-5.61958
374.594	32.3159
374.809	42.8549
375.023	4.91728
375.238	51.28651
375.453	-39.33343
375.667	38.63923
375.882	-14.04863
376.097	0.70246
376.311	-26.69148
376.526	-11.94141
376.741	-16.15583
376.955	51.28651
377.17	-56.18797
377.384	44.96277
377.599	47.07066
377.813	80.80005
378.028	-7.72688
378.242	72.36716
378.457	7.02472
378.672	85.01664
378.886	-28.79853
379.101	15.45473
379.315	-3.51226
379.53	25.99279
379.744	-7.72688
379.958	-39.33343
380.173	13.34719
380.387	2.80986
380.602	-1.40491
380.816	49.17857
381.031	-7.72688
381.245	-3.51226
381.459	4.91728
381.674	47.07066
381.888	34.42366
382.103	63.93463
382.317	11.23968
382.531	-35.11954
382.746	36.53143
382.96	7.02472
383.174	25.99279
383.388	63.93463
383.603	-24.5844
383.817	51.28651
384.031	-73.04089
384.246	-16.15583
384.46	-39.33343
384.674	-1.40491
384.888	-20.37016
385.103	17.5623
385.317	-64.61464
385.531	-11.94141
385.745	-28.79853
385.959	-7.72688
386.174	-3.51226
386.388	-56.18797
386.602	2.80986
386.816	51.28651
387.03	78.6918
387.244	17.5623
387.458	25.99279
387.672	0.70246
387.887	9.13219
388.101	-3.51226
388.315	76.58356
388.529	55.50246
388.743	-24.5844
388.957	30.20817
389.171	7.02472
389.385	42.8549
389.599	-26.69148
389.813	-49.86771
390.027	-7.72688
390.241	91.34168
390.455	-20.37016
390.669	78.6918
390.883	11.23968
391.097	25.99279
391.311	118.75249
391.525	17.5623
391.738	25.99279
391.952	68.15085
392.166	55.50246
392.38	-39.33343
392.594	-3.51226
392.808	9.13219
393.022	28.10047
393.236	-16.15583
393.449	66.04272
393.663	21.7775
393.877	7.02472
394.091	-18.26301
394.305	-16.15583
394.518	-14.04863
394.732	34.42366
394.946	70.25899
395.16	63.93463
395.373	85.01664
395.587	72.36716
395.801	28.10047
396.015	-16.15583
396.228	-18.26301
396.442	51.28651
396.656	0.70246
396.869	2.80986
397.083	-54.08124
397.297	-28.79853
397.51	55.50246
397.724	-37.2265
397.938	55.50246
398.151	34.42366
398.365	78.6918
398.578	21.7775
398.792	-5.61958
399.005	23.88513
399.219	-11.94141
399.433	68.15085
399.646	-39.33343
399.86	42.8549
400.073	53.39447
400.287	-28.79853
400.5	17.5623
400.714	-35.11954
400.927	0.70246
401.141	-41.44034
401.354	9.13219
401.567	-33.01256
401.781	85.01664
401.994	-9.83416
402.208	0.70246
402.421	21.7775
402.635	93.45007
402.848	70.25899
403.061	125.07859
403.275	4.91728
403.488	49.17857
403.701	25.99279
403.915	34.42366
404.128	4.91728
404.341	2.80986
404.555	36.53143
404.768	42.8549
404.981	-20.37016
405.195	25.99279
405.408	30.20817
405.621	97.66692
405.834	34.42366
406.048	36.53143
406.261	-20.37016
406.474	17.5623
406.687	-14.04863
406.9	-16.15583
407.114	32.3159
407.327	-11.94141
407.54	110.318
407.753	2.80986
407.966	0.70246
408.179	80.80005
408.392	47.07066
408.605	9.13219
408.819	-24.5844
409.032	25.99279
409.245	-20.37016
409.458	97.66692
409.671	-39.33343
409.884	78.6918
410.097	30.20817
410.31	42.8549
410.523	9.13219
410.736	40.74705
410.949	108.20943
411.162	28.10047
411.375	89.23331
411.588	78.6918
411.801	78.6918
412.014	30.20817
412.227	-7.72688
412.44	-24.5844
412.653	11.23968
412.865	101.88386
413.078	-9.83416
413.291	-26.69148
413.504	-35.11954
413.717	21.7775
413.93	63.93463
414.143	9.13219
414.356	25.99279
414.568	-24.5844
414.781	-28.79853
414.994	47.07066
415.207	55.50246
415.42	-16.15583
415.632	17.5623
415.845	82.90833
416.058	61.82655
416.271	-5.61958
416.483	42.8549
416.696	13.34719
416.909	-5.61958
417.121	-20.37016
417.334	17.5623
417.547	-20.37016
417.759	-64.61464
417.972	9.13219
418.185	11.23968
418.397	68.15085
418.61	78.6918
418.823	57.61047
419.035	-24.5844
419.248	-5.61958
419.46	51.28651
419.673	63.93463
419.885	-45.65407
420.098	13.34719
420.311	25.99279
420.523	95.55848
420.736	-7.72688
420.948	13.34719
421.161	49.17857
421.373	-14.04863
421.586	25.99279
421.798	85.01664
422.01	42.8549
422.223	34.42366
422.435	55.50246
422.648	59.7185
422.86	19.66988
423.073	63.93463
423.285	118.75249
423.497	21.7775
423.71	167.25749
423.922	-47.7609
424.134	89.23331
424.347	19.66988
424.559	7.02472
424.771	0.70246
424.984	21.7775
425.196	55.50246
425.408	32.3159
425.621	103.99236
425.833	-30.90556
426.045	42.8549
426.257	72.36716
426.47	36.53143
426.682	76.58356
426.894	36.53143
427.106	-18.26301
427.318	80.80005
427.531	70.25899
427.743	80.80005
427.955	0.70246
428.167	106.10089
428.379	74.47535
428.591	42.8549
428.804	13.34719
429.016	68.15085
429.228	4.91728
429.44	42.8549
429.652	9.13219
429.864	72.36716
430.076	36.53143
430.288	127.18734
430.5	28.10047
430.712	19.66988
430.924	38.63923
431.136	55.50246
431.348	68.15085
431.56	103.99236
431.772	72.36716
431.984	51.28651
432.196	127.18734
432.408	70.25899
432.62	87.12496
432.832	85.01664
433.044	85.01664
433.256	21.7775
433.468	118.75249
433.679	63.93463
433.891	68.15085
434.103	68.15085
434.315	32.3159
434.527	72.36716
434.739	72.36716
434.95	59.7185
435.162	78.6918
435.374	51.28651
435.586	47.07066
435.798	40.74705
436.009	59.7185
436.221	82.90833
436.433	53.39447
436.645	51.28651
436.856	4.91728
437.068	17.5623
437.28	80.80005
437.491	47.07066
437.703	122.96987
437.915	85.01664
438.126	28.10047
438.338	76.58356
438.55	97.66692
438.761	30.20817
438.973	110.318
439.184	85.01664
439.396	0.70246
439.608	137.73137
439.819	55.50246
440.031	57.61047
440.242	4.91728
440.454	87.12496
440.665	25.99279
440.877	34.42366
441.088	63.93463
441.3	38.63923
441.511	72.36716
441.723	110.318
441.934	85.01664
442.146	97.66692
442.357	76.58356
442.569	89.23331
442.78	97.66692
442.991	66.04272
443.203	150.38492
443.414	89.23331
443.626	127.18734
443.837	72.36716
444.048	61.82655
444.26	89.23331
444.471	118.75249
444.682	122.96987
444.894	110.318
445.105	53.39447
445.316	110.318
445.528	152.49392
445.739	85.01664
445.95	154.60294
446.161	144.05805
446.373	146.16698
446.584	131.40488
446.795	93.45007
447.006	122.96987
447.217	110.318
447.429	89.23331
447.64	82.90833
447.851	51.28651
448.062	125.07859
448.273	118.75249
448.484	116.64384
448.695	89.23331
448.907	135.62252
449.118	55.50246
449.329	93.45007
449.54	139.84024
449.751	148.27594
449.962	99.77538
450.173	131.40488
450.384	106.10089
450.595	144.05805
450.806	144.05805
451.017	139.84024
451.228	61.82655
451.439	131.40488
451.65	114.5352
451.861	194.67826
452.072	243.20024
452.283	169.36666
452.494	127.18734
452.705	194.67826
452.915	173.58505
453.126	120.86117
453.337	87.12496
453.548	173.58505
453.759	190.45945
453.97	101.88386
454.181	173.58505
454.391	165.14835
454.602	188.35008
454.813	148.27594
455.024	230.54133
455.235	148.27594
455.445	241.09037
455.656	190.45945
455.867	127.18734
456.078	224.21213
456.288	103.99236
456.499	226.32184
456.71	211.55428
456.921	224.21213
457.131	165.14835
457.342	179.9128
457.553	160.93012
457.763	234.76089
457.974	298.06345
458.184	279.07091
458.395	177.80353
458.606	241.09037
458.816	222.10244
459.027	287.51185
459.237	262.18991
459.448	264.29997
459.659	251.6399
459.869	266.41005
460.08	329.72097
460.29	304.39463
460.501	310.72597
460.711	304.39463
460.922	289.62213
461.132	329.72097
461.343	289.62213
461.553	241.09037
461.764	266.41005
461.974	338.16365
462.184	380.38121
462.395	287.51185
462.605	348.71739
462.816	312.83645
463.026	327.61034
463.236	386.71443
463.447	395.15895
463.657	418.38275
463.867	388.82553
464.078	388.82553
464.288	382.49226
464.498	409.9375
464.709	416.27141
464.919	439.49697
465.129	441.60848
465.339	447.94311
465.55	616.91466
465.76	507.07284
465.97	481.73009
466.18	511.29683
466.391	629.59099
466.601	549.31535
466.811	625.3655
467.021	498.62502
467.231	665.50967
467.441	528.19339
467.651	794.42096
467.862	756.3775
468.072	754.26407
468.282	838.80892
468.492	707.77125
468.702	847.26422
468.912	897.9989
469.122	692.97918
469.332	891.6568
469.542	764.83132
469.752	967.76645
469.962	845.15038
470.172	1071.37415
470.382	919.13972
470.592	965.65217
470.802	1031.19802
471.012	1016.39682
471.222	1054.45764
471.432	1124.24035
471.642	1103.0935
471.852	1259.5896
472.062	1217.29145
472.272	1369.56906
472.482	1295.54385
472.691	1576.843
472.901	1297.65883
473.111	1534.54261
473.321	1576.843
473.531	1657.21182
473.741	1547.23278
473.95	1735.46212
474.16	1581.073
474.37	1872.91648
474.58	1490.12675
474.79	1811.59295
474.999	1881.37458
475.209	1678.36095
475.419	1777.75766
475.628	2122.38982
475.838	1877.14554
476.048	1879.26006
476.258	2023.03421
476.467	2337.9509
476.677	2200.59402
476.886	2274.56024
477.096	2460.4806
477.306	2397.10753
477.515	2479.49062
477.725	2430.9077
477.935	2519.61992
478.144	2553.40981
478.354	2563.96854
478.563	2701.20427
478.773	2601.97749
478.982	2861.59478
479.192	2844.71531
479.401	2840.4953
479.611	2986.05235
479.82	3036.66431
480.03	3302.22697
480.239	3304.33356
480.449	3226.3785
480.658	3472.80415
480.868	3249.55674
481.077	3352.78034
481.287	3281.16015
481.496	3460.17279
481.705	3603.28968
481.915	3735.80605
482.124	3615.91353
482.333	3889.26051
482.543	3819.9037
482.752	3716.87979
482.961	3914.47577
483.171	4099.29819
483.38	3822.00574
483.589	4032.10844
483.799	4017.40786
484.008	4248.29889
484.217	4111.8939
484.426	4260.88561
484.636	4193.74761
484.845	4407.67333
485.054	4424.44229
485.263	4560.63803
485.472	4512.45635
485.682	4765.80142
485.891	4610.90203
486.1	4732.32012
486.309	4866.21043
486.518	4880.84902
486.727	4820.19614
486.936	5054.33512
487.146	4857.84502
487.355	5064.78101
487.564	5002.09697
487.773	5162.94409
487.982	5371.63036
488.191	5382.05853
488.4	5392.48611
488.609	5284.01061
488.818	5475.88562
489.027	5605.08043
489.236	5517.57126
489.445	5646.73686
489.654	5752.91801
489.863	5642.57164
490.072	5592.58167
490.281	5784.13608
490.49	5807.02596
490.698	5900.63663
490.907	5877.75843
491.116	5958.85915
491.325	6039.92402
491.534	6116.79861
491.743	6152.10857
491.952	6262.14904
492.16	6241.39173
492.369	6378.34676
492.578	6272.52682
492.787	6477.8866
492.996	6299.5063
493.204	6701.65606
493.413	6525.56381
493.622	6699.58535
493.831	6397.01457
494.039	6649.88151
494.248	6670.59305
494.457	6941.70299
494.665	6877.5825
494.874	6765.83658
495.083	6889.99462
495.291	6921.02134
495.5	6937.56684
495.709	7078.14538
495.917	7113.27381
496.126	7074.0122
496.335	7200.0341
496.543	7509.57539
496.752	7288.81962
496.96	7212.42522
497.169	7325.97357
497.377	7350.73893
497.586	7445.6437
497.794	7548.7491
498.003	7540.50264
498.211	7561.11813
498.42	7501.32731
498.628	7717.72619
498.837	7672.40488
499.045	7649.74038
499.254	7746.56171
499.462	7882.44544
499.671	7833.04366
499.879	8264.91114
500.087	8075.82179
500.296	8096.38318
500.504	8040.8628
500.713	7946.23846
500.921	8118.99838
501.129	8297.77913
501.338	8114.88671
501.546	8453.834
501.754	8131.33292
501.962	8525.66401
502.171	8392.24675
502.379	8617.98282
502.587	8283.4
502.795	8714.3643
503.004	8390.19354
503.212	8773.8134
503.42	8457.9392
503.628	8816.85318
503.837	8402.51249
504.045	8615.93171
504.253	8915.19991
504.461	8761.51485
504.669	8808.65574
504.877	8841.44374
505.085	9009.41037
505.294	9371.57545
505.502	8993.02862
505.71	9162.93514
505.918	8904.95739
506.126	9189.53627
506.334	9052.40712
506.542	9289.77643
506.75	9158.8424
506.958	9381.79847
507.166	9126.09804
507.374	9361.35201
507.582	9404.28769
507.79	9633.15806
507.998	9563.70061
508.206	9616.81676
508.414	9843.46453
508.622	9447.21617
508.83	9355.21775
509.037	9676.04924
509.245	9477.87501
509.453	9725.05941
509.661	9792.43405
509.869	9978.14054
510.077	9645.41338
510.285	10008.73988
510.492	9847.54656
510.7	9886.32293
510.908	9569.82994
511.116	10025.05821
511.324	10041.37562
511.531	10184.11447
511.739	10116.83185
511.947	10180.03717
512.155	10253.42028
512.362	10143.33893
512.57	10171.88239
512.778	10086.24381
512.985	10271.7633
513.193	10063.81057
513.401	10175.95981
513.608	10402.17134
513.816	10159.64981
514.024	10379.76132
514.231	10428.65388
514.439	10510.12493
514.646	10626.18616
514.854	10540.67131
515.061	10489.75909
515.269	10607.8634
515.477	10542.70764
515.684	10793.0815
515.892	10532.52589
516.099	10793.0815
516.307	10959.89763
516.514	10921.25197
516.722	10717.78509
516.929	10941.5923
517.136	10721.85559
517.344	10876.49924
517.551	10900.9105
517.759	11088.00972
517.966	11047.34394
518.173	11092.07605
518.381	11039.21026
518.588	10913.11552
518.796	10880.5679
519.003	11289.24256
519.21	11116.47318
519.418	11212.01381
519.625	11191.68796
519.832	11354.26589
520.039	11498.50027
520.247	11636.59528
520.454	11169.32833
520.661	11669.08206
520.868	11214.04633
521.076	11614.25928
521.283	11407.08982
521.49	11557.39899
521.697	11620.35103
521.904	11725.9284
522.112	11685.32458
522.319	11983.68271
522.526	11772.61845
522.733	12074.98138
522.94	11809.1553
523.147	11937.01273
523.354	11801.03624
523.561	12115.55352
523.768	11904.54412
523.975	12221.027
524.183	11973.53742
524.39	12296.06341
524.597	12287.95184
524.804	12113.52499
525.011	12504.89868
525.218	12241.30808
525.425	12360.95197
525.632	12294.03553
525.838	12324.45303
526.045	12464.35368
526.252	12289.97974
526.459	12571.79232
526.666	12559.63035
526.873	12859.56278
527.08	12658.94659
527.287	12506.92586
527.494	12529.22444
527.701	12889.95441
527.907	12973.01877
528.114	12859.56278
528.321	12904.13675
528.528	13102.66322
528.735	13347.72025
528.941	13349.74525
529.148	12973.01877
529.355	12918.31884
529.562	12983.14798
529.768	13210.01024
529.975	12693.39986
530.182	13141.1476
530.388	12885.90226
530.595	13201.90902
530.802	13157.35105
531.008	13422.64264
531.215	13519.83134
531.422	13357.84522
531.628	13529.95467
531.835	13621.06064
532.042	13335.57016
532.248	13742.52465
532.455	13540.07791
532.661	13817.42185
532.868	13742.52465
533.074	13768.84036
533.281	13766.81609
533.487	13712.15973
533.694	13594.74186
533.9	13963.15658
534.107	13679.7697
534.313	14187.80565
534.52	14011.7318
534.726	14046.13839
534.933	13914.5799
535.139	14386.12347
535.345	13975.30052
535.552	13973.27654
535.758	14193.87687
535.965	14082.56815
536.171	14155.4255
536.377	14210.06671
536.584	14248.51706
536.79	14335.5338
536.996	14475.15892
537.203	14359.81697
537.409	14396.24128
537.615	14566.21513
537.821	14230.30382
538.028	14590.49636
538.234	14489.3234
538.44	14485.27641
538.646	14418.50033
538.853	14960.76903
539.059	14471.11192
539.265	14657.26892
539.471	14635.01153
539.677	14655.24553
539.883	14883.8837
540.09	14855.55734
540.296	15124.65458
540.502	15383.634
540.708	14936.48952
540.914	14978.97862
541.12	14946.60599
541.326	15288.53964
541.532	15201.53886
541.738	15223.79485
541.944	14974.93205
542.15	15389.70388
542.356	15227.8414
542.562	15517.17233
542.768	15745.81306
542.974	15654.76016
543.18	15452.42619
543.386	15899.59609
543.592	15717.48529
543.798	15685.11092
544.004	15818.65684
544.21	15559.66233
544.415	15668.92383
544.621	15828.77414
544.827	15723.55551
545.033	15768.07074
545.239	15818.65684
545.445	16280.04061
545.651	16110.048
545.856	16049.33913
546.062	16021.00878
546.268	15830.79761
546.474	15652.73679
546.679	15703.32147
546.885	15585.96582
547.091	15962.32537
547.297	15711.41508
547.502	15992.67871
547.708	15946.13705
547.914	16033.15032
548.119	16721.2753
548.325	16253.73143
548.531	16045.29192
548.736	16383.25651
548.942	16037.19751
549.147	16209.2089
549.353	16275.99302
549.559	16431.83044
549.764	16176.8294
549.97	16233.49381
550.175	16328.61219
550.381	16814.3934
550.586	16363.01771
550.792	16755.68791
550.997	16551.24633
551.203	16860.9544
551.408	16925.73717
551.614	16921.68817
551.819	16763.7851
552.025	16887.27208
552.23	16747.59076
552.435	16662.573
552.641	17543.3416
552.846	17055.31077
553.052	17120.10175
553.257	17393.47118
553.462	17328.66761
553.668	17397.52151
553.873	17132.25038
554.078	17352.96858
554.283	17357.01879
554.489	17294.24197
554.694	17302.34204
554.899	17273.992
555.105	17176.79622
555.31	17598.02838
555.515	17733.74293
555.72	17492.70777
555.925	17126.17605
556.131	17391.44602
556.336	17300.31702
556.541	17575.7483
556.746	17640.56418
556.951	17494.73309
557.156	17468.40424
557.361	17630.43648
557.567	17563.59569
557.772	17887.70608
557.977	17845.16165
558.182	18118.68862
558.387	18128.8205
558.592	17887.70608
558.797	17837.05812
559.002	17737.79434
559.207	18035.61062
559.412	18161.24312
559.617	17879.60226
559.822	17995.08695
560.027	17922.14793
560.232	18025.47957
560.437	17859.34296
560.642	18333.50412
560.847	18262.56987
561.051	18173.40184
561.256	17873.52443
561.461	18124.76773
561.666	18355.79868
561.871	18256.49001
562.076	18376.06687
562.281	18485.52162
562.485	18270.67641
562.69	18477.41348
562.895	18228.11774
563.1	18337.55764
563.305	18183.53421
563.509	18341.61118
563.714	18556.47048
563.919	18367.95955
564.123	18641.61537
564.328	18607.15113
564.533	18481.46754
564.737	18290.94302
564.942	18299.04977
565.147	18303.10317
565.351	18674.05332
565.556	18791.64936
565.761	18888.9803
565.965	18882.89685
566.17	18698.38245
566.374	18888.9803
566.579	18832.2028
566.784	18734.8772
566.988	18897.09163
567.193	18943.73301
567.397	18805.84288
567.602	19114.09358
567.806	18844.36914
568.011	19039.05028
568.215	19179.0004
568.42	19053.24724
568.624	18882.89685
568.828	19024.85353
569.033	18724.73964
569.237	19365.63089
569.442	19304.76929
569.646	19400.12079
569.85	19657.81858
570.055	19152.6315
570.259	19408.23623
570.463	19625.34902
570.668	18903.17517
570.872	19402.14964
571.076	19268.25411
571.281	19418.38062
571.485	19341.28581
571.689	19732.90856
571.893	19690.28922
572.098	19820.1825
572.302	19534.03409
572.506	19529.97584
572.71	19653.75983
572.914	19609.11463
573.119	19643.61302
573.323	19542.15063
573.527	19820.1825
573.731	19787.70757
573.935	19627.37833
574.139	19870.92674
574.343	19665.93614
574.547	20238.39335
574.751	19824.24195
574.955	19801.91522
575.159	19812.06367
575.364	19615.2025
575.568	19897.31477
575.772	19925.73345
575.976	19978.51319
576.18	19944.00304
576.383	20027.23547
576.587	20447.56567
576.791	19848.59895
576.995	20571.46539
577.199	20029.26562
577.403	20189.66058
577.607	20354.14341
577.811	20376.48271
578.015	20293.22063
578.219	20276.97519
578.422	20065.809
578.626	20116.56595
578.83	20110.47497
579.034	20270.88322
579.238	20289.15924
579.442	20183.56915
579.645	20216.0572
579.849	20392.72979
580.053	20744.13843
580.257	20553.18412
580.46	20608.02893
580.664	20963.57798
580.868	20362.26673
581.071	20589.74699
581.275	20603.96625
581.479	20805.08902
581.682	20654.75098
581.886	20920.90541
582.09	20837.59753
582.293	21113.96242
582.497	20882.29846
582.7	20835.56572
582.904	20817.27959
583.107	21170.87047
583.311	20896.5219
583.515	21004.22021
583.718	20727.88557
583.922	21038.7674
584.125	21057.05757
584.329	21199.32569
584.532	21311.12173
584.735	21313.1545
584.939	20685.22307
585.142	21459.52436
585.346	21164.77303
585.549	21357.87642
585.753	21294.85973
585.956	21276.56529
586.159	21319.25283
586.363	21424.96294
586.566	21815.37
586.769	21721.82182
586.973	21607.94821
587.176	21390.40268
587.379	21416.83101
587.582	21565.24878
587.786	21827.57255
587.989	21988.25223
588.192	21518.48473
588.395	21823.50502
588.599	21508.31891
588.802	21731.9897
589.005	21451.39216
589.208	22026.90026
589.411	21734.02329
589.615	21591.68155
589.818	21965.87768
590.021	21754.35939
590.224	21915.02815
590.427	22301.54369
590.63	22189.64373
590.833	22478.5717
591.036	22150.98999
591.239	22183.54042
591.442	21982.15004
591.645	22234.40238
591.848	22132.68079
592.051	22183.54042
592.254	22067.58388
592.457	22364.61948
592.66	22014.69547
592.863	22301.54369
593.066	22199.81599
593.269	22669.87387
593.472	22366.65424
593.675	22657.66216
593.878	22637.30959
594.081	22517.23662
594.284	22254.74781
594.486	22531.48192
594.689	22307.64765
594.892	22450.08258
595.095	22535.55204
595.298	22248.64414
595.5	22387.00206
595.703	22836.77981
595.906	22883.59905
596.109	23146.22692
596.311	22806.2465
596.514	22702.43905
596.717	22889.70604
596.92	22773.67848
597.122	22623.063
597.325	22594.57034
597.528	22454.15241
597.73	23095.32572
597.933	22665.80329
598.136	22956.88494
598.338	23054.60625
598.541	23351.8884
598.743	23384.47143
598.946	23097.36173
599.148	23158.44351
599.351	23217.49202
599.554	23368.17982
599.756	23087.18172
599.959	23484.26196
600.161	22877.49209
600.363	23683.86519
600.566	23506.66494
600.768	23221.56444
600.971	23351.8884
601.173	23366.14338
601.376	24099.45678
601.578	23516.84823
601.78	23512.77491
601.983	23716.45623
602.185	23417.05527
602.388	23455.74961
602.59	23889.60878
602.792	23793.86299
602.995	23804.04841
603.197	23624.79589
603.399	23863.12526
603.601	23667.56996
603.804	23563.69239
604.006	23388.54437
604.208	23270.43439
604.41	23694.04981
604.613	23863.12526
604.815	23954.80106
605.017	24005.73455
605.219	23612.57497
605.421	23671.64375
605.623	23952.76376
605.826	24203.37304
606.028	24068.89453
606.23	24032.22067
606.432	23683.86519
606.634	24148.35766
606.836	23883.49716
607.038	24297.10749
607.24	24276.72995
607.442	23822.38234
607.644	23960.91298
607.846	24639.48905
608.048	24185.03436
608.25	24107.60681
608.452	24217.63661
608.654	24329.7121
608.856	23694.04981
609.058	23492.40845
609.26	23653.31179
609.462	24132.05719
609.664	24038.33292
609.866	23934.42816
610.067	23875.34837
610.269	24335.82555
610.471	23852.93942
610.673	24233.938
610.875	24111.68185
611.077	23928.31634
611.278	23683.86519
611.48	24162.62072
611.682	23946.65186
611.884	24419.37827
612.085	23952.76376
612.287	24095.38177
612.489	24042.40776
612.69	24160.58313
612.892	24091.30678
613.094	24168.73349
613.295	23987.39829
613.497	24350.09033
613.699	24411.22659
613.9	24710.82752
614.102	24747.51704
614.304	24454.02336
614.505	24083.15684
614.707	24741.40207
614.908	24134.09474
615.11	24282.84319
615.311	24024.07104
615.513	23952.76376
615.714	24380.65817
615.916	24262.46584
616.117	24178.92151
616.319	24211.52364
616.52	24411.22659
616.722	24415.30242
616.923	24443.83355
617.124	24627.25991
617.326	24091.30678
617.527	24103.53179
617.729	24148.35766
617.93	24042.40776
618.131	24058.70726
618.333	24103.53179
618.534	24352.12817
618.735	24215.59895
618.937	24197.26012
619.138	24303.2208
619.339	24398.99915
619.54	24362.31739
619.742	23899.79488
619.943	23938.50271
620.144	24058.70726
620.345	24370.46882
620.546	24409.18868
620.748	24380.65817
620.949	24197.26012
621.15	24258.3904
621.351	24262.46584
621.552	24608.91635
621.753	24396.96125
621.954	24792.36085
622.155	24384.73392
622.356	24270.61674
622.558	24460.13728
622.759	24729.17218
622.96	24513.12554
623.161	24539.62031
623.362	24260.42812
623.563	24969.70899
623.764	24488.6692
623.965	24598.72558
624.166	24462.17526
624.366	24527.3919
624.567	24368.43096
624.768	24433.6438
624.969	24201.3354
625.17	24498.8593
625.371	24140.2074
625.572	24415.30242
625.773	24350.09033
625.973	24688.40654
626.174	24350.09033
626.375	24543.69647
626.576	24831.09053
626.777	24290.9942
626.977	24013.88408
627.178	24260.42812
627.379	24307.29636
627.58	24706.75096
627.78	24470.3272
627.981	24517.20163
628.182	24806.62958
628.382	24949.32325
628.583	24800.5144
628.784	24692.48306
628.984	24657.83294
629.185	24996.2108
629.386	24256.35268
629.586	24957.47752
629.787	24922.82213
629.987	25283.67786
630.188	24672.10055
630.388	24892.2444
630.589	24390.84758
630.79	24865.74413
630.99	24670.06231
631.191	24880.01346
631.391	24716.94239
631.591	24596.68743
631.792	25361.15865
631.992	25071.64114
632.193	24712.86581
632.393	24445.87151
632.594	24663.94762
632.794	24494.78325
632.994	24608.91635
633.195	24847.39802
633.395	24509.04946
633.595	24737.32543
633.796	25036.98357
633.996	25147.07455
634.196	25014.55843
634.397	25230.66647
634.597	24855.55182
634.797	25051.25425
634.997	24845.35958
635.198	25130.76437
635.398	25263.28869
635.598	25295.91147
635.798	24841.28269
635.998	24979.90195
636.199	24804.59118
636.399	25353.00264
636.599	25087.95081
636.799	25228.62759
636.999	25153.19091
637.199	25442.72066
637.399	25614.01152
637.599	25544.67779
637.799	25214.35556
637.999	25481.46377
638.199	24998.24942
638.399	25505.93348
638.599	25410.09546
638.799	25444.75975
638.999	25693.54419
639.199	25620.12931
639.399	25459.03346
639.599	25520.20762
639.799	25432.52523
639.999	25157.26849
640.199	25426.40799
640.399	25426.40799
640.599	24482.55518
640.799	25479.42464
640.998	24910.59097
641.198	25477.38551
641.398	25167.46248
641.598	25501.85518
641.798	25518.16845
641.997	25289.79465
642.197	25387.66594
642.397	25693.54419
642.597	25779.19805
642.796	25779.19805
642.996	25281.63894
643.196	25483.5029
643.395	25189.88946
643.595	25424.36892
643.795	25430.48615
643.994	25744.52823
644.194	25499.81603
644.394	25766.96158
644.593	25866.89476
644.793	25679.26888
644.992	25681.3082
645.192	25762.88277
645.392	25654.79713
645.591	25542.6386
645.791	26050.45702
645.99	26315.62765
646.19	25940.3179
646.389	25595.65825
646.589	25799.59233
646.788	25461.07257
646.987	25664.99366
647.187	25830.18409
647.386	25664.99366
647.586	25644.60065
647.785	25766.96158
647.984	26023.94156
648.184	25766.96158
648.383	26142.24356
648.582	25840.38144
648.782	25518.16845
648.981	25620.12931
649.18	25536.52103
649.38	25773.07981
649.579	25497.77688
649.778	25640.52208
649.977	25873.01326
650.177	25742.48884
650.376	25726.17383
650.575	25616.05078
650.774	26025.9812
650.973	26044.33804
651.173	26087.17121
651.372	25854.6578
651.571	25652.75783
651.77	25842.42091
651.969	25887.28984
652.168	25616.05078
652.367	25695.58353
652.566	25605.85449
652.765	25671.1116
652.964	25560.9914
653.163	25332.61274
653.362	25921.96189
653.561	25881.17129
653.76	26234.03362
653.959	25642.56137
654.158	25977.03035
654.357	25974.99076
654.556	25689.46552
654.755	26270.7506
654.954	26509.424
655.153	26221.79474
655.352	25974.99076
655.551	25728.2132
655.749	26105.52852
655.948	26111.64765
656.147	26348.26601
656.346	26354.38575
656.545	26570.62583
656.743	26368.6652
656.942	26354.38575
657.141	26464.54355
657.34	26244.23273
657.538	26238.11326
657.737	26201.39676
657.936	26535.94462
658.135	26315.62765
658.333	26301.3485
658.532	26274.8303
658.731	26484.94366
658.929	25995.3868
659.128	25801.63176
659.326	26076.97276
659.525	26623.66855
659.724	26366.62527
659.922	26176.9194
660.121	26134.08462
660.319	25928.08054
660.518	26066.77436
660.716	25970.91157
660.915	26227.91417
661.113	26499.22383
661.312	26123.88597
661.51	26364.58535
661.709	26525.74435
661.907	26707.31494
662.105	26405.38415
662.304	26676.71231
662.502	26111.64765
662.701	26570.62583
662.899	26134.08462
663.097	26307.46813
663.296	26056.57601
663.494	26354.38575
663.692	26266.67091
663.891	26109.60794
664.089	26293.18903
664.287	26144.28331
664.485	26333.98668
664.684	25972.95116
664.882	26291.14916
665.08	26566.54567
665.278	26425.78379
665.476	26491.06372
665.675	26517.58416
665.873	26586.94656
666.071	26115.72709
666.269	26503.30389
666.467	26176.9194
666.665	26503.30389
666.863	26525.74435
667.061	26586.94656
667.259	26568.58575
667.457	26707.31494
667.655	26678.75247
667.853	26315.62765
668.051	25795.51346
668.249	26278.91001
668.447	25995.3868
668.645	26105.52852
668.843	26542.0648
669.041	26384.98467
669.239	26040.25873
669.437	26270.7506
669.635	26189.15805
669.833	26044.33804
670.031	26140.20383
670.229	26395.18439
670.426	26215.67533
670.624	26007.62451
670.822	26023.94156
671.02	26262.59122
671.218	26427.82376
671.415	26350.30592
671.613	25734.33132
671.811	26070.85372
672.009	26193.23761
672.206	25938.27833
672.404	26148.36279
672.602	25879.13178
672.799	26170.8001
672.997	26166.72057
673.195	26178.95917
673.392	26072.8934
673.59	25691.50485
673.788	25669.07228
673.985	25662.95435
674.183	25860.77627
674.38	26125.9257
674.578	25866.89476
674.775	25487.58117
674.973	25497.77688
675.17	25524.28596
675.368	25275.52217
675.565	25520.20762
675.763	26107.56823
675.96	25695.58353
676.158	25707.8196
676.355	25652.75783
676.553	26127.96542
676.75	25673.15091
676.947	25948.47617
677.145	26009.66414
677.342	25730.25257
677.539	25291.83359
677.737	25889.32935
677.934	25448.83794
678.131	25934.19921
678.329	25412.13452
678.526	25624.20785
678.723	25493.69859
678.92	25744.52823
679.118	25324.45684
679.315	25754.72518
679.512	25630.32567
679.709	25817.94733
679.906	25620.12931
680.104	25679.26888
680.301	25905.64556
680.498	25930.1201
680.695	25542.6386
680.892	25583.42282
681.089	25436.60339
681.286	25760.84337
681.483	24965.63182
681.68	25526.32513
681.877	25208.23901
682.075	25497.77688
682.272	25493.69859
682.469	25779.19805
682.665	25452.91614
682.862	25244.93862
683.059	25589.54053
683.256	25454.95525
683.453	25073.67984
683.65	25365.23668
683.847	25112.41558
684.044	25083.87338
684.241	24827.01368
684.438	25177.65653
684.635	24429.56792
684.831	24963.59324
685.028	24802.55279
685.225	24979.90195
685.422	24694.52132
685.619	24898.3599
685.815	24608.91635
686.012	25134.8419
686.209	25069.60244
686.405	24961.55466
686.602	25214.35556
686.799	24808.66798
686.996	25002.32666
687.192	25183.77299
687.389	25057.3703
687.586	25020.67435
687.782	24882.05194
687.979	24816.8216
688.175	24692.48306
688.372	24735.28711
688.568	24769.9388
688.765	24403.07495
688.962	24299.14526
689.158	24855.55182
689.355	24623.18354
689.551	24484.59318
689.748	24643.56546
689.944	24409.18868
690.14	24392.88546
690.337	24409.18868
690.533	24798.47601
690.73	24295.06973
690.926	24814.78319
691.123	24001.65981
691.319	24513.12554
691.515	24502.93535
691.712	24213.56129
691.908	24543.69647
692.104	24217.63661
692.301	24570.19174
692.497	24109.64433
692.693	24631.33628
692.889	24178.92151
693.086	24225.78728
693.282	24390.84758
693.478	24680.25352
693.674	24500.89732
693.87	24441.7956
694.067	24572.22985
694.263	24264.50356
694.459	24144.28253
694.655	24580.38234
694.851	24771.97716
695.047	24494.78325
695.243	24560.0012
695.439	24566.11551
695.635	24215.59895
695.831	24254.31497
696.027	24062.78216
696.224	24272.65448
696.42	24354.16601
696.615	24727.13388
696.811	24339.90119
697.007	23926.27908
697.203	23618.68541
697.399	23755.15908
697.595	23582.02315
697.791	23751.08504
697.987	23219.52823
698.183	24072.96946
698.379	23645.16433
698.575	24003.69718
698.77	23757.1961
698.966	24028.14585
699.162	24032.22067
699.358	23584.05992
699.554	23565.72913
699.749	23522.95825
699.945	24005.73455
700.141	23598.31737
700.337	23402.79974
700.532	23360.03408
700.728	23231.74552
700.924	23602.39095
701.119	23121.79409
701.315	23286.72478
701.511	23223.60065
701.706	23871.27399
701.902	23219.52823
702.097	23824.41946
702.293	23455.74961
702.489	23553.50874
702.684	23842.75366
702.88	23557.58219
703.075	23514.81157
703.271	23549.4353
703.466	23663.49618
703.662	23657.38553
703.857	24085.19432
704.053	23926.27908
704.248	23353.92482
704.443	24072.96946
704.639	23195.09399
704.834	23298.94271
705.03	23482.22534
705.225	23620.72224
705.42	23347.81558
705.616	23575.91287
705.811	23195.09399
706.006	23408.90923
706.202	22853.06455
706.397	22840.85097
706.592	23156.4074
706.787	22942.63456
706.983	23227.67308
707.178	23040.35474
707.373	22826.60195
707.568	22791.99788
707.763	22954.84916
707.959	23480.18873
708.154	23052.57031
708.349	22930.42008
708.544	22828.63751
708.739	22763.50116
708.934	22720.75735
709.129	22981.31454
709.324	22616.95737
709.519	23072.92985
709.714	23201.20251
709.909	23201.20251
710.104	23077.00179
710.299	22958.92072
710.494	22924.31289
710.689	23225.63686
710.884	23154.3713
711.079	23303.01538
711.274	22840.85097
711.469	22962.9923
711.664	22753.32393
711.859	23111.61388
712.054	22781.8204
712.249	22761.46571
712.443	22779.78492
712.638	22787.92688
712.833	22857.13578
713.028	23195.09399
713.223	22739.07594
713.417	22629.16866
713.612	22977.24291
713.807	22855.10016
714.002	22537.5871
714.196	22975.2071
714.391	22588.46486
714.586	22578.28913
714.78	22419.55931
714.975	22564.04326
715.17	22478.5717
715.364	22635.27435
715.559	22934.49156
715.754	22397.1761
715.948	22448.04767
716.143	22582.35941
716.337	22614.92217
716.532	22975.2071
716.726	22881.56339
716.921	22938.56306
717.115	22576.254
717.31	22350.37625
717.504	22051.31025
717.699	22680.05039
717.893	22484.6766
718.088	22535.55204
718.282	22413.45476
718.476	22741.11136
718.671	22230.33333
718.865	22576.254
719.059	21969.94575
719.254	22232.36785
719.448	21717.75469
719.642	21854.01186
719.837	21555.0825
720.031	21862.14717
720.225	21664.88348
720.419	22283.23203
720.614	22063.51545
720.808	21978.08192
721.002	21925.19786
721.196	21703.51988
721.39	21479.85515
721.585	21971.97979
721.779	21756.39302
721.973	21882.4857
722.167	21701.48635
722.361	21784.86426
722.555	22165.23069
722.749	22179.47156
722.943	22114.3719
723.137	21740.12408
723.331	21309.08897
723.525	21457.49131
723.719	21382.27102
723.913	21553.04926
724.107	21337.54804
724.301	21516.45156
724.495	21254.20586
724.689	21553.04926
724.883	21555.0825
725.077	21679.11778
725.271	21758.42665
725.465	21510.35207
725.659	21835.70765
725.853	22035.03687
726.046	21481.88825
726.24	21929.26578
726.434	21244.04264
726.628	21638.44886
726.822	21150.5458
727.015	21536.78346
727.209	20855.88403
727.403	21154.6107
727.596	21225.74911
727.79	21217.61875
727.984	21294.85973
728.177	21426.99594
728.371	21122.09195
728.565	21120.05956
728.758	21370.07365
728.952	21424.96294
729.146	21067.21891
729.339	20912.77751
729.533	20809.15253
729.726	21105.83296
729.92	21408.69914
730.113	21538.81667
730.307	21416.83101
730.5	21302.9907
730.694	21154.6107
730.887	21492.05381
731.081	21113.96242
731.274	21335.51522
731.468	20912.77751
731.661	21140.38362
731.854	20831.5021
732.048	20821.34314
732.241	20977.80258
732.435	20892.45804
732.628	21042.83185
732.821	21225.74911
733.014	21164.77303
733.208	21266.40185
733.401	20985.93101
733.594	20922.9374
733.788	20878.23465
733.981	20882.29846
734.174	21046.89632
734.367	20687.25458
734.56	20827.43851
734.754	20803.05728
734.947	20870.1071
735.14	21262.3365
735.333	20453.65874
735.526	21034.70296
735.719	20719.75923
735.912	20920.90541
736.105	20861.97961
736.298	20898.55383
736.491	20471.93816
736.684	20276.97519
736.877	20809.15253
737.07	20538.9656
737.263	20640.53099
737.456	20425.22476
737.649	21160.70808
737.842	21107.86532
738.035	20989.99525
738.228	20945.28952
738.421	20559.27784
738.614	20772.58157
738.807	20750.23332
739	20770.54989
739.192	20593.80962
739.385	21008.28453
739.578	20614.12299
739.771	20561.30909
739.964	19842.50964
740.156	20317.58929
740.349	20039.41642
740.542	20374.45184
740.735	20023.17519
740.927	20159.20382
741.12	20234.3322
741.313	20315.55854
741.505	20461.78288
741.698	20179.50822
741.891	20502.40461
742.083	20386.6371
742.276	20333.83539
742.468	20305.40488
742.661	20421.16283
742.854	20053.62772
743.046	19962.27297
743.239	19812.06367
743.431	20199.81304
743.624	19765.38168
743.816	20149.05178
744.009	20547.09045
744.201	20134.83909
744.393	20004.90413
744.586	20006.93423
744.778	20047.53714
744.971	19682.17146
745.163	19785.67793
745.355	20035.35609
745.548	19982.57329
745.74	20272.91387
745.932	20396.7916
746.125	19925.73345
746.317	19976.48315
746.509	19609.11463
746.702	19828.3014
746.894	19542.15063
747.086	19759.29289
747.278	19820.1825
747.471	19966.333
747.663	20207.93508
747.855	20341.95855
748.047	20053.62772
748.239	20151.08218
748.431	20000.84394
748.623	19911.52401
748.815	19889.1953
749.008	19734.9381
749.2	19663.90675
749.392	19450.84339
749.584	19383.8901
749.776	19812.06367
749.968	19712.61341
750.16	19901.37453
750.352	19396.06309
750.544	19499.53954
750.736	19702.46599
750.928	19619.26109
751.12	19375.77485
751.311	19552.2964
751.503	19738.99719
751.695	19909.49411
751.887	20010.99444
752.079	19793.79654
752.271	19495.48143
752.463	19523.88851
752.654	19325.05608
752.846	19406.20736
753.038	19126.26329
753.23	19136.40483
753.421	19105.98053
753.613	19280.42569
753.805	19521.8594
753.997	19205.36998
754.188	19274.33988
754.38	19420.40952
754.572	19247.96848
754.763	19493.45239
754.955	19284.48292
755.146	19268.25411
755.338	19252.02557
755.53	19471.13316
755.721	19187.11404
755.913	19327.08478
756.104	19361.57334
756.296	19402.14964
756.487	18945.76094
756.679	18860.59116
756.87	18509.84641
757.062	18331.47736
757.253	18801.78757
757.445	18649.72476
757.636	18982.26445
757.827	19049.19094
758.019	19089.75461
758.21	18927.50968
758.401	18913.31448
758.593	18947.78888
758.784	19039.05028
758.975	18722.71214
759.167	19282.4543
759.358	19434.61188
759.549	19065.41621
759.74	19118.15014
759.932	18633.50603
760.123	18341.61118
760.314	18749.06995
760.505	18672.02592
760.696	18542.28033
760.888	18522.00902
761.079	18363.90591
761.27	18621.34215
761.461	18143.00528
761.652	18068.03058
761.843	17845.16165
762.034	18183.53421
762.225	17909.99187
762.416	18238.25061
762.607	17922.14793
762.798	17914.04387
762.989	17956.59079
763.18	17820.85123
763.371	17802.61874
763.562	18110.58318
763.753	17794.5155
763.944	18035.61062
764.135	17804.64456
764.326	17808.69621
764.517	17914.04387
764.708	18355.79868
764.899	17756.02585
765.089	18118.68862
765.28	18325.39711
765.471	18066.00431
765.662	17674.99899
765.853	17814.77371
766.043	17377.26999
766.234	17642.58973
766.425	17225.39327
766.615	17466.37896
766.806	17626.38542
766.997	17589.92649
767.187	17423.84893
767.378	17899.86191
767.569	17348.91839
767.759	17221.34345
767.95	17492.70777
768.141	17470.42951
768.331	17624.3599
768.522	17197.04479
768.712	17365.11923
768.903	17112.00272
769.093	16881.19873
769.284	16682.81495
769.474	16893.34546
769.665	16852.85674
769.855	17069.48356
770.046	17114.02748
770.236	17022.91634
770.426	17047.2121
770.617	17087.70591
770.807	16856.90557
770.998	16577.5593
771.188	16630.18636
771.378	16603.87264
771.569	16692.93601
771.759	16223.37507
771.949	16253.73143
772.139	16537.07796
772.33	16761.7608
772.52	16601.84853
772.71	16713.17831
772.9	16409.56725
773.09	16377.18485
773.281	16577.5593
773.471	16925.73717
773.661	16686.86337
773.851	16427.78257
774.041	16247.66013
774.231	16371.11321
774.421	16209.2089
774.611	16470.28561
774.802	16053.38634
774.992	16352.89838
775.182	16328.61219
775.372	16314.44537
775.562	16520.88566
775.752	16433.85438
775.942	15804.49266
776.131	15909.71363
776.321	15709.39167
776.511	15958.27828
776.701	15820.6803
776.891	15707.36827
777.081	15614.29279
777.271	15650.71341
777.461	15911.73714
777.651	15668.92383
777.84	15401.84365
778.03	15755.93017
778.22	15697.25128
778.41	15903.6431
778.599	15810.56302
778.789	15614.29279
778.979	15733.67256
779.169	15865.19667
779.358	15567.7557
779.548	15889.47858
779.738	15757.9536
779.927	15416.00673
780.117	15517.17233
780.307	15260.21377
780.496	15626.43297
780.686	15545.49896
780.875	15513.12568
781.065	15553.59231
781.254	15743.78964
781.444	15559.66233
781.633	15581.91912
781.823	15399.82035
782.012	15488.84582
782.202	15509.07903
782.391	15399.82035
782.581	15509.07903
782.77	15543.47563
782.96	15258.1905
783.149	14954.69916
783.338	15298.65603
783.528	15146.91056
783.717	15011.35116
783.906	14894.00023
784.096	14849.48739
784.285	14841.39411
784.474	14817.11423
784.663	14732.13383
784.853	14643.10514
785.042	14645.12854
785.231	14736.18055
785.42	14446.82977
785.61	14392.19416
785.799	14724.04039
785.988	14809.02092
786.177	14632.98812
786.366	14827.23086
786.555	15007.3046
786.744	15007.3046
786.933	14732.13383
787.122	14815.0909
787.312	14934.46622
787.501	14562.16824
787.69	14424.57095
787.879	14365.88773
788.068	14183.75816
788.257	14076.49657
788.445	14311.25039
788.634	14452.90033
788.823	14262.6828
789.012	14238.39861
789.201	14076.49657
789.39	14230.30382
789.579	14001.61208
789.768	14189.82939
789.957	14246.49337
790.145	14222.209
790.334	13849.80859
790.523	13621.06064
790.712	13768.84036
790.9	13955.06057
791.089	13803.25243
791.278	13902.43549
791.467	13793.13132
791.655	13904.45957
791.844	13809.32506
792.033	14013.75573
792.221	13657.50107
792.41	13823.49442
792.599	13226.21245
792.787	13791.10709
792.976	13809.32506
793.164	14282.91942
793.353	13866.00168
793.541	14001.61208
793.73	13918.62802
793.918	14228.28012
794.107	13629.1586
794.295	13780.98589
794.484	13724.30579
794.672	13517.80666
794.861	13434.79171
795.049	13681.7941
795.238	13337.59518
795.426	13617.01163
795.614	13214.06082
795.803	13436.81654
795.991	13400.36899
796.179	13333.54512
796.368	13422.64264
796.556	13374.04496
796.744	13035.81782
796.932	13295.06875
797.121	13039.86921
797.309	13558.29951
797.497	13517.80666
797.685	13315.31966
797.874	13212.03553
798.062	13201.90902
798.25	12810.93364
798.438	13374.04496
798.626	13608.91358
798.814	13331.52009
799.002	13137.0967
799.19	13266.71676
799.378	12930.47471
799.566	13047.97192
799.755	13027.71499
799.943	12853.48431
800.131	12942.63039
800.318	13092.53547
800.506	12928.44874
800.694	13100.63768
800.882	12709.61257
801.07	13033.79212
801.258	12970.99292
801.446	12829.16994
801.634	12608.27688
801.822	12740.01039
802.01	12569.76534
802.197	13043.92058
802.385	12352.84129
802.573	12701.50626
802.761	12861.58893
802.949	12804.85478
803.136	12950.73407
803.324	12970.99292
803.512	13242.41439
803.699	13171.52883
803.887	13155.32564
804.075	12906.16278
804.262	12689.34662
804.45	12859.56278
804.638	12760.27489
804.825	12956.81178
805.013	12606.25001
805.201	13066.20275
805.388	12746.0898
805.576	13104.68875
805.763	13084.43318
805.951	12900.08468
806.138	12940.60445
806.326	13161.40187
806.513	13007.45756
806.701	13062.15149
806.888	12881.85009
807.075	13100.63768
807.263	12539.3599
807.45	12697.45307
807.638	12960.86356
807.825	12997.32866
808.012	12685.29336
808.2	12910.21482
808.387	13007.45756
808.574	12977.07047
808.761	13064.17712
808.949	13098.61213
809.136	13110.76534
809.323	13252.54045
809.51	12861.58893
809.698	13321.39485
809.885	13019.61208
810.072	13305.19426
810.259	12950.73407
810.446	13199.88371
810.633	13365.94512
810.82	13171.52883
811.008	13272.79226
811.195	13321.39485
811.382	12991.25125
811.569	13108.73981
811.756	13124.94386
811.943	13507.68322
812.13	13015.56059
812.317	13193.80774
812.504	13145.19849
812.691	13108.73981
812.878	12989.22544
813.064	13181.65567
813.251	12766.35412
813.438	13216.0861
813.625	12567.73835
813.812	12987.19963
813.999	13295.06875
814.186	13278.86772
814.372	13031.76642
814.559	13416.56806
814.746	12681.24008
814.933	13003.40601
815.12	12742.03687
815.306	12829.16994
815.493	12634.6256
815.68	13149.24936
815.866	12794.72322
816.053	13207.98494
816.24	12845.37961
816.426	12855.51048
816.613	12746.0898
816.799	12790.67056
816.986	12699.47967
817.173	12573.81929
817.359	12679.21343
817.546	12660.9733
817.732	12557.60333
817.919	13076.33081
818.105	12707.586
818.292	12808.90736
818.478	12541.38697
818.665	12442.05282
818.851	12456.24437
819.037	12569.76534
819.224	12683.26672
819.41	12539.3599
819.597	12541.38697
819.783	12510.9802
819.969	12334.59185
820.156	12429.88838
820.342	12454.21703
820.528	12810.93364
820.714	12920.34483
820.901	12760.27489
821.087	12421.77862
821.273	12654.89316
821.459	12397.44869
821.646	12399.47622
821.832	12634.6256
822.018	12610.30374
822.204	12170.32111
822.39	12727.85142
822.576	12650.83969
822.762	12423.80607
822.948	12464.35368
823.134	12158.151
823.32	12178.43436
823.507	12399.47622
823.693	11953.24625
823.879	12148.00905
824.065	12030.34846
824.25	12216.9707
824.436	12093.23923
824.622	12245.36421
824.808	12162.20773
824.994	12143.95221
825.18	11685.32458
825.366	12241.30808
825.552	11827.42268
825.738	11752.319
825.923	11648.77809
826.109	11955.2754
826.295	11685.32458
826.481	11963.39194
826.667	11774.64835
826.852	11863.95539
827.038	11902.51476
827.224	12109.4679
827.409	11583.79931
827.595	11750.289
827.781	11729.98859
827.966	11880.19128
828.152	11642.68673
828.338	11614.25928
828.523	11321.75551
828.709	11405.05825
828.894	11352.23407
829.08	11508.65579
829.266	11228.27373
829.451	11660.96058
829.637	11228.27373
829.822	11457.87582
830.008	11171.36107
830.193	11506.6247
830.378	11362.39308
830.564	11386.77371
830.749	11209.98127
830.935	11403.02668
831.12	11417.24751
831.305	11551.30638
831.491	11409.12138
831.676	11333.94721
831.861	11153.06597
832.047	11490.37569
832.232	11344.10667
832.417	11500.53139
832.602	11114.44014
832.788	11075.81044
832.973	11083.94333
833.158	11108.34097
833.343	10687.25485
833.528	10872.43053
833.714	10795.11631
833.899	11102.24171
834.084	10648.57929
834.269	11090.04289
834.454	10772.73273
834.639	10843.9483
834.824	11020.90884
835.009	11429.43641
835.194	11004.64016
835.379	11236.40344
835.564	10719.82035
835.749	11380.67869
835.934	11175.42654
836.119	10793.0815
836.304	10666.89984
836.489	10923.28605
836.674	10705.57332
836.859	11248.5977
837.044	10839.87923
837.228	11031.07641
837.413	10778.83748
837.598	10817.49848
837.783	10756.45285
837.968	11059.54413
838.152	10479.5757
838.337	10764.59288
838.522	10269.72524
838.707	10591.57566
838.891	10312.52166
839.076	10361.42466
839.261	10167.80492
839.445	10442.9128
839.63	10302.33258
839.815	10391.98516
839.999	10365.49956
840.184	10465.3184
840.368	10169.84366
840.553	10369.57441
840.737	10277.8774
840.922	10677.0775
841.106	10106.63619
841.291	10098.47941
841.475	10200.42314
841.66	10304.37042
841.844	9935.296
842.029	10218.76935
842.213	9806.72353
842.397	10175.95981
842.582	10165.76616
842.766	9921.01306
842.951	9961.81957
843.135	10149.45561
843.319	9998.54046
843.504	9706.68163
843.688	9798.55821
843.872	9837.34136
844.056	9659.71055
844.241	9878.15993
844.425	9641.32834
844.609	9453.34823
844.793	9690.34479
844.977	9686.26043
845.161	9616.81676
845.346	9774.06079
845.53	9633.15806
845.714	9676.04924
845.898	9387.93209
846.082	9359.30728
846.266	9257.04938
846.45	9794.47545
846.634	9735.26875
846.818	9531.00846
847.002	9418.59798
847.186	9467.6558
847.37	9281.59506
847.554	9580.04517
847.738	9367.48612
847.922	9561.65747
848.106	9402.24329
848.29	9555.52795
848.473	9445.17212
848.657	9353.17297
848.841	9128.14469
849.025	9392.02109
849.209	8993.02862
849.392	9126.09804
849.576	8923.39361
849.76	9338.85901
849.944	9203.85877
850.127	9481.96259
850.311	9003.26734
850.495	9510.57379
850.678	9109.72421
850.862	9218.18044
851.046	8929.5387
851.229	8915.19991
851.413	8626.1871
851.596	8843.49284
851.78	8974.59781
851.964	8788.16089
852.147	8654.89972
852.331	8839.39463
852.514	8451.78137
852.698	8591.31685
852.881	8236.14752
853.065	8396.3531
853.248	8248.47526
853.431	8556.44119
853.615	8496.93481
853.798	8732.81567
853.982	8663.10266
854.165	8593.36819
854.348	8560.54449
854.532	8741.0158
854.715	8564.64772
854.898	8611.82942
855.081	8262.85673
855.265	8466.14937
855.448	8351.17893
855.631	8447.67605
855.814	8420.98962
855.997	8556.44119
856.181	8330.6421
856.364	8141.61115
856.547	8232.03812
856.73	8447.67605
856.913	8232.03812
857.096	8012.06865
857.279	7944.18093
857.462	7913.3155
857.645	7898.91005
857.828	7781.57075
858.011	7730.08477
858.194	7878.32908
858.377	7629.13407
858.56	7942.12337
858.743	7874.21263
858.926	7964.75531
859.109	7730.08477
859.292	7946.23846
859.475	7701.24689
859.658	8234.09283
859.841	7868.03782
860.023	8100.49522
860.206	7822.75012
860.389	7977.09896
860.572	7826.8676
860.755	7705.36684
860.937	7540.50264
861.12	7789.80729
861.303	7427.079
861.486	7752.74022
861.668	7464.20665
861.851	7583.79269
862.034	7371.37432
862.216	7668.28425
862.399	7237.2051
862.581	7583.79269
862.764	7406.44949
862.947	7577.60898
863.129	7363.12043
863.312	7592.03735
863.494	7210.36009
863.677	7433.26743
863.859	7276.43339
864.042	7251.65855
864.224	7053.34495
864.406	7259.91718
864.589	6939.63493
864.771	7148.39579
864.954	7156.65886
865.136	7383.75451
865.318	6997.53218
865.501	7111.20761
865.683	6947.90705
865.865	6900.33743
866.048	6995.46472
866.23	6898.26891
866.412	6709.93865
866.594	6858.96279
866.777	6827.92585
866.959	7102.94259
867.141	7028.5413
867.323	7049.21124
867.505	6908.61126
867.687	7059.54536
867.869	6970.65351
868.052	7080.21194
868.234	6697.51462
868.416	7127.73659
868.598	6956.17881
868.78	7063.67886
868.962	6834.13365
869.144	7208.29494
869.326	6848.61771
869.508	7007.86911
869.69	7030.60839
869.872	6941.70299
870.054	6490.32532
870.236	6610.52323
870.417	6341.00548
870.599	6728.57315
870.781	6243.46756
870.963	6697.51462
871.145	6353.45342
871.327	6361.75157
871.508	6322.33201
871.69	6224.78419
871.872	6262.14904
872.054	6511.05465
872.235	6440.56545
872.417	6378.34676
872.599	6201.94638
872.78	6446.78616
872.962	6174.95258
873.144	6473.74018
873.325	6382.49533
873.507	6421.90204
873.689	6266.30022
873.87	6593.94883
874.052	6573.22875
874.233	6552.50637
874.415	6415.68049
874.596	6581.51706
874.778	6266.30022
874.959	6372.12374
875.141	6133.41591
875.322	6461.30035
875.503	6118.87585
875.685	6322.33201
875.866	6145.8779
876.048	6367.97494
876.229	6046.15829
876.41	6029.53309
876.592	6282.90401
876.773	6361.75157
876.954	6270.45131
877.136	6405.31077
877.317	6442.63904
877.498	6328.55671
877.679	6127.1846
877.86	6361.75157
878.042	6141.72399
878.223	6415.68049
878.404	6365.90051
878.585	6287.05472
878.766	6222.70814
878.947	6473.74018
879.128	6218.55598
879.309	6523.49114
879.49	6415.68049
879.672	6484.10607
879.853	6316.1071
880.034	6457.15356
880.215	6417.75436
880.396	6419.82821
880.576	6388.718
880.757	6577.37295
880.938	6407.38476
881.119	6529.70907
881.3	6037.84588
881.481	6498.61733
881.662	6125.10745
881.843	6513.12746
882.023	6392.86633
882.204	6264.22464
882.385	6116.79861
882.566	6475.8134
882.747	6210.25137
882.927	6573.22875
883.108	6309.88197
883.289	6604.308
883.469	6444.71261
883.65	6722.36186
883.831	6567.01228
884.011	6722.36186
884.192	6627.09615
884.373	6467.52037
884.553	6179.10573
884.734	6689.23147
884.914	6473.74018
885.095	6745.13559
885.275	6409.45872
885.456	6438.49183
885.636	6527.63645
885.817	6606.37977
885.997	6318.18209
886.178	6703.72674
886.358	6332.70639
886.538	6556.65103
886.719	6127.1846
886.899	6542.14431
887.08	6224.78419
887.26	6618.80987
887.44	6125.10745
887.621	6513.12746
887.801	6365.90051
887.981	6633.31061
888.161	6459.22697
888.342	6722.36186
888.522	6278.7532
888.702	6351.37882
888.882	6548.36161
889.062	6508.98182
889.242	6461.30035
889.423	6745.13559
889.603	6649.88151
889.783	6751.34613
889.963	6341.00548
890.143	6631.23915
890.323	6399.08865
890.503	6455.08012
890.683	6482.03294
890.863	6525.56381
891.043	6237.23998
891.223	6573.22875
891.403	6440.56545
891.583	6513.12746
891.763	6237.23998
891.943	6556.65103
892.122	6272.52682
892.302	6347.22956
892.482	6430.19712
892.662	6270.45131
892.842	6204.02266
893.022	6498.61733
893.201	6243.46756
893.381	6531.78167
893.561	6158.33904
893.741	6351.37882
893.92	6150.0317
894.1	6249.69493
894.28	5917.27352
894.459	6145.8779
894.639	5979.64843
894.819	6104.33465
894.998	5958.85915
895.178	6154.18542
895.357	5963.0172
895.537	6033.68953
895.716	5677.97298
895.896	6002.51392
896.075	5807.02596
896.255	5873.59845
896.434	5690.46594
896.614	5933.90891
896.793	5838.23483
896.973	5960.93819
897.152	5650.90198
897.331	5954.70101
897.511	5609.2465
897.69	6048.23634
897.87	5675.89074
898.049	5484.2235
898.228	5417.50991
898.407	5688.38384
898.587	5455.03926
898.766	5730.02139
898.945	5677.97298
899.124	5754.99938
899.304	5331.99797
899.483	5596.74802
899.662	5507.15073
899.841	5584.24869
900.02	5417.50991
900.199	5561.33104
900.378	5336.1702
900.557	5515.4872
900.737	5248.53373
900.916	5290.27053
901.095	5213.0501
901.274	5119.09033
901.453	5152.50365
901.632	5217.22499
901.811	5200.52485
901.989	5258.96881
902.168	5202.61245
902.347	5263.14267
902.526	4924.75806
902.705	5008.36631
902.884	4933.12055
903.063	5066.87012
903.242	4709.29837
903.42	4901.75935
903.599	4696.7399
903.778	4851.57072
903.957	4483.12265
904.135	4690.46036
904.314	4453.78462
904.493	4805.55292
904.672	4617.18413
904.85	4665.34018
905.029	4355.26131
905.207	4464.26298
905.386	4564.82719
905.565	4485.21805
905.743	4164.36791
905.922	4262.98332
906.1	4078.30367
906.279	4390.90296
906.457	4279.76423
906.636	4384.61371
906.814	4120.29062
906.993	4053.10751
907.171	3969.09888
907.35	4023.70823
907.528	3798.88223
907.707	4025.80831
907.885	3882.95624
908.063	3721.08576
908.242	3550.68306
908.42	3784.16602
908.598	3580.1442
908.777	3815.69956
908.955	3531.74185
909.133	3676.91923
909.311	3679.02259
909.49	3779.96122
909.668	3615.91353
909.846	3603.28968
910.024	3413.85229
910.202	3645.36654
910.38	3346.46172
910.559	3704.26141
910.737	3401.21793
910.915	3735.80605
911.093	3508.58946
911.271	3763.14122
911.449	3567.51844
911.627	3832.51564
911.805	3596.9775
911.983	3882.95624
912.161	3956.49476
912.339	4082.50274
912.517	3763.14122
912.695	3895.5646
912.872	3683.22925
913.05	4107.69541
913.228	3596.9775
913.406	4095.09945
913.584	3779.96122
913.762	3977.50122
913.939	3876.65179
914.117	4147.57766
914.295	3941.78904
914.473	3969.09888
914.65	3662.19517
914.828	3767.34633
915.006	3434.90813
915.184	3695.84878
915.361	3481.22469
915.539	3950.19243
915.716	3782.06363
915.894	3763.14122
916.072	3687.43584
916.249	3800.98446
916.427	3443.32997
916.604	3700.05513
916.782	3517.00876
916.959	3628.5367
917.137	3447.54078
917.314	3544.36949
917.492	3245.34267
917.669	3506.48458
917.847	3544.36949
918.024	3432.80263
918.201	3356.99268
918.379	3272.73295
918.556	3213.73498
918.733	3466.48855
918.911	3047.20736
919.088	3289.58708
919.265	3102.02493
919.442	3348.56794
919.62	3087.2674
919.797	3388.58293
919.974	3158.93951
920.151	3295.90711
920.328	2905.89906
920.506	3239.02143
920.683	2998.70616
920.86	3203.19825
921.037	3002.92398
921.214	3232.70004
921.391	3061.96698
921.568	3114.67362
921.745	2994.48828
921.922	3266.41236
922.099	2912.22772
922.276	3306.44013
922.453	3026.12088
922.63	3158.93951
922.807	2931.21293
922.984	2952.3062
923.161	2853.15516
923.338	2924.88466
923.514	2570.30363
923.691	2882.69285
923.868	2806.73321
924.045	2910.11818
924.222	2737.08785
924.399	2751.86233
924.575	2599.86599
924.752	2663.20581
924.929	2416.12046
925.105	2580.86189
925.282	2445.69441
925.459	2568.19195
925.635	2306.25664
925.812	2585.08511
925.989	2422.45791
926.165	2549.18624
926.342	2445.69441
926.518	2557.63334
926.695	2521.73188
926.871	2589.30827
927.048	2310.48267
927.224	2544.96262
927.401	2139.29977
927.577	2293.57834
927.754	2118.16225
927.93	2261.8811
928.107	2215.38813
928.283	2382.31912
928.459	2105.47937
928.636	2206.9344
928.812	2012.46355
928.988	2116.04846
929.165	1946.9219
929.341	2232.29516
929.517	2025.14832
929.693	2244.97506
929.87	2050.51713
930.046	2056.85918
930.222	1792.56073
930.398	2151.9819
930.574	1904.63391
930.751	2137.18605
930.927	1898.29052
931.103	2097.02396
931.279	1801.01954
931.455	1961.72215
931.631	1631.83252
931.807	1902.51945
931.983	1665.6715
932.159	1834.85407
932.335	1862.34375
932.511	1686.82052
932.687	1572.61298
932.863	1695.28005
933.039	1496.47189
933.215	1595.87798
933.391	1430.90531
933.566	1608.56788
933.742	1411.86987
933.918	1521.8524
934.094	1399.17959
934.27	1608.56788
934.445	1132.69922
934.621	1371.68409
934.797	1056.57218
934.973	1141.15816
935.148	1084.06175
935.324	986.79532
935.5	1067.14499
935.675	1014.28238
935.851	919.13972
936.027	1090.40563
936.202	933.93875
936.378	1109.43751
936.553	874.74491
936.729	976.22366
936.904	752.15065
937.08	754.26407
937.255	688.75297
937.431	709.88445
937.606	680.3007
937.782	807.10282
937.957	557.76452
938.133	697.20543
938.308	515.52089
938.483	464.83611
938.659	517.63294
938.834	589.45082
939.009	490.17744
939.185	407.82623
939.36	418.38275
939.535	363.49336
939.71	338.16365
939.886	384.60334
940.061	369.82618
940.236	369.82618
940.411	331.83161
940.586	331.83161
940.761	312.83645
940.937	338.16365
941.112	203.11611
941.287	310.72597
941.462	262.18991
941.637	350.82819
941.812	272.74039
941.987	215.77348
942.162	228.43158
942.337	266.41005
942.512	228.43158
942.687	215.77348
942.862	253.74986
943.037	253.74986
943.212	295.95309
943.386	312.83645
943.561	186.24073
943.736	279.07091
943.911	144.05805
944.086	186.24073
944.26	186.24073
944.435	312.83645
944.61	257.96985
944.785	207.33515
944.959	234.76089
945.134	228.43158
945.309	133.51369
945.483	203.11611
945.658	219.99277
945.833	203.11611
946.007	165.14835
946.182	160.93012
946.357	182.02209
946.531	257.96985
946.706	243.20024
946.88	211.55428
947.055	253.74986
947.229	203.11611
947.404	198.89714
947.578	266.41005
947.752	245.31013
947.927	211.55428
948.101	163.03922
948.276	188.35008
948.45	110.318
948.624	186.24073
948.799	257.96985
948.973	139.84024
949.147	146.16698
949.321	194.67826
949.496	190.45945
949.67	319.16801
949.844	255.85985
950.018	270.63026
950.193	262.18991
950.367	329.72097
950.541	163.03922
950.715	308.61551
950.889	211.55428
951.063	306.50506
951.237	192.56884
951.411	152.49392
951.585	177.80353
951.759	270.63026
951.933	266.41005
952.107	247.42003
952.281	264.29997
952.455	270.63026
952.629	213.66387
952.803	266.41005
952.977	148.27594
953.151	230.54133
953.325	222.10244
953.499	241.09037
953.672	211.55428
953.846	125.07859
954.02	238.98052
954.194	173.58505
954.368	306.50506
954.541	224.21213
954.715	171.47585
954.889	230.54133
955.062	158.82104
955.236	270.63026
955.41	209.44471
955.583	295.95309
955.757	249.52996
955.93	253.74986
956.104	194.67826
956.278	213.66387
956.451	298.06345
956.625	175.69428
956.798	255.85985
956.972	238.98052
957.145	203.11611
957.319	295.95309
957.492	222.10244
957.665	270.63026
957.839	253.74986
958.012	201.00661
958.185	274.85054
958.359	249.52996
958.532	171.47585
958.705	298.06345
958.879	298.06345
959.052	321.27857
959.225	266.41005
959.398	308.61551
959.572	186.24073
959.745	333.94227
959.918	205.22562
960.091	251.6399
960.264	179.9128
960.438	298.06345
960.611	160.93012
960.784	283.29134
960.957	241.09037
961.13	213.66387
961.303	213.66387
961.476	266.41005
961.649	270.63026
961.822	222.10244
961.995	179.9128
962.168	279.07091
962.341	169.36666
962.514	279.07091
962.686	215.77348
962.859	234.76089
963.032	274.85054
963.205	232.6511
963.378	298.06345
963.551	219.99277
963.723	203.11611
963.896	268.52014
964.069	139.84024
964.242	245.31013
964.414	232.6511
964.587	207.33515
964.76	110.318
964.932	207.33515
965.105	192.56884
965.278	300.17382
965.45	198.89714
965.623	194.67826
965.795	209.44471
965.968	188.35008
966.14	179.9128
966.313	241.09037
966.485	279.07091
966.658	177.80353
966.83	201.00661
967.003	156.71198
967.175	169.36666
967.348	188.35008
967.52	114.5352
967.692	205.22562
967.865	245.31013
968.037	234.76089
968.209	133.51369
968.382	165.14835
968.554	163.03922
968.726	87.12496
968.898	85.01664
969.071	205.22562
969.243	175.69428
969.415	177.80353
969.587	156.71198
969.759	188.35008
969.932	146.16698
970.104	146.16698
970.276	158.82104
970.448	245.31013
970.62	144.05805
970.792	139.84024
970.964	118.75249
971.136	232.6511
971.308	238.98052
971.48	188.35008
971.652	154.60294
971.824	194.67826
971.996	133.51369
972.168	190.45945
972.339	165.14835
972.511	120.86117
972.683	122.96987
972.855	97.66692
973.027	139.84024
973.199	120.86117
973.37	101.88386
973.542	146.16698
973.714	131.40488
973.886	110.318
974.057	103.99236
974.229	186.24073
974.401	152.49392
974.572	139.84024
974.744	131.40488
974.915	108.20943
975.087	112.42659
975.259	108.20943
975.43	120.86117
975.602	122.96987
975.773	148.27594
975.945	156.71198
976.116	122.96987
976.288	135.62252
976.459	165.14835
976.63	133.51369
976.802	112.42659
976.973	95.55848
977.145	110.318
977.316	167.25749
977.487	144.05805
977.659	127.18734
977.83	95.55848
978.001	112.42659
978.172	87.12496
978.344	38.63923
978.515	36.53143
978.686	122.96987
978.857	152.49392
979.028	55.50246
979.2	61.82655
979.371	118.75249
979.542	44.96277
979.713	57.61047
979.884	127.18734
980.055	76.58356
980.226	85.01664
980.397	120.86117
980.568	34.42366
980.739	160.93012
980.91	120.86117
981.081	122.96987
981.252	108.20943
981.423	63.93463
981.594	186.24073
981.765	63.93463
981.936	93.45007
982.106	4.91728
982.277	89.23331
982.448	25.99279
982.619	106.10089
982.79	42.8549
982.96	34.42366
983.131	160.93012
983.302	87.12496
983.472	82.90833
983.643	152.49392
983.814	72.36716
983.984	129.2961
984.155	108.20943
984.326	4.91728
984.496	127.18734
984.667	30.20817
984.837	42.8549
985.008	80.80005
985.178	89.23331
985.349	36.53143
985.519	118.75249
985.69	53.39447
985.86	44.96277
986.031	-16.15583
986.201	59.7185
986.371	57.61047
986.542	133.51369
986.712	85.01664
986.882	110.318
987.053	91.34168
987.223	34.42366
987.393	97.66692
987.563	51.28651
987.734	28.10047
987.904	146.16698
988.074	42.8549
988.244	53.39447
988.414	122.96987
988.585	76.58356
988.755	72.36716
988.925	97.66692
989.095	80.80005
989.265	59.7185
989.435	78.6918
989.605	179.9128
989.775	51.28651
989.945	57.61047
990.115	108.20943
990.285	101.88386
990.455	21.7775
990.625	-3.51226
990.795	85.01664
990.965	68.15085
991.134	-20.37016
991.304	47.07066
991.474	91.34168
991.644	34.42366
991.814	-16.15583
991.984	17.5623
992.153	17.5623
992.323	25.99279
992.493	114.5352
992.662	135.62252
992.832	135.62252
993.002	101.88386
993.171	85.01664
993.341	7.02472
993.511	25.99279
993.68	30.20817
993.85	21.7775
994.019	51.28651
994.189	66.04272
994.358	38.63923
994.528	91.34168
994.697	55.50246
994.867	103.99236
995.036	177.80353
995.206	38.63923
995.375	80.80005
995.544	38.63923
995.714	25.99279
995.883	51.28651
996.052	135.62252
996.222	2.80986
996.391	17.5623
996.56	118.75249
996.73	63.93463
996.899	93.45007
997.068	57.61047
997.237	38.63923
997.406	97.66692
997.576	7.02472
997.745	93.45007
997.914	-7.72688
998.083	19.66988
998.252	93.45007
998.421	93.45007
998.59	74.47535
998.759	87.12496
998.928	-22.47729
999.097	51.28651
999.266	34.42366
999.435	59.7185
999.604	49.17857
999.773	11.23968
999.942	51.28651
1000.111	61.82655
1000.28	2.80986
1000.448	135.62252
1000.617	93.45007
1000.786	-3.51226
1000.955	63.93463
1001.124	76.58356
1001.292	47.07066
1001.461	91.34168
1001.63	-16.15583
1001.798	55.50246
1001.967	93.45007
1002.136	57.61047
1002.304	59.7185
1002.473	106.10089
1002.642	9.13219
1002.81	2.80986
1002.979	51.28651
1003.147	89.23331
1003.316	82.90833
1003.484	101.88386
1003.653	80.80005
1003.821	61.82655
1003.99	59.7185
1004.158	34.42366
1004.327	42.8549
1004.495	57.61047
1004.663	28.10047
1004.832	-9.83416
1005	80.80005
1005.168	93.45007
1005.337	-70.93437
1005.505	101.88386
1005.673	34.42366
1005.842	-5.61958
1006.01	85.01664
1006.178	-7.72688
1006.346	72.36716
1006.514	55.50246
1006.683	-7.72688
1006.851	25.99279
1007.019	0.70246
1007.187	63.93463
1007.355	44.96277
1007.523	34.42366
1007.691	25.99279
1007.859	51.28651
1008.027	0.70246
1008.195	2.80986
1008.363	15.45473
1008.531	59.7185
1008.699	-24.5844
1008.867	-14.04863
1009.035	25.99279
1009.203	49.17857
1009.37	-47.7609
1009.538	25.99279
1009.706	-24.5844
1009.874	21.7775
1010.042	28.10047
1010.209	-41.44034
1010.377	70.25899
1010.545	2.80986
1010.713	17.5623
1010.88	9.13219
1011.048	15.45473
1011.216	9.13219
1011.383	-1.40491
1011.551	57.61047
1011.718	-14.04863
1011.886	82.90833
1012.054	25.99279
1012.221	57.61047
1012.389	47.07066
1012.556	55.50246
1012.724	-24.5844
1012.891	42.8549
1013.058	34.42366
1013.226	-24.5844
1013.393	44.96277
1013.561	28.10047
1013.728	2.80986
1013.895	34.42366
1014.063	55.50246
1014.23	47.07066
1014.397	17.5623
1014.565	2.80986
1014.732	7.02472
1014.899	-7.72688
1015.066	42.8549
1015.233	-22.47729
1015.401	55.50246
1015.568	-60.40135
1015.735	101.88386
1015.902	82.90833
1016.069	47.07066
1016.236	-33.01256
1016.403	47.07066
1016.57	11.23968
1016.737	34.42366
1016.904	74.47535
1017.071	38.63923
1017.238	21.7775
1017.405	-11.94141
1017.572	-41.44034
1017.739	38.63923
1017.906	25.99279
1018.073	44.96277
1018.24	30.20817
1018.407	61.82655
1018.573	-58.29468
1018.74	59.7185
1018.907	-7.72688
1019.074	74.47535
1019.241	28.10047
1019.407	15.45473
1019.574	34.42366
1019.741	49.17857
1019.907	89.23331
1020.074	34.42366
1020.241	-24.5844
1020.407	70.25899
1020.574	78.6918
1020.74	40.74705
1020.907	19.66988
1021.073	59.7185
1021.24	25.99279
1021.406	4.91728
1021.573	2.80986
1021.739	4.91728
1021.906	25.99279
1022.072	97.66692
1022.239	-28.79853
1022.405	34.42366
1022.571	51.28651
1022.738	38.63923
1022.904	36.53143
1023.07	13.34719
1023.237	25.99279
1023.403	38.63923
1023.569	38.63923
1023.735	-22.47729
1023.902	25.99279
1024.068	85.01664
1024.234	-11.94141
1024.4	44.96277
1024.566	-20.37016
1024.732	38.63923
1024.898	57.61047
1025.065	2.80986
1025.231	-33.01256
1025.397	-33.01256
1025.563	47.07066
1025.729	-5.61958
1025.895	68.15085
1026.061	0.70246
1026.227	4.91728
1026.392	93.45007
1026.558	55.50246
1026.724	80.80005
1026.89	21.7775
1027.056	7.02472
1027.222	-30.90556
1027.388	30.20817
1027.553	44.96277
1027.719	9.13219
1027.885	-3.51226
1028.051	72.36716
1028.216	47.07066
1028.382	-49.86771
1028.548	15.45473
1028.713	19.66988
1028.879	15.45473
1029.045	-28.79853
1029.21	21.7775
1029.376	-16.15583
1029.541	28.10047
1029.707	-41.44034
1029.873	-20.37016
1030.038	28.10047
1030.204	25.99279
1030.369	85.01664
1030.534	-3.51226
1030.7	32.3159
1030.865	21.7775
1031.031	-73.04089
1031.196	-30.90556
1031.361	68.15085
1031.527	28.10047
1031.692	38.63923
1031.857	59.7185
1032.023	13.34719
1032.188	-73.04089
1032.353	57.61047
1032.518	66.04272
1032.684	55.50246
1032.849	21.7775
1033.014	34.42366
1033.179	-45.65407
1033.344	44.96277
1033.509	2.80986
1033.674	25.99279
1033.839	9.13219
1034.004	21.7775
1034.17	-37.2265
1034.335	-41.44034
1034.5	44.96277
1034.664	53.39447
1034.829	38.63923
1034.994	-7.72688
1035.159	-11.94141
1035.324	44.96277
1035.489	15.45473
1035.654	63.93463
1035.819	38.63923
1035.984	38.63923
1036.148	-24.5844
1036.313	-14.04863
1036.478	-9.83416
1036.643	25.99279
1036.807	85.01664
1036.972	0.70246
1037.137	70.25899
1037.301	-9.83416
1037.466	-3.51226
1037.631	25.99279
1037.795	4.91728
1037.96	-39.33343
1038.124	63.93463
1038.289	59.7185
1038.454	0.70246
1038.618	-49.86771
1038.783	47.07066
1038.947	-5.61958
1039.111	-28.79853
1039.276	42.8549
1039.44	34.42366
1039.605	68.15085
1039.769	-7.72688
1039.933	30.20817
1040.098	17.5623
1040.262	-35.11954
1040.426	36.53143
1040.591	4.91728
1040.755	25.99279
1040.919	66.04272
1041.083	7.02472
1041.248	-16.15583
1041.412	17.5623
1041.576	89.23331
1041.74	11.23968
1041.904	11.23968
1042.068	-14.04863
1042.232	97.66692
1042.397	34.42366
1042.561	-9.83416
1042.725	-33.01256
1042.889	-64.61464
1043.053	63.93463
1043.217	36.53143
1043.381	-28.79853
1043.544	42.8549
1043.708	-49.86771
1043.872	-33.01256
1044.036	-41.44034
1044.2	28.10047
1044.364	38.63923
1044.528	-11.94141
1044.691	38.63923
1044.855	42.8549
1045.019	-3.51226
1045.183	25.99279
1045.346	32.3159
1045.51	51.28651
1045.674	57.61047
1045.837	44.96277
1046.001	-3.51226
1046.165	-7.72688
1046.328	-39.33343
1046.492	-14.04863
1046.655	34.42366
1046.819	53.39447
1046.983	-11.94141
1047.146	-24.5844
1047.31	34.42366
1047.473	103.99236
1047.636	-28.79853
1047.8	61.82655
1047.963	11.23968
1048.127	-20.37016
1048.29	-35.11954
