Data from Scatter_Coeff_Baseline_USB4F045381__14__0014.txt Node

Date: Thu Feb 13 19:17:53 EST 2025
User: mmckonesweet
Spectrometer: USB4F04538
Trigger mode: 4
Integration Time (sec): 2.400000E-3
Scans to average: 1
Electric dark correction enabled: true
Nonlinearity correction enabled: true
Boxcar width: 0
XAxis mode: Wavelengths
Number of Pixels in Spectrum: 3648
>>>>>Begin Spectral Data<<<<<
345.52	-23.53085
345.736	-23.53085
345.952	-23.53085
346.168	-55.13461
346.384	12.29343
346.6	-21.42373
346.816	-107.79484
347.032	-8.78052
347.248	-21.42373
347.464	39.69314
347.68	10.18593
347.896	27.04663
348.112	41.80097
348.328	27.04663
348.544	18.61609
348.76	43.90883
348.975	-48.81431
349.191	-53.02787
349.407	-17.20943
349.623	-0.35123
349.839	8.07845
350.055	-23.53085
350.27	-61.45468
350.486	8.07845
350.702	-34.06606
350.918	-29.85205
351.133	37.58533
351.349	-6.67324
351.565	8.07845
351.781	-67.77453
351.996	33.36978
352.212	8.07845
352.428	60.77252
352.644	-23.53085
352.859	-55.13461
353.075	46.01671
353.291	-4.56592
353.506	29.15432
353.722	-6.67324
353.938	-10.88778
354.153	10.18593
354.369	-6.67324
354.584	-21.42373
354.8	12.29343
355.016	-4.56592
355.231	27.04663
355.447	-40.38689
355.662	22.83131
355.878	-15.10224
356.093	-46.70749
356.309	-0.35123
356.524	-29.85205
356.74	-4.56592
356.955	37.58533
357.171	3.86356
357.386	-55.13461
357.602	24.93896
357.817	-50.9211
358.033	-31.95906
358.248	41.80097
358.464	-15.10224
358.679	-15.10224
358.895	50.23254
359.11	33.36978
359.325	16.50851
359.541	-67.77453
359.756	-2.45859
359.972	-84.62633
360.187	20.72369
360.402	35.47754
360.618	64.98867
360.833	-0.35123
361.048	-8.78052
361.264	12.29343
361.479	-0.35123
361.694	8.07845
361.909	41.80097
362.125	60.77252
362.34	8.07845
362.555	-19.31659
362.77	33.36978
362.986	41.80097
363.201	50.23254
363.416	50.23254
363.631	-0.35123
363.847	41.80097
364.062	-4.56592
364.277	-55.13461
364.492	-8.78052
364.707	-17.20943
364.922	33.36978
365.138	46.01671
365.353	56.55646
365.568	-0.35123
365.783	1.75615
365.998	33.36978
366.213	1.75615
366.428	-67.77453
366.643	5.97099
366.858	-55.13461
367.073	10.18593
367.288	-36.17303
367.503	67.09678
367.718	16.50851
367.933	1.75615
368.148	-10.88778
368.363	-17.20943
368.578	-36.17303
368.793	-23.53085
369.008	62.88058
369.223	50.23254
369.438	58.66448
369.653	-29.85205
369.868	14.40096
370.083	46.01671
370.298	50.23254
370.513	16.50851
370.728	24.93896
370.943	33.36978
371.157	-12.99502
371.372	-12.99502
371.587	16.50851
371.802	24.93896
372.017	8.07845
372.232	-40.38689
372.446	-29.85205
372.661	8.07845
372.876	14.40096
373.091	-8.78052
373.306	-31.95906
373.52	24.93896
373.735	52.34049
373.95	24.93896
374.165	24.93896
374.379	24.93896
374.594	-2.45859
374.809	-34.06606
375.023	33.36978
375.238	10.18593
375.453	-27.74501
375.667	18.61609
375.882	-15.10224
376.097	-15.10224
376.311	-25.63794
376.526	29.15432
376.741	-80.41353
376.955	-50.9211
377.17	3.86356
377.384	-19.31659
377.599	-0.35123
377.813	33.36978
378.028	-2.45859
378.242	67.09678
378.457	50.23254
378.672	83.96248
378.886	1.75615
379.101	41.80097
379.315	1.75615
379.53	-17.20943
379.744	-46.70749
379.958	67.09678
380.173	-55.13461
380.387	-12.99502
380.602	-2.45859
380.816	58.66448
381.031	-12.99502
381.245	-40.38689
381.459	18.61609
381.674	-69.8811
381.888	-53.02787
382.103	-63.56133
382.317	77.63768
382.531	10.18593
382.746	3.86356
382.96	69.20492
383.174	-0.35123
383.388	-17.20943
383.603	-36.17303
383.817	10.18593
384.031	-0.35123
384.246	-46.70749
384.46	10.18593
384.674	-15.10224
384.888	-27.74501
385.103	-19.31659
385.317	12.29343
385.531	-21.42373
385.745	-63.56133
385.959	-4.56592
386.174	-40.38689
386.388	-4.56592
386.602	-21.42373
386.816	50.23254
387.03	24.93896
387.244	-8.78052
387.458	62.88058
387.672	-4.56592
387.887	-17.20943
388.101	86.0708
388.315	43.90883
388.529	-17.20943
388.743	14.40096
388.957	-25.63794
389.171	-53.02787
389.385	-25.63794
389.599	79.74592
389.813	-29.85205
390.027	-15.10224
390.241	12.29343
390.455	18.61609
390.669	-55.13461
390.883	-21.42373
391.097	33.36978
391.311	-21.42373
391.525	10.18593
391.738	29.15432
391.952	39.69314
392.166	62.88058
392.38	52.34049
392.594	-0.35123
392.808	-42.49378
393.022	-53.02787
393.236	-21.42373
393.449	-34.06606
393.663	-57.24133
393.877	3.86356
394.091	-50.9211
394.305	27.04663
394.518	16.50851
394.732	-2.45859
394.946	3.86356
395.16	-69.8811
395.373	-40.38689
395.587	81.85419
395.801	-31.95906
396.015	-42.49378
396.228	8.07845
396.442	-0.35123
396.656	1.75615
396.869	-53.02787
397.083	-82.51994
397.297	16.50851
397.51	-40.38689
397.724	50.23254
397.938	-36.17303
398.151	-15.10224
398.365	-0.35123
398.578	-36.17303
398.792	73.42125
399.005	-4.56592
399.219	3.86356
399.433	-34.06606
399.646	-42.49378
399.86	27.04663
400.073	18.61609
400.287	-25.63794
400.5	27.04663
400.714	24.93896
400.927	-25.63794
401.141	24.93896
401.354	86.0708
401.567	-6.67324
401.781	-8.78052
401.994	-8.78052
402.208	60.77252
402.421	-40.38689
402.635	58.66448
402.848	-29.85205
403.061	18.61609
403.275	12.29343
403.488	35.47754
403.701	29.15432
403.915	16.50851
404.128	33.36978
404.341	24.93896
404.555	-10.88778
404.768	-19.31659
404.981	-10.88778
405.195	24.93896
405.408	-25.63794
405.621	33.36978
405.834	16.50851
406.048	-44.60065
406.261	1.75615
406.474	16.50851
406.687	-17.20943
406.9	-34.06606
407.114	-31.95906
407.327	-31.95906
407.54	-48.81431
407.753	-36.17303
407.966	50.23254
408.179	-2.45859
408.392	-6.67324
408.605	-6.67324
408.819	16.50851
409.032	-12.99502
409.245	-21.42373
409.458	-36.17303
409.671	16.50851
409.884	-25.63794
410.097	8.07845
410.31	-0.35123
410.523	-31.95906
410.736	-63.56133
410.949	-40.38689
411.162	5.97099
411.375	50.23254
411.588	-4.56592
411.801	3.86356
412.014	46.01671
412.227	-23.53085
412.44	12.29343
412.653	-8.78052
412.865	16.50851
413.078	-59.34802
413.291	-2.45859
413.504	-15.10224
413.717	24.93896
413.93	-88.83902
414.143	5.97099
414.356	-42.49378
414.568	41.80097
414.781	31.26204
414.994	50.23254
415.207	-12.99502
415.42	1.75615
415.632	29.15432
415.845	-38.27997
416.058	-34.06606
416.271	-57.24133
416.483	41.80097
416.696	-34.06606
416.909	-2.45859
417.121	24.93896
417.334	10.18593
417.547	-0.35123
417.759	43.90883
417.972	-42.49378
418.185	22.83131
418.397	79.74592
418.61	-23.53085
418.823	94.50427
419.035	-34.06606
419.248	75.52945
419.46	-57.24133
419.673	33.36978
419.885	46.01671
420.098	24.93896
420.311	3.86356
420.523	-23.53085
420.736	-6.67324
420.948	-4.56592
421.161	-15.10224
421.373	37.58533
421.586	-21.42373
421.798	-42.49378
422.01	92.39587
422.223	8.07845
422.435	3.86356
422.648	27.04663
422.86	-59.34802
423.073	67.09678
423.285	-25.63794
423.497	8.07845
423.71	18.61609
423.922	29.15432
424.134	16.50851
424.347	20.72369
424.559	43.90883
424.771	43.90883
424.984	-0.35123
425.196	-8.78052
425.408	-25.63794
425.621	16.50851
425.833	-4.56592
426.045	-0.35123
426.257	-27.74501
426.47	41.80097
426.682	24.93896
426.894	12.29343
427.106	20.72369
427.318	-2.45859
427.531	-4.56592
427.743	24.93896
427.955	-63.56133
428.167	52.34049
428.379	-15.10224
428.591	56.55646
428.804	3.86356
429.016	1.75615
429.228	-6.67324
429.44	50.23254
429.652	41.80097
429.864	14.40096
430.076	62.88058
430.288	24.93896
430.5	-38.27997
430.712	-19.31659
430.924	-55.13461
431.136	24.93896
431.348	24.93896
431.56	-17.20943
431.772	-160.4386
431.984	107.15516
432.196	-29.85205
432.408	-29.85205
432.62	27.04663
432.832	29.15432
433.044	52.34049
433.256	-15.10224
433.468	-10.88778
433.679	-27.74501
433.891	-82.51994
434.103	-15.10224
434.315	12.29343
434.527	-4.56592
434.739	-17.20943
434.95	5.97099
435.162	-65.66794
435.374	1.75615
435.586	3.86356
435.798	29.15432
436.009	3.86356
436.221	-17.20943
436.433	35.47754
436.645	71.31307
436.856	10.18593
437.068	16.50851
437.28	-57.24133
437.491	-8.78052
437.703	8.07845
437.915	-59.34802
438.126	-17.20943
438.338	14.40096
438.55	-8.78052
438.761	-42.49378
438.973	-8.78052
439.184	-42.49378
439.396	-10.88778
439.608	-21.42373
439.819	-34.06606
440.031	-25.63794
440.242	24.93896
440.454	-2.45859
440.665	-12.99502
440.877	-31.95906
441.088	-84.62633
441.3	-29.85205
441.511	-0.35123
441.723	-6.67324
441.934	16.50851
442.146	35.47754
442.357	41.80097
442.569	35.47754
442.78	-12.99502
442.991	16.50851
443.203	-25.63794
443.414	35.47754
443.626	-19.31659
443.837	-17.20943
444.048	43.90883
444.26	29.15432
444.471	-63.56133
444.682	58.66448
444.894	-65.66794
445.105	-6.67324
445.316	-23.53085
445.528	-17.20943
445.739	20.72369
445.95	-8.78052
446.161	-29.85205
446.373	-65.66794
446.584	-17.20943
446.795	-23.53085
447.006	-44.60065
447.217	-34.06606
447.429	27.04663
447.64	12.29343
447.851	10.18593
448.062	-27.74501
448.273	46.01671
448.484	-12.99502
448.695	8.07845
448.907	-34.06606
449.118	-0.35123
449.329	-93.05161
449.54	-25.63794
449.751	-78.3071
449.962	52.34049
450.173	-17.20943
450.384	-55.13461
450.595	33.36978
450.806	56.55646
451.017	8.07845
451.228	-46.70749
451.439	60.77252
451.65	41.80097
451.861	-6.67324
452.072	-21.42373
452.283	-12.99502
452.494	-34.06606
452.705	-0.35123
452.915	-55.13461
453.126	-25.63794
453.337	14.40096
453.548	20.72369
453.759	-21.42373
453.97	-65.66794
454.181	22.83131
454.391	-29.85205
454.602	-0.35123
454.813	3.86356
455.024	22.83131
455.235	-17.20943
455.445	-2.45859
455.656	56.55646
455.867	46.01671
456.078	62.88058
456.288	-76.20064
456.499	-2.45859
456.71	18.61609
456.921	-107.79484
457.131	-74.09415
457.342	-25.63794
457.553	46.01671
457.763	69.20492
457.974	-23.53085
458.184	18.61609
458.395	-65.66794
458.606	5.97099
458.816	-34.06606
459.027	-4.56592
459.237	-53.02787
459.448	67.09678
459.659	-71.98763
459.869	10.18593
460.08	12.29343
460.29	-25.63794
460.501	-25.63794
460.711	41.80097
460.922	8.07845
461.132	16.50851
461.343	35.47754
461.553	-63.56133
461.764	37.58533
461.974	10.18593
462.184	-27.74501
462.395	62.88058
462.605	-17.20943
462.816	-6.67324
463.026	8.07845
463.236	-15.10224
463.447	14.40096
463.657	-12.99502
463.867	18.61609
464.078	-50.9211
464.288	-42.49378
464.498	-17.20943
464.709	52.34049
464.919	3.86356
465.129	-34.06606
465.339	27.04663
465.55	46.01671
465.76	52.34049
465.97	-12.99502
466.18	29.15432
466.391	-6.67324
466.601	-12.99502
466.811	-0.35123
467.021	-44.60065
467.231	-46.70749
467.441	-67.77453
467.651	-6.67324
467.862	50.23254
468.072	-29.85205
468.282	29.15432
468.492	-29.85205
468.702	-42.49378
468.912	-2.45859
469.122	-6.67324
469.332	-0.35123
469.542	-25.63794
469.752	3.86356
469.962	24.93896
470.172	-4.56592
470.382	-4.56592
470.592	43.90883
470.802	-2.45859
471.012	-31.95906
471.222	16.50851
471.432	86.0708
471.642	-0.35123
471.852	5.97099
472.062	-15.10224
472.272	-12.99502
472.482	-17.20943
472.691	33.36978
472.901	-25.63794
473.111	-6.67324
473.321	-63.56133
473.531	-38.27997
473.741	-59.34802
473.95	10.18593
474.16	-50.9211
474.37	-31.95906
474.58	-15.10224
474.79	-0.35123
474.999	-21.42373
475.209	-40.38689
475.419	-36.17303
475.628	35.47754
475.838	20.72369
476.048	-23.53085
476.258	-6.67324
476.467	41.80097
476.677	8.07845
476.886	-8.78052
477.096	52.34049
477.306	-8.78052
477.515	-15.10224
477.725	-0.35123
477.935	14.40096
478.144	-42.49378
478.354	-17.20943
478.563	-50.9211
478.773	20.72369
478.982	24.93896
479.192	-2.45859
479.401	20.72369
479.611	1.75615
479.82	29.15432
480.03	50.23254
480.239	-67.77453
480.449	24.93896
480.658	-19.31659
480.868	86.0708
481.077	41.80097
481.287	35.47754
481.496	37.58533
481.705	8.07845
481.915	-6.67324
482.124	-17.20943
482.333	-21.42373
482.543	-8.78052
482.752	3.86356
482.961	8.07845
483.171	-6.67324
483.38	1.75615
483.589	-0.35123
483.799	10.18593
484.008	-15.10224
484.217	22.83131
484.426	-29.85205
484.636	-12.99502
484.845	-8.78052
485.054	16.50851
485.263	54.44846
485.472	-50.9211
485.682	24.93896
485.891	12.29343
486.1	12.29343
486.309	16.50851
486.518	-2.45859
486.727	-15.10224
486.936	14.40096
487.146	41.80097
487.355	-55.13461
487.564	54.44846
487.773	-38.27997
487.982	-38.27997
488.191	-71.98763
488.4	-63.56133
488.609	-59.34802
488.818	50.23254
489.027	5.97099
489.236	50.23254
489.445	39.69314
489.654	-90.94533
489.863	-23.53085
490.072	-34.06606
490.281	-80.41353
490.49	14.40096
490.698	-23.53085
490.907	-36.17303
491.116	67.09678
491.325	73.42125
491.534	-84.62633
491.743	31.26204
491.952	20.72369
492.16	-31.95906
492.369	-71.98763
492.578	50.23254
492.787	-40.38689
492.996	83.96248
493.204	20.72369
493.413	-46.70749
493.622	33.36978
493.831	-71.98763
494.039	33.36978
494.248	-15.10224
494.457	8.07845
494.665	3.86356
494.874	-57.24133
495.083	-17.20943
495.291	27.04663
495.5	-53.02787
495.709	8.07845
495.917	43.90883
496.126	-21.42373
496.335	50.23254
496.543	-6.67324
496.752	-50.9211
496.96	24.93896
497.169	12.29343
497.377	12.29343
497.586	-38.27997
497.794	-8.78052
498.003	-12.99502
498.211	-0.35123
498.42	-46.70749
498.628	-48.81431
498.837	98.72115
499.045	-12.99502
499.254	-23.53085
499.462	35.47754
499.671	-0.35123
499.879	-25.63794
500.087	-23.53085
500.296	-25.63794
500.504	37.58533
500.713	-36.17303
500.921	83.96248
501.129	-59.34802
501.338	-4.56592
501.546	-23.53085
501.754	-12.99502
501.962	-42.49378
502.171	3.86356
502.379	-25.63794
502.587	8.07845
502.795	10.18593
503.004	54.44846
503.212	33.36978
503.42	-8.78052
503.628	33.36978
503.837	-17.20943
504.045	5.97099
504.253	-15.10224
504.461	-17.20943
504.669	8.07845
504.877	20.72369
505.085	43.90883
505.294	41.80097
505.502	48.12461
505.71	-38.27997
505.918	-8.78052
506.126	10.18593
506.334	22.83131
506.542	33.36978
506.75	-12.99502
506.958	-21.42373
507.166	3.86356
507.374	8.07845
507.582	-71.98763
507.79	16.50851
507.998	16.50851
508.206	-76.20064
508.414	60.77252
508.622	-67.77453
508.83	10.18593
509.037	-48.81431
509.245	27.04663
509.453	37.58533
509.661	24.93896
509.869	-63.56133
510.077	54.44846
510.285	27.04663
510.492	-42.49378
510.7	8.07845
510.908	-48.81431
511.116	41.80097
511.324	-74.09415
511.531	-15.10224
511.739	-23.53085
511.947	-36.17303
512.155	27.04663
512.362	-10.88778
512.57	-23.53085
512.778	-25.63794
512.985	20.72369
513.193	-19.31659
513.401	-80.41353
513.608	-40.38689
513.816	-38.27997
514.024	10.18593
514.231	-12.99502
514.439	-15.10224
514.646	24.93896
514.854	37.58533
515.061	-50.9211
515.269	22.83131
515.477	12.29343
515.684	-8.78052
515.892	-8.78052
516.099	18.61609
516.307	-8.78052
516.514	58.66448
516.722	27.04663
516.929	16.50851
517.136	35.47754
517.344	-12.99502
517.551	-48.81431
517.759	-23.53085
517.966	58.66448
518.173	10.18593
518.381	1.75615
518.588	10.18593
518.796	-67.77453
519.003	-6.67324
519.21	16.50851
519.418	-25.63794
519.625	-53.02787
519.832	-36.17303
520.039	-29.85205
520.247	22.83131
520.454	24.93896
520.661	-42.49378
520.868	52.34049
521.076	12.29343
521.283	-23.53085
521.49	54.44846
521.697	12.29343
521.904	-15.10224
522.112	69.20492
522.319	20.72369
522.526	-36.17303
522.733	24.93896
522.94	16.50851
523.147	8.07845
523.354	-25.63794
523.561	31.26204
523.768	54.44846
523.975	67.09678
524.183	20.72369
524.39	-46.70749
524.597	3.86356
524.804	12.29343
525.011	8.07845
525.218	37.58533
525.425	10.18593
525.632	-21.42373
525.838	-34.06606
526.045	-23.53085
526.252	3.86356
526.459	-65.66794
526.666	20.72369
526.873	-29.85205
527.08	75.52945
527.287	46.01671
527.494	-4.56592
527.701	-23.53085
527.907	20.72369
528.114	27.04663
528.321	-63.56133
528.528	5.97099
528.735	5.97099
528.941	-4.56592
529.148	64.98867
529.355	-29.85205
529.562	-34.06606
529.768	50.23254
529.975	24.93896
530.182	-59.34802
530.388	29.15432
530.595	16.50851
530.802	54.44846
531.008	-50.9211
531.215	-67.77453
531.422	-8.78052
531.628	12.29343
531.835	-31.95906
532.042	-65.66794
532.248	12.29343
532.455	12.29343
532.661	-17.20943
532.868	22.83131
533.074	-29.85205
533.281	-46.70749
533.487	-12.99502
533.694	43.90883
533.9	20.72369
534.107	-8.78052
534.313	1.75615
534.52	-31.95906
534.726	24.93896
534.933	-17.20943
535.139	56.55646
535.345	-12.99502
535.552	-12.99502
535.758	67.09678
535.965	39.69314
536.171	-6.67324
536.377	-12.99502
536.584	-17.20943
536.79	-23.53085
536.996	-31.95906
537.203	-48.81431
537.409	-2.45859
537.615	18.61609
537.821	-34.06606
538.028	-17.20943
538.234	-34.06606
538.44	58.66448
538.646	-6.67324
538.853	-34.06606
539.059	8.07845
539.265	20.72369
539.471	-0.35123
539.677	-34.06606
539.883	20.72369
540.09	-42.49378
540.296	-31.95906
540.502	33.36978
540.708	31.26204
540.914	69.20492
541.12	54.44846
541.326	-0.35123
541.532	-2.45859
541.738	-29.85205
541.944	50.23254
542.15	67.09678
542.356	8.07845
542.562	58.66448
542.768	-17.20943
542.974	60.77252
543.18	-17.20943
543.386	-12.99502
543.592	33.36978
543.798	10.18593
544.004	-40.38689
544.21	-19.31659
544.415	5.97099
544.621	-21.42373
544.827	43.90883
545.033	-17.20943
545.239	-6.67324
545.445	-67.77453
545.651	20.72369
545.856	24.93896
546.062	-17.20943
546.268	56.55646
546.474	35.47754
546.679	37.58533
546.885	18.61609
547.091	43.90883
547.297	16.50851
547.502	-69.8811
547.708	-59.34802
547.914	-59.34802
548.119	62.88058
548.325	75.52945
548.531	12.29343
548.736	37.58533
548.942	8.07845
549.147	60.77252
549.353	67.09678
549.559	10.18593
549.764	50.23254
549.97	-19.31659
550.175	20.72369
550.381	-84.62633
550.586	-34.06606
550.792	5.97099
550.997	60.77252
551.203	3.86356
551.408	46.01671
551.614	-12.99502
551.819	41.80097
552.025	-46.70749
552.23	-34.06606
552.435	81.85419
552.641	-27.74501
552.846	-21.42373
553.052	-21.42373
553.257	-6.67324
553.462	-4.56592
553.668	46.01671
553.873	-10.88778
554.078	31.26204
554.283	24.93896
554.489	-8.78052
554.694	-6.67324
554.899	-15.10224
555.105	62.88058
555.31	50.23254
555.515	35.47754
555.72	-44.60065
555.925	-50.9211
556.131	10.18593
556.336	-29.85205
556.541	-15.10224
556.746	3.86356
556.951	-40.38689
557.156	-0.35123
557.361	-21.42373
557.567	3.86356
557.772	-8.78052
557.977	29.15432
558.182	-21.42373
558.387	-17.20943
558.592	18.61609
558.797	-21.42373
559.002	37.58533
559.207	-29.85205
559.412	-105.68875
559.617	10.18593
559.822	24.93896
560.027	20.72369
560.232	-8.78052
560.437	16.50851
560.642	18.61609
560.847	-46.70749
561.051	-19.31659
561.256	-34.06606
561.461	132.45929
561.666	8.07845
561.871	-12.99502
562.076	14.40096
562.281	20.72369
562.485	50.23254
562.69	-57.24133
562.895	-8.78052
563.1	-17.20943
563.305	33.36978
563.509	3.86356
563.714	-8.78052
563.919	-42.49378
564.123	46.01671
564.328	-17.20943
564.533	5.97099
564.737	-40.38689
564.942	58.66448
565.147	39.69314
565.351	1.75615
565.556	46.01671
565.761	-46.70749
565.965	27.04663
566.17	-8.78052
566.374	10.18593
566.579	-67.77453
566.784	-27.74501
566.988	27.04663
567.193	-10.88778
567.397	10.18593
567.602	-0.35123
567.806	-15.10224
568.011	27.04663
568.215	10.18593
568.42	33.36978
568.624	62.88058
568.828	50.23254
569.033	39.69314
569.237	-25.63794
569.442	-12.99502
569.646	-0.35123
569.85	33.36978
570.055	1.75615
570.259	-46.70749
570.463	-10.88778
570.668	-42.49378
570.872	-21.42373
571.076	-55.13461
571.281	12.29343
571.485	5.97099
571.689	-50.9211
571.893	35.47754
572.098	-42.49378
572.302	37.58533
572.506	-48.81431
572.71	-34.06606
572.914	-23.53085
573.119	-44.60065
573.323	39.69314
573.527	-40.38689
573.731	-78.3071
573.935	-25.63794
574.139	3.86356
574.343	37.58533
574.547	-40.38689
574.751	-53.02787
574.955	-25.63794
575.159	35.47754
575.364	3.86356
575.568	-50.9211
575.772	10.18593
575.976	37.58533
576.18	-65.66794
576.383	1.75615
576.587	-40.38689
576.791	16.50851
576.995	29.15432
577.199	-86.73269
577.403	-53.02787
577.607	-4.56592
577.811	-27.74501
578.015	24.93896
578.219	81.85419
578.422	14.40096
578.626	8.07845
578.83	-17.20943
579.034	-6.67324
579.238	-29.85205
579.442	-4.56592
579.645	-25.63794
579.849	18.61609
580.053	50.23254
580.257	-59.34802
580.46	-34.06606
580.664	-17.20943
580.868	50.23254
581.071	-118.32493
581.275	33.36978
581.479	-19.31659
581.682	-21.42373
581.886	-42.49378
582.09	-42.49378
582.293	-42.49378
582.497	16.50851
582.7	-15.10224
582.904	-42.49378
583.107	33.36978
583.311	20.72369
583.515	12.29343
583.718	83.96248
583.922	-95.15786
584.125	-4.56592
584.329	-8.78052
584.532	67.09678
584.735	-0.35123
584.939	24.93896
585.142	14.40096
585.346	-65.66794
585.549	-6.67324
585.753	41.80097
585.956	52.34049
586.159	-31.95906
586.363	-2.45859
586.566	-12.99502
586.769	-0.35123
586.973	46.01671
587.176	41.80097
587.379	24.93896
587.582	-17.20943
587.786	39.69314
587.989	-55.13461
588.192	-36.17303
588.395	-31.95906
588.599	75.52945
588.802	-27.74501
589.005	33.36978
589.208	35.47754
589.411	5.97099
589.615	77.63768
589.818	-12.99502
590.021	8.07845
590.224	-76.20064
590.427	64.98867
590.63	-8.78052
590.833	-12.99502
591.036	5.97099
591.239	-6.67324
591.442	56.55646
591.645	-59.34802
591.848	41.80097
592.051	27.04663
592.254	-12.99502
592.457	67.09678
592.66	-27.74501
592.863	16.50851
593.066	-61.45468
593.269	18.61609
593.472	-76.20064
593.675	75.52945
593.878	50.23254
594.081	31.26204
594.284	37.58533
594.486	31.26204
594.689	1.75615
594.892	-29.85205
595.095	50.23254
595.298	67.09678
595.5	86.0708
595.703	-17.20943
595.906	12.29343
596.109	-65.66794
596.311	-34.06606
596.514	3.86356
596.717	37.58533
596.92	16.50851
597.122	37.58533
597.325	-23.53085
597.528	35.47754
597.73	-6.67324
597.933	35.47754
598.136	-23.53085
598.338	-15.10224
598.541	1.75615
598.743	-17.20943
598.946	1.75615
599.148	-0.35123
599.351	33.36978
599.554	16.50851
599.756	-0.35123
599.959	3.86356
600.161	-23.53085
600.363	16.50851
600.566	-4.56592
600.768	-82.51994
600.971	10.18593
601.173	18.61609
601.376	-6.67324
601.578	18.61609
601.78	-17.20943
601.983	35.47754
602.185	1.75615
602.388	-4.56592
602.59	-4.56592
602.792	-31.95906
602.995	5.97099
603.197	-0.35123
603.399	29.15432
603.601	-6.67324
603.804	27.04663
604.006	20.72369
604.208	18.61609
604.41	-36.17303
604.613	-0.35123
604.815	-38.27997
605.017	-59.34802
605.219	8.07845
605.421	-25.63794
605.623	-44.60065
605.826	-40.38689
606.028	10.18593
606.23	35.47754
606.432	-21.42373
606.634	-15.10224
606.836	33.36978
607.038	14.40096
607.24	3.86356
607.442	-46.70749
607.644	-10.88778
607.846	1.75615
608.048	37.58533
608.25	3.86356
608.452	12.29343
608.654	33.36978
608.856	1.75615
609.058	52.34049
609.26	-10.88778
609.462	-8.78052
609.664	-0.35123
609.866	29.15432
610.067	41.80097
610.269	-25.63794
610.471	-19.31659
610.673	8.07845
610.875	52.34049
611.077	-23.53085
611.278	3.86356
611.48	-2.45859
611.682	20.72369
611.884	31.26204
612.085	10.18593
612.287	31.26204
612.489	8.07845
612.69	29.15432
612.892	-34.06606
613.094	83.96248
613.295	-0.35123
613.497	24.93896
613.699	-46.70749
613.9	-6.67324
614.102	-40.38689
614.304	-27.74501
614.505	-34.06606
614.707	3.86356
614.908	-29.85205
615.11	41.80097
615.311	20.72369
615.513	8.07845
615.714	3.86356
615.916	27.04663
616.117	16.50851
616.319	-105.68875
616.52	8.07845
616.722	33.36978
616.923	8.07845
617.124	-12.99502
617.326	-17.20943
617.527	-63.56133
617.729	46.01671
617.93	39.69314
618.131	8.07845
618.333	-48.81431
618.534	-0.35123
618.735	-59.34802
618.937	31.26204
619.138	-69.8811
619.339	3.86356
619.54	-6.67324
619.742	12.29343
619.943	-38.27997
620.144	56.55646
620.345	8.07845
620.546	-40.38689
620.748	8.07845
620.949	-48.81431
621.15	-42.49378
621.351	-2.45859
621.552	18.61609
621.753	12.29343
621.954	5.97099
622.155	-8.78052
622.356	3.86356
622.558	-55.13461
622.759	56.55646
622.96	-8.78052
623.161	-6.67324
623.362	98.72115
623.563	-25.63794
623.764	39.69314
623.965	75.52945
624.166	8.07845
624.366	-17.20943
624.567	67.09678
624.768	16.50851
624.969	20.72369
625.17	-63.56133
625.371	58.66448
625.572	16.50851
625.773	37.58533
625.973	-88.83902
626.174	3.86356
626.375	-42.49378
626.576	-6.67324
626.777	-15.10224
626.977	-8.78052
627.178	69.20492
627.379	22.83131
627.58	-34.06606
627.78	-44.60065
627.981	27.04663
628.182	-0.35123
628.382	-21.42373
628.583	37.58533
628.784	-44.60065
628.984	-99.37029
629.185	41.80097
629.386	-4.56592
629.586	20.72369
629.787	-8.78052
629.987	37.58533
630.188	41.80097
630.388	18.61609
630.589	-4.56592
630.79	75.52945
630.99	-8.78052
631.191	24.93896
631.391	14.40096
631.591	-2.45859
631.792	24.93896
631.992	-6.67324
632.193	-4.56592
632.393	14.40096
632.594	1.75615
632.794	-8.78052
632.994	24.93896
633.195	-0.35123
633.395	56.55646
633.595	54.44846
633.796	16.50851
633.996	16.50851
634.196	14.40096
634.397	-10.88778
634.597	-42.49378
634.797	-19.31659
634.997	-6.67324
635.198	52.34049
635.398	-0.35123
635.598	-25.63794
635.798	-0.35123
635.998	-10.88778
636.199	-53.02787
636.399	37.58533
636.599	35.47754
636.799	-34.06606
636.999	16.50851
637.199	18.61609
637.399	-12.99502
637.599	8.07845
637.799	-2.45859
637.999	-50.9211
638.199	56.55646
638.399	-76.20064
638.599	16.50851
638.799	24.93896
638.999	-17.20943
639.199	41.80097
639.399	16.50851
639.599	20.72369
639.799	-0.35123
639.999	27.04663
640.199	-67.77453
640.399	-17.20943
640.599	29.15432
640.799	16.50851
640.998	-71.98763
641.198	-6.67324
641.398	39.69314
641.598	33.36978
641.798	-31.95906
641.997	52.34049
642.197	-8.78052
642.397	-12.99502
642.597	-59.34802
642.796	-10.88778
642.996	-17.20943
643.196	-34.06606
643.395	-6.67324
643.595	-17.20943
643.795	-21.42373
643.994	3.86356
644.194	-38.27997
644.394	3.86356
644.593	1.75615
644.793	29.15432
644.992	22.83131
645.192	-34.06606
645.392	33.36978
645.591	-57.24133
645.791	-63.56133
645.99	-31.95906
646.19	-6.67324
646.389	33.36978
646.589	-12.99502
646.788	-2.45859
646.987	16.50851
647.187	-69.8811
647.386	-0.35123
647.586	39.69314
647.785	24.93896
647.984	-25.63794
648.184	-23.53085
648.383	33.36978
648.582	-27.74501
648.782	39.69314
648.981	58.66448
649.18	-2.45859
649.38	-143.59443
649.579	-0.35123
649.778	-76.20064
649.977	-21.42373
650.177	24.93896
650.376	-0.35123
650.575	18.61609
650.774	16.50851
650.973	5.97099
651.173	-50.9211
651.372	-15.10224
651.571	-27.74501
651.77	-17.20943
651.969	-15.10224
652.168	79.74592
652.367	5.97099
652.566	20.72369
652.765	64.98867
652.964	10.18593
653.163	-12.99502
653.362	-17.20943
653.561	-31.95906
653.76	10.18593
653.959	-29.85205
654.158	50.23254
654.357	-19.31659
654.556	27.04663
654.755	-0.35123
654.954	33.36978
655.153	62.88058
655.352	33.36978
655.551	33.36978
655.749	37.58533
655.948	-29.85205
656.147	-61.45468
656.346	-8.78052
656.545	12.29343
656.743	-67.77453
656.942	-17.20943
657.141	-8.78052
657.34	-25.63794
657.538	-15.10224
657.737	83.96248
657.936	35.47754
658.135	14.40096
658.333	-34.06606
658.532	-46.70749
658.731	-0.35123
658.929	-40.38689
659.128	22.83131
659.326	1.75615
659.525	8.07845
659.724	-12.99502
659.922	-0.35123
660.121	20.72369
660.319	29.15432
660.518	20.72369
660.716	-38.27997
660.915	100.82962
661.113	153.54842
661.312	-17.20943
661.51	-29.85205
661.709	-4.56592
661.907	12.29343
662.105	8.07845
662.304	75.52945
662.502	31.26204
662.701	5.97099
662.899	-34.06606
663.097	29.15432
663.296	86.0708
663.494	-27.74501
663.692	18.61609
663.891	-25.63794
664.089	-17.20943
664.287	8.07845
664.485	37.58533
664.684	-12.99502
664.882	5.97099
665.08	16.50851
665.278	-31.95906
665.476	-17.20943
665.675	8.07845
665.873	71.31307
666.071	3.86356
666.269	43.90883
666.467	54.44846
666.665	-63.56133
666.863	24.93896
667.061	-12.99502
667.259	35.47754
667.457	-145.70005
667.655	64.98867
667.853	20.72369
668.051	-25.63794
668.249	-50.9211
668.447	-23.53085
668.645	-74.09415
668.843	-55.13461
669.041	-8.78052
669.239	-0.35123
669.437	1.75615
669.635	-8.78052
669.833	-34.06606
670.031	-8.78052
670.229	-27.74501
670.426	-12.99502
670.624	-15.10224
670.822	16.50851
671.02	-27.74501
671.218	-59.34802
671.415	-6.67324
671.613	33.36978
671.811	-4.56592
672.009	58.66448
672.206	-23.53085
672.404	16.50851
672.602	-40.38689
672.799	-34.06606
672.997	-17.20943
673.195	14.40096
673.392	-34.06606
673.59	-0.35123
673.788	-12.99502
673.985	14.40096
674.183	-40.38689
674.38	-34.06606
674.578	-31.95906
674.775	48.12461
674.973	-42.49378
675.17	22.83131
675.368	41.80097
675.565	81.85419
675.763	35.47754
675.96	-46.70749
676.158	-12.99502
676.355	-29.85205
676.553	-84.62633
676.75	-17.20943
676.947	67.09678
677.145	16.50851
677.342	-29.85205
677.539	-57.24133
677.737	-55.13461
677.934	37.58533
678.131	37.58533
678.329	-12.99502
678.526	16.50851
678.723	37.58533
678.92	-6.67324
679.118	60.77252
679.315	16.50851
679.512	-27.74501
679.709	-23.53085
679.906	-17.20943
680.104	-8.78052
680.301	56.55646
680.498	-42.49378
680.695	-40.38689
680.892	18.61609
681.089	1.75615
681.286	1.75615
681.483	60.77252
681.68	-55.13461
681.877	-4.56592
682.075	-15.10224
682.272	-34.06606
682.469	-19.31659
682.665	35.47754
682.862	-59.34802
683.059	41.80097
683.256	48.12461
683.453	10.18593
683.65	-4.56592
683.847	-6.67324
684.044	-12.99502
684.241	-17.20943
684.438	-71.98763
684.635	14.40096
684.831	-31.95906
685.028	-0.35123
685.225	29.15432
685.422	-34.06606
685.619	-6.67324
685.815	-65.66794
686.012	33.36978
686.209	-15.10224
686.405	12.29343
686.602	39.69314
686.799	33.36978
686.996	50.23254
687.192	-2.45859
687.389	24.93896
687.586	-63.56133
687.782	-4.56592
687.979	-42.49378
688.175	-69.8811
688.372	-8.78052
688.568	-0.35123
688.765	-6.67324
688.962	-38.27997
689.158	22.83131
689.355	-34.06606
689.551	39.69314
689.748	37.58533
689.944	35.47754
690.14	-23.53085
690.337	10.18593
690.533	-6.67324
690.73	-74.09415
690.926	-25.63794
691.123	8.07845
691.319	31.26204
691.515	50.23254
691.712	-15.10224
691.908	-6.67324
692.104	-46.70749
692.301	-84.62633
692.497	43.90883
692.693	-46.70749
692.889	8.07845
693.086	-50.9211
693.282	67.09678
693.478	-40.38689
693.674	8.07845
693.87	-0.35123
694.067	41.80097
694.263	-34.06606
694.459	37.58533
694.655	-42.49378
694.851	-12.99502
695.047	-12.99502
695.243	24.93896
695.439	18.61609
695.635	33.36978
695.831	33.36978
696.027	-8.78052
696.224	46.01671
696.42	-38.27997
696.615	-46.70749
696.811	62.88058
697.007	39.69314
697.203	-90.94533
697.399	-25.63794
697.595	12.29343
697.791	10.18593
697.987	-19.31659
698.183	3.86356
698.379	8.07845
698.575	22.83131
698.77	-67.77453
698.966	10.18593
699.162	-4.56592
699.358	90.28749
699.554	-55.13461
699.749	-10.88778
699.945	12.29343
700.141	-59.34802
700.337	41.80097
700.532	3.86356
700.728	-0.35123
700.924	-17.20943
701.119	-17.20943
701.315	52.34049
701.511	-19.31659
701.706	-10.88778
701.902	-0.35123
702.097	-25.63794
702.293	-4.56592
702.489	50.23254
702.684	24.93896
702.88	-40.38689
703.075	-17.20943
703.271	10.18593
703.466	-40.38689
703.662	3.86356
703.857	-63.56133
704.053	18.61609
704.248	-19.31659
704.443	-0.35123
704.639	-50.9211
704.834	33.36978
705.03	54.44846
705.225	24.93896
705.42	62.88058
705.616	35.47754
705.811	16.50851
706.006	41.80097
706.202	39.69314
706.397	5.97099
706.592	-12.99502
706.787	56.55646
706.983	43.90883
707.178	-34.06606
707.373	-25.63794
707.568	10.18593
707.763	33.36978
707.959	-27.74501
708.154	16.50851
708.349	-0.35123
708.544	10.18593
708.739	12.29343
708.934	-59.34802
709.129	31.26204
709.324	33.36978
709.519	-65.66794
709.714	18.61609
709.909	41.80097
710.104	33.36978
710.299	39.69314
710.494	37.58533
710.689	-0.35123
710.884	-48.81431
711.079	105.04662
711.274	1.75615
711.469	-40.38689
711.664	1.75615
711.859	-38.27997
712.054	20.72369
712.249	1.75615
712.443	37.58533
712.638	20.72369
712.833	-17.20943
713.028	10.18593
713.223	3.86356
713.417	-21.42373
713.612	12.29343
713.807	16.50851
714.002	8.07845
714.196	16.50851
714.391	-4.56592
714.586	-38.27997
714.78	24.93896
714.975	-4.56592
715.17	-0.35123
715.364	-31.95906
715.559	12.29343
715.754	73.42125
715.948	-2.45859
716.143	-8.78052
716.337	-29.85205
716.532	56.55646
716.726	-42.49378
716.921	-40.38689
717.115	29.15432
717.31	16.50851
717.504	-67.77453
717.699	12.29343
717.893	8.07845
718.088	8.07845
718.282	10.18593
718.476	-31.95906
718.671	54.44846
718.865	33.36978
719.059	-12.99502
719.254	-59.34802
719.448	-25.63794
719.642	8.07845
719.837	1.75615
720.031	50.23254
720.225	-8.78052
720.419	37.58533
720.614	31.26204
720.808	-19.31659
721.002	-17.20943
721.196	-59.34802
721.39	-38.27997
721.585	-4.56592
721.779	35.47754
721.973	54.44846
722.167	71.31307
722.361	14.40096
722.555	-19.31659
722.749	-23.53085
722.943	-29.85205
723.137	12.29343
723.331	-25.63794
723.525	-25.63794
723.719	-6.67324
723.913	-8.78052
724.107	-0.35123
724.301	-65.66794
724.495	-12.99502
724.689	16.50851
724.883	18.61609
725.077	52.34049
725.271	-17.20943
725.465	-19.31659
725.659	35.47754
725.853	20.72369
726.046	33.36978
726.24	-2.45859
726.434	22.83131
726.628	-29.85205
726.822	-23.53085
727.015	-21.42373
727.209	-17.20943
727.403	37.58533
727.596	-29.85205
727.79	-19.31659
727.984	-6.67324
728.177	-25.63794
728.371	-15.10224
728.565	8.07845
728.758	-29.85205
728.952	-8.78052
729.146	41.80097
729.339	16.50851
729.533	58.66448
729.726	10.18593
729.92	-53.02787
730.113	71.31307
730.307	-21.42373
730.5	50.23254
730.694	3.86356
730.887	-25.63794
731.081	33.36978
731.274	-25.63794
731.468	-48.81431
731.661	-19.31659
731.854	14.40096
732.048	8.07845
732.241	-90.94533
732.435	-10.88778
732.628	-25.63794
732.821	27.04663
733.014	33.36978
733.208	3.86356
733.401	-76.20064
733.594	62.88058
733.788	-0.35123
733.981	-19.31659
734.174	-31.95906
734.367	71.31307
734.56	22.83131
734.754	-42.49378
734.947	1.75615
735.14	-25.63794
735.333	27.04663
735.526	-23.53085
735.719	62.88058
735.912	-27.74501
736.105	37.58533
736.298	-27.74501
736.491	-25.63794
736.684	18.61609
736.877	-40.38689
737.07	20.72369
737.263	8.07845
737.456	-8.78052
737.649	-57.24133
737.842	-21.42373
738.035	73.42125
738.228	-38.27997
738.421	62.88058
738.614	50.23254
738.807	-12.99502
739	-4.56592
739.192	16.50851
739.385	-4.56592
739.578	-15.10224
739.771	41.80097
739.964	-6.67324
740.156	-105.68875
740.349	29.15432
740.542	71.31307
740.735	-93.05161
740.927	3.86356
741.12	8.07845
741.313	69.20492
741.505	64.98867
741.698	81.85419
741.891	-29.85205
742.083	-44.60065
742.276	29.15432
742.468	24.93896
742.661	-23.53085
742.854	54.44846
743.046	-69.8811
743.239	3.86356
743.431	48.12461
743.624	-10.88778
743.816	-84.62633
744.009	3.86356
744.201	-23.53085
744.393	-19.31659
744.586	24.93896
744.778	-12.99502
744.971	-31.95906
745.163	16.50851
745.355	29.15432
745.548	39.69314
745.74	27.04663
745.932	-21.42373
746.125	41.80097
746.317	-59.34802
746.509	-40.38689
746.702	-59.34802
746.894	16.50851
747.086	-38.27997
747.278	41.80097
747.471	-0.35123
747.663	-61.45468
747.855	-29.85205
748.047	-21.42373
748.239	48.12461
748.431	-17.20943
748.623	-40.38689
748.815	50.23254
749.008	8.07845
749.2	-31.95906
749.392	16.50851
749.584	-8.78052
749.776	22.83131
749.968	-6.67324
750.16	-34.06606
750.352	-25.63794
750.544	5.97099
750.736	83.96248
750.928	-23.53085
751.12	-8.78052
751.311	33.36978
751.503	-8.78052
751.695	-61.45468
751.887	18.61609
752.079	3.86356
752.271	-12.99502
752.463	-42.49378
752.654	-0.35123
752.846	12.29343
753.038	1.75615
753.23	-40.38689
753.421	24.93896
753.613	-15.10224
753.805	-19.31659
753.997	-25.63794
754.188	22.83131
754.38	-12.99502
754.572	29.15432
754.763	-42.49378
754.955	22.83131
755.146	16.50851
755.338	-55.13461
755.53	-21.42373
755.721	-86.73269
755.913	16.50851
756.104	-6.67324
756.296	-31.95906
756.487	-0.35123
756.679	-50.9211
756.87	88.17913
757.062	18.61609
757.253	-4.56592
757.445	29.15432
757.636	-2.45859
757.827	-31.95906
758.019	-6.67324
758.21	71.31307
758.401	20.72369
758.593	12.29343
758.784	46.01671
758.975	-42.49378
759.167	12.29343
759.358	14.40096
759.549	16.50851
759.74	-88.83902
759.932	37.58533
760.123	-27.74501
760.314	-10.88778
760.505	50.23254
760.696	-25.63794
760.888	41.80097
761.079	-4.56592
761.27	3.86356
761.461	-36.17303
761.652	46.01671
761.843	86.0708
762.034	-8.78052
762.225	-36.17303
762.416	27.04663
762.607	27.04663
762.798	-63.56133
762.989	-40.38689
763.18	54.44846
763.371	-40.38689
763.562	41.80097
763.753	-40.38689
763.944	-2.45859
764.135	8.07845
764.326	27.04663
764.517	-29.85205
764.708	20.72369
764.899	48.12461
765.089	88.17913
765.28	8.07845
765.471	-48.81431
765.662	-59.34802
765.853	50.23254
766.043	67.09678
766.234	-21.42373
766.425	54.44846
766.615	50.23254
766.806	-2.45859
766.997	-0.35123
767.187	1.75615
767.378	33.36978
767.569	39.69314
767.759	-12.99502
767.95	-76.20064
768.141	-31.95906
768.331	20.72369
768.522	33.36978
768.712	-25.63794
768.903	-12.99502
769.093	24.93896
769.284	-6.67324
769.474	39.69314
769.665	37.58533
769.855	71.31307
770.046	-19.31659
770.236	-29.85205
770.426	46.01671
770.617	41.80097
770.807	3.86356
770.998	62.88058
771.188	-44.60065
771.378	52.34049
771.569	-12.99502
771.759	8.07845
771.949	-0.35123
772.139	18.61609
772.33	20.72369
772.52	-8.78052
772.71	16.50851
772.9	-44.60065
773.09	-8.78052
773.281	-15.10224
773.471	-4.56592
773.661	-17.20943
773.851	-55.13461
774.041	-50.9211
774.231	24.93896
774.421	-15.10224
774.611	31.26204
774.802	-23.53085
774.992	-21.42373
775.182	-21.42373
775.372	20.72369
775.562	37.58533
775.752	41.80097
775.942	-23.53085
776.131	-63.56133
776.321	-101.47647
776.511	27.04663
776.701	12.29343
776.891	-44.60065
777.081	-50.9211
777.271	54.44846
777.461	33.36978
777.651	-34.06606
777.84	12.29343
778.03	-2.45859
778.22	-34.06606
778.41	-19.31659
778.599	-17.20943
778.789	12.29343
778.979	-0.35123
779.169	22.83131
779.358	-38.27997
779.548	-82.51994
779.738	14.40096
779.927	-29.85205
780.117	-8.78052
780.307	16.50851
780.496	-8.78052
780.686	-8.78052
780.875	33.36978
781.065	-8.78052
781.254	-65.66794
781.444	10.18593
781.633	-71.98763
781.823	-38.27997
782.012	-4.56592
782.202	-36.17303
782.391	3.86356
782.581	29.15432
782.77	1.75615
782.96	-25.63794
783.149	5.97099
783.338	-42.49378
783.528	33.36978
783.717	-34.06606
783.906	-71.98763
784.096	54.44846
784.285	24.93896
784.474	-0.35123
784.663	-6.67324
784.853	-0.35123
785.042	81.85419
785.231	-15.10224
785.42	37.58533
785.61	-19.31659
785.799	-42.49378
785.988	-34.06606
786.177	-29.85205
786.366	-53.02787
786.555	67.09678
786.744	81.85419
786.933	41.80097
787.122	41.80097
787.312	16.50851
787.501	-48.81431
787.69	-17.20943
787.879	52.34049
788.068	-31.95906
788.257	-76.20064
788.445	62.88058
788.634	-0.35123
788.823	-4.56592
789.012	-0.35123
789.201	-31.95906
789.39	8.07845
789.579	52.34049
789.768	-25.63794
789.957	-0.35123
790.145	5.97099
790.334	-8.78052
790.523	-25.63794
790.712	-61.45468
790.9	-57.24133
791.089	-0.35123
791.278	27.04663
791.467	29.15432
791.655	31.26204
791.844	24.93896
792.033	-12.99502
792.221	-15.10224
792.41	-15.10224
792.599	-25.63794
792.787	-4.56592
792.976	71.31307
793.164	-6.67324
793.353	-4.56592
793.541	-10.88778
793.73	8.07845
793.918	54.44846
794.107	12.29343
794.295	-0.35123
794.484	-0.35123
794.672	46.01671
794.861	8.07845
795.049	-36.17303
795.238	-34.06606
795.426	1.75615
795.614	-15.10224
795.803	29.15432
795.991	16.50851
796.179	16.50851
796.368	35.47754
796.556	-65.66794
796.744	41.80097
796.932	-21.42373
797.121	-0.35123
797.309	-23.53085
797.497	-63.56133
797.685	-12.99502
797.874	24.93896
798.062	20.72369
798.25	27.04663
798.438	10.18593
798.626	-50.9211
798.814	-76.20064
799.002	18.61609
799.19	-6.67324
799.378	16.50851
799.566	-8.78052
799.755	20.72369
799.943	8.07845
800.131	-23.53085
800.318	10.18593
800.506	46.01671
800.694	12.29343
800.882	-65.66794
801.07	-38.27997
801.258	5.97099
801.446	-34.06606
801.634	-23.53085
801.822	41.80097
802.01	-84.62633
802.197	-40.38689
802.385	-17.20943
802.573	18.61609
802.761	-4.56592
802.949	-2.45859
803.136	8.07845
803.324	-42.49378
803.512	-38.27997
803.699	46.01671
803.887	-67.77453
804.075	37.58533
804.262	-17.20943
804.45	-2.45859
804.638	67.09678
804.825	3.86356
805.013	-23.53085
805.201	-46.70749
805.388	-8.78052
805.576	8.07845
805.763	-29.85205
805.951	58.66448
806.138	-10.88778
806.326	37.58533
806.513	-38.27997
806.701	-6.67324
806.888	-34.06606
807.075	3.86356
807.263	10.18593
807.45	-48.81431
807.638	-25.63794
807.825	16.50851
808.012	-67.77453
808.2	83.96248
808.387	35.47754
808.574	-4.56592
808.761	-15.10224
808.949	-19.31659
809.136	-21.42373
809.323	-61.45468
809.51	29.15432
809.698	24.93896
809.885	77.63768
810.072	-34.06606
810.259	-80.41353
810.446	-12.99502
810.633	8.07845
810.82	-38.27997
811.008	-74.09415
811.195	43.90883
811.382	-42.49378
811.569	-0.35123
811.756	102.93811
811.943	-31.95906
812.13	-0.35123
812.317	-23.53085
812.504	33.36978
812.691	22.83131
812.878	58.66448
813.064	-25.63794
813.251	-17.20943
813.438	5.97099
813.625	60.77252
813.812	67.09678
813.999	-19.31659
814.186	-42.49378
814.372	-25.63794
814.559	-93.05161
814.746	-12.99502
814.933	33.36978
815.12	-6.67324
815.306	-12.99502
815.493	62.88058
815.68	-25.63794
815.866	41.80097
816.053	46.01671
816.24	-25.63794
816.426	-15.10224
816.613	-40.38689
816.799	-0.35123
816.986	109.26371
817.173	20.72369
817.359	-67.77453
817.546	-71.98763
817.732	-25.63794
817.919	10.18593
818.105	64.98867
818.292	-78.3071
818.478	10.18593
818.665	-25.63794
818.851	-65.66794
819.037	-2.45859
819.224	-19.31659
819.41	18.61609
819.597	52.34049
819.783	3.86356
819.969	18.61609
820.156	-65.66794
820.342	67.09678
820.528	-59.34802
820.714	-6.67324
820.901	29.15432
821.087	-67.77453
821.273	3.86356
821.459	16.50851
821.646	-2.45859
821.832	12.29343
822.018	-12.99502
822.204	-57.24133
822.39	-93.05161
822.576	12.29343
822.762	-10.88778
822.948	-10.88778
823.134	-36.17303
823.32	-48.81431
823.507	8.07845
823.693	12.29343
823.879	-40.38689
824.065	3.86356
824.25	8.07845
824.436	-31.95906
824.622	-4.56592
824.808	-57.24133
824.994	-29.85205
825.18	62.88058
825.366	46.01671
825.552	24.93896
825.738	-40.38689
825.923	-29.85205
826.109	-2.45859
826.295	-21.42373
826.481	12.29343
826.667	-63.56133
826.852	-84.62633
827.038	54.44846
827.224	-25.63794
827.409	-21.42373
827.595	-42.49378
827.781	41.80097
827.966	-8.78052
828.152	-12.99502
828.338	-17.20943
828.523	27.04663
828.709	1.75615
828.894	8.07845
829.08	-8.78052
829.266	-25.63794
829.451	16.50851
829.637	-2.45859
829.822	-42.49378
830.008	16.50851
830.193	-12.99502
830.378	-0.35123
830.564	-25.63794
830.749	67.09678
830.935	18.61609
831.12	35.47754
831.305	-67.77453
831.491	3.86356
831.676	20.72369
831.861	-15.10224
832.047	33.36978
832.232	-21.42373
832.417	29.15432
832.602	-25.63794
832.788	-17.20943
832.973	-4.56592
833.158	20.72369
833.343	-15.10224
833.528	50.23254
833.714	29.15432
833.899	62.88058
834.084	24.93896
834.269	41.80097
834.454	-2.45859
834.639	-23.53085
834.824	29.15432
835.009	14.40096
835.194	-10.88778
835.379	-21.42373
835.564	43.90883
835.749	-67.77453
835.934	1.75615
836.119	18.61609
836.304	14.40096
836.489	-6.67324
836.674	27.04663
836.859	29.15432
837.044	-4.56592
837.228	83.96248
837.413	10.18593
837.598	-25.63794
837.783	86.0708
837.968	16.50851
838.152	-6.67324
838.337	1.75615
838.522	-23.53085
838.707	41.80097
838.891	48.12461
839.076	-8.78052
839.261	8.07845
839.445	-21.42373
839.63	3.86356
839.815	24.93896
839.999	22.83131
840.184	-15.10224
840.368	-0.35123
840.553	-8.78052
840.737	-25.63794
840.922	-34.06606
841.106	39.69314
841.291	43.90883
841.475	52.34049
841.66	10.18593
841.844	16.50851
842.029	-95.15786
842.213	-0.35123
842.397	75.52945
842.582	-71.98763
842.766	83.96248
842.951	96.6127
843.135	-8.78052
843.319	50.23254
843.504	-12.99502
843.688	10.18593
843.872	-34.06606
844.056	-17.20943
844.241	46.01671
844.425	-59.34802
844.609	-2.45859
844.793	-40.38689
844.977	16.50851
845.161	-6.67324
845.346	-76.20064
845.53	16.50851
845.714	-25.63794
845.898	50.23254
846.082	-65.66794
846.266	56.55646
846.45	-23.53085
846.634	-8.78052
846.818	-99.37029
847.002	-8.78052
847.186	67.09678
847.37	-31.95906
847.554	29.15432
847.738	-4.56592
847.922	33.36978
848.106	8.07845
848.29	16.50851
848.473	-23.53085
848.657	16.50851
848.841	-25.63794
849.025	-48.81431
849.209	98.72115
849.392	20.72369
849.576	10.18593
849.76	5.97099
849.944	20.72369
850.127	12.29343
850.311	39.69314
850.495	18.61609
850.678	-4.56592
850.862	20.72369
851.046	71.31307
851.229	-8.78052
851.413	41.80097
851.596	10.18593
851.78	41.80097
851.964	-50.9211
852.147	-12.99502
852.331	41.80097
852.514	-48.81431
852.698	-38.27997
852.881	-0.35123
853.065	-67.77453
853.248	-61.45468
853.431	100.82962
853.615	46.01671
853.798	-31.95906
853.982	-34.06606
854.165	24.93896
854.348	-8.78052
854.532	-23.53085
854.715	43.90883
854.898	3.86356
855.081	-15.10224
855.265	31.26204
855.448	-2.45859
855.631	-50.9211
855.814	-38.27997
855.997	12.29343
856.181	16.50851
856.364	-50.9211
856.547	-31.95906
856.73	16.50851
856.913	10.18593
857.096	-8.78052
857.279	1.75615
857.462	10.18593
857.645	-48.81431
857.828	35.47754
858.011	12.29343
858.194	24.93896
858.377	-2.45859
858.56	-6.67324
858.743	16.50851
858.926	-4.56592
859.109	10.18593
859.292	-31.95906
859.475	41.80097
859.658	-42.49378
859.841	54.44846
860.023	46.01671
860.206	-55.13461
860.389	-4.56592
860.572	-19.31659
860.755	-57.24133
860.937	-0.35123
861.12	-17.20943
861.303	18.61609
861.486	-34.06606
861.668	-21.42373
861.851	12.29343
862.034	-59.34802
862.216	-40.38689
862.399	12.29343
862.581	-53.02787
862.764	-53.02787
862.947	67.09678
863.129	-12.99502
863.312	-8.78052
863.494	-74.09415
863.677	-23.53085
863.859	10.18593
864.042	-21.42373
864.224	-0.35123
864.406	-15.10224
864.589	20.72369
864.771	-6.67324
864.954	-17.20943
865.136	27.04663
865.318	75.52945
865.501	75.52945
865.683	-42.49378
865.865	-38.27997
866.048	-21.42373
866.23	20.72369
866.412	33.36978
866.594	60.77252
866.777	-38.27997
866.959	-6.67324
867.141	-34.06606
867.323	58.66448
867.505	-0.35123
867.687	12.29343
867.869	-6.67324
868.052	62.88058
868.234	-67.77453
868.416	18.61609
868.598	-12.99502
868.78	60.77252
868.962	-50.9211
869.144	41.80097
869.326	48.12461
869.508	-48.81431
869.69	-27.74501
869.872	27.04663
870.054	-38.27997
870.236	5.97099
870.417	-6.67324
870.599	-0.35123
870.781	29.15432
870.963	-61.45468
871.145	16.50851
871.327	46.01671
871.508	-0.35123
871.69	-12.99502
871.872	29.15432
872.054	-17.20943
872.235	8.07845
872.417	-34.06606
872.599	-31.95906
872.78	27.04663
872.962	-23.53085
873.144	20.72369
873.325	-15.10224
873.507	58.66448
873.689	-2.45859
873.87	18.61609
874.052	-57.24133
874.233	-0.35123
874.415	62.88058
874.596	-23.53085
874.778	73.42125
874.959	41.80097
875.141	43.90883
875.322	79.74592
875.503	-21.42373
875.685	20.72369
875.866	5.97099
876.048	-2.45859
876.229	-2.45859
876.41	-61.45468
876.592	-63.56133
876.773	3.86356
876.954	-21.42373
877.136	22.83131
877.317	-8.78052
877.498	-4.56592
877.679	31.26204
877.86	33.36978
878.042	-25.63794
878.223	1.75615
878.404	16.50851
878.585	18.61609
878.766	83.96248
878.947	-44.60065
879.128	-67.77453
879.309	-8.78052
879.49	-17.20943
879.672	10.18593
879.853	-2.45859
880.034	-40.38689
880.215	54.44846
880.396	-38.27997
880.576	20.72369
880.757	-15.10224
880.938	33.36978
881.119	-48.81431
881.3	10.18593
881.481	-80.41353
881.662	-8.78052
881.843	-29.85205
882.023	29.15432
882.204	-50.9211
882.385	83.96248
882.566	8.07845
882.747	-25.63794
882.927	-8.78052
883.108	8.07845
883.289	20.72369
883.469	-2.45859
883.65	-0.35123
883.831	16.50851
884.011	-12.99502
884.192	-2.45859
884.373	-42.49378
884.553	3.86356
884.734	-6.67324
884.914	16.50851
885.095	-12.99502
885.275	29.15432
885.456	-46.70749
885.636	-8.78052
885.817	18.61609
885.997	41.80097
886.178	-97.26409
886.358	-25.63794
886.538	-17.20943
886.719	48.12461
886.899	-29.85205
887.08	-10.88778
887.26	-17.20943
887.44	56.55646
887.621	-0.35123
887.801	-19.31659
887.981	-21.42373
888.161	69.20492
888.342	-4.56592
888.522	-59.34802
888.702	-12.99502
888.882	-6.67324
889.062	14.40096
889.242	14.40096
889.423	35.47754
889.603	50.23254
889.783	1.75615
889.963	58.66448
890.143	-40.38689
890.323	-23.53085
890.503	50.23254
890.683	16.50851
890.863	-53.02787
891.043	10.18593
891.223	27.04663
891.403	64.98867
891.583	-46.70749
891.763	8.07845
891.943	37.58533
892.122	-15.10224
892.302	-78.3071
892.482	1.75615
892.662	-42.49378
892.842	12.29343
893.022	20.72369
893.201	-50.9211
893.381	37.58533
893.561	-10.88778
893.741	58.66448
893.92	24.93896
894.1	-29.85205
894.28	35.47754
894.459	1.75615
894.639	-19.31659
894.819	39.69314
894.998	-17.20943
895.178	10.18593
895.357	-15.10224
895.537	16.50851
895.716	46.01671
895.896	-42.49378
896.075	5.97099
896.255	-19.31659
896.434	37.58533
896.614	1.75615
896.793	-12.99502
896.973	-17.20943
897.152	-17.20943
897.331	12.29343
897.511	-12.99502
897.69	-31.95906
897.87	-29.85205
898.049	58.66448
898.228	-42.49378
898.407	-69.8811
898.587	62.88058
898.766	8.07845
898.945	-17.20943
899.124	46.01671
899.304	64.98867
899.483	-8.78052
899.662	54.44846
899.841	-8.78052
900.02	-61.45468
900.199	-63.56133
900.378	-0.35123
900.557	-0.35123
900.737	-17.20943
900.916	29.15432
901.095	20.72369
901.274	16.50851
901.453	1.75615
901.632	-2.45859
901.811	-29.85205
901.989	-23.53085
902.168	-6.67324
902.347	-50.9211
902.526	64.98867
902.705	16.50851
902.884	-31.95906
903.063	56.55646
903.242	54.44846
903.42	-10.88778
903.599	48.12461
903.778	-0.35123
903.957	-25.63794
904.135	8.07845
904.314	22.83131
904.493	35.47754
904.672	-38.27997
904.85	27.04663
905.029	-50.9211
905.207	-34.06606
905.386	-48.81431
905.565	-12.99502
905.743	-42.49378
905.922	-88.83902
906.1	-101.47647
906.279	-4.56592
906.457	27.04663
906.636	-71.98763
906.814	-23.53085
906.993	-17.20943
907.171	5.97099
907.35	-25.63794
907.528	-55.13461
907.707	54.44846
907.885	41.80097
908.063	48.12461
908.242	50.23254
908.42	-8.78052
908.598	16.50851
908.777	33.36978
908.955	8.07845
909.133	-6.67324
909.311	35.47754
909.49	16.50851
909.668	-63.56133
909.846	-15.10224
910.024	35.47754
910.202	39.69314
910.38	-27.74501
910.559	46.01671
910.737	-40.38689
910.915	29.15432
911.093	-65.66794
911.271	-0.35123
911.449	56.55646
911.627	-57.24133
911.805	-34.06606
911.983	-25.63794
912.161	-6.67324
912.339	46.01671
912.517	27.04663
912.695	33.36978
912.872	43.90883
913.05	-17.20943
913.228	22.83131
913.406	18.61609
913.584	-21.42373
913.762	43.90883
913.939	-10.88778
914.117	-8.78052
914.295	10.18593
914.473	-46.70749
914.65	50.23254
914.828	-53.02787
915.006	54.44846
915.184	-15.10224
915.361	33.36978
915.539	-71.98763
915.716	-29.85205
915.894	-42.49378
916.072	-8.78052
916.249	-34.06606
916.427	48.12461
916.604	33.36978
916.782	-42.49378
916.959	-34.06606
917.137	8.07845
917.314	-25.63794
917.492	18.61609
917.669	16.50851
917.847	-25.63794
918.024	64.98867
918.201	24.93896
918.379	-4.56592
918.556	-31.95906
918.733	-2.45859
918.911	20.72369
919.088	-4.56592
919.265	35.47754
919.442	-25.63794
919.62	-36.17303
919.797	52.34049
919.974	16.50851
920.151	41.80097
920.328	-6.67324
920.506	-122.53679
920.683	-10.88778
920.86	-0.35123
921.037	27.04663
921.214	24.93896
921.391	-0.35123
921.568	37.58533
921.745	-53.02787
921.922	-40.38689
922.099	58.66448
922.276	-21.42373
922.453	-8.78052
922.63	-63.56133
922.807	10.18593
922.984	-46.70749
923.161	-21.42373
923.338	-53.02787
923.514	-63.56133
923.691	16.50851
923.868	-27.74501
924.045	-27.74501
924.222	79.74592
924.399	5.97099
924.575	-6.67324
924.752	-29.85205
924.929	-67.77453
925.105	27.04663
925.282	39.69314
925.459	62.88058
925.635	-48.81431
925.812	33.36978
925.989	-8.78052
926.165	50.23254
926.342	-0.35123
926.518	-36.17303
926.695	-48.81431
926.871	-31.95906
927.048	-40.38689
927.224	-12.99502
927.401	48.12461
927.577	-23.53085
927.754	29.15432
927.93	-59.34802
928.107	-29.85205
928.283	-50.9211
928.459	-59.34802
928.636	-46.70749
928.812	52.34049
928.988	-12.99502
929.165	20.72369
929.341	33.36978
929.517	60.77252
929.693	-25.63794
929.87	-8.78052
930.046	52.34049
930.222	33.36978
930.398	-6.67324
930.574	16.50851
930.751	71.31307
930.927	48.12461
931.103	-50.9211
931.279	-27.74501
931.455	-50.9211
931.631	-46.70749
931.807	-36.17303
931.983	8.07845
932.159	-34.06606
932.335	46.01671
932.511	-78.3071
932.687	-4.56592
932.863	39.69314
933.039	-34.06606
933.215	1.75615
933.391	52.34049
933.566	24.93896
933.742	-48.81431
933.918	-10.88778
934.094	92.39587
934.27	-29.85205
934.445	-31.95906
934.621	-36.17303
934.797	8.07845
934.973	50.23254
935.148	-27.74501
935.324	33.36978
935.5	50.23254
935.675	-50.9211
935.851	1.75615
936.027	27.04663
936.202	-0.35123
936.378	-4.56592
936.553	-46.70749
936.729	-23.53085
936.904	12.29343
937.08	8.07845
937.255	67.09678
937.431	-34.06606
937.606	-15.10224
937.782	27.04663
937.957	54.44846
938.133	71.31307
938.308	33.36978
938.483	12.29343
938.659	-48.81431
938.834	18.61609
939.009	16.50851
939.185	-42.49378
939.36	41.80097
939.535	-17.20943
939.71	33.36978
939.886	-34.06606
940.061	16.50851
940.236	102.93811
940.411	-48.81431
940.586	-4.56592
940.761	-8.78052
940.937	33.36978
941.112	20.72369
941.287	-46.70749
941.462	-8.78052
941.637	27.04663
941.812	-12.99502
941.987	-36.17303
942.162	24.93896
942.337	41.80097
942.512	60.77252
942.687	-44.60065
942.862	-4.56592
943.037	12.29343
943.212	-74.09415
943.386	-17.20943
943.561	-29.85205
943.736	12.29343
943.911	3.86356
944.086	20.72369
944.26	18.61609
944.435	37.58533
944.61	27.04663
944.785	-12.99502
944.959	20.72369
945.134	5.97099
945.309	52.34049
945.483	8.07845
945.658	24.93896
945.833	-8.78052
946.007	-34.06606
946.182	-17.20943
946.357	12.29343
946.531	8.07845
946.706	-25.63794
946.88	71.31307
947.055	20.72369
947.229	-25.63794
947.404	46.01671
947.578	-34.06606
947.752	-40.38689
947.927	8.07845
948.101	-42.49378
948.276	10.18593
948.45	-29.85205
948.624	-34.06606
948.799	52.34049
948.973	-42.49378
949.147	-17.20943
949.321	-59.34802
949.496	22.83131
949.67	-19.31659
949.844	67.09678
950.018	-103.58262
950.193	-19.31659
950.367	37.58533
950.541	37.58533
950.715	22.83131
950.889	-38.27997
951.063	16.50851
951.237	20.72369
951.411	-12.99502
951.585	-17.20943
951.759	-10.88778
951.933	-42.49378
952.107	-0.35123
952.281	54.44846
952.455	16.50851
952.629	20.72369
952.803	27.04663
952.977	1.75615
953.151	-93.05161
953.325	-19.31659
953.499	-38.27997
953.672	-12.99502
953.846	-12.99502
954.02	-31.95906
954.194	88.17913
954.368	8.07845
954.541	24.93896
954.715	-67.77453
954.889	-4.56592
955.062	43.90883
955.236	-97.26409
955.41	29.15432
955.583	24.93896
955.757	20.72369
955.93	-50.9211
956.104	1.75615
956.278	-10.88778
956.451	33.36978
956.625	-59.34802
956.798	48.12461
956.972	27.04663
957.145	1.75615
957.319	27.04663
957.492	8.07845
957.665	33.36978
957.839	16.50851
958.012	-4.56592
958.185	-4.56592
958.359	27.04663
958.532	-46.70749
958.705	-36.17303
958.879	16.50851
959.052	-0.35123
959.225	-4.56592
959.398	-25.63794
959.572	-17.20943
959.745	20.72369
959.918	1.75615
960.091	8.07845
960.264	-34.06606
960.438	29.15432
960.611	-23.53085
960.784	-55.13461
960.957	-0.35123
961.13	46.01671
961.303	8.07845
961.476	-27.74501
961.649	41.80097
961.822	58.66448
961.995	-40.38689
962.168	-4.56592
962.341	35.47754
962.514	73.42125
962.686	-42.49378
962.859	24.93896
963.032	24.93896
963.205	10.18593
963.378	35.47754
963.551	-10.88778
963.723	-17.20943
963.896	-90.94533
964.069	81.85419
964.242	-34.06606
964.414	-59.34802
964.587	-23.53085
964.76	-12.99502
964.932	8.07845
965.105	-12.99502
965.278	8.07845
965.45	105.04662
965.623	20.72369
965.795	-42.49378
965.968	-48.81431
966.14	29.15432
966.313	16.50851
966.485	134.5681
966.658	-2.45859
966.83	-21.42373
967.003	67.09678
967.175	-8.78052
967.348	1.75615
967.52	16.50851
967.692	-59.34802
967.865	43.90883
968.037	-4.56592
968.209	-6.67324
968.382	46.01671
968.554	-2.45859
968.726	-38.27997
968.898	60.77252
969.071	-10.88778
969.243	-17.20943
969.415	-8.78052
969.587	18.61609
969.759	29.15432
969.932	41.80097
970.104	-0.35123
970.276	-17.20943
970.448	20.72369
970.62	1.75615
970.792	-38.27997
970.964	-2.45859
971.136	20.72369
971.308	29.15432
971.48	-118.32493
971.652	83.96248
971.824	10.18593
971.996	-31.95906
972.168	1.75615
972.339	-25.63794
972.511	-25.63794
972.683	75.52945
972.855	-23.53085
973.027	-2.45859
973.199	1.75615
973.37	46.01671
973.542	10.18593
973.714	12.29343
973.886	33.36978
974.057	-15.10224
974.229	41.80097
974.401	-8.78052
974.572	-19.31659
974.744	62.88058
974.915	8.07845
975.087	-80.41353
975.259	-0.35123
975.43	-12.99502
975.602	-17.20943
975.773	18.61609
975.945	50.23254
976.116	-88.83902
976.288	37.58533
976.459	-42.49378
976.63	-76.20064
976.802	-2.45859
976.973	-19.31659
977.145	86.0708
977.316	-0.35123
977.487	-4.56592
977.659	-34.06606
977.83	43.90883
978.001	-6.67324
978.172	-59.34802
978.344	24.93896
978.515	1.75615
978.686	-38.27997
978.857	20.72369
979.028	8.07845
979.2	-23.53085
979.371	58.66448
979.542	1.75615
979.713	-93.05161
979.884	8.07845
980.055	-23.53085
980.226	-25.63794
980.397	50.23254
980.568	-50.9211
980.739	-34.06606
980.91	62.88058
981.081	-36.17303
981.252	-67.77453
981.423	33.36978
981.594	-34.06606
981.765	29.15432
981.936	-25.63794
982.106	8.07845
982.277	-99.37029
982.448	-12.99502
982.619	3.86356
982.79	-17.20943
982.96	-50.9211
983.131	58.66448
983.302	52.34049
983.472	-10.88778
983.643	71.31307
983.814	16.50851
983.984	-19.31659
984.155	-0.35123
984.326	33.36978
984.496	24.93896
984.667	8.07845
984.837	-74.09415
985.008	16.50851
985.178	18.61609
985.349	29.15432
985.519	24.93896
985.69	50.23254
985.86	48.12461
986.031	-19.31659
986.201	-44.60065
986.371	20.72369
986.542	-21.42373
986.712	-12.99502
986.882	10.18593
987.053	-29.85205
987.223	16.50851
987.393	20.72369
987.563	-0.35123
987.734	1.75615
987.904	-55.13461
988.074	-107.79484
988.244	39.69314
988.414	-42.49378
988.585	27.04663
988.755	8.07845
988.925	1.75615
989.095	60.77252
989.265	48.12461
989.435	14.40096
989.605	-29.85205
989.775	-10.88778
989.945	35.47754
990.115	-36.17303
990.285	33.36978
990.455	-34.06606
990.625	-19.31659
990.795	88.17913
990.965	-4.56592
991.134	1.75615
991.304	10.18593
991.474	-19.31659
991.644	-80.41353
991.814	-29.85205
991.984	-63.56133
992.153	3.86356
992.323	41.80097
992.493	-21.42373
992.662	-0.35123
992.832	-21.42373
993.002	14.40096
993.171	52.34049
993.341	8.07845
993.511	8.07845
993.68	39.69314
993.85	-4.56592
994.019	18.61609
994.189	1.75615
994.358	-21.42373
994.528	-17.20943
994.697	-6.67324
994.867	-109.90091
995.036	79.74592
995.206	-29.85205
995.375	-19.31659
995.544	83.96248
995.714	50.23254
995.883	-17.20943
996.052	-82.51994
996.222	-0.35123
996.391	-8.78052
996.56	31.26204
996.73	-42.49378
996.899	-2.45859
997.068	35.47754
997.237	-42.49378
997.406	3.86356
997.576	54.44846
997.745	-50.9211
997.914	10.18593
998.083	-23.53085
998.252	-21.42373
998.421	-0.35123
998.59	-27.74501
998.759	3.86356
998.928	-34.06606
999.097	-12.99502
999.266	-21.42373
999.435	-17.20943
999.604	10.18593
999.773	14.40096
999.942	41.80097
1000.111	8.07845
1000.28	-4.56592
1000.448	-55.13461
1000.617	-27.74501
1000.786	8.07845
1000.955	16.50851
1001.124	-19.31659
1001.292	8.07845
1001.461	20.72369
1001.63	-44.60065
1001.798	14.40096
1001.967	-12.99502
1002.136	-25.63794
1002.304	-21.42373
1002.473	24.93896
1002.642	-12.99502
1002.81	20.72369
1002.979	-19.31659
1003.147	58.66448
1003.316	-80.41353
1003.484	-40.38689
1003.653	-53.02787
1003.821	37.58533
1003.99	48.12461
1004.158	20.72369
1004.327	-12.99502
1004.495	-105.68875
1004.663	58.66448
1004.832	14.40096
1005	1.75615
1005.168	8.07845
1005.337	16.50851
1005.505	-42.49378
1005.673	-57.24133
1005.842	-46.70749
1006.01	69.20492
1006.178	-6.67324
1006.346	50.23254
1006.514	-38.27997
1006.683	3.86356
1006.851	48.12461
1007.019	-15.10224
1007.187	-23.53085
1007.355	-8.78052
1007.523	-2.45859
1007.691	-12.99502
1007.859	3.86356
1008.027	-6.67324
1008.195	67.09678
1008.363	-12.99502
1008.531	-15.10224
1008.699	-97.26409
1008.867	-67.77453
1009.035	-15.10224
1009.203	27.04663
1009.37	-29.85205
1009.538	37.58533
1009.706	18.61609
1009.874	-44.60065
1010.042	8.07845
1010.209	52.34049
1010.377	29.15432
1010.545	14.40096
1010.713	-97.26409
1010.88	27.04663
1011.048	-23.53085
1011.216	-12.99502
1011.383	96.6127
1011.551	-25.63794
1011.718	1.75615
1011.886	16.50851
1012.054	-31.95906
1012.221	50.23254
1012.389	3.86356
1012.556	29.15432
1012.724	8.07845
1012.891	-10.88778
1013.058	8.07845
1013.226	-27.74501
1013.393	-63.56133
1013.561	50.23254
1013.728	-46.70749
1013.895	-2.45859
1014.063	-2.45859
1014.23	24.93896
1014.397	-21.42373
1014.565	-17.20943
1014.732	-57.24133
1014.899	-23.53085
1015.066	-19.31659
1015.233	10.18593
1015.401	24.93896
1015.568	-34.06606
1015.735	-31.95906
1015.902	52.34049
1016.069	-38.27997
1016.236	16.50851
1016.403	-105.68875
1016.57	-0.35123
1016.737	16.50851
1016.904	54.44846
1017.071	-36.17303
1017.238	20.72369
1017.405	-21.42373
1017.572	48.12461
1017.739	67.09678
1017.906	-59.34802
1018.073	-31.95906
1018.24	-8.78052
1018.407	-34.06606
1018.573	-29.85205
1018.74	18.61609
1018.907	8.07845
1019.074	105.04662
1019.241	16.50851
1019.407	77.63768
1019.574	-46.70749
1019.741	12.29343
1019.907	22.83131
1020.074	8.07845
1020.241	-97.26409
1020.407	20.72369
1020.574	-4.56592
1020.74	-12.99502
1020.907	8.07845
1021.073	16.50851
1021.24	-2.45859
1021.406	35.47754
1021.573	33.36978
1021.739	-2.45859
1021.906	-36.17303
1022.072	-53.02787
1022.239	54.44846
1022.405	-4.56592
1022.571	46.01671
1022.738	-12.99502
1022.904	10.18593
1023.07	-63.56133
1023.237	-71.98763
1023.403	-25.63794
1023.569	-17.20943
1023.735	-8.78052
1023.902	-0.35123
1024.068	41.80097
1024.234	-17.20943
1024.4	24.93896
1024.566	-8.78052
1024.732	29.15432
1024.898	-12.99502
1025.065	-29.85205
1025.231	16.50851
1025.397	134.5681
1025.563	-2.45859
1025.729	-34.06606
1025.895	12.29343
1026.061	-27.74501
1026.227	5.97099
1026.392	20.72369
1026.558	-4.56592
1026.724	41.80097
1026.89	16.50851
1027.056	-23.53085
1027.222	-4.56592
1027.388	-6.67324
1027.553	-25.63794
1027.719	29.15432
1027.885	24.93896
1028.051	-6.67324
1028.216	12.29343
1028.382	35.47754
1028.548	22.83131
1028.713	56.55646
1028.879	-50.9211
1029.045	52.34049
1029.21	-17.20943
1029.376	18.61609
1029.541	46.01671
1029.707	3.86356
1029.873	-63.56133
1030.038	27.04663
1030.204	-23.53085
1030.369	24.93896
1030.534	-31.95906
1030.7	-12.99502
1030.865	-2.45859
1031.031	-44.60065
1031.196	12.29343
1031.361	-23.53085
1031.527	60.77252
1031.692	-25.63794
1031.857	8.07845
1032.023	-6.67324
1032.188	35.47754
1032.353	-15.10224
1032.518	1.75615
1032.684	1.75615
1032.849	41.80097
1033.014	-34.06606
1033.179	-31.95906
1033.344	29.15432
1033.509	16.50851
1033.674	-21.42373
1033.839	-8.78052
1034.004	-36.17303
1034.17	-27.74501
1034.335	50.23254
1034.5	-25.63794
1034.664	16.50851
1034.829	-99.37029
1034.994	22.83131
1035.159	8.07845
1035.324	71.31307
1035.489	14.40096
1035.654	-25.63794
1035.819	46.01671
1035.984	-6.67324
1036.148	-2.45859
1036.313	-12.99502
1036.478	-67.77453
1036.643	16.50851
1036.807	50.23254
1036.972	33.36978
1037.137	-55.13461
1037.301	-42.49378
1037.466	-29.85205
1037.631	-10.88778
1037.795	-31.95906
1037.96	-38.27997
1038.124	-46.70749
1038.289	-57.24133
1038.454	16.50851
1038.618	-23.53085
1038.783	12.29343
1038.947	41.80097
1039.111	20.72369
1039.276	-23.53085
1039.44	46.01671
1039.605	71.31307
1039.769	16.50851
1039.933	-34.06606
1040.098	8.07845
1040.262	-59.34802
1040.426	20.72369
1040.591	-80.41353
1040.755	16.50851
1040.919	67.09678
1041.083	-71.98763
1041.248	16.50851
1041.412	-27.74501
1041.576	20.72369
1041.74	41.80097
1041.904	69.20492
1042.068	50.23254
1042.232	3.86356
1042.397	-8.78052
1042.561	81.85419
1042.725	29.15432
1042.889	71.31307
1043.053	-29.85205
1043.217	-15.10224
1043.381	1.75615
1043.544	39.69314
1043.708	-82.51994
1043.872	102.93811
1044.036	-27.74501
1044.2	12.29343
1044.364	-42.49378
1044.528	16.50851
1044.691	-34.06606
1044.855	-21.42373
1045.019	27.04663
1045.183	5.97099
1045.346	-2.45859
1045.51	-36.17303
1045.674	1.75615
1045.837	3.86356
1046.001	-25.63794
1046.165	-19.31659
1046.328	-46.70749
1046.492	16.50851
1046.655	-12.99502
1046.819	12.29343
1046.983	20.72369
1047.146	-25.63794
1047.31	22.83131
1047.473	67.09678
1047.636	-48.81431
1047.8	5.97099
1047.963	-31.95906
1048.127	16.50851
1048.29	60.77252
