Data from Scatter_Coeff_Baseline_USB4F045381__30__0030.txt Node

Date: Thu Feb 13 19:22:19 EST 2025
User: mmckonesweet
Spectrometer: USB4F04538
Trigger mode: 4
Integration Time (sec): 2.400000E-3
Scans to average: 1
Electric dark correction enabled: true
Nonlinearity correction enabled: true
Boxcar width: 0
XAxis mode: Wavelengths
Number of Pixels in Spectrum: 3648
>>>>>Begin Spectral Data<<<<<
345.52	64.98867
345.736	64.98867
345.952	64.98867
346.168	83.96248
346.384	18.61609
346.6	-23.53085
346.816	43.90883
347.032	18.61609
347.248	-4.56592
347.464	-15.10224
347.68	-36.17303
347.896	27.04663
348.112	35.47754
348.328	-17.20943
348.544	-23.53085
348.76	33.36978
348.975	-38.27997
349.191	16.50851
349.407	1.75615
349.623	18.61609
349.839	29.15432
350.055	-17.20943
350.27	62.88058
350.486	-0.35123
350.702	27.04663
350.918	-44.60065
351.133	14.40096
351.349	-15.10224
351.565	-6.67324
351.781	22.83131
351.996	3.86356
352.212	-61.45468
352.428	86.0708
352.644	37.58533
352.859	-31.95906
353.075	-10.88778
353.291	35.47754
353.506	22.83131
353.722	56.55646
353.938	24.93896
354.153	-0.35123
354.369	48.12461
354.584	22.83131
354.8	31.26204
355.016	64.98867
355.231	24.93896
355.447	62.88058
355.662	-27.74501
355.878	33.36978
356.093	56.55646
356.309	-2.45859
356.524	-10.88778
356.74	-2.45859
356.955	35.47754
357.171	5.97099
357.386	22.83131
357.602	-80.41353
357.817	56.55646
358.033	-19.31659
358.248	-42.49378
358.464	88.17913
358.679	33.36978
358.895	86.0708
359.11	-8.78052
359.325	-10.88778
359.541	64.98867
359.756	24.93896
359.972	67.09678
360.187	-61.45468
360.402	56.55646
360.618	10.18593
360.833	56.55646
361.048	-23.53085
361.264	-15.10224
361.479	69.20492
361.694	-6.67324
361.909	27.04663
362.125	43.90883
362.34	50.23254
362.555	10.18593
362.77	58.66448
362.986	50.23254
363.201	81.85419
363.416	22.83131
363.631	16.50851
363.847	90.28749
364.062	35.47754
364.277	46.01671
364.492	-23.53085
364.707	35.47754
364.922	16.50851
365.138	-25.63794
365.353	64.98867
365.568	31.26204
365.783	77.63768
365.998	18.61609
366.213	60.77252
366.428	22.83131
366.643	24.93896
366.858	3.86356
367.073	60.77252
367.288	22.83131
367.503	52.34049
367.718	27.04663
367.933	1.75615
368.148	39.69314
368.363	-8.78052
368.578	14.40096
368.793	-27.74501
369.008	-23.53085
369.223	52.34049
369.438	-23.53085
369.653	-19.31659
369.868	102.93811
370.083	14.40096
370.298	37.58533
370.513	39.69314
370.728	79.74592
370.943	64.98867
371.157	41.80097
371.372	14.40096
371.587	-27.74501
371.802	22.83131
372.017	58.66448
372.232	-17.20943
372.446	43.90883
372.661	73.42125
372.876	-0.35123
373.091	56.55646
373.306	3.86356
373.52	-44.60065
373.735	43.90883
373.95	-2.45859
374.165	22.83131
374.379	56.55646
374.594	58.66448
374.809	27.04663
375.023	39.69314
375.238	22.83131
375.453	-48.81431
375.667	31.26204
375.882	48.12461
376.097	117.69816
376.311	-61.45468
376.526	-27.74501
376.741	-10.88778
376.955	24.93896
377.17	-10.88778
377.384	39.69314
377.599	27.04663
377.813	3.86356
378.028	50.23254
378.242	14.40096
378.457	-23.53085
378.672	12.29343
378.886	39.69314
379.101	14.40096
379.315	-10.88778
379.53	18.61609
379.744	20.72369
379.958	-34.06606
380.173	60.77252
380.387	52.34049
380.602	-25.63794
380.816	67.09678
381.031	128.24171
381.245	71.31307
381.459	77.63768
381.674	62.88058
381.888	94.50427
382.103	24.93896
382.317	-4.56592
382.531	22.83131
382.746	10.18593
382.96	113.4809
383.174	-27.74501
383.388	92.39587
383.603	-23.53085
383.817	-15.10224
384.031	56.55646
384.246	-10.88778
384.46	81.85419
384.674	18.61609
384.888	-15.10224
385.103	69.20492
385.317	69.20492
385.531	69.20492
385.745	-93.05161
385.959	33.36978
386.174	27.04663
386.388	20.72369
386.602	12.29343
386.816	50.23254
387.03	64.98867
387.244	-0.35123
387.458	-69.8811
387.672	52.34049
387.887	14.40096
388.101	-40.38689
388.315	8.07845
388.529	75.52945
388.743	96.6127
388.957	-53.02787
389.171	56.55646
389.385	43.90883
389.599	33.36978
389.813	115.58952
390.027	-8.78052
390.241	48.12461
390.455	69.20492
390.669	60.77252
390.883	22.83131
391.097	5.97099
391.311	-6.67324
391.525	-29.85205
391.738	60.77252
391.952	10.18593
392.166	31.26204
392.38	37.58533
392.594	-34.06606
392.808	83.96248
393.022	1.75615
393.236	31.26204
393.449	-78.3071
393.663	69.20492
393.877	43.90883
394.091	31.26204
394.305	16.50851
394.518	24.93896
394.732	58.66448
394.946	48.12461
395.16	29.15432
395.373	29.15432
395.587	48.12461
395.801	16.50851
396.015	94.50427
396.228	-10.88778
396.442	56.55646
396.656	75.52945
396.869	79.74592
397.083	35.47754
397.297	48.12461
397.51	33.36978
397.724	-36.17303
397.938	27.04663
398.151	29.15432
398.365	-19.31659
398.578	-36.17303
398.792	115.58952
399.005	12.29343
399.219	39.69314
399.433	79.74592
399.646	-19.31659
399.86	-36.17303
400.073	18.61609
400.287	1.75615
400.5	33.36978
400.714	52.34049
400.927	-31.95906
401.141	22.83131
401.354	27.04663
401.567	50.23254
401.781	67.09678
401.994	-0.35123
402.208	64.98867
402.421	43.90883
402.635	75.52945
402.848	96.6127
403.061	31.26204
403.275	-0.35123
403.488	10.18593
403.701	75.52945
403.915	3.86356
404.128	43.90883
404.341	50.23254
404.555	18.61609
404.768	64.98867
404.981	-27.74501
405.195	5.97099
405.408	90.28749
405.621	77.63768
405.834	64.98867
406.048	-31.95906
406.261	31.26204
406.474	-10.88778
406.687	48.12461
406.9	1.75615
407.114	1.75615
407.327	-0.35123
407.54	5.97099
407.753	39.69314
407.966	64.98867
408.179	46.01671
408.392	10.18593
408.605	10.18593
408.819	-53.02787
409.032	-27.74501
409.245	-6.67324
409.458	88.17913
409.671	22.83131
409.884	58.66448
410.097	-53.02787
410.31	62.88058
410.523	8.07845
410.736	-21.42373
410.949	-31.95906
411.162	24.93896
411.375	54.44846
411.588	69.20492
411.801	-6.67324
412.014	16.50851
412.227	31.26204
412.44	27.04663
412.653	1.75615
412.865	-40.38689
413.078	71.31307
413.291	12.29343
413.504	39.69314
413.717	5.97099
413.93	27.04663
414.143	22.83131
414.356	31.26204
414.568	-29.85205
414.781	-48.81431
414.994	-6.67324
415.207	58.66448
415.42	-44.60065
415.632	50.23254
415.845	31.26204
416.058	18.61609
416.271	-27.74501
416.483	54.44846
416.696	33.36978
416.909	-46.70749
417.121	3.86356
417.334	37.58533
417.547	24.93896
417.759	67.09678
417.972	60.77252
418.185	-2.45859
418.397	54.44846
418.61	-27.74501
418.823	73.42125
419.035	35.47754
419.248	73.42125
419.46	100.82962
419.673	-8.78052
419.885	22.83131
420.098	-8.78052
420.311	14.40096
420.523	-0.35123
420.736	18.61609
420.948	10.18593
421.161	-10.88778
421.373	35.47754
421.586	16.50851
421.798	-15.10224
422.01	8.07845
422.223	-31.95906
422.435	67.09678
422.648	14.40096
422.86	35.47754
423.073	69.20492
423.285	56.55646
423.497	31.26204
423.71	-17.20943
423.922	-27.74501
424.134	-10.88778
424.347	-48.81431
424.559	16.50851
424.771	-27.74501
424.984	31.26204
425.196	-69.8811
425.408	-107.79484
425.621	16.50851
425.833	-23.53085
426.045	39.69314
426.257	35.47754
426.47	24.93896
426.682	62.88058
426.894	-59.34802
427.106	10.18593
427.318	14.40096
427.531	14.40096
427.743	-27.74501
427.955	81.85419
428.167	58.66448
428.379	5.97099
428.591	24.93896
428.804	77.63768
429.016	107.15516
429.228	96.6127
429.44	18.61609
429.652	100.82962
429.864	62.88058
430.076	81.85419
430.288	-27.74501
430.5	-19.31659
430.712	56.55646
430.924	-2.45859
431.136	111.37229
431.348	16.50851
431.56	5.97099
431.772	5.97099
431.984	52.34049
432.196	-21.42373
432.408	73.42125
432.62	62.88058
432.832	50.23254
433.044	35.47754
433.256	39.69314
433.468	56.55646
433.679	35.47754
433.891	24.93896
434.103	33.36978
434.315	5.97099
434.527	109.26371
434.739	39.69314
434.95	-27.74501
435.162	52.34049
435.374	39.69314
435.586	43.90883
435.798	-8.78052
436.009	31.26204
436.221	73.42125
436.433	22.83131
436.645	18.61609
436.856	-15.10224
437.068	73.42125
437.28	-2.45859
437.491	46.01671
437.703	73.42125
437.915	-65.66794
438.126	18.61609
438.338	73.42125
438.55	18.61609
438.761	8.07845
438.973	64.98867
439.184	60.77252
439.396	-17.20943
439.608	24.93896
439.819	14.40096
440.031	39.69314
440.242	50.23254
440.454	16.50851
440.665	-4.56592
440.877	-69.8811
441.088	-8.78052
441.3	22.83131
441.511	39.69314
441.723	50.23254
441.934	56.55646
442.146	56.55646
442.357	102.93811
442.569	48.12461
442.78	39.69314
442.991	1.75615
443.203	22.83131
443.414	-48.81431
443.626	48.12461
443.837	-27.74501
444.048	56.55646
444.26	31.26204
444.471	5.97099
444.682	64.98867
444.894	31.26204
445.105	64.98867
445.316	-0.35123
445.528	77.63768
445.739	18.61609
445.95	52.34049
446.161	52.34049
446.373	-42.49378
446.584	-8.78052
446.795	27.04663
447.006	105.04662
447.217	35.47754
447.429	5.97099
447.64	79.74592
447.851	16.50851
448.062	14.40096
448.273	105.04662
448.484	126.13296
448.695	22.83131
448.907	-17.20943
449.118	-10.88778
449.329	54.44846
449.54	39.69314
449.751	62.88058
449.962	64.98867
450.173	48.12461
450.384	31.26204
450.595	22.83131
450.806	33.36978
451.017	58.66448
451.228	52.34049
451.439	94.50427
451.65	27.04663
451.861	50.23254
452.072	58.66448
452.283	92.39587
452.494	-6.67324
452.705	64.98867
452.915	-44.60065
453.126	52.34049
453.337	-42.49378
453.548	5.97099
453.759	-10.88778
453.97	33.36978
454.181	22.83131
454.391	27.04663
454.602	48.12461
454.813	56.55646
455.024	31.26204
455.235	75.52945
455.445	56.55646
455.656	39.69314
455.867	75.52945
456.078	64.98867
456.288	69.20492
456.499	22.83131
456.71	-19.31659
456.921	52.34049
457.131	35.47754
457.342	86.0708
457.553	-19.31659
457.763	-10.88778
457.974	-27.74501
458.184	27.04663
458.395	3.86356
458.606	149.33043
458.816	88.17913
459.027	69.20492
459.237	48.12461
459.448	64.98867
459.659	109.26371
459.869	-0.35123
460.08	22.83131
460.29	39.69314
460.501	39.69314
460.711	8.07845
460.922	56.55646
461.132	60.77252
461.343	50.23254
461.553	50.23254
461.764	109.26371
461.974	14.40096
462.184	22.83131
462.395	43.90883
462.605	52.34049
462.816	41.80097
463.026	86.0708
463.236	88.17913
463.447	5.97099
463.657	58.66448
463.867	20.72369
464.078	81.85419
464.288	56.55646
464.498	90.28749
464.709	48.12461
464.919	35.47754
465.129	-74.09415
465.339	22.83131
465.55	-6.67324
465.76	56.55646
465.97	67.09678
466.18	-2.45859
466.391	10.18593
466.601	31.26204
466.811	39.69314
467.021	3.86356
467.231	-31.95906
467.441	31.26204
467.651	73.42125
467.862	20.72369
468.072	48.12461
468.282	56.55646
468.492	83.96248
468.702	43.90883
468.912	50.23254
469.122	52.34049
469.332	-25.63794
469.542	88.17913
469.752	90.28749
469.962	-42.49378
470.172	60.77252
470.382	43.90883
470.592	60.77252
470.802	27.04663
471.012	48.12461
471.222	46.01671
471.432	69.20492
471.642	75.52945
471.852	35.47754
472.062	90.28749
472.272	58.66448
472.482	-19.31659
472.691	92.39587
472.901	81.85419
473.111	58.66448
473.321	33.36978
473.531	18.61609
473.741	29.15432
473.95	12.29343
474.16	92.39587
474.37	31.26204
474.58	10.18593
474.79	107.15516
474.999	-36.17303
475.209	52.34049
475.419	-36.17303
475.628	98.72115
475.838	1.75615
476.048	12.29343
476.258	52.34049
476.467	73.42125
476.677	-15.10224
476.886	41.80097
477.096	83.96248
477.306	18.61609
477.515	69.20492
477.725	75.52945
477.935	56.55646
478.144	5.97099
478.354	22.83131
478.563	-4.56592
478.773	20.72369
478.982	107.15516
479.192	73.42125
479.401	22.83131
479.611	8.07845
479.82	43.90883
480.03	18.61609
480.239	60.77252
480.449	121.91552
480.658	31.26204
480.868	109.26371
481.077	35.47754
481.287	96.6127
481.496	43.90883
481.705	92.39587
481.915	69.20492
482.124	62.88058
482.333	46.01671
482.543	102.93811
482.752	35.47754
482.961	96.6127
483.171	48.12461
483.38	134.5681
483.589	67.09678
483.799	117.69816
484.008	60.77252
484.217	48.12461
484.426	88.17913
484.636	20.72369
484.845	16.50851
485.054	64.98867
485.263	64.98867
485.472	46.01671
485.682	77.63768
485.891	105.04662
486.1	18.61609
486.309	102.93811
486.518	41.80097
486.727	39.69314
486.936	56.55646
487.146	58.66448
487.355	105.04662
487.564	24.93896
487.773	159.87558
487.982	100.82962
488.191	69.20492
488.4	102.93811
488.609	64.98867
488.818	90.28749
489.027	81.85419
489.236	58.66448
489.445	48.12461
489.654	98.72115
489.863	50.23254
490.072	69.20492
490.281	56.55646
490.49	73.42125
490.698	132.45929
490.907	64.98867
491.116	58.66448
491.325	174.63967
491.534	96.6127
491.743	12.29343
491.952	14.40096
492.16	81.85419
492.369	100.82962
492.578	29.15432
492.787	168.31207
492.996	22.83131
493.204	77.63768
493.413	96.6127
493.622	130.35049
493.831	24.93896
494.039	100.82962
494.248	56.55646
494.457	50.23254
494.665	56.55646
494.874	96.6127
495.083	98.72115
495.291	64.98867
495.5	109.26371
495.709	58.66448
495.917	64.98867
496.126	172.53045
496.335	115.58952
496.543	140.89469
496.752	96.6127
496.96	109.26371
497.169	132.45929
497.377	98.72115
497.586	96.6127
497.794	67.09678
498.003	22.83131
498.211	187.2954
498.42	176.7489
498.628	94.50427
498.837	124.02423
499.045	130.35049
499.254	126.13296
499.462	117.69816
499.671	56.55646
499.879	100.82962
500.087	83.96248
500.296	124.02423
500.504	105.04662
500.713	180.96744
500.921	172.53045
501.129	124.02423
501.338	8.07845
501.546	149.33043
501.754	24.93896
501.962	98.72115
502.171	100.82962
502.379	100.82962
502.587	124.02423
502.795	210.49949
503.004	143.00359
503.212	107.15516
503.42	98.72115
503.628	157.7665
503.837	126.13296
504.045	31.26204
504.253	159.87558
504.461	90.28749
504.669	174.63967
504.877	189.40476
505.085	153.54842
505.294	22.83131
505.502	170.42125
505.71	117.69816
505.918	109.26371
506.126	143.00359
506.334	126.13296
506.542	199.95188
506.75	223.15728
506.958	176.7489
507.166	176.7489
507.374	92.39587
507.582	208.38993
507.79	100.82962
507.998	210.49949
508.206	94.50427
508.414	199.95188
508.622	143.00359
508.83	126.13296
509.037	132.45929
509.245	134.5681
509.453	121.91552
509.661	242.1453
509.869	170.42125
510.077	202.06136
510.285	195.73297
510.492	187.2954
510.7	178.85816
510.908	233.70599
511.116	81.85419
511.324	218.93794
511.531	187.2954
511.739	246.36508
511.947	199.95188
512.155	227.37671
512.362	229.48645
512.57	195.73297
512.778	185.18606
512.985	149.33043
513.193	210.49949
513.401	208.38993
513.608	185.18606
513.816	178.85816
514.024	134.5681
514.231	237.92561
514.439	140.89469
514.646	225.26699
514.854	237.92561
515.061	187.2954
515.269	227.37671
515.477	216.8283
515.684	275.90563
515.892	259.02486
516.099	208.38993
516.307	199.95188
516.514	206.28038
516.722	303.33942
516.929	280.12601
517.136	261.13489
517.344	259.02486
517.551	225.26699
517.759	218.93794
517.966	318.11274
518.173	208.38993
518.381	259.02486
518.588	309.67074
518.796	318.11274
519.003	227.37671
519.21	269.5752
519.418	227.37671
519.625	294.89792
519.832	303.33942
520.039	282.23623
520.247	250.58493
520.454	284.34646
520.661	307.56028
520.868	252.69488
521.076	265.355
521.283	248.47499
521.49	311.78121
521.697	202.06136
521.904	334.99761
522.112	326.55503
522.319	345.55122
522.526	324.44443
522.733	286.45672
522.94	284.34646
523.147	351.8836
523.354	318.11274
523.561	301.22902
523.768	250.58493
523.975	347.662
524.183	237.92561
524.39	309.67074
524.597	351.8836
524.804	332.88694
525.011	381.43673
525.218	362.43791
525.425	309.67074
525.632	427.88395
525.838	364.54882
526.045	400.43691
526.252	351.8836
526.459	413.10444
526.666	375.10364
526.873	427.88395
527.08	351.8836
527.287	497.56906
527.494	402.54813
527.701	372.99264
527.907	410.99314
528.114	448.99889
528.321	470.11538
528.528	415.21575
528.735	406.7706
528.941	444.77578
529.148	442.66424
529.355	413.10444
529.562	440.55273
529.768	527.13733
529.975	493.34525
530.182	584.16957
530.388	444.77578
530.595	579.94462
530.802	463.78027
531.008	579.94462
531.215	478.56239
531.422	489.12151
531.628	503.90488
531.835	582.05709
532.042	438.44123
532.248	497.56906
532.455	609.52034
532.661	520.80104
532.868	448.99889
533.074	489.12151
533.281	518.68897
533.487	617.971
533.694	480.67419
533.9	651.77565
534.107	463.78027
534.313	672.90511
534.52	575.71972
534.726	596.84472
534.933	541.92251
535.139	565.15772
535.345	613.74564
535.552	622.19641
535.758	740.52702
535.965	658.11436
536.171	573.6073
536.377	708.82785
536.584	664.45318
536.79	677.13115
536.996	611.63298
537.203	672.90511
537.409	681.35723
537.615	656.00144
537.821	571.49488
538.028	710.94105
538.234	757.43422
538.44	645.43704
538.646	641.21136
538.853	867.34612
539.059	732.07367
539.265	768.00155
539.471	651.77565
539.677	816.61443
539.883	664.45318
540.09	841.97964
540.296	723.62049
540.502	787.02337
540.708	681.35723
540.914	911.74035
541.12	738.41367
541.326	744.75376
541.532	645.43704
541.738	852.54886
541.944	774.34207
542.15	903.28403
542.356	719.39397
542.562	863.11829
542.768	850.435
542.974	822.95561
543.18	768.00155
543.386	964.59503
543.592	911.74035
543.798	901.16997
544.004	934.99584
544.21	825.06936
544.415	833.52443
544.621	1008.99632
544.827	837.75202
545.033	901.16997
545.239	827.18311
545.445	998.42433
545.651	888.48578
545.856	1057.62946
546.062	981.50947
546.268	1011.11074
546.474	892.71381
546.679	949.79526
546.885	1011.11074
547.091	1095.69222
547.297	934.99584
547.502	951.90949
547.708	926.53919
547.914	1036.48424
548.119	1074.54603
548.325	1049.1713
548.531	973.05219
548.736	1036.48424
548.942	1055.51491
549.147	945.56682
549.353	1011.11074
549.559	1097.80687
549.764	1089.34831
549.97	1150.67455
550.175	1015.3396
550.381	1121.0683
550.586	1133.75658
550.792	1095.69222
550.997	1104.15084
551.203	1317.7512
551.408	1201.42996
551.614	1233.15312
551.819	1222.57865
552.025	1343.13127
552.23	1224.69354
552.435	1154.90408
552.641	1239.49783
552.846	1250.07242
553.052	1239.49783
553.257	1281.79656
553.462	1192.97058
553.668	1508.10463
553.873	1205.65967
554.078	1393.89199
554.283	1250.07242
554.489	1332.55621
554.694	1188.74091
554.899	1298.71631
555.105	1302.94628
555.31	1366.39652
555.515	1305.06126
555.72	1552.52034
555.925	1389.6619
556.131	1442.53809
556.336	1383.31679
556.541	1497.52941
556.746	1317.7512
556.951	1419.27253
557.156	1501.7595
557.361	1510.21968
557.567	1393.89199
557.772	1315.63621
557.977	1461.57356
558.182	1459.45851
558.387	1434.07789
558.592	1453.11335
558.797	1552.52034
559.002	1552.52034
559.207	1429.84778
559.412	1586.3605
559.617	1495.41436
559.822	1662.49913
560.027	1434.07789
560.232	1573.67049
560.437	1529.25502
560.642	1611.74035
560.847	1586.3605
561.051	1611.74035
561.256	1366.39652
561.461	1797.84749
561.666	1611.74035
561.871	1774.58555
562.076	1503.87455
562.281	1818.99427
562.485	1571.55548
562.69	1673.07369
562.895	1590.5905
563.1	1734.40471
563.305	1599.05046
563.509	1774.58555
563.714	1713.25638
563.919	1928.94978
564.123	1711.14153
564.328	1740.74914
564.533	1622.3152
564.737	1683.64819
564.942	1666.72896
565.147	1867.63013
565.351	1804.19157
565.556	1897.23328
565.761	1867.63013
565.965	1922.60658
566.17	1681.53329
566.374	1914.1489
566.579	1755.55269
566.784	1825.33822
566.988	1717.48608
567.193	1882.43183
567.397	1988.15042
567.602	2108.65012
567.806	1793.61808
568.011	1998.72145
568.215	2013.52063
568.42	2051.57414
568.624	1886.66085
568.828	2047.34608
569.033	1799.96219
569.237	1958.55069
569.442	1899.34776
569.646	2093.85316
569.85	1960.665
570.055	2146.69771
570.259	1882.43183
570.463	2153.03873
570.668	2051.57414
570.872	2072.71401
571.076	2019.86303
571.281	2172.06135
571.485	2007.17816
571.689	2307.31315
571.893	2049.46012
572.098	2157.26603
572.302	2013.52063
572.506	2224.8984
572.71	2079.05583
572.914	2199.53728
573.119	1967.00788
573.323	2237.57849
573.527	2203.76422
573.731	2110.76394
573.935	2138.24291
574.139	2398.16383
574.343	1998.72145
574.547	2427.73904
574.751	2229.12513
574.955	2188.96978
575.159	2309.42617
575.364	2343.23306
575.568	2064.25815
575.772	2262.93771
575.976	2169.94776
576.18	2341.1202
576.383	2398.16383
576.587	2552.35392
576.791	2224.8984
576.995	2404.50155
577.199	2345.34591
577.403	2645.26067
577.607	2393.93863
577.811	2594.58717
578.015	2381.26278
578.219	2446.75059
578.422	2349.57157
578.626	2596.69871
578.83	2360.13556
579.034	2712.81408
579.238	2531.23553
579.442	2668.48362
579.645	2484.77103
579.849	2689.59407
580.053	2541.79487
580.257	2609.36767
580.46	2465.76125
580.664	2809.89856
580.868	2503.7799
581.071	2630.48163
581.275	2522.78785
581.479	2723.36811
581.682	2588.25249
581.886	2670.59473
582.09	2611.47912
582.293	2816.22916
582.497	2548.13034
582.7	2619.9248
582.904	2702.25972
583.107	2953.36083
583.311	2704.37062
583.515	2746.58581
583.718	2704.37062
583.922	2864.75958
584.125	2803.56784
584.329	2925.93938
584.532	2712.81408
584.735	2932.26763
584.939	2689.59407
585.142	3014.52266
585.346	2862.64972
585.549	2909.06341
585.753	2795.12668
585.956	2915.39201
586.159	2818.33933
586.363	3081.99666
586.566	2881.63798
586.769	2997.6517
586.973	3025.06651
587.176	3010.30501
587.379	2966.01603
587.582	2934.37701
587.786	3027.17524
587.989	3016.63146
588.192	2824.66976
588.395	3115.72765
588.599	3094.64626
588.802	3122.05176
589.005	2993.4338
589.208	3233.75361
589.411	3039.82727
589.615	2991.32484
589.818	2984.99784
590.021	3111.5115
590.224	3073.56328
590.427	3212.68132
590.63	3105.18715
590.833	3235.86075
591.036	3016.63146
591.239	3227.4321
591.442	2871.08909
591.645	3271.67953
591.848	3081.99666
592.051	3242.18207
592.254	3174.74703
592.457	3309.59996
592.66	3187.39239
592.863	3343.30235
593.066	3155.7779
593.269	3275.89318
593.472	3277.99998
593.675	3425.43322
593.878	3341.19608
594.081	3473.85673
594.284	3275.89318
594.486	3341.19608
594.689	3469.64637
594.892	3616.96548
595.095	3522.27068
595.298	3612.75763
595.5	3379.10627
595.703	3663.24692
595.906	3288.53373
596.109	3486.48738
596.311	3600.13361
596.514	3614.86157
596.717	3450.69884
596.92	3684.2809
597.122	3625.38097
597.325	3501.22232
597.528	3402.27081
597.73	3791.52425
597.933	3486.48738
598.136	3728.44603
598.338	3585.40473
598.541	3722.13724
598.743	3627.4848
598.946	3616.96548
599.148	3549.63081
599.351	3711.62222
599.554	3419.11641
599.756	3612.75763
599.959	3747.37133
600.161	3823.05675
600.363	3829.36272
600.566	3659.0399
600.768	3745.2686
600.971	3888.20981
601.173	3688.48747
601.376	4079.35345
601.578	3785.21721
601.78	3795.72883
601.983	3696.90037
602.185	3970.14919
602.388	3848.27956
602.59	3778.91001
602.792	3764.1925
602.995	3911.32402
603.197	3816.7506
603.399	3934.4358
603.601	3804.13778
603.804	3959.64586
604.006	4070.9551
604.208	3984.853
604.41	3907.12162
604.613	4188.50154
604.815	3808.34213
605.017	3968.04857
605.219	3965.94792
605.421	3911.32402
605.623	3793.62655
605.826	4184.30459
606.028	3930.23384
606.23	4123.43931
606.432	3923.93075
606.634	4331.14723
606.836	3802.03557
607.038	4264.03216
607.24	4066.7558
607.442	4180.10755
607.644	4077.25389
607.846	4129.73653
608.048	3860.88989
608.25	4341.63196
608.452	3974.35038
608.654	4150.72593
608.856	3921.82968
609.058	4075.15432
609.26	4052.05761
609.462	4058.35696
609.664	4005.8567
609.866	3963.84726
610.067	3877.70255
610.269	4119.24105
610.471	4031.05843
610.673	4410.81761
610.875	4104.54649
611.077	4337.43813
611.278	4215.77967
611.48	4385.66193
611.682	4247.24997
611.884	4410.81761
612.085	4045.75807
612.287	4100.34786
612.489	4104.54649
612.69	4251.44564
612.892	4157.02234
613.094	4452.73676
613.295	4018.45793
613.497	4209.48503
613.699	4077.25389
613.9	4373.08292
614.102	4251.44564
614.304	4555.40146
614.505	4184.30459
614.707	4387.75836
614.908	4251.44564
615.11	4618.23113
615.311	4245.1521
615.513	4329.05021
615.714	4402.43274
615.916	4486.26575
616.117	4312.27334
616.319	4532.3589
616.52	4159.1211
616.722	4553.30679
616.923	4394.04751
617.124	4503.02813
617.326	4261.93446
617.527	4425.49031
617.729	4389.85477
617.93	4503.02813
618.131	4303.88439
618.333	4452.73676
618.534	4345.8257
618.735	4576.34691
618.937	4360.50312
619.138	4699.87959
619.339	4186.40308
619.54	4570.06351
619.742	4360.50312
619.943	4511.4088
620.144	4637.07611
620.345	4645.45107
620.546	4417.10604
620.748	4482.07493
620.949	4377.27601
621.15	4752.20034
621.351	4421.29822
621.552	4637.07611
621.753	4452.73676
621.954	4695.69332
622.155	4482.07493
622.356	4754.29287
622.558	4628.70078
622.759	4591.0074
622.96	4377.27601
623.161	4544.9279
623.362	4440.16193
623.563	4781.49378
623.764	4634.98231
623.965	4754.29287
624.166	4645.45107
624.366	4639.16988
624.567	4591.0074
624.768	4724.99531
624.969	4503.02813
625.17	4837.9757
625.371	4498.83767
625.572	4588.91311
625.773	4526.0741
625.973	4883.98572
626.174	4456.92819
626.375	4727.08814
626.576	4551.2121
626.777	4996.87236
626.977	4607.76091
627.178	4850.52498
627.379	4553.30679
627.58	4863.07344
627.78	4672.66723
627.981	4896.53198
628.182	4779.40154
628.382	4777.30927
628.583	4718.71669
628.784	4902.80481
628.984	4670.57382
629.185	4875.62108
629.386	4632.88849
629.586	4950.8896
629.787	4662.19993
629.987	4873.52987
630.188	4829.60906
630.388	4883.98572
630.589	4737.55195
630.79	4904.8957
630.99	4534.45379
631.191	4854.70789
631.391	4670.57382
631.591	4973.88237
631.792	4739.64465
631.992	5166.07611
632.193	5049.11195
632.393	4871.43863
632.594	4858.89071
632.794	4854.70789
632.994	4934.16583
633.195	5166.07611
633.395	4773.12468
633.595	5051.20124
633.796	4848.43349
633.996	5113.86896
634.196	4863.07344
634.397	5103.42579
634.597	4992.69257
634.797	5084.62662
634.997	4773.12468
635.198	4975.97249
635.398	5149.3714
635.598	5159.81202
635.798	5088.80438
635.998	5280.88057
636.199	5084.62662
636.399	5341.38536
636.599	5191.13037
636.799	5113.86896
636.999	5168.16409
637.199	5107.60313
637.399	5013.5906
637.599	5389.3579
637.799	4837.9757
637.999	5159.81202
638.199	5074.18182
638.399	5443.57277
638.599	5136.8419
638.799	5422.72278
638.999	5230.79276
639.199	5322.61011
639.399	5151.45957
639.599	5364.33029
639.799	5063.73645
639.999	5566.53985
640.199	5184.86712
640.399	5476.92787
640.599	4975.97249
640.799	5364.33029
640.998	5132.66521
641.198	5360.1587
641.398	5574.87363
641.598	5364.33029
641.798	5312.17861
641.997	5576.95702
642.197	5310.09223
642.397	5339.29931
642.597	5228.70547
642.796	5406.04109
642.996	5299.66002
643.196	5372.6732
643.395	5230.79276
643.595	5595.70644
643.795	5414.38212
643.994	5526.94923
644.194	5285.05394
644.394	5470.67425
644.593	5308.00584
644.793	5718.572
644.992	5397.69968
645.192	5541.53623
645.392	5406.04109
645.591	5456.08164
645.791	5222.44348
645.99	5618.61981
646.19	5374.75887
646.389	5739.38853
646.589	5474.84335
646.788	5529.03316
646.987	5401.87043
647.187	5541.53623
647.386	5489.43448
647.586	5514.44516
647.785	5564.45634
647.984	5872.55844
648.184	5549.87115
648.383	5914.15422
648.582	5468.58966
648.782	5618.61981
648.981	5422.72278
649.18	5516.52923
649.38	5639.44766
649.579	5722.7355
649.778	5574.87363
649.977	5822.63106
650.177	5631.1168
650.376	5810.14709
650.575	5662.35558
650.774	5772.69008
650.973	5756.04006
651.173	5708.16285
651.372	5710.24473
651.571	5818.46983
651.77	5668.6027
651.969	5747.71449
652.168	5491.51883
652.367	5739.38853
652.566	5549.87115
652.765	5839.27503
652.964	5766.4465
653.163	5891.27771
653.362	5668.6027
653.561	5887.11804
653.76	5606.12196
653.959	5789.33858
654.158	5843.43579
654.357	5885.03817
654.556	5614.45395
654.755	5714.40841
654.954	5745.63303
655.153	5722.7355
655.352	5849.67675
655.551	5793.50047
655.749	5849.67675
655.948	5772.69008
656.147	5934.94857
656.346	5989.00284
656.545	5989.00284
656.743	6229.97421
656.942	5789.33858
657.141	6250.73281
657.34	5893.35751
657.538	6082.52068
657.737	6005.63172
657.936	6312.99456
658.135	5984.84538
658.333	6007.71022
658.532	5801.82397
658.731	5941.18641
658.929	5801.82397
659.128	5676.93186
659.326	5835.11418
659.525	6026.4157
659.724	5787.2576
659.922	6184.29704
660.121	5874.63846
660.319	6223.74617
660.518	5643.61295
660.716	6043.04118
660.915	5862.15803
661.113	6097.06361
661.312	5851.75702
661.51	6043.04118
661.709	6109.52807
661.907	6306.76933
662.105	5914.15422
662.304	6157.30064
662.502	6030.57221
662.701	6134.45444
662.899	6057.58725
663.097	6140.6855
663.296	6007.71022
663.494	6315.06959
663.692	5964.05669
663.891	6275.64004
664.089	5943.26565
664.287	6105.37334
664.485	5995.23885
664.684	6217.51792
664.882	6045.11926
665.08	6171.83765
665.278	6121.99168
665.476	6371.08655
665.675	6107.45072
665.873	6238.27793
666.071	6200.90823
666.269	6300.54389
666.467	6026.4157
666.665	6443.67583
666.863	6121.99168
667.061	6119.91447
667.259	5999.39607
667.457	6265.26243
667.655	5968.21462
667.853	6086.67592
668.051	5855.91749
668.249	6072.13216
668.447	6105.37334
668.645	6395.97752
668.843	6155.22383
669.041	6153.147
669.239	5916.23376
669.437	6051.35336
669.635	6219.59403
669.833	6269.41354
670.031	5978.60903
670.229	6178.06745
670.426	6132.37737
670.624	6290.1677
670.822	6188.44998
671.02	6458.19026
671.218	6163.53093
671.415	6281.86632
671.613	6009.7887
671.811	6248.65705
672.009	6178.06745
672.206	6283.9417
672.404	6207.13704
672.602	6279.79091
672.799	6261.11123
672.997	6375.23528
673.195	6043.04118
673.392	6261.11123
673.59	6155.22383
673.788	6223.74617
673.985	6084.59831
674.183	6342.04284
674.38	6215.44179
674.578	6296.39349
674.775	5851.75702
674.973	6194.67921
675.17	6157.30064
675.368	6146.91636
675.565	6094.98612
675.763	6381.45819
675.96	6234.12612
676.158	6312.99456
676.355	5914.15422
676.553	6379.38391
676.75	6063.82092
676.947	6514.16385
677.145	6140.6855
677.342	6335.8186
677.539	6281.86632
677.737	6254.88425
677.934	6090.83107
678.131	6435.38136
678.329	6057.58725
678.526	6483.0695
678.723	6273.56456
678.92	6337.89337
679.118	6410.4957
679.315	6182.22053
679.512	6140.6855
679.709	6400.12569
679.906	6105.37334
680.104	6557.68718
680.301	6286.01705
680.498	6416.71743
680.695	6275.64004
680.892	6594.98477
681.089	6225.82221
681.286	6358.63981
681.483	6061.74305
681.68	6279.79091
681.877	6302.61906
682.075	6207.13704
682.272	6140.6855
682.469	6478.9232
682.665	6186.37352
682.862	6250.73281
683.059	6138.60851
683.256	6342.04284
683.453	6076.28764
683.65	6288.09239
683.847	6408.42174
684.044	6294.31825
684.241	6078.36534
684.438	6478.9232
684.635	6016.024
684.831	6607.41564
685.028	6229.97421
685.225	6113.6827
685.422	6138.60851
685.619	6246.58127
685.815	6207.13704
686.012	6344.11755
686.209	6144.83943
686.405	6429.16026
686.602	6144.83943
686.799	6275.64004
686.996	6109.52807
687.192	6169.76101
687.389	5939.10715
687.586	6097.06361
687.782	6032.65043
687.979	6256.95993
688.175	6055.50931
688.372	6070.05439
688.568	5816.38918
688.765	6188.44998
688.962	6115.75998
689.158	6271.48907
689.355	6097.06361
689.551	6151.07014
689.748	6140.6855
689.944	6379.38391
690.14	6134.45444
690.337	6113.6827
690.533	6283.9417
690.73	6248.65705
690.926	5895.43729
691.123	6030.57221
691.319	5997.31747
691.515	6086.67592
691.712	5984.84538
691.908	6283.9417
692.104	6011.86716
692.301	6400.12569
692.497	6092.9086
692.693	6223.74617
692.889	6013.94559
693.086	6171.83765
693.282	6022.25909
693.478	6213.36564
693.674	5847.59645
693.87	5964.05669
694.067	5955.74056
694.263	6097.06361
694.459	5726.8989
694.655	6088.7535
694.851	5905.83582
695.047	6155.22383
695.243	5855.91749
695.439	6182.22053
695.635	5928.71051
695.831	6140.6855
696.027	6018.10239
696.224	6298.4687
696.42	6161.45419
696.615	6371.08655
696.811	6192.60282
697.007	6331.66898
697.203	5805.98557
697.399	5922.47224
697.595	5914.15422
697.791	6209.21326
697.987	5760.20271
698.183	6323.36947
698.379	5932.86924
698.575	6178.06745
698.77	5868.39835
698.966	6074.20991
699.162	5966.13567
699.358	6339.96812
699.554	6099.14108
699.749	6200.90823
699.945	5874.63846
700.141	6092.9086
700.337	5957.81963
700.532	6057.58725
700.728	5820.55045
700.924	5914.15422
701.119	5864.23816
701.315	5885.03817
701.511	5934.94857
701.706	6022.25909
701.902	5949.50321
702.097	6009.7887
702.293	6111.60539
702.489	6209.21326
702.684	6294.31825
702.88	6329.59414
703.075	6080.44302
703.271	6124.06886
703.466	5947.42404
703.662	6286.01705
703.857	5941.18641
704.053	6319.21958
704.248	5909.99507
704.443	6148.99326
704.639	6007.71022
704.834	6207.13704
705.03	5926.63111
705.225	6165.60765
705.42	6130.30028
705.616	6229.97421
705.811	5914.15422
706.006	6180.144
706.202	5991.08153
706.397	5997.31747
706.592	6043.04118
706.787	5918.31328
706.983	5826.79219
707.178	6043.04118
707.373	5945.34486
707.568	6205.06079
707.763	6184.29704
707.959	6200.90823
708.154	6130.30028
708.349	6211.28946
708.544	6101.21852
708.739	6109.52807
708.934	5997.31747
709.129	5914.15422
709.324	5797.66227
709.519	6190.52641
709.714	5889.19789
709.909	6211.28946
710.104	5866.31826
710.299	6034.72863
710.494	5997.31747
710.689	6057.58725
710.884	5897.51704
711.079	6090.83107
711.274	5751.87732
711.469	5903.75616
711.664	5753.9587
711.859	6198.83191
712.054	5805.98557
712.249	6155.22383
712.443	5808.06634
712.638	6180.144
712.833	5895.43729
713.028	6126.14603
713.223	5703.99903
713.417	6005.63172
713.612	5887.11804
713.807	5980.68784
714.002	5839.27503
714.196	6215.44179
714.391	6011.86716
714.586	5918.31328
714.78	5857.99769
714.975	6007.71022
715.17	5710.24473
715.364	6072.13216
715.559	5801.82397
715.754	5760.20271
715.948	5912.07465
716.143	6080.44302
716.337	5818.46983
716.532	6061.74305
716.726	5928.71051
716.921	6005.63172
717.115	5695.67109
717.31	5864.23816
717.504	5614.45395
717.699	5968.21462
717.893	5526.94923
718.088	6088.7535
718.282	5716.49022
718.476	6067.97659
718.671	5572.79022
718.865	5961.9777
719.059	5695.67109
719.254	6163.53093
719.448	5855.91749
719.642	6101.21852
719.837	5756.04006
720.031	5885.03817
720.225	5589.45684
720.419	5818.46983
720.614	5787.2576
720.808	5920.39277
721.002	5626.95123
721.196	5774.77122
721.39	5635.28228
721.585	5837.19462
721.779	5647.77815
721.973	5814.3085
722.167	5549.87115
722.361	6105.37334
722.555	5887.11804
722.749	5932.86924
722.943	5724.81721
723.137	5756.04006
723.331	5714.40841
723.525	5820.55045
723.719	5787.2576
723.913	5830.95323
724.107	5531.11706
724.301	5706.08095
724.495	5516.52923
724.689	5726.8989
724.883	5693.58905
725.077	5778.93344
725.271	5808.06634
725.465	5797.66227
725.659	5722.7355
725.853	5714.40841
726.046	5693.58905
726.24	5745.63303
726.434	5424.80788
726.628	5830.95323
726.822	5389.3579
727.015	5785.17659
727.209	5672.76733
727.403	5818.46983
727.596	5504.02446
727.79	5733.14382
727.984	5443.57277
728.177	5689.42489
728.371	5662.35558
728.565	5637.36498
728.758	5449.82731
728.952	5712.32658
729.146	5635.28228
729.339	5822.63106
729.533	5568.62333
729.726	5793.50047
729.92	5724.81721
730.113	5805.98557
730.307	5631.1168
730.5	5857.99769
730.694	5535.2848
730.887	5681.0963
731.081	5743.55156
731.274	5695.67109
731.468	5668.6027
731.661	5774.77122
731.854	5691.50698
732.048	5868.39835
732.241	5564.45634
732.435	5822.63106
732.628	5789.33858
732.821	5828.87272
733.014	5618.61981
733.208	5618.61981
733.401	5512.36107
733.594	5579.04038
733.788	5593.62327
733.981	5778.93344
734.174	5899.59677
734.367	5691.50698
734.56	5891.27771
734.754	5862.15803
734.947	5693.58905
735.14	5656.10825
735.333	5762.28399
735.526	5693.58905
735.719	5824.71164
735.912	5668.6027
736.105	5651.94325
736.298	5764.36526
736.491	5579.04038
736.684	5878.79841
736.877	5516.52923
737.07	5747.71449
737.263	5635.28228
737.456	5635.28228
737.649	5637.36498
737.842	5818.46983
738.035	5741.47006
738.228	5710.24473
738.421	5516.52923
738.614	6034.72863
738.807	5889.19789
739	5564.45634
739.192	5470.67425
739.385	5560.28926
739.578	5568.62333
739.771	5672.76733
739.964	5574.87363
740.156	5649.86071
740.349	5516.52923
740.542	5387.27239
740.735	5428.97802
740.927	5468.58966
741.12	5232.88002
741.313	5618.61981
741.505	5468.58966
741.698	5581.12372
741.891	5735.22542
742.083	5930.78989
742.276	5922.47224
742.468	5731.06221
742.661	5753.9587
742.854	5889.19789
743.046	5522.7813
743.239	5543.62
743.431	5747.71449
743.624	5797.66227
743.816	5512.36107
744.009	5589.45684
744.201	5456.08164
744.393	5506.10864
744.586	5472.75881
744.778	5387.27239
744.971	5464.42041
745.163	5460.25107
745.355	5510.27695
745.548	5591.54007
745.74	5399.78507
745.932	5458.16637
746.125	5439.40296
746.317	5447.74249
746.509	5533.20094
746.702	5776.85234
746.894	5483.18128
747.086	5535.2848
747.278	5564.45634
747.471	5610.288
747.663	5539.45245
747.855	5803.90478
748.047	5326.78255
748.239	5783.09557
748.431	5420.63765
748.623	5526.94923
748.815	5339.29931
749.008	5547.78746
749.2	5531.11706
749.392	5785.17659
749.584	5504.02446
749.776	5781.01452
749.968	5835.11418
750.16	5685.26064
750.352	5393.52883
750.544	5643.61295
750.736	5618.61981
750.928	5639.44766
751.12	5337.21324
751.311	5581.12372
751.503	5443.57277
751.695	5374.75887
751.887	5243.31597
752.079	5466.50505
752.271	5355.98701
752.463	5566.53985
752.654	5224.53084
752.846	5526.94923
753.038	5414.38212
753.23	5491.51883
753.421	5372.6732
753.613	5408.12638
753.805	5130.57683
753.997	5333.04104
754.188	5203.65624
754.38	5262.09922
754.572	5189.04264
754.763	5282.96727
754.955	5193.21807
755.146	5447.74249
755.338	5397.69968
755.53	5581.12372
755.721	5491.51883
755.913	5272.53353
756.104	5479.01236
756.296	5418.55249
756.487	5212.00636
756.679	5201.56866
756.87	5084.62662
757.062	5197.39341
757.253	5266.27301
757.445	5270.44672
757.636	5295.48697
757.827	5295.48697
758.019	5151.45957
758.21	5391.44338
758.401	5172.33999
758.593	5216.18128
758.784	5449.82731
758.975	5391.44338
759.167	5255.83834
759.358	5297.57351
759.549	5205.74381
759.74	5504.02446
759.932	5061.64731
760.123	5070.00374
760.314	5082.53771
760.505	5126.4
760.696	5005.23167
760.888	4950.8896
761.079	4883.98572
761.27	5151.45957
761.461	4961.3412
761.652	5155.63584
761.843	5072.0928
762.034	5191.13037
762.225	5034.48632
762.416	5207.83135
762.607	5124.31155
762.798	5101.33709
762.989	5097.15961
763.18	5042.84397
763.371	4888.1679
763.562	5032.39686
763.753	4737.55195
763.944	4971.79223
764.135	4858.89071
764.326	5090.89322
764.517	4756.38539
764.708	5047.02265
764.899	4946.70879
765.089	5147.28321
765.28	4998.96222
765.471	5182.77932
765.662	4990.60264
765.853	5107.60313
766.043	4942.5279
766.234	4994.78248
766.425	4796.13883
766.615	4867.25608
766.806	4854.70789
766.997	4766.84761
767.187	4823.33383
767.378	4879.80345
767.569	4683.13397
767.759	4817.0584
767.95	4835.88407
768.141	4871.43863
768.331	4771.03235
768.522	4783.586
768.712	4881.89459
768.903	5017.76993
769.093	4877.71228
769.284	4810.78277
769.474	4783.586
769.665	4616.13713
769.855	4639.16988
770.046	4844.25044
770.236	4645.45107
770.426	4584.72447
770.617	4756.38539
770.807	4708.25186
770.998	4580.53573
771.188	4946.70879
771.378	4693.60015
771.569	4695.69332
771.759	4733.3665
771.949	4810.78277
772.139	4534.45379
772.33	4538.6435
772.52	4511.4088
772.71	4741.73732
772.9	4683.13397
773.09	4505.12333
773.281	4475.78854
773.471	4678.94734
773.661	4620.3251
773.851	4396.14385
774.041	4091.95034
774.231	4448.54524
774.421	4362.59981
774.611	4523.97912
774.802	4471.59751
774.992	4448.54524
775.182	4362.59981
775.372	4343.72884
775.562	4444.35363
775.752	4655.91928
775.942	4465.31079
776.131	4322.75905
776.321	4324.85613
776.511	4528.16906
776.701	4421.29822
776.891	4708.25186
777.081	4385.66193
777.271	4454.83248
777.461	4289.20289
777.651	4389.85477
777.84	4194.79681
778.03	4532.3589
778.22	4247.24997
778.41	4398.24017
778.599	4154.92356
778.789	4322.75905
778.979	4360.50312
779.169	4312.27334
779.358	4159.1211
779.548	4320.66195
779.738	4031.05843
779.927	4301.7871
780.117	4001.65612
780.307	4251.44564
780.496	4108.74504
780.686	4234.66242
780.875	3982.75251
781.065	4198.99355
781.254	4251.44564
781.444	4238.85836
781.633	4299.68978
781.823	4167.51593
782.012	4003.75642
782.202	4211.58327
782.391	4201.09189
782.581	4112.94351
782.77	4039.45835
782.96	3999.5558
783.149	3785.21721
783.338	3869.29638
783.528	3911.32402
783.717	4140.23149
783.906	4087.75146
784.096	4070.9551
784.285	3915.52635
784.474	4159.1211
784.663	3951.24283
784.853	4039.45835
785.042	3951.24283
785.231	4138.13254
785.42	4133.93458
785.61	4026.85834
785.799	3799.93335
785.988	4089.85091
786.177	3932.33483
786.366	4175.91043
786.555	4127.63748
786.744	3986.95346
786.933	3999.5558
787.122	4186.40308
787.312	4035.25843
787.501	4180.10755
787.69	4070.9551
787.879	4012.15741
788.068	4041.55827
788.257	3982.75251
788.445	3654.8328
788.634	3959.64586
788.823	3745.2686
789.012	3785.21721
789.201	3755.78207
789.39	3846.17776
789.579	3528.58484
789.768	3795.72883
789.957	3755.78207
790.145	3762.08992
790.334	3837.7704
790.523	3844.07595
790.712	3665.35041
790.9	3787.31958
791.089	3600.13361
791.278	3812.54641
791.467	3511.74673
791.655	3749.47404
791.844	3669.55732
792.033	3793.62655
792.221	3414.90512
792.41	3650.62562
792.599	3494.90746
792.787	3671.66074
792.976	3682.17759
793.164	3881.90551
793.353	3505.43214
793.541	3837.7704
793.73	3593.82135
793.918	3818.85267
794.107	3520.16593
794.295	3730.54891
794.484	3650.62562
794.672	3623.27713
794.861	3581.19632
795.049	3614.86157
795.238	3486.48738
795.426	3631.69239
795.614	3486.48738
795.803	3581.19632
795.991	3444.38268
796.179	3568.57062
796.368	3545.42177
796.556	3503.32724
796.744	3286.42702
796.932	3465.43593
797.121	3183.17733
797.309	3311.70649
797.497	3330.66447
797.685	3612.75763
797.874	3539.10805
798.062	3667.45387
798.25	3128.37573
798.438	3522.27068
798.626	3248.50323
798.814	3452.8042
799.002	3219.00318
799.19	3562.25752
799.378	3301.17367
799.566	3345.4086
799.755	3370.68227
799.943	3261.1451
800.131	3219.00318
800.318	3237.96787
800.506	3368.57623
800.694	3296.96043
800.882	3214.78863
801.07	3465.43593
801.258	3452.8042
801.446	3457.01485
801.634	3259.03816
801.822	3448.59347
802.01	3275.89318
802.197	3351.72725
802.385	3269.57267
802.573	3200.03715
802.761	3303.28027
802.949	3322.23887
803.136	3212.68132
803.324	3469.64637
803.512	3275.89318
803.699	3410.69376
803.887	3111.5115
804.075	3469.64637
804.262	3092.53803
804.45	3381.21222
804.638	3273.78636
804.825	3562.25752
805.013	3395.95342
805.201	3452.8042
805.388	3364.36409
805.576	3562.25752
805.763	3465.43593
805.951	3705.31297
806.138	3442.27726
806.326	3684.2809
806.513	3273.78636
806.701	3364.36409
806.888	3048.26164
807.075	3435.96088
807.263	3332.77082
807.45	3587.50891
807.638	3391.74174
807.825	3334.87716
808.012	3048.26164
808.2	3537.00345
808.387	3202.14455
808.574	3547.5263
808.761	3435.96088
808.949	3539.10805
809.136	3347.51483
809.323	3530.68952
809.51	3355.9396
809.698	3339.08979
809.885	3214.78863
810.072	3280.10677
810.259	3240.07498
810.446	3377.00029
810.633	3149.45456
810.82	3566.46627
811.008	3576.98782
811.195	3650.62562
811.382	3417.01078
811.569	3558.04869
811.756	3438.06635
811.943	3431.74987
812.13	3299.06706
812.317	3621.17327
812.504	3526.48014
812.691	3789.42192
812.878	3537.00345
813.064	3646.41837
813.251	3513.85156
813.438	3545.42177
813.625	3313.813
813.812	3419.11641
813.999	3286.42702
814.186	3604.34169
814.372	3381.21222
814.559	3537.00345
814.746	3151.56236
814.933	3604.34169
815.12	3429.64434
815.306	3631.69239
815.493	3364.36409
815.68	3537.00345
815.866	3461.22543
816.053	3619.06938
816.24	3322.23887
816.426	3503.32724
816.613	3339.08979
816.799	3537.00345
816.986	3343.30235
817.173	3539.10805
817.359	3282.21353
817.546	3423.32764
817.732	3391.74174
817.919	3461.22543
818.105	3336.98348
818.292	3545.42177
818.478	3395.95342
818.665	3688.48747
818.851	3501.22232
819.037	3414.90512
819.224	3402.27081
819.41	3452.8042
819.597	3244.28914
819.783	3438.06635
819.969	3457.01485
820.156	3564.3619
820.342	3362.25799
820.528	3532.79418
820.714	3341.19608
820.901	3368.57623
821.087	3115.72765
821.273	3355.9396
821.459	3136.80745
821.646	3526.48014
821.832	3334.87716
822.018	3473.85673
822.204	3153.67014
822.39	3587.50891
822.576	3393.84759
822.762	3530.68952
822.948	3280.10677
823.134	3364.36409
823.32	3210.574
823.507	3379.10627
823.693	3077.78
823.879	3309.59996
824.065	3284.32028
824.25	3461.22543
824.436	3181.06978
824.622	3389.63587
824.808	3305.38685
824.994	3372.7883
825.18	3107.29529
825.366	3170.53178
825.552	3098.86266
825.738	3214.78863
825.923	3050.3702
826.109	3389.63587
826.295	2984.99784
826.481	3225.3249
826.667	3254.82424
826.852	3181.06978
827.038	3178.96222
827.224	3301.17367
827.409	3153.67014
827.595	3259.03816
827.781	3048.26164
827.966	3271.67953
828.152	3134.69955
828.338	3200.03715
828.523	2923.82993
828.709	3280.10677
828.894	2921.72047
829.08	3141.02322
829.266	2938.59574
829.451	3379.10627
829.637	2947.03302
829.822	3016.63146
830.008	2856.32004
830.193	2951.25157
830.378	2902.73468
830.564	3162.10109
830.749	2991.32484
830.935	3233.75361
831.12	2797.23699
831.305	3035.60999
831.491	2710.70323
831.676	2987.10685
831.861	2778.24371
832.047	3031.39264
832.232	2721.25733
832.417	3018.74025
832.602	2887.96714
832.788	2879.52823
832.973	2740.25387
833.158	3006.0873
833.343	2866.86943
833.528	3025.06651
833.714	2700.14882
833.899	2896.40582
834.084	2567.1361
834.269	2892.18651
834.454	2788.79567
834.639	2904.84427
834.824	2835.22021
835.009	2871.08909
835.194	2575.5828
835.379	2805.67809
835.564	2634.70427
835.749	2841.55031
835.934	2738.14319
836.119	2695.92696
836.304	2584.02931
836.489	2708.59238
836.674	2647.37191
836.859	2708.59238
837.044	2660.03909
837.228	2860.53984
837.413	2854.21012
837.598	2879.52823
837.783	2609.36767
837.968	2769.8019
838.152	2613.59056
838.337	2721.25733
838.522	2450.97525
838.707	2655.81674
838.891	2554.4657
839.076	2826.77988
839.261	2845.7703
839.445	2752.91763
839.63	2516.45197
839.815	2757.13878
839.999	2571.35947
840.184	2700.14882
840.368	2531.23553
840.553	2465.76125
840.737	2459.42446
840.922	2681.15005
841.106	2402.38898
841.291	2505.89194
841.475	2248.14499
841.66	2444.63824
841.844	2207.99112
842.029	2415.0642
842.213	2265.05092
842.397	2581.9177
842.582	2169.94776
842.766	2410.83917
842.951	2119.21914
843.135	2391.82601
843.319	2229.12513
843.504	2343.23306
843.688	2298.86101
843.872	2676.92796
844.056	2552.35392
844.241	2731.81109
844.425	2372.81202
844.609	2546.01853
844.793	2425.6266
844.977	2391.82601
845.161	2144.58402
845.346	2425.6266
845.53	2434.07632
845.714	2531.23553
845.898	2176.2885
846.082	2385.48811
846.266	2279.84312
846.45	2512.22799
846.634	2252.37152
846.818	2322.10404
847.002	2286.1825
847.186	2533.34742
847.37	2089.62539
847.554	2252.37152
847.738	2068.48609
847.922	2216.44483
848.106	2072.71401
848.29	2229.12513
848.473	2243.91842
848.657	2169.94776
848.841	2013.52063
849.025	2140.35662
849.209	2108.65012
849.392	2129.78798
849.576	2155.15239
849.76	2161.49331
849.944	1935.29293
850.127	2104.42245
850.311	1933.17855
850.495	2087.51149
850.678	1882.43183
850.862	2292.5218
851.046	1912.03447
851.229	2220.67163
851.413	1996.60726
851.596	2002.94982
851.78	1867.63013
851.964	2148.81139
852.147	2013.52063
852.331	2248.14499
852.514	1865.51558
852.698	2093.85316
852.881	1857.05733
853.065	2136.12919
853.248	1833.79675
853.431	2085.39759
853.615	1869.74468
853.798	2085.39759
853.982	1818.99427
854.165	2017.7489
854.348	1783.04449
854.532	2104.42245
854.715	1878.2028
854.898	1969.12216
855.081	1799.96219
855.265	1958.55069
855.448	1776.70029
855.631	1884.54634
855.814	1689.99285
855.997	1905.69114
856.181	1831.68213
856.364	1907.80559
856.547	1664.61404
856.73	1903.57668
856.913	1725.94542
857.096	1848.59901
857.279	1694.22261
857.462	1747.09354
857.645	1662.49913
857.828	1783.04449
858.011	1467.91872
858.194	1620.20024
858.377	1630.77505
858.56	1818.99427
858.743	1567.32546
858.926	1696.33749
859.109	1586.3605
859.292	1730.17507
859.475	1499.64446
859.658	1785.15922
859.841	1478.49398
860.023	1692.10773
860.206	1550.40531
860.389	1753.43791
860.572	1535.60012
860.755	1696.33749
860.937	1535.60012
861.12	1635.00495
861.303	1535.60012
861.486	1721.71575
861.668	1425.61768
861.851	1474.26387
862.034	1355.82139
862.216	1738.63433
862.399	1311.40622
862.581	1489.06922
862.764	1421.38758
862.947	1546.17526
863.129	1438.30799
863.312	1658.26928
863.494	1453.11335
863.677	1827.45286
863.859	1544.06024
864.042	1501.7595
864.224	1298.71631
864.406	1493.29932
864.589	1180.28161
864.771	1544.06024
864.954	1311.40622
865.136	1379.08671
865.318	1250.07242
865.501	1434.07789
865.683	1396.00703
865.865	1404.4672
866.048	1256.4172
866.23	1391.77694
866.412	1368.51155
866.594	1349.47632
866.777	1343.13127
866.959	1482.72408
867.141	1357.93641
867.323	1404.4672
867.505	1152.78931
867.687	1286.02648
867.869	1239.49783
868.052	1256.4172
868.234	1182.39643
868.416	1550.40531
868.598	1387.54686
868.78	1541.94521
868.962	1300.83129
869.144	1366.39652
869.326	1209.8894
869.508	1256.4172
869.69	1190.85574
869.872	1288.14145
870.054	1125.29771
870.236	1351.59134
870.417	1324.09619
870.599	1501.7595
870.781	1330.44121
870.963	1300.83129
871.145	1307.17624
871.327	1264.87694
871.508	1112.60953
871.69	1305.06126
871.872	1078.77523
872.054	1351.59134
872.235	1116.8389
872.417	1324.09619
872.599	1131.64186
872.78	1197.20026
872.962	1017.45403
873.144	1212.00427
873.325	1144.33028
873.507	1218.34889
873.689	1095.69222
873.87	1199.31511
874.052	960.36649
874.233	1224.69354
874.415	1218.34889
874.596	1497.52941
874.778	1095.69222
874.959	1184.51125
875.141	970.93789
875.322	1222.57865
875.503	1131.64186
875.685	1129.52714
875.866	962.48076
876.048	1127.41242
876.229	1055.51491
876.41	1231.03822
876.592	1106.2655
876.773	1448.88325
876.954	1142.21553
877.136	1332.55621
877.317	1068.20228
877.498	1121.0683
877.679	1002.65311
877.86	1118.9536
878.042	962.48076
878.223	1266.99189
878.404	996.30995
878.585	1186.62608
878.766	1163.36319
878.947	1243.72766
879.128	1129.52714
879.309	1286.02648
879.49	1055.51491
879.672	1283.91152
879.853	1112.60953
880.034	1302.94628
880.215	1286.02648
880.396	1212.00427
880.576	1209.8894
880.757	1391.77694
880.938	1078.77523
881.119	1326.2112
881.3	1226.80843
881.481	1277.56664
881.662	1104.15084
881.843	1228.92332
882.023	1049.1713
882.204	1165.47798
882.385	1108.38017
882.566	1317.7512
882.747	1089.34831
882.927	1328.3262
883.108	1161.24841
883.289	1298.71631
883.469	1140.10079
883.65	1258.53213
883.831	1180.28161
884.011	1368.51155
884.192	1144.33028
884.373	1201.42996
884.553	1076.66063
884.734	1313.52121
884.914	1068.20228
885.095	1205.65967
885.275	1070.31686
885.456	1355.82139
885.636	1142.21553
885.817	1442.53809
885.997	1140.10079
886.178	1467.91872
886.358	1197.20026
886.538	1300.83129
886.719	1207.77453
886.899	1421.38758
887.08	1209.8894
887.26	1338.90124
887.44	1070.31686
887.621	1353.70636
887.801	945.56682
887.981	1355.82139
888.161	1197.20026
888.342	1379.08671
888.522	1290.25642
888.702	1212.00427
888.882	1099.92152
889.062	1224.69354
889.242	1114.72421
889.423	1273.33673
889.603	1095.69222
889.783	1317.7512
889.963	1121.0683
890.143	1305.06126
890.323	1028.02631
890.503	1173.93717
890.683	1173.93717
890.863	1199.31511
891.043	1091.46294
891.223	1192.97058
891.403	1157.01885
891.583	1353.70636
891.763	1188.74091
891.943	1209.8894
892.122	1264.87694
892.302	1402.35216
892.482	1133.75658
892.662	1292.37139
892.842	1116.8389
893.022	1076.66063
893.201	1006.88191
893.381	1207.77453
893.561	1239.49783
893.741	1199.31511
893.92	1091.46294
894.1	1345.24629
894.28	1192.97058
894.459	1212.00427
894.639	1106.2655
894.819	1197.20026
894.998	1110.49485
895.178	1097.80687
895.357	1157.01885
895.537	1256.4172
895.716	1108.38017
895.896	1137.98605
896.075	1087.23368
896.255	1197.20026
896.434	1144.33028
896.614	1269.10683
896.793	1116.8389
896.973	1049.1713
897.152	907.51217
897.331	1140.10079
897.511	998.42433
897.69	1133.75658
897.87	1047.05678
898.049	1127.41242
898.228	922.31091
898.407	1214.11914
898.587	951.90949
898.766	977.28082
898.945	941.33841
899.124	1070.31686
899.304	930.7675
899.483	1040.71324
899.662	884.25779
899.841	1125.29771
900.02	1000.53871
900.199	1083.00445
900.378	871.57399
900.557	945.56682
900.737	825.06936
900.916	966.70931
901.095	778.56913
901.274	1036.48424
901.453	858.89049
901.632	808.15966
901.811	852.54886
901.989	977.28082
902.168	861.00439
902.347	977.28082
902.526	742.64038
902.705	886.37178
902.884	757.43422
903.063	782.79623
903.242	710.94105
903.42	960.36649
903.599	658.11436
903.778	799.70503
903.957	662.34023
904.135	732.07367
904.314	656.00144
904.493	715.16749
904.672	613.74564
904.85	715.16749
905.029	617.971
905.207	634.87293
905.386	713.05426
905.565	675.01812
905.743	664.45318
905.922	632.76015
906.1	484.89782
906.279	776.4556
906.457	567.2701
906.636	725.73377
906.814	584.16957
906.993	609.52034
907.171	548.25922
907.35	588.39456
907.528	470.11538
907.707	478.56239
907.885	506.01685
908.063	508.12883
908.242	470.11538
908.42	415.21575
908.598	465.89196
908.777	601.06987
908.955	472.22711
909.133	465.89196
909.311	377.21465
909.49	520.80104
909.668	353.99443
909.846	645.43704
910.024	366.65975
910.202	550.37148
910.38	527.13733
910.559	541.92251
910.737	415.21575
910.915	588.39456
911.093	522.91312
911.271	497.56906
911.449	535.58592
911.627	584.16957
911.805	461.6686
911.983	446.88733
912.161	582.05709
912.339	617.971
912.517	427.88395
912.695	525.02522
912.872	446.88733
913.05	474.33885
913.228	514.46487
913.406	550.37148
913.584	446.88733
913.762	565.15772
913.939	495.45715
914.117	577.83217
914.295	491.23337
914.473	594.73216
914.65	457.4453
914.828	546.14697
915.006	438.44123
915.184	499.68099
915.361	419.43842
915.539	573.6073
915.716	389.88109
915.894	598.95729
916.072	406.7706
916.249	548.25922
916.427	438.44123
916.604	533.47375
916.782	442.66424
916.959	552.48376
917.137	404.65936
917.314	495.45715
917.492	362.43791
917.669	539.8103
917.847	436.32974
918.024	440.55273
918.201	419.43842
918.379	495.45715
918.556	415.21575
918.733	372.99264
918.911	356.10527
919.088	463.78027
919.265	425.77255
919.442	318.11274
919.62	326.55503
919.797	448.99889
919.974	425.77255
920.151	423.66115
920.328	372.99264
920.506	432.10681
920.683	294.89792
920.86	394.10337
921.037	375.10364
921.214	330.77629
921.391	381.43673
921.568	351.8836
921.745	379.32569
921.922	438.44123
922.099	351.8836
922.276	339.219
922.453	402.54813
922.63	368.7707
922.807	316.00221
922.984	381.43673
923.161	364.54882
923.338	368.7707
923.514	328.66565
923.691	427.88395
923.868	307.56028
924.045	280.12601
924.222	278.01581
924.399	320.22329
924.575	345.55122
924.752	305.44984
924.929	343.44047
925.105	364.54882
925.282	301.22902
925.459	250.58493
925.635	284.34646
925.812	318.11274
925.989	237.92561
926.165	297.00827
926.342	263.24494
926.518	284.34646
926.695	263.24494
926.871	396.21454
927.048	284.34646
927.224	324.44443
927.401	174.63967
927.577	271.68532
927.754	221.0476
927.93	218.93794
928.107	259.02486
928.283	189.40476
928.459	280.12601
928.636	282.23623
928.812	267.46509
928.988	339.219
929.165	195.73297
929.341	267.46509
929.517	208.38993
929.693	216.8283
929.87	240.03545
930.046	227.37671
930.222	151.43941
930.398	235.81579
930.574	267.46509
930.751	320.22329
930.927	242.1453
931.103	153.54842
931.279	212.60907
931.455	159.87558
931.631	216.8283
931.807	330.77629
931.983	237.92561
932.159	244.25518
932.335	193.62355
932.511	170.42125
932.687	202.06136
932.863	202.06136
933.039	170.42125
933.215	168.31207
933.391	157.7665
933.566	197.84241
933.742	149.33043
933.918	143.00359
934.094	172.53045
934.27	187.2954
934.445	90.28749
934.621	115.58952
934.797	67.09678
934.973	102.93811
935.148	140.89469
935.324	100.82962
935.5	126.13296
935.675	117.69816
935.851	168.31207
936.027	216.8283
936.202	111.37229
936.378	130.35049
936.553	79.74592
936.729	81.85419
936.904	115.58952
937.08	149.33043
937.255	138.7858
937.431	86.0708
937.606	41.80097
937.782	73.42125
937.957	79.74592
938.133	50.23254
938.308	132.45929
938.483	64.98867
938.659	183.07674
938.834	102.93811
939.009	58.66448
939.185	111.37229
939.36	126.13296
939.535	-4.56592
939.71	69.20492
939.886	94.50427
940.061	52.34049
940.236	79.74592
940.411	75.52945
940.586	-0.35123
940.761	94.50427
940.937	90.28749
941.112	33.36978
941.287	79.74592
941.462	136.67694
941.637	132.45929
941.812	48.12461
941.987	27.04663
942.162	48.12461
942.337	41.80097
942.512	81.85419
942.687	92.39587
942.862	71.31307
943.037	-27.74501
943.212	90.28749
943.386	64.98867
943.561	22.83131
943.736	90.28749
943.911	90.28749
944.086	5.97099
944.26	86.0708
944.435	31.26204
944.61	86.0708
944.785	54.44846
944.959	56.55646
945.134	117.69816
945.309	111.37229
945.483	14.40096
945.658	22.83131
945.833	71.31307
946.007	22.83131
946.182	43.90883
946.357	64.98867
946.531	88.17913
946.706	16.50851
946.88	75.52945
947.055	-0.35123
947.229	22.83131
947.404	94.50427
947.578	62.88058
947.752	48.12461
947.927	77.63768
948.101	10.18593
948.276	22.83131
948.45	16.50851
948.624	90.28749
948.799	77.63768
948.973	64.98867
949.147	52.34049
949.321	39.69314
949.496	98.72115
949.67	69.20492
949.844	39.69314
950.018	115.58952
950.193	111.37229
950.367	64.98867
950.541	48.12461
950.715	39.69314
950.889	90.28749
951.063	52.34049
951.237	-2.45859
951.411	69.20492
951.585	105.04662
951.759	60.77252
951.933	86.0708
952.107	105.04662
952.281	41.80097
952.455	10.18593
952.629	86.0708
952.803	105.04662
952.977	132.45929
953.151	64.98867
953.325	73.42125
953.499	77.63768
953.672	109.26371
953.846	113.4809
954.02	94.50427
954.194	94.50427
954.368	69.20492
954.541	94.50427
954.715	43.90883
954.889	90.28749
955.062	90.28749
955.236	43.90883
955.41	60.77252
955.583	73.42125
955.757	86.0708
955.93	83.96248
956.104	69.20492
956.278	35.47754
956.451	64.98867
956.625	119.80683
956.798	58.66448
956.972	41.80097
957.145	92.39587
957.319	14.40096
957.492	117.69816
957.665	46.01671
957.839	102.93811
958.012	77.63768
958.185	29.15432
958.359	41.80097
958.532	29.15432
958.705	-31.95906
958.879	109.26371
959.052	86.0708
959.225	62.88058
959.398	54.44846
959.572	48.12461
959.745	69.20492
959.918	98.72115
960.091	86.0708
960.264	56.55646
960.438	79.74592
960.611	67.09678
960.784	8.07845
960.957	77.63768
961.13	-6.67324
961.303	56.55646
961.476	64.98867
961.649	77.63768
961.822	35.47754
961.995	75.52945
962.168	41.80097
962.341	136.67694
962.514	52.34049
962.686	98.72115
962.859	62.88058
963.032	100.82962
963.205	69.20492
963.378	27.04663
963.551	1.75615
963.723	149.33043
963.896	102.93811
964.069	117.69816
964.242	56.55646
964.414	54.44846
964.587	111.37229
964.76	67.09678
964.932	102.93811
965.105	22.83131
965.278	20.72369
965.45	31.26204
965.623	69.20492
965.795	90.28749
965.968	27.04663
966.14	115.58952
966.313	64.98867
966.485	107.15516
966.658	67.09678
966.83	58.66448
967.003	75.52945
967.175	81.85419
967.348	90.28749
967.52	60.77252
967.692	48.12461
967.865	73.42125
968.037	92.39587
968.209	18.61609
968.382	90.28749
968.554	73.42125
968.726	73.42125
968.898	83.96248
969.071	64.98867
969.243	67.09678
969.415	128.24171
969.587	54.44846
969.759	35.47754
969.932	-6.67324
970.104	54.44846
970.276	58.66448
970.448	8.07845
970.62	39.69314
970.792	71.31307
970.964	56.55646
971.136	50.23254
971.308	128.24171
971.48	96.6127
971.652	27.04663
971.824	69.20492
971.996	-27.74501
972.168	105.04662
972.339	83.96248
972.511	27.04663
972.683	1.75615
972.855	27.04663
973.027	75.52945
973.199	56.55646
973.37	54.44846
973.542	67.09678
973.714	-19.31659
973.886	-61.45468
974.057	117.69816
974.229	56.55646
974.401	39.69314
974.572	-12.99502
974.744	35.47754
974.915	94.50427
975.087	60.77252
975.259	71.31307
975.43	128.24171
975.602	48.12461
975.773	50.23254
975.945	29.15432
976.116	50.23254
976.288	88.17913
976.459	43.90883
976.63	12.29343
976.802	33.36978
976.973	124.02423
977.145	33.36978
977.316	98.72115
977.487	69.20492
977.659	56.55646
977.83	96.6127
978.001	-25.63794
978.172	79.74592
978.344	46.01671
978.515	96.6127
978.686	60.77252
978.857	86.0708
979.028	-31.95906
979.2	60.77252
979.371	-10.88778
979.542	60.77252
979.713	52.34049
979.884	29.15432
980.055	22.83131
980.226	39.69314
980.397	39.69314
980.568	67.09678
980.739	90.28749
980.91	100.82962
981.081	75.52945
981.252	18.61609
981.423	60.77252
981.594	22.83131
981.765	134.5681
981.936	81.85419
982.106	92.39587
982.277	136.67694
982.448	35.47754
982.619	75.52945
982.79	14.40096
982.96	-6.67324
983.131	73.42125
983.302	73.42125
983.472	83.96248
983.643	155.65745
983.814	62.88058
983.984	35.47754
984.155	48.12461
984.326	92.39587
984.496	52.34049
984.667	-6.67324
984.837	86.0708
985.008	58.66448
985.178	8.07845
985.349	5.97099
985.519	50.23254
985.69	56.55646
985.86	24.93896
986.031	39.69314
986.201	-17.20943
986.371	-17.20943
986.542	-55.13461
986.712	8.07845
986.882	39.69314
987.053	-19.31659
987.223	1.75615
987.393	39.69314
987.563	75.52945
987.734	50.23254
987.904	33.36978
988.074	81.85419
988.244	100.82962
988.414	31.26204
988.585	48.12461
988.755	-25.63794
988.925	58.66448
989.095	14.40096
989.265	58.66448
989.435	90.28749
989.605	81.85419
989.775	69.20492
989.945	10.18593
990.115	75.52945
990.285	92.39587
990.455	64.98867
990.625	62.88058
990.795	31.26204
990.965	81.85419
991.134	48.12461
991.304	27.04663
991.474	35.47754
991.644	52.34049
991.814	27.04663
991.984	22.83131
992.153	102.93811
992.323	3.86356
992.493	69.20492
992.662	-6.67324
992.832	90.28749
993.002	18.61609
993.171	50.23254
993.341	1.75615
993.511	64.98867
993.68	29.15432
993.85	27.04663
994.019	92.39587
994.189	14.40096
994.358	12.29343
994.528	-4.56592
994.697	31.26204
994.867	43.90883
995.036	121.91552
995.206	64.98867
995.375	39.69314
995.544	92.39587
995.714	20.72369
995.883	-0.35123
996.052	5.97099
996.222	50.23254
996.391	24.93896
996.56	24.93896
996.73	56.55646
996.899	60.77252
997.068	16.50851
997.237	46.01671
997.406	39.69314
997.576	-2.45859
997.745	60.77252
997.914	-19.31659
998.083	20.72369
998.252	31.26204
998.421	18.61609
998.59	73.42125
998.759	52.34049
998.928	48.12461
999.097	10.18593
999.266	31.26204
999.435	24.93896
999.604	-4.56592
999.773	-34.06606
999.942	67.09678
1000.111	24.93896
1000.28	43.90883
1000.448	64.98867
1000.617	136.67694
1000.786	-2.45859
1000.955	64.98867
1001.124	33.36978
1001.292	-42.49378
1001.461	39.69314
1001.63	48.12461
1001.798	24.93896
1001.967	92.39587
1002.136	-36.17303
1002.304	69.20492
1002.473	-27.74501
1002.642	41.80097
1002.81	-2.45859
1002.979	14.40096
1003.147	39.69314
1003.316	31.26204
1003.484	62.88058
1003.653	69.20492
1003.821	60.77252
1003.99	100.82962
1004.158	33.36978
1004.327	67.09678
1004.495	22.83131
1004.663	62.88058
1004.832	73.42125
1005	46.01671
1005.168	43.90883
1005.337	-0.35123
1005.505	22.83131
1005.673	37.58533
1005.842	-10.88778
1006.01	64.98867
1006.178	43.90883
1006.346	12.29343
1006.514	33.36978
1006.683	124.02423
1006.851	-10.88778
1007.019	115.58952
1007.187	62.88058
1007.355	-19.31659
1007.523	18.61609
1007.691	50.23254
1007.859	43.90883
1008.027	56.55646
1008.195	64.98867
1008.363	48.12461
1008.531	35.47754
1008.699	83.96248
1008.867	67.09678
1009.035	-17.20943
1009.203	77.63768
1009.37	24.93896
1009.538	29.15432
1009.706	43.90883
1009.874	22.83131
1010.042	27.04663
1010.209	-10.88778
1010.377	48.12461
1010.545	-6.67324
1010.713	60.77252
1010.88	27.04663
1011.048	20.72369
1011.216	-21.42373
1011.383	27.04663
1011.551	31.26204
1011.718	69.20492
1011.886	39.69314
1012.054	43.90883
1012.221	83.96248
1012.389	-4.56592
1012.556	69.20492
1012.724	69.20492
1012.891	-36.17303
1013.058	-0.35123
1013.226	48.12461
1013.393	75.52945
1013.561	54.44846
1013.728	39.69314
1013.895	81.85419
1014.063	81.85419
1014.23	-15.10224
1014.397	56.55646
1014.565	24.93896
1014.732	5.97099
1014.899	75.52945
1015.066	46.01671
1015.233	24.93896
1015.401	48.12461
1015.568	-2.45859
1015.735	121.91552
1015.902	29.15432
1016.069	41.80097
1016.236	31.26204
1016.403	64.98867
1016.57	64.98867
1016.737	52.34049
1016.904	31.26204
1017.071	22.83131
1017.238	-82.51994
1017.405	-15.10224
1017.572	54.44846
1017.739	96.6127
1017.906	64.98867
1018.073	75.52945
1018.24	35.47754
1018.407	64.98867
1018.573	69.20492
1018.74	-4.56592
1018.907	31.26204
1019.074	81.85419
1019.241	20.72369
1019.407	-2.45859
1019.574	-2.45859
1019.741	35.47754
1019.907	8.07845
1020.074	98.72115
1020.241	43.90883
1020.407	5.97099
1020.574	-19.31659
1020.74	-0.35123
1020.907	5.97099
1021.073	50.23254
1021.24	8.07845
1021.406	22.83131
1021.573	-17.20943
1021.739	27.04663
1021.906	-27.74501
1022.072	107.15516
1022.239	10.18593
1022.405	39.69314
1022.571	43.90883
1022.738	81.85419
1022.904	31.26204
1023.07	16.50851
1023.237	-40.38689
1023.403	-0.35123
1023.569	119.80683
1023.735	22.83131
1023.902	39.69314
1024.068	43.90883
1024.234	5.97099
1024.4	56.55646
1024.566	14.40096
1024.732	1.75615
1024.898	64.98867
1025.065	16.50851
1025.231	14.40096
1025.397	-21.42373
1025.563	64.98867
1025.729	-10.88778
1025.895	5.97099
1026.061	-34.06606
1026.227	64.98867
1026.392	-0.35123
1026.558	-25.63794
1026.724	14.40096
1026.89	-2.45859
1027.056	14.40096
1027.222	1.75615
1027.388	39.69314
1027.553	16.50851
1027.719	-6.67324
1027.885	5.97099
1028.051	-40.38689
1028.216	58.66448
1028.382	16.50851
1028.548	14.40096
1028.713	52.34049
1028.879	48.12461
1029.045	100.82962
1029.21	31.26204
1029.376	22.83131
1029.541	-0.35123
1029.707	71.31307
1029.873	60.77252
1030.038	134.5681
1030.204	-2.45859
1030.369	31.26204
1030.534	-2.45859
1030.7	-44.60065
1030.865	-50.9211
1031.031	29.15432
1031.196	33.36978
1031.361	-36.17303
1031.527	-44.60065
1031.692	22.83131
1031.857	5.97099
1032.023	16.50851
1032.188	48.12461
1032.353	48.12461
1032.518	12.29343
1032.684	73.42125
1032.849	16.50851
1033.014	43.90883
1033.179	22.83131
1033.344	20.72369
1033.509	86.0708
1033.674	22.83131
1033.839	105.04662
1034.004	81.85419
1034.17	-36.17303
1034.335	27.04663
1034.5	-12.99502
1034.664	73.42125
1034.829	71.31307
1034.994	94.50427
1035.159	39.69314
1035.324	-34.06606
1035.489	-31.95906
1035.654	-2.45859
1035.819	81.85419
1035.984	81.85419
1036.148	41.80097
1036.313	86.0708
1036.478	16.50851
1036.643	-17.20943
1036.807	8.07845
1036.972	90.28749
1037.137	24.93896
1037.301	75.52945
1037.466	60.77252
1037.631	50.23254
1037.795	22.83131
1037.96	54.44846
1038.124	-31.95906
1038.289	5.97099
1038.454	35.47754
1038.618	33.36978
1038.783	-48.81431
1038.947	-27.74501
1039.111	-21.42373
1039.276	39.69314
1039.44	-2.45859
1039.605	-55.13461
1039.769	41.80097
1039.933	-65.66794
1040.098	14.40096
1040.262	31.26204
1040.426	1.75615
1040.591	71.31307
1040.755	-63.56133
1040.919	3.86356
1041.083	39.69314
1041.248	8.07845
1041.412	3.86356
1041.576	-2.45859
1041.74	8.07845
1041.904	-36.17303
1042.068	-57.24133
1042.232	54.44846
1042.397	121.91552
1042.561	52.34049
1042.725	48.12461
1042.889	8.07845
1043.053	-53.02787
1043.217	60.77252
1043.381	41.80097
1043.544	29.15432
1043.708	41.80097
1043.872	1.75615
1044.036	60.77252
1044.2	48.12461
1044.364	1.75615
1044.528	-82.51994
1044.691	50.23254
1044.855	90.28749
1045.019	75.52945
1045.183	94.50427
1045.346	22.83131
1045.51	1.75615
1045.674	22.83131
1045.837	117.69816
1046.001	-19.31659
1046.165	-57.24133
1046.328	27.04663
1046.492	58.66448
1046.655	8.07845
1046.819	16.50851
1046.983	-38.27997
1047.146	-10.88778
1047.31	-25.63794
1047.473	5.97099
1047.636	-19.31659
1047.8	48.12461
1047.963	100.82962
1048.127	16.50851
1048.29	105.04662
