Data from Scatter_Coeff_Baseline_USB4F045381__13__0013.txt Node

Date: Thu Feb 13 19:17:48 EST 2025
User: mmckonesweet
Spectrometer: USB4F04538
Trigger mode: 4
Integration Time (sec): 2.400000E-3
Scans to average: 1
Electric dark correction enabled: true
Nonlinearity correction enabled: true
Boxcar width: 0
XAxis mode: Wavelengths
Number of Pixels in Spectrum: 3648
>>>>>Begin Spectral Data<<<<<
345.52	2.80986
345.736	2.80986
345.952	2.80986
346.168	-56.18797
346.384	-39.33343
346.6	15.45473
346.816	-7.72688
347.032	0.70246
347.248	-9.83416
347.464	-56.18797
347.68	21.7775
347.896	-28.79853
348.112	57.61047
348.328	-51.97449
348.544	28.10047
348.76	-47.7609
348.975	78.6918
349.191	32.3159
349.407	-33.01256
349.623	-66.72124
349.839	-43.54722
350.055	0.70246
350.27	-98.3172
350.486	-75.1474
350.702	-18.26301
350.918	34.42366
351.133	-39.33343
351.349	-89.89218
351.565	7.02472
351.781	-49.86771
351.996	-35.11954
352.212	-73.04089
352.428	7.02472
352.644	-16.15583
352.859	-35.11954
353.075	-41.44034
353.291	28.10047
353.506	42.8549
353.722	-33.01256
353.938	47.07066
354.153	-51.97449
354.369	-22.47729
354.584	32.3159
354.8	2.80986
355.016	-51.97449
355.231	19.66988
355.447	38.63923
355.662	55.50246
355.878	-85.67951
356.093	-56.18797
356.309	-20.37016
356.524	-22.47729
356.74	2.80986
356.955	-62.50801
357.171	-39.33343
357.386	38.63923
357.602	13.34719
357.817	15.45473
358.033	21.7775
358.248	-85.67951
358.464	-14.04863
358.679	-7.72688
358.895	9.13219
359.11	-60.40135
359.325	23.88513
359.541	-20.37016
359.756	68.15085
359.972	7.02472
360.187	-35.11954
360.402	-77.25387
360.618	-9.83416
360.833	-1.40491
361.048	-81.46674
361.264	-60.40135
361.479	25.99279
361.694	-51.97449
361.909	-26.69148
362.125	-30.90556
362.34	42.8549
362.555	-1.40491
362.77	-60.40135
362.986	2.80986
363.201	-9.83416
363.416	-16.15583
363.631	-24.5844
363.847	23.88513
364.062	-3.51226
364.277	28.10047
364.492	-5.61958
364.707	7.02472
364.922	-7.72688
365.138	25.99279
365.353	-51.97449
365.568	23.88513
365.783	-22.47729
365.998	23.88513
366.213	-24.5844
366.428	-75.1474
366.643	-22.47729
366.858	-1.40491
367.073	-14.04863
367.288	15.45473
367.503	-5.61958
367.718	32.3159
367.933	15.45473
368.148	36.53143
368.363	7.02472
368.578	-18.26301
368.793	25.99279
369.008	34.42366
369.223	-83.57314
369.438	11.23968
369.653	-41.44034
369.868	-35.11954
370.083	-33.01256
370.298	-11.94141
370.513	-43.54722
370.728	-1.40491
370.943	-39.33343
371.157	-30.90556
371.372	-26.69148
371.587	-14.04863
371.802	15.45473
372.017	32.3159
372.232	-18.26301
372.446	85.01664
372.661	-35.11954
372.876	19.66988
373.091	30.20817
373.306	-11.94141
373.52	-18.26301
373.735	-1.40491
373.95	17.5623
374.165	19.66988
374.379	-16.15583
374.594	-85.67951
374.809	32.3159
375.023	-33.01256
375.238	-24.5844
375.453	63.93463
375.667	85.01664
375.882	47.07066
376.097	-70.93437
376.311	9.13219
376.526	21.7775
376.741	-5.61958
376.955	-64.61464
377.17	-73.04089
377.384	49.17857
377.599	-33.01256
377.813	-77.25387
378.028	-56.18797
378.242	-43.54722
378.457	17.5623
378.672	49.17857
378.886	-26.69148
379.101	-14.04863
379.315	-9.83416
379.53	13.34719
379.744	-79.36032
379.958	-1.40491
380.173	7.02472
380.387	-41.44034
380.602	-68.82782
380.816	-24.5844
381.031	11.23968
381.245	-43.54722
381.459	44.96277
381.674	-56.18797
381.888	-18.26301
382.103	4.91728
382.317	-22.47729
382.531	-16.15583
382.746	-43.54722
382.96	21.7775
383.174	-1.40491
383.388	0.70246
383.603	-24.5844
383.817	9.13219
384.031	-30.90556
384.246	19.66988
384.46	-35.11954
384.674	11.23968
384.888	-7.72688
385.103	0.70246
385.317	-47.7609
385.531	13.34719
385.745	-54.08124
385.959	15.45473
386.174	-54.08124
386.388	-49.86771
386.602	-33.01256
386.816	57.61047
387.03	-37.2265
387.244	49.17857
387.458	7.02472
387.672	7.02472
387.887	-16.15583
388.101	7.02472
388.315	-18.26301
388.529	-26.69148
388.743	32.3159
388.957	-39.33343
389.171	9.13219
389.385	11.23968
389.599	-58.29468
389.813	11.23968
390.027	-39.33343
390.241	15.45473
390.455	-16.15583
390.669	-75.1474
390.883	32.3159
391.097	-41.44034
391.311	15.45473
391.525	23.88513
391.738	-9.83416
391.952	-64.61464
392.166	15.45473
392.38	-47.7609
392.594	-60.40135
392.808	53.39447
393.022	-43.54722
393.236	53.39447
393.449	7.02472
393.663	-1.40491
393.877	32.3159
394.091	-47.7609
394.305	-68.82782
394.518	-73.04089
394.732	11.23968
394.946	-22.47729
395.16	30.20817
395.373	0.70246
395.587	-7.72688
395.801	-3.51226
396.015	19.66988
396.228	-1.40491
396.442	-33.01256
396.656	55.50246
396.869	-1.40491
397.083	-18.26301
397.297	15.45473
397.51	7.02472
397.724	15.45473
397.938	-33.01256
398.151	9.13219
398.365	-39.33343
398.578	11.23968
398.792	36.53143
399.005	-39.33343
399.219	2.80986
399.433	0.70246
399.646	-22.47729
399.86	-35.11954
400.073	-24.5844
400.287	-20.37016
400.5	-3.51226
400.714	-26.69148
400.927	-11.94141
401.141	-35.11954
401.354	-45.65407
401.567	-47.7609
401.781	15.45473
401.994	-33.01256
402.208	89.23331
402.421	-54.08124
402.635	47.07066
402.848	0.70246
403.061	-28.79853
403.275	40.74705
403.488	-49.86771
403.701	-26.69148
403.915	34.42366
404.128	11.23968
404.341	9.13219
404.555	7.02472
404.768	-18.26301
404.981	25.99279
405.195	-37.2265
405.408	47.07066
405.621	-62.50801
405.834	-45.65407
406.048	36.53143
406.261	28.10047
406.474	-33.01256
406.687	-9.83416
406.9	-49.86771
407.114	34.42366
407.327	-14.04863
407.54	15.45473
407.753	-22.47729
407.966	40.74705
408.179	-5.61958
408.392	44.96277
408.605	-16.15583
408.819	-22.47729
409.032	2.80986
409.245	-102.52955
409.458	7.02472
409.671	-7.72688
409.884	-14.04863
410.097	44.96277
410.31	-30.90556
410.523	-56.18797
410.736	-9.83416
410.949	32.3159
411.162	-22.47729
411.375	-66.72124
411.588	4.91728
411.801	28.10047
412.014	0.70246
412.227	-18.26301
412.44	-14.04863
412.653	-47.7609
412.865	15.45473
413.078	-1.40491
413.291	25.99279
413.504	23.88513
413.717	-18.26301
413.93	11.23968
414.143	34.42366
414.356	-54.08124
414.568	38.63923
414.781	-56.18797
414.994	-30.90556
415.207	7.02472
415.42	-85.67951
415.632	-9.83416
415.845	-60.40135
416.058	-24.5844
416.271	-43.54722
416.483	-9.83416
416.696	-1.40491
416.909	-87.78586
417.121	15.45473
417.334	11.23968
417.547	-9.83416
417.759	-35.11954
417.972	-16.15583
418.185	7.02472
418.397	-45.65407
418.61	-30.90556
418.823	40.74705
419.035	-16.15583
419.248	0.70246
419.46	49.17857
419.673	-22.47729
419.885	13.34719
420.098	32.3159
420.311	-43.54722
420.523	-18.26301
420.736	-43.54722
420.948	7.02472
421.161	-117.27196
421.373	-41.44034
421.586	-75.1474
421.798	-51.97449
422.01	-26.69148
422.223	9.13219
422.435	-51.97449
422.648	-68.82782
422.86	-9.83416
423.073	-1.40491
423.285	17.5623
423.497	25.99279
423.71	36.53143
423.922	-16.15583
424.134	-9.83416
424.347	-73.04089
424.559	-39.33343
424.771	-16.15583
424.984	28.10047
425.196	-9.83416
425.408	11.23968
425.621	-9.83416
425.833	28.10047
426.045	-22.47729
426.257	-18.26301
426.47	32.3159
426.682	-16.15583
426.894	28.10047
427.106	-11.94141
427.318	-66.72124
427.531	-9.83416
427.743	-26.69148
427.955	-9.83416
428.167	-77.25387
428.379	32.3159
428.591	36.53143
428.804	9.13219
429.016	25.99279
429.228	-129.90727
429.44	11.23968
429.652	32.3159
429.864	-26.69148
430.076	106.10089
430.288	-41.44034
430.5	-1.40491
430.712	-56.18797
430.924	-11.94141
431.136	-33.01256
431.348	-22.47729
431.56	-1.40491
431.772	-1.40491
431.984	-43.54722
432.196	-14.04863
432.408	28.10047
432.62	-102.52955
432.832	-51.97449
433.044	-28.79853
433.256	9.13219
433.468	36.53143
433.679	-14.04863
433.891	-81.46674
434.103	66.04272
434.315	-30.90556
434.527	57.61047
434.739	4.91728
434.95	9.13219
435.162	11.23968
435.374	23.88513
435.586	-77.25387
435.798	0.70246
436.009	-14.04863
436.221	15.45473
436.433	-26.69148
436.645	53.39447
436.856	34.42366
437.068	-43.54722
437.28	-1.40491
437.491	19.66988
437.703	19.66988
437.915	68.15085
438.126	44.96277
438.338	-35.11954
438.55	4.91728
438.761	72.36716
438.973	-26.69148
439.184	-56.18797
439.396	49.17857
439.608	-1.40491
439.819	32.3159
440.031	-1.40491
440.242	7.02472
440.454	-18.26301
440.665	-75.1474
440.877	-26.69148
441.088	-5.61958
441.3	-28.79853
441.511	-28.79853
441.723	-68.82782
441.934	148.27594
442.146	30.20817
442.357	7.02472
442.569	-26.69148
442.78	-43.54722
442.991	32.3159
443.203	44.96277
443.414	-58.29468
443.626	-22.47729
443.837	63.93463
444.048	-30.90556
444.26	-83.57314
444.471	23.88513
444.682	53.39447
444.894	-16.15583
445.105	23.88513
445.316	-77.25387
445.528	-62.50801
445.739	40.74705
445.95	23.88513
446.161	-11.94141
446.373	-9.83416
446.584	40.74705
446.795	2.80986
447.006	-14.04863
447.217	-24.5844
447.429	78.6918
447.64	-22.47729
447.851	-26.69148
448.062	-5.61958
448.273	2.80986
448.484	9.13219
448.695	23.88513
448.907	-7.72688
449.118	-3.51226
449.329	0.70246
449.54	-18.26301
449.751	57.61047
449.962	-3.51226
450.173	-7.72688
450.384	-56.18797
450.595	4.91728
450.806	49.17857
451.017	-5.61958
451.228	-22.47729
451.439	-9.83416
451.65	-60.40135
451.861	-20.37016
452.072	28.10047
452.283	82.90833
452.494	-1.40491
452.705	-108.84788
452.915	-39.33343
453.126	-3.51226
453.337	59.7185
453.548	32.3159
453.759	15.45473
453.97	-18.26301
454.181	17.5623
454.391	-51.97449
454.602	-22.47729
454.813	-51.97449
455.024	32.3159
455.235	2.80986
455.445	-5.61958
455.656	-35.11954
455.867	-24.5844
456.078	30.20817
456.288	-28.79853
456.499	-18.26301
456.71	-26.69148
456.921	53.39447
457.131	9.13219
457.342	-58.29468
457.553	4.91728
457.763	47.07066
457.974	7.02472
458.184	-1.40491
458.395	-37.2265
458.606	-18.26301
458.816	40.74705
459.027	-66.72124
459.237	-35.11954
459.448	-77.25387
459.659	15.45473
459.869	-43.54722
460.08	-3.51226
460.29	2.80986
460.501	-5.61958
460.711	25.99279
460.922	-60.40135
461.132	-3.51226
461.343	-56.18797
461.553	34.42366
461.764	-45.65407
461.974	-66.72124
462.184	34.42366
462.395	17.5623
462.605	15.45473
462.816	-96.21098
463.026	-26.69148
463.236	-1.40491
463.447	15.45473
463.657	-16.15583
463.867	-14.04863
464.078	2.80986
464.288	-16.15583
464.498	-41.44034
464.709	-43.54722
464.919	-5.61958
465.129	-20.37016
465.339	40.74705
465.55	44.96277
465.76	-26.69148
465.97	34.42366
466.18	19.66988
466.391	-7.72688
466.601	17.5623
466.811	-35.11954
467.021	7.02472
467.231	-33.01256
467.441	-18.26301
467.651	15.45473
467.862	-24.5844
468.072	63.93463
468.282	-22.47729
468.492	36.53143
468.702	-66.72124
468.912	76.58356
469.122	9.13219
469.332	-79.36032
469.542	-18.26301
469.752	-9.83416
469.962	-43.54722
470.172	55.50246
470.382	-100.42339
470.592	-20.37016
470.802	49.17857
471.012	-20.37016
471.222	13.34719
471.432	-47.7609
471.642	25.99279
471.852	-11.94141
472.062	-24.5844
472.272	-9.83416
472.482	15.45473
472.691	-26.69148
472.901	-51.97449
473.111	-16.15583
473.321	17.5623
473.531	11.23968
473.741	9.13219
473.95	-60.40135
474.16	-5.61958
474.37	-60.40135
474.58	4.91728
474.79	19.66988
474.999	-1.40491
475.209	-7.72688
475.419	63.93463
475.628	72.36716
475.838	-30.90556
476.048	-35.11954
476.258	7.02472
476.467	-60.40135
476.677	32.3159
476.886	-1.40491
477.096	-58.29468
477.306	-26.69148
477.515	-1.40491
477.725	-9.83416
477.935	-91.99847
478.144	-75.1474
478.354	0.70246
478.563	-73.04089
478.773	-14.04863
478.982	-26.69148
479.192	-47.7609
479.401	-22.47729
479.611	-5.61958
479.82	-39.33343
480.03	-1.40491
480.239	66.04272
480.449	38.63923
480.658	-43.54722
480.868	-7.72688
481.077	-54.08124
481.287	-26.69148
481.496	23.88513
481.705	-1.40491
481.915	-51.97449
482.124	32.3159
482.333	15.45473
482.543	-22.47729
482.752	-49.86771
482.961	-51.97449
483.171	-9.83416
483.38	-7.72688
483.589	49.17857
483.799	15.45473
484.008	2.80986
484.217	53.39447
484.426	-60.40135
484.636	25.99279
484.845	-22.47729
485.054	-83.57314
485.263	-68.82782
485.472	17.5623
485.682	-35.11954
485.891	-49.86771
486.1	-26.69148
486.309	-56.18797
486.518	28.10047
486.727	-16.15583
486.936	25.99279
487.146	9.13219
487.355	-66.72124
487.564	-35.11954
487.773	19.66988
487.982	53.39447
488.191	-1.40491
488.4	-1.40491
488.609	-75.1474
488.818	-51.97449
489.027	-81.46674
489.236	-14.04863
489.445	-5.61958
489.654	78.6918
489.863	-22.47729
490.072	-51.97449
490.281	-41.44034
490.49	-51.97449
490.698	-64.61464
490.907	-70.93437
491.116	-7.72688
491.325	-16.15583
491.534	19.66988
491.743	-26.69148
491.952	40.74705
492.16	17.5623
492.369	-30.90556
492.578	-14.04863
492.787	-41.44034
492.996	74.47535
493.204	0.70246
493.413	-28.79853
493.622	-35.11954
493.831	40.74705
494.039	-14.04863
494.248	7.02472
494.457	57.61047
494.665	-75.1474
494.874	-39.33343
495.083	11.23968
495.291	9.13219
495.5	-33.01256
495.709	-68.82782
495.917	-30.90556
496.126	-1.40491
496.335	-9.83416
496.543	7.02472
496.752	9.13219
496.96	89.23331
497.169	32.3159
497.377	-79.36032
497.586	-1.40491
497.794	7.02472
498.003	-7.72688
498.211	32.3159
498.42	7.02472
498.628	-54.08124
498.837	2.80986
499.045	7.02472
499.254	15.45473
499.462	-39.33343
499.671	59.7185
499.879	-5.61958
500.087	32.3159
500.296	17.5623
500.504	9.13219
500.713	-45.65407
500.921	4.91728
501.129	-51.97449
501.338	-3.51226
501.546	28.10047
501.754	34.42366
501.962	-24.5844
502.171	25.99279
502.379	36.53143
502.587	40.74705
502.795	-1.40491
503.004	19.66988
503.212	-58.29468
503.42	28.10047
503.628	-68.82782
503.837	-26.69148
504.045	-37.2265
504.253	9.13219
504.461	-26.69148
504.669	-9.83416
504.877	-89.89218
505.085	66.04272
505.294	-39.33343
505.502	0.70246
505.71	0.70246
505.918	-1.40491
506.126	0.70246
506.334	-9.83416
506.542	32.3159
506.75	-14.04863
506.958	7.02472
507.166	-45.65407
507.374	44.96277
507.582	2.80986
507.79	-49.86771
507.998	21.7775
508.206	25.99279
508.414	-22.47729
508.622	-7.72688
508.83	-35.11954
509.037	-30.90556
509.245	36.53143
509.453	-60.40135
509.661	19.66988
509.869	34.42366
510.077	-35.11954
510.285	-37.2265
510.492	-5.61958
510.7	-18.26301
510.908	-26.69148
511.116	-35.11954
511.324	-22.47729
511.531	-75.1474
511.739	-1.40491
511.947	-26.69148
512.155	2.80986
512.362	-43.54722
512.57	30.20817
512.778	42.8549
512.985	-45.65407
513.193	-18.26301
513.401	-94.10474
513.608	-7.72688
513.816	9.13219
514.024	-16.15583
514.231	-18.26301
514.439	-39.33343
514.646	-14.04863
514.854	-56.18797
515.061	-18.26301
515.269	13.34719
515.477	-33.01256
515.684	-89.89218
515.892	11.23968
516.099	11.23968
516.307	-62.50801
516.514	36.53143
516.722	-24.5844
516.929	11.23968
517.136	-45.65407
517.344	23.88513
517.551	-35.11954
517.759	34.42366
517.966	-49.86771
518.173	131.40488
518.381	-64.61464
518.588	-54.08124
518.796	-39.33343
519.003	-14.04863
519.21	-30.90556
519.418	-26.69148
519.625	32.3159
519.832	-68.82782
520.039	-5.61958
520.247	0.70246
520.454	-49.86771
520.661	82.90833
520.868	-43.54722
521.076	-22.47729
521.283	11.23968
521.49	15.45473
521.697	-22.47729
521.904	23.88513
522.112	42.8549
522.319	0.70246
522.526	-24.5844
522.733	-68.82782
522.94	55.50246
523.147	-1.40491
523.354	25.99279
523.561	-41.44034
523.768	7.02472
523.975	15.45473
524.183	-100.42339
524.39	-75.1474
524.597	2.80986
524.804	-51.97449
525.011	-11.94141
525.218	-70.93437
525.425	-47.7609
525.632	-28.79853
525.838	-14.04863
526.045	-47.7609
526.252	-14.04863
526.459	15.45473
526.666	15.45473
526.873	4.91728
527.08	28.10047
527.287	11.23968
527.494	-41.44034
527.701	13.34719
527.907	32.3159
528.114	40.74705
528.321	-51.97449
528.528	-28.79853
528.735	19.66988
528.941	-1.40491
529.148	-70.93437
529.355	-96.21098
529.562	-1.40491
529.768	-3.51226
529.975	-37.2265
530.182	17.5623
530.388	49.17857
530.595	7.02472
530.802	68.15085
531.008	85.01664
531.215	-14.04863
531.422	-22.47729
531.628	34.42366
531.835	-54.08124
532.042	23.88513
532.248	15.45473
532.455	9.13219
532.661	11.23968
532.868	44.96277
533.074	-9.83416
533.281	-39.33343
533.487	-64.61464
533.694	-60.40135
533.9	-43.54722
534.107	-9.83416
534.313	-26.69148
534.52	36.53143
534.726	15.45473
534.933	15.45473
535.139	19.66988
535.345	-30.90556
535.552	-26.69148
535.758	-102.52955
535.965	-9.83416
536.171	32.3159
536.377	-7.72688
536.584	11.23968
536.79	-45.65407
536.996	-24.5844
537.203	-37.2265
537.409	-43.54722
537.615	-9.83416
537.821	53.39447
538.028	-35.11954
538.234	-87.78586
538.44	0.70246
538.646	-28.79853
538.853	-73.04089
539.059	-56.18797
539.265	-7.72688
539.471	57.61047
539.677	57.61047
539.883	-26.69148
540.09	-51.97449
540.296	2.80986
540.502	-7.72688
540.708	-3.51226
540.914	-60.40135
541.12	-9.83416
541.326	-16.15583
541.532	15.45473
541.738	-43.54722
541.944	-18.26301
542.15	25.99279
542.356	34.42366
542.562	-16.15583
542.768	-22.47729
542.974	59.7185
543.18	30.20817
543.386	-87.78586
543.592	15.45473
543.798	53.39447
544.004	44.96277
544.21	-51.97449
544.415	-35.11954
544.621	68.15085
544.827	-20.37016
545.033	13.34719
545.239	-49.86771
545.445	-20.37016
545.651	30.20817
545.856	-9.83416
546.062	4.91728
546.268	23.88513
546.474	-58.29468
546.679	15.45473
546.885	-85.67951
547.091	21.7775
547.297	-9.83416
547.502	13.34719
547.708	0.70246
547.914	-81.46674
548.119	-9.83416
548.325	57.61047
548.531	-3.51226
548.736	-30.90556
548.942	-1.40491
549.147	32.3159
549.353	0.70246
549.559	15.45473
549.764	34.42366
549.97	-108.84788
550.175	11.23968
550.381	-1.40491
550.586	2.80986
550.792	4.91728
550.997	-16.15583
551.203	4.91728
551.408	-1.40491
551.614	-49.86771
551.819	-18.26301
552.025	2.80986
552.23	9.13219
552.435	23.88513
552.641	-35.11954
552.846	9.13219
553.052	-5.61958
553.257	4.91728
553.462	-39.33343
553.668	-66.72124
553.873	-56.18797
554.078	40.74705
554.283	-22.47729
554.489	-33.01256
554.694	91.34168
554.899	-43.54722
555.105	40.74705
555.31	-33.01256
555.515	7.02472
555.72	44.96277
555.925	11.23968
556.131	32.3159
556.336	72.36716
556.541	-26.69148
556.746	11.23968
556.951	30.20817
557.156	66.04272
557.361	-43.54722
557.567	15.45473
557.772	-35.11954
557.977	4.91728
558.182	-43.54722
558.387	21.7775
558.592	-24.5844
558.797	-1.40491
559.002	-9.83416
559.207	-26.69148
559.412	9.13219
559.617	-1.40491
559.822	-43.54722
560.027	9.13219
560.232	-39.33343
560.437	7.02472
560.642	-81.46674
560.847	-41.44034
561.051	-49.86771
561.256	76.58356
561.461	-5.61958
561.666	-18.26301
561.871	38.63923
562.076	-5.61958
562.281	32.3159
562.485	17.5623
562.69	-51.97449
562.895	49.17857
563.1	-35.11954
563.305	-51.97449
563.509	-56.18797
563.714	44.96277
563.919	-18.26301
564.123	15.45473
564.328	11.23968
564.533	47.07066
564.737	7.02472
564.942	-77.25387
565.147	7.02472
565.351	-56.18797
565.556	-1.40491
565.761	40.74705
565.965	0.70246
566.17	59.7185
566.374	-5.61958
566.579	-3.51226
566.784	-9.83416
566.988	-45.65407
567.193	-64.61464
567.397	-5.61958
567.602	-1.40491
567.806	-85.67951
568.011	-64.61464
568.215	19.66988
568.42	-9.83416
568.624	-35.11954
568.828	15.45473
569.033	2.80986
569.237	-22.47729
569.442	2.80986
569.646	-64.61464
569.85	-26.69148
570.055	-22.47729
570.259	-47.7609
570.463	-16.15583
570.668	-11.94141
570.872	17.5623
571.076	40.74705
571.281	44.96277
571.485	-49.86771
571.689	-49.86771
571.893	-58.29468
572.098	4.91728
572.302	11.23968
572.506	-1.40491
572.71	-14.04863
572.914	-41.44034
573.119	-62.50801
573.323	34.42366
573.527	-24.5844
573.731	-5.61958
573.935	-33.01256
574.139	-11.94141
574.343	57.61047
574.547	36.53143
574.751	-9.83416
574.955	-11.94141
575.159	15.45473
575.364	-22.47729
575.568	40.74705
575.772	2.80986
575.976	-43.54722
576.18	-43.54722
576.383	-24.5844
576.587	-24.5844
576.791	13.34719
576.995	-83.57314
577.199	-7.72688
577.403	-45.65407
577.607	-47.7609
577.811	15.45473
578.015	-35.11954
578.219	-41.44034
578.422	-22.47729
578.626	-121.48383
578.83	-58.29468
579.034	-30.90556
579.238	-77.25387
579.442	-66.72124
579.645	-35.11954
579.849	-9.83416
580.053	-43.54722
580.257	4.91728
580.46	-3.51226
580.664	36.53143
580.868	-18.26301
581.071	-68.82782
581.275	23.88513
581.479	-1.40491
581.682	-3.51226
581.886	32.3159
582.09	-9.83416
582.293	-35.11954
582.497	4.91728
582.7	-37.2265
582.904	-43.54722
583.107	19.66988
583.311	7.02472
583.515	-5.61958
583.718	-60.40135
583.922	0.70246
584.125	-41.44034
584.329	-77.25387
584.532	25.99279
584.735	-33.01256
584.939	51.28651
585.142	-64.61464
585.346	32.3159
585.549	-68.82782
585.753	13.34719
585.956	-35.11954
586.159	-49.86771
586.363	-64.61464
586.566	19.66988
586.769	-43.54722
586.973	0.70246
587.176	-14.04863
587.379	-70.93437
587.582	7.02472
587.786	-37.2265
587.989	-20.37016
588.192	-11.94141
588.395	-18.26301
588.599	-45.65407
588.802	-7.72688
589.005	57.61047
589.208	-9.83416
589.411	-39.33343
589.615	-33.01256
589.818	-7.72688
590.021	28.10047
590.224	-33.01256
590.427	-85.67951
590.63	32.3159
590.833	0.70246
591.036	-14.04863
591.239	-26.69148
591.442	-43.54722
591.645	28.10047
591.848	28.10047
592.051	-60.40135
592.254	4.91728
592.457	-60.40135
592.66	-22.47729
592.863	-60.40135
593.066	-47.7609
593.269	25.99279
593.472	-14.04863
593.675	-41.44034
593.878	7.02472
594.081	-56.18797
594.284	-26.69148
594.486	-16.15583
594.689	32.3159
594.892	42.8549
595.095	-62.50801
595.298	-9.83416
595.5	-16.15583
595.703	17.5623
595.906	11.23968
596.109	-14.04863
596.311	-35.11954
596.514	42.8549
596.717	-18.26301
596.92	-64.61464
597.122	7.02472
597.325	40.74705
597.528	-7.72688
597.73	-7.72688
597.933	-24.5844
598.136	-16.15583
598.338	-41.44034
598.541	-20.37016
598.743	0.70246
598.946	-35.11954
599.148	59.7185
599.351	-28.79853
599.554	-26.69148
599.756	-60.40135
599.959	-18.26301
600.161	66.04272
600.363	4.91728
600.566	11.23968
600.768	36.53143
600.971	-5.61958
601.173	-58.29468
601.376	-1.40491
601.578	2.80986
601.78	-3.51226
601.983	-9.83416
602.185	-33.01256
602.388	15.45473
602.59	-41.44034
602.792	15.45473
602.995	-16.15583
603.197	-43.54722
603.399	-16.15583
603.601	7.02472
603.804	-51.97449
604.006	-24.5844
604.208	-58.29468
604.41	-18.26301
604.613	44.96277
604.815	28.10047
605.017	-22.47729
605.219	-68.82782
605.421	-5.61958
605.623	-22.47729
605.826	-1.40491
606.028	15.45473
606.23	40.74705
606.432	-41.44034
606.634	-18.26301
606.836	7.02472
607.038	-22.47729
607.24	-3.51226
607.442	-35.11954
607.644	-94.10474
607.846	7.02472
608.048	0.70246
608.25	36.53143
608.452	-24.5844
608.654	21.7775
608.856	-39.33343
609.058	-98.3172
609.26	21.7775
609.462	-33.01256
609.664	63.93463
609.866	15.45473
610.067	15.45473
610.269	2.80986
610.471	7.02472
610.673	-20.37016
610.875	-60.40135
611.077	-24.5844
611.278	-68.82782
611.48	-77.25387
611.682	-39.33343
611.884	-7.72688
612.085	-18.26301
612.287	13.34719
612.489	-1.40491
612.69	4.91728
612.892	-60.40135
613.094	15.45473
613.295	30.20817
613.497	-22.47729
613.699	-14.04863
613.9	-77.25387
614.102	-1.40491
614.304	11.23968
614.505	-30.90556
614.707	15.45473
614.908	-1.40491
615.11	44.96277
615.311	-14.04863
615.513	-9.83416
615.714	-43.54722
615.916	-33.01256
616.117	28.10047
616.319	-14.04863
616.52	7.02472
616.722	40.74705
616.923	-9.83416
617.124	-9.83416
617.326	-60.40135
617.527	-18.26301
617.729	-9.83416
617.93	-41.44034
618.131	-3.51226
618.333	-56.18797
618.534	7.02472
618.735	-24.5844
618.937	61.82655
619.138	-11.94141
619.339	-26.69148
619.54	0.70246
619.742	17.5623
619.943	-22.47729
620.144	19.66988
620.345	-43.54722
620.546	-16.15583
620.748	-22.47729
620.949	-26.69148
621.15	17.5623
621.351	-5.61958
621.552	-81.46674
621.753	28.10047
621.954	-43.54722
622.155	-102.52955
622.356	-43.54722
622.558	47.07066
622.759	-79.36032
622.96	42.8549
623.161	-7.72688
623.362	44.96277
623.563	-43.54722
623.764	-91.99847
623.965	82.90833
624.166	-100.42339
624.366	-9.83416
624.567	-56.18797
624.768	49.17857
624.969	7.02472
625.17	-11.94141
625.371	-28.79853
625.572	-33.01256
625.773	-22.47729
625.973	-30.90556
626.174	-28.79853
626.375	7.02472
626.576	-16.15583
626.777	-1.40491
626.977	61.82655
627.178	-14.04863
627.379	-7.72688
627.58	-9.83416
627.78	42.8549
627.981	25.99279
628.182	-43.54722
628.382	51.28651
628.583	-14.04863
628.784	13.34719
628.984	-14.04863
629.185	21.7775
629.386	19.66988
629.586	-49.86771
629.787	66.04272
629.987	-1.40491
630.188	34.42366
630.388	23.88513
630.589	-39.33343
630.79	-24.5844
630.99	59.7185
631.191	-39.33343
631.391	-108.84788
631.591	-3.51226
631.792	-94.10474
631.992	7.02472
632.193	74.47535
632.393	-28.79853
632.594	-28.79853
632.794	28.10047
632.994	28.10047
633.195	-77.25387
633.395	15.45473
633.595	-9.83416
633.796	-62.50801
633.996	-43.54722
634.196	-1.40491
634.397	-20.37016
634.597	-47.7609
634.797	-3.51226
634.997	-35.11954
635.198	-7.72688
635.398	25.99279
635.598	-14.04863
635.798	-35.11954
635.998	-3.51226
636.199	2.80986
636.399	-94.10474
636.599	34.42366
636.799	-58.29468
636.999	78.6918
637.199	-9.83416
637.399	-45.65407
637.599	-58.29468
637.799	91.34168
637.999	-39.33343
638.199	-7.72688
638.399	42.8549
638.599	-9.83416
638.799	0.70246
638.999	-28.79853
639.199	-47.7609
639.399	19.66988
639.599	-18.26301
639.799	-39.33343
639.999	53.39447
640.199	23.88513
640.399	-89.89218
640.599	28.10047
640.799	15.45473
640.998	-3.51226
641.198	-60.40135
641.398	-24.5844
641.598	-35.11954
641.798	-35.11954
641.997	25.99279
642.197	-60.40135
642.397	55.50246
642.597	-16.15583
642.796	15.45473
642.996	-60.40135
643.196	-26.69148
643.395	-41.44034
643.595	-26.69148
643.795	-66.72124
643.994	7.02472
644.194	-16.15583
644.394	-39.33343
644.593	-11.94141
644.793	-41.44034
644.992	-26.69148
645.192	2.80986
645.392	-39.33343
645.591	-66.72124
645.791	17.5623
645.99	-33.01256
646.19	-68.82782
646.389	7.02472
646.589	-70.93437
646.788	-30.90556
646.987	-20.37016
647.187	-66.72124
647.386	0.70246
647.586	-47.7609
647.785	28.10047
647.984	2.80986
648.184	-22.47729
648.383	-56.18797
648.582	-39.33343
648.782	-5.61958
648.981	36.53143
649.18	0.70246
649.38	53.39447
649.579	-16.15583
649.778	15.45473
649.977	-54.08124
650.177	-49.86771
650.376	36.53143
650.575	-16.15583
650.774	-87.78586
650.973	74.47535
651.173	32.3159
651.372	-75.1474
651.571	4.91728
651.77	36.53143
651.969	-18.26301
652.168	-20.37016
652.367	34.42366
652.566	17.5623
652.765	7.02472
652.964	-9.83416
653.163	-35.11954
653.362	-14.04863
653.561	9.13219
653.76	-35.11954
653.959	-20.37016
654.158	-30.90556
654.357	40.74705
654.556	-33.01256
654.755	-16.15583
654.954	-14.04863
655.153	-39.33343
655.352	-5.61958
655.551	13.34719
655.749	-1.40491
655.948	25.99279
656.147	-49.86771
656.346	-83.57314
656.545	21.7775
656.743	25.99279
656.942	40.74705
657.141	-68.82782
657.34	-68.82782
657.538	-5.61958
657.737	-9.83416
657.936	-18.26301
658.135	-18.26301
658.333	49.17857
658.532	-66.72124
658.731	-39.33343
658.929	-58.29468
659.128	-9.83416
659.326	17.5623
659.525	-85.67951
659.724	-60.40135
659.922	-9.83416
660.121	15.45473
660.319	-22.47729
660.518	0.70246
660.716	28.10047
660.915	-39.33343
661.113	21.7775
661.312	72.36716
661.51	-33.01256
661.709	-94.10474
661.907	2.80986
662.105	-47.7609
662.304	-16.15583
662.502	23.88513
662.701	-100.42339
662.899	47.07066
663.097	19.66988
663.296	19.66988
663.494	30.20817
663.692	7.02472
663.891	-43.54722
664.089	38.63923
664.287	57.61047
664.485	-9.83416
664.684	-68.82782
664.882	-77.25387
665.08	-26.69148
665.278	32.3159
665.476	34.42366
665.675	-43.54722
665.873	-28.79853
666.071	-106.7418
666.269	-26.69148
666.467	-14.04863
666.665	-89.89218
666.863	17.5623
667.061	-26.69148
667.259	0.70246
667.457	-22.47729
667.655	-35.11954
667.853	-22.47729
668.051	-16.15583
668.249	-28.79853
668.447	-51.97449
668.645	-91.99847
668.843	-73.04089
669.041	-56.18797
669.239	-1.40491
669.437	-49.86771
669.635	32.3159
669.833	-37.2265
670.031	7.02472
670.229	23.88513
670.426	44.96277
670.624	9.13219
670.822	-35.11954
671.02	-20.37016
671.218	-64.61464
671.415	-26.69148
671.613	17.5623
671.811	-73.04089
672.009	51.28651
672.206	-73.04089
672.404	-39.33343
672.602	-11.94141
672.799	40.74705
672.997	7.02472
673.195	0.70246
673.392	34.42366
673.59	-9.83416
673.788	-49.86771
673.985	47.07066
674.183	11.23968
674.38	15.45473
674.578	-14.04863
674.775	-26.69148
674.973	-18.26301
675.17	-9.83416
675.368	-3.51226
675.565	23.88513
675.763	51.28651
675.96	-9.83416
676.158	-18.26301
676.355	-7.72688
676.553	-68.82782
676.75	13.34719
676.947	40.74705
677.145	-18.26301
677.342	15.45473
677.539	23.88513
677.737	-64.61464
677.934	-98.3172
678.131	-43.54722
678.329	53.39447
678.526	17.5623
678.723	-94.10474
678.92	2.80986
679.118	32.3159
679.315	25.99279
679.512	-51.97449
679.709	-51.97449
679.906	-24.5844
680.104	-56.18797
680.301	-1.40491
680.498	-26.69148
680.695	-77.25387
680.892	-51.97449
681.089	7.02472
681.286	-5.61958
681.483	-35.11954
681.68	-26.69148
681.877	-49.86771
682.075	-5.61958
682.272	11.23968
682.469	49.17857
682.665	74.47535
682.862	15.45473
683.059	-43.54722
683.256	-1.40491
683.453	15.45473
683.65	13.34719
683.847	-47.7609
684.044	25.99279
684.241	36.53143
684.438	-28.79853
684.635	-11.94141
684.831	-16.15583
685.028	21.7775
685.225	-51.97449
685.422	19.66988
685.619	-64.61464
685.815	-47.7609
686.012	-47.7609
686.209	-37.2265
686.405	-119.37791
686.602	15.45473
686.799	17.5623
686.996	-28.79853
687.192	66.04272
687.389	-33.01256
687.586	-22.47729
687.782	-1.40491
687.979	0.70246
688.175	-5.61958
688.372	-22.47729
688.568	-77.25387
688.765	-24.5844
688.962	-43.54722
689.158	7.02472
689.355	-18.26301
689.551	15.45473
689.748	-39.33343
689.944	17.5623
690.14	-5.61958
690.337	53.39447
690.533	-47.7609
690.73	-66.72124
690.926	2.80986
691.123	-60.40135
691.319	7.02472
691.515	-73.04089
691.712	66.04272
691.908	-47.7609
692.104	7.02472
692.301	28.10047
692.497	9.13219
692.693	-16.15583
692.889	34.42366
693.086	-60.40135
693.282	-3.51226
693.478	15.45473
693.674	-26.69148
693.87	-20.37016
694.067	32.3159
694.263	49.17857
694.459	-18.26301
694.655	-79.36032
694.851	-22.47729
695.047	-28.79853
695.243	7.02472
695.439	23.88513
695.635	-18.26301
695.831	-54.08124
696.027	-66.72124
696.224	-7.72688
696.42	-24.5844
696.615	-51.97449
696.811	25.99279
697.007	-77.25387
697.203	-43.54722
697.399	0.70246
697.595	0.70246
697.791	11.23968
697.987	55.50246
698.183	-108.84788
698.379	23.88513
698.575	-51.97449
698.77	-3.51226
698.966	-14.04863
699.162	80.80005
699.358	11.23968
699.554	-49.86771
699.749	-11.94141
699.945	38.63923
700.141	-35.11954
700.337	40.74705
700.532	49.17857
700.728	-5.61958
700.924	-87.78586
701.119	23.88513
701.315	-9.83416
701.511	49.17857
701.706	-51.97449
701.902	2.80986
702.097	19.66988
702.293	49.17857
702.489	0.70246
702.684	4.91728
702.88	-18.26301
703.075	28.10047
703.271	-24.5844
703.466	-5.61958
703.662	44.96277
703.857	21.7775
704.053	40.74705
704.248	0.70246
704.443	-96.21098
704.639	23.88513
704.834	-18.26301
705.03	-39.33343
705.225	11.23968
705.42	-22.47729
705.616	44.96277
705.811	-39.33343
706.006	-5.61958
706.202	-47.7609
706.397	0.70246
706.592	0.70246
706.787	9.13219
706.983	-1.40491
707.178	-49.86771
707.373	-14.04863
707.568	-11.94141
707.763	51.28651
707.959	-51.97449
708.154	4.91728
708.349	-18.26301
708.544	-24.5844
708.739	-62.50801
708.934	11.23968
709.129	-85.67951
709.324	-18.26301
709.519	32.3159
709.714	-26.69148
709.909	74.47535
710.104	-81.46674
710.299	-16.15583
710.494	-73.04089
710.689	-3.51226
710.884	-9.83416
711.079	36.53143
711.274	-7.72688
711.469	-60.40135
711.664	-58.29468
711.859	-56.18797
712.054	-35.11954
712.249	42.8549
712.443	-39.33343
712.638	-22.47729
712.833	-3.51226
713.028	25.99279
713.223	-26.69148
713.417	-39.33343
713.612	-1.40491
713.807	-35.11954
714.002	-85.67951
714.196	-60.40135
714.391	61.82655
714.586	-83.57314
714.78	25.99279
714.975	2.80986
715.17	-39.33343
715.364	19.66988
715.559	-1.40491
715.754	23.88513
715.948	-58.29468
716.143	-14.04863
716.337	-68.82782
716.532	-35.11954
716.726	-5.61958
716.921	40.74705
717.115	-47.7609
717.31	13.34719
717.504	57.61047
717.699	2.80986
717.893	11.23968
718.088	-68.82782
718.282	25.99279
718.476	34.42366
718.671	-43.54722
718.865	15.45473
719.059	-16.15583
719.254	-49.86771
719.448	-22.47729
719.642	40.74705
719.837	17.5623
720.031	11.23968
720.225	9.13219
720.419	4.91728
720.614	-7.72688
720.808	-51.97449
721.002	-14.04863
721.196	-18.26301
721.39	15.45473
721.585	-81.46674
721.779	-70.93437
721.973	-35.11954
722.167	-39.33343
722.361	-47.7609
722.555	-22.47729
722.749	-18.26301
722.943	25.99279
723.137	85.01664
723.331	-3.51226
723.525	-58.29468
723.719	19.66988
723.913	-68.82782
724.107	-28.79853
724.301	78.6918
724.495	32.3159
724.689	32.3159
724.883	36.53143
725.077	-26.69148
725.271	9.13219
725.465	-33.01256
725.659	32.3159
725.853	82.90833
726.046	-49.86771
726.24	-87.78586
726.434	2.80986
726.628	-33.01256
726.822	-22.47729
727.015	23.88513
727.209	-9.83416
727.403	-41.44034
727.596	-22.47729
727.79	11.23968
727.984	25.99279
728.177	2.80986
728.371	-77.25387
728.565	15.45473
728.758	-68.82782
728.952	-7.72688
729.146	-9.83416
729.339	-43.54722
729.533	85.01664
729.726	32.3159
729.92	66.04272
730.113	51.28651
730.307	40.74705
730.5	-9.83416
730.694	-35.11954
730.887	34.42366
731.081	2.80986
731.274	-75.1474
731.468	-43.54722
731.661	-20.37016
731.854	57.61047
732.048	28.10047
732.241	9.13219
732.435	-60.40135
732.628	32.3159
732.821	-9.83416
733.014	23.88513
733.208	-28.79853
733.401	-9.83416
733.594	-9.83416
733.788	-33.01256
733.981	-18.26301
734.174	-5.61958
734.367	-60.40135
734.56	2.80986
734.754	-33.01256
734.947	17.5623
735.14	11.23968
735.333	32.3159
735.526	-9.83416
735.719	-22.47729
735.912	-5.61958
736.105	-16.15583
736.298	19.66988
736.491	-56.18797
736.684	7.02472
736.877	30.20817
737.07	-22.47729
737.263	-39.33343
737.456	-66.72124
737.649	-30.90556
737.842	-70.93437
738.035	-1.40491
738.228	-1.40491
738.421	23.88513
738.614	-26.69148
738.807	-33.01256
739	-22.47729
739.192	9.13219
739.385	-56.18797
739.578	28.10047
739.771	-39.33343
739.964	19.66988
740.156	-16.15583
740.349	-35.11954
740.542	-127.80145
740.735	-5.61958
740.927	-9.83416
741.12	32.3159
741.313	-14.04863
741.505	32.3159
741.698	-75.1474
741.891	0.70246
742.083	-7.72688
742.276	-26.69148
742.468	13.34719
742.661	44.96277
742.854	-1.40491
743.046	-83.57314
743.239	0.70246
743.431	9.13219
743.624	23.88513
743.816	-51.97449
744.009	34.42366
744.201	-43.54722
744.393	0.70246
744.586	38.63923
744.778	-41.44034
744.971	25.99279
745.163	-1.40491
745.355	-98.3172
745.548	-39.33343
745.74	-30.90556
745.932	-22.47729
746.125	85.01664
746.317	-9.83416
746.509	-7.72688
746.702	-16.15583
746.894	-24.5844
747.086	47.07066
747.278	-3.51226
747.471	-41.44034
747.663	34.42366
747.855	-60.40135
748.047	19.66988
748.239	-140.43596
748.431	-18.26301
748.623	28.10047
748.815	36.53143
749.008	-73.04089
749.2	-26.69148
749.392	-20.37016
749.584	-7.72688
749.776	2.80986
749.968	-41.44034
750.16	25.99279
750.352	-33.01256
750.544	-77.25387
750.736	32.3159
750.928	36.53143
751.12	38.63923
751.311	-18.26301
751.503	9.13219
751.695	28.10047
751.887	70.25899
752.079	-68.82782
752.271	40.74705
752.463	-75.1474
752.654	40.74705
752.846	25.99279
753.038	-39.33343
753.23	-18.26301
753.421	-33.01256
753.613	32.3159
753.805	15.45473
753.997	-60.40135
754.188	11.23968
754.38	-98.3172
754.572	-16.15583
754.763	-18.26301
754.955	-14.04863
755.146	-49.86771
755.338	57.61047
755.53	-66.72124
755.721	19.66988
755.913	-26.69148
756.104	21.7775
756.296	-26.69148
756.487	15.45473
756.679	7.02472
756.87	23.88513
757.062	-35.11954
757.253	74.47535
757.445	74.47535
757.636	-3.51226
757.827	-9.83416
758.019	70.25899
758.21	-64.61464
758.401	-51.97449
758.593	11.23968
758.784	42.8549
758.975	-49.86771
759.167	-16.15583
759.358	-47.7609
759.549	15.45473
759.74	-30.90556
759.932	38.63923
760.123	53.39447
760.314	-66.72124
760.505	-37.2265
760.696	34.42366
760.888	38.63923
761.079	36.53143
761.27	47.07066
761.461	-106.7418
761.652	-22.47729
761.843	-7.72688
762.034	-77.25387
762.225	9.13219
762.416	-18.26301
762.607	25.99279
762.798	61.82655
762.989	32.3159
763.18	-30.90556
763.371	-26.69148
763.562	32.3159
763.753	-73.04089
763.944	-41.44034
764.135	4.91728
764.326	2.80986
764.517	21.7775
764.708	-39.33343
764.899	-49.86771
765.089	-33.01256
765.28	25.99279
765.471	-9.83416
765.662	7.02472
765.853	36.53143
766.043	-18.26301
766.234	17.5623
766.425	-85.67951
766.615	-7.72688
766.806	-51.97449
766.997	-43.54722
767.187	-16.15583
767.378	-45.65407
767.569	-16.15583
767.759	-18.26301
767.95	-18.26301
768.141	-49.86771
768.331	-7.72688
768.522	-49.86771
768.712	-5.61958
768.903	4.91728
769.093	55.50246
769.284	11.23968
769.474	47.07066
769.665	-18.26301
769.855	32.3159
770.046	-9.83416
770.236	-28.79853
770.426	-3.51226
770.617	30.20817
770.807	23.88513
770.998	15.45473
771.188	-77.25387
771.378	-9.83416
771.569	-47.7609
771.759	-51.97449
771.949	11.23968
772.139	-62.50801
772.33	-28.79853
772.52	44.96277
772.71	-56.18797
772.9	19.66988
773.09	-16.15583
773.281	17.5623
773.471	11.23968
773.661	-60.40135
773.851	-7.72688
774.041	15.45473
774.231	57.61047
774.421	-16.15583
774.611	-1.40491
774.802	-18.26301
774.992	-41.44034
775.182	30.20817
775.372	-26.69148
775.562	2.80986
775.752	-16.15583
775.942	-18.26301
776.131	17.5623
776.321	-14.04863
776.511	34.42366
776.701	25.99279
776.891	57.61047
777.081	-41.44034
777.271	36.53143
777.461	74.47535
777.651	-9.83416
777.84	36.53143
778.03	44.96277
778.22	15.45473
778.41	-20.37016
778.599	11.23968
778.789	-56.18797
778.979	-77.25387
779.169	-64.61464
779.358	25.99279
779.548	19.66988
779.738	28.10047
779.927	-3.51226
780.117	-56.18797
780.307	-28.79853
780.496	11.23968
780.686	15.45473
780.875	11.23968
781.065	36.53143
781.254	34.42366
781.444	-7.72688
781.633	-64.61464
781.823	-35.11954
782.012	-35.11954
782.202	-60.40135
782.391	34.42366
782.581	-9.83416
782.77	-35.11954
782.96	-7.72688
783.149	23.88513
783.338	25.99279
783.528	-41.44034
783.717	7.02472
783.906	-56.18797
784.096	15.45473
784.285	7.02472
784.474	42.8549
784.663	23.88513
784.853	2.80986
785.042	-51.97449
785.231	-1.40491
785.42	-60.40135
785.61	-1.40491
785.799	-43.54722
785.988	72.36716
786.177	11.23968
786.366	-1.40491
786.555	19.66988
786.744	59.7185
786.933	-22.47729
787.122	42.8549
787.312	-5.61958
787.501	-14.04863
787.69	32.3159
787.879	11.23968
788.068	-14.04863
788.257	-47.7609
788.445	-28.79853
788.634	-39.33343
788.823	-51.97449
789.012	28.10047
789.201	70.25899
789.39	-51.97449
789.579	44.96277
789.768	-18.26301
789.957	-33.01256
790.145	40.74705
790.334	23.88513
790.523	-35.11954
790.712	-5.61958
790.9	42.8549
791.089	-22.47729
791.278	7.02472
791.467	23.88513
791.655	-70.93437
791.844	-5.61958
792.033	30.20817
792.221	53.39447
792.41	11.23968
792.599	55.50246
792.787	-73.04089
792.976	53.39447
793.164	-18.26301
793.353	15.45473
793.541	-45.65407
793.73	-39.33343
793.918	-68.82782
794.107	42.8549
794.295	-9.83416
794.484	-1.40491
794.672	-14.04863
794.861	51.28651
795.049	19.66988
795.238	-58.29468
795.426	63.93463
795.614	-35.11954
795.803	-26.69148
795.991	4.91728
796.179	-11.94141
796.368	-39.33343
796.556	-30.90556
796.744	-81.46674
796.932	23.88513
797.121	-37.2265
797.309	-43.54722
797.497	-30.90556
797.685	-5.61958
797.874	-3.51226
798.062	-47.7609
798.25	-35.11954
798.438	7.02472
798.626	-30.90556
798.814	-62.50801
799.002	-62.50801
799.19	-14.04863
799.378	-18.26301
799.566	11.23968
799.755	-89.89218
799.943	-5.61958
800.131	-9.83416
800.318	15.45473
800.506	15.45473
800.694	34.42366
800.882	4.91728
801.07	23.88513
801.258	36.53143
801.446	-49.86771
801.634	-49.86771
801.822	15.45473
802.01	0.70246
802.197	-45.65407
802.385	-22.47729
802.573	15.45473
802.761	-60.40135
802.949	-9.83416
803.136	-56.18797
803.324	34.42366
803.512	-1.40491
803.699	15.45473
803.887	-66.72124
804.075	2.80986
804.262	-66.72124
804.45	-49.86771
804.638	82.90833
804.825	11.23968
805.013	34.42366
805.201	-20.37016
805.388	15.45473
805.576	11.23968
805.763	59.7185
805.951	7.02472
806.138	-18.26301
806.326	23.88513
806.513	36.53143
806.701	-26.69148
806.888	-9.83416
807.075	-7.72688
807.263	17.5623
807.45	-47.7609
807.638	40.74705
807.825	61.82655
808.012	-1.40491
808.2	7.02472
808.387	36.53143
808.574	13.34719
808.761	32.3159
808.949	7.02472
809.136	9.13219
809.323	-26.69148
809.51	95.55848
809.698	-24.5844
809.885	-7.72688
810.072	-41.44034
810.259	-89.89218
810.446	-16.15583
810.633	-18.26301
810.82	32.3159
811.008	-41.44034
811.195	-1.40491
811.382	-33.01256
811.569	-43.54722
811.756	-24.5844
811.943	-33.01256
812.13	-33.01256
812.317	-22.47729
812.504	-62.50801
812.691	-39.33343
812.878	2.80986
813.064	23.88513
813.251	-33.01256
813.438	-9.83416
813.625	-18.26301
813.812	-16.15583
813.999	-9.83416
814.186	19.66988
814.372	53.39447
814.559	-87.78586
814.746	4.91728
814.933	-33.01256
815.12	25.99279
815.306	49.17857
815.493	9.13219
815.68	0.70246
815.866	-7.72688
816.053	7.02472
816.24	11.23968
816.426	-22.47729
816.613	15.45473
816.799	-68.82782
816.986	-39.33343
817.173	-123.58973
817.359	-43.54722
817.546	0.70246
817.732	19.66988
817.919	-51.97449
818.105	74.47535
818.292	-64.61464
818.478	11.23968
818.665	2.80986
818.851	11.23968
819.037	-56.18797
819.224	74.47535
819.41	-75.1474
819.597	-33.01256
819.783	-43.54722
819.969	-85.67951
820.156	-1.40491
820.342	-9.83416
820.528	-64.61464
820.714	-1.40491
820.901	-83.57314
821.087	-49.86771
821.273	19.66988
821.459	59.7185
821.646	-119.37791
821.832	-3.51226
822.018	7.02472
822.204	40.74705
822.39	-1.40491
822.576	-35.11954
822.762	44.96277
822.948	-51.97449
823.134	17.5623
823.32	-117.27196
823.507	2.80986
823.693	-3.51226
823.879	-9.83416
824.065	-16.15583
824.25	-66.72124
824.436	66.04272
824.622	-43.54722
824.808	-43.54722
824.994	23.88513
825.18	19.66988
825.366	-60.40135
825.552	-43.54722
825.738	-37.2265
825.923	47.07066
826.109	23.88513
826.295	-7.72688
826.481	44.96277
826.667	-62.50801
826.852	-49.86771
827.038	25.99279
827.224	36.53143
827.409	66.04272
827.595	17.5623
827.781	-18.26301
827.966	-30.90556
828.152	-28.79853
828.338	36.53143
828.523	66.04272
828.709	25.99279
828.894	34.42366
829.08	-22.47729
829.266	-28.79853
829.451	11.23968
829.637	82.90833
829.822	-75.1474
830.008	-1.40491
830.193	28.10047
830.378	-9.83416
830.564	49.17857
830.749	-24.5844
830.935	-77.25387
831.12	-14.04863
831.305	-1.40491
831.491	36.53143
831.676	-75.1474
831.861	32.3159
832.047	-64.61464
832.232	34.42366
832.417	-37.2265
832.602	4.91728
832.788	-26.69148
832.973	28.10047
833.158	-43.54722
833.343	-16.15583
833.528	11.23968
833.714	47.07066
833.899	2.80986
834.084	61.82655
834.269	-51.97449
834.454	42.8549
834.639	32.3159
834.824	-26.69148
835.009	15.45473
835.194	11.23968
835.379	-113.05997
835.564	4.91728
835.749	-68.82782
835.934	-16.15583
836.119	-39.33343
836.304	-26.69148
836.489	-5.61958
836.674	-51.97449
836.859	-68.82782
837.044	-1.40491
837.228	36.53143
837.413	-26.69148
837.598	32.3159
837.783	0.70246
837.968	51.28651
838.152	0.70246
838.337	15.45473
838.522	-7.72688
838.707	-14.04863
838.891	15.45473
839.076	2.80986
839.261	-22.47729
839.445	-35.11954
839.63	19.66988
839.815	-14.04863
839.999	49.17857
840.184	-35.11954
840.368	-5.61958
840.553	23.88513
840.737	23.88513
840.922	7.02472
841.106	-20.37016
841.291	0.70246
841.475	-28.79853
841.66	-28.79853
841.844	-33.01256
842.029	42.8549
842.213	2.80986
842.397	-33.01256
842.582	47.07066
842.766	49.17857
842.951	-41.44034
843.135	34.42366
843.319	-16.15583
843.504	15.45473
843.688	-98.3172
843.872	-26.69148
844.056	-11.94141
844.241	-20.37016
844.425	15.45473
844.609	15.45473
844.793	11.23968
844.977	32.3159
845.161	0.70246
845.346	36.53143
845.53	25.99279
845.714	-43.54722
845.898	23.88513
846.082	-18.26301
846.266	55.50246
846.45	-43.54722
846.634	38.63923
846.818	-47.7609
847.002	32.3159
847.186	-51.97449
847.37	-22.47729
847.554	28.10047
847.738	-7.72688
847.922	-22.47729
848.106	-5.61958
848.29	34.42366
848.473	23.88513
848.657	23.88513
848.841	-9.83416
849.025	-41.44034
849.209	15.45473
849.392	-47.7609
849.576	-5.61958
849.76	15.45473
849.944	2.80986
850.127	15.45473
850.311	-7.72688
850.495	-51.97449
850.678	15.45473
850.862	-11.94141
851.046	2.80986
851.229	19.66988
851.413	9.13219
851.596	2.80986
851.78	-26.69148
851.964	0.70246
852.147	-9.83416
852.331	-5.61958
852.514	-43.54722
852.698	-51.97449
852.881	-45.65407
853.065	-35.11954
853.248	-91.99847
853.431	-22.47729
853.615	85.01664
853.798	-94.10474
853.982	-33.01256
854.165	-45.65407
854.348	-47.7609
854.532	0.70246
854.715	70.25899
854.898	34.42366
855.081	47.07066
855.265	30.20817
855.448	-30.90556
855.631	-37.2265
855.814	-47.7609
855.997	34.42366
856.181	-43.54722
856.364	61.82655
856.547	53.39447
856.73	-18.26301
856.913	-58.29468
857.096	15.45473
857.279	-35.11954
857.462	15.45473
857.645	49.17857
857.828	-43.54722
858.011	-30.90556
858.194	-11.94141
858.377	-22.47729
858.56	13.34719
858.743	11.23968
858.926	-35.11954
859.109	28.10047
859.292	-16.15583
859.475	66.04272
859.658	-47.7609
859.841	0.70246
860.023	-39.33343
860.206	23.88513
860.389	-43.54722
860.572	51.28651
860.755	25.99279
860.937	-26.69148
861.12	-26.69148
861.303	-89.89218
861.486	-5.61958
861.668	78.6918
861.851	19.66988
862.034	-33.01256
862.216	-26.69148
862.399	19.66988
862.581	-1.40491
862.764	-26.69148
862.947	-33.01256
863.129	40.74705
863.312	7.02472
863.494	36.53143
863.677	-11.94141
863.859	-18.26301
864.042	-51.97449
864.224	57.61047
864.406	9.13219
864.589	19.66988
864.771	-30.90556
864.954	15.45473
865.136	-51.97449
865.318	-54.08124
865.501	-26.69148
865.683	-26.69148
865.865	2.80986
866.048	-1.40491
866.23	34.42366
866.412	-39.33343
866.594	-43.54722
866.777	7.02472
866.959	-30.90556
867.141	-18.26301
867.323	7.02472
867.505	23.88513
867.687	68.15085
867.869	-7.72688
868.052	-20.37016
868.234	-35.11954
868.416	-43.54722
868.598	-24.5844
868.78	23.88513
868.962	30.20817
869.144	-35.11954
869.326	-20.37016
869.508	-94.10474
869.69	-1.40491
869.872	-22.47729
870.054	-26.69148
870.236	-35.11954
870.417	2.80986
870.599	9.13219
870.781	-94.10474
870.963	-1.40491
871.145	15.45473
871.327	-39.33343
871.508	-16.15583
871.69	-28.79853
871.872	-39.33343
872.054	-81.46674
872.235	-7.72688
872.417	-33.01256
872.599	-5.61958
872.78	-49.86771
872.962	-9.83416
873.144	19.66988
873.325	-9.83416
873.507	34.42366
873.689	-51.97449
873.87	-39.33343
874.052	9.13219
874.233	-5.61958
874.415	-9.83416
874.596	49.17857
874.778	36.53143
874.959	-26.69148
875.141	-60.40135
875.322	-1.40491
875.503	7.02472
875.685	-9.83416
875.866	-1.40491
876.048	0.70246
876.229	9.13219
876.41	-54.08124
876.592	36.53143
876.773	21.7775
876.954	-49.86771
877.136	-26.69148
877.317	-1.40491
877.498	-73.04089
877.679	-81.46674
877.86	-26.69148
878.042	-26.69148
878.223	-28.79853
878.404	-56.18797
878.585	-28.79853
878.766	-18.26301
878.947	11.23968
879.128	11.23968
879.309	25.99279
879.49	-7.72688
879.672	-41.44034
879.853	-41.44034
880.034	13.34719
880.215	9.13219
880.396	-1.40491
880.576	-37.2265
880.757	28.10047
880.938	36.53143
881.119	95.55848
881.3	-20.37016
881.481	-64.61464
881.662	7.02472
881.843	28.10047
882.023	-47.7609
882.204	-43.54722
882.385	13.34719
882.566	59.7185
882.747	-35.11954
882.927	-9.83416
883.108	-47.7609
883.289	-28.79853
883.469	28.10047
883.65	-30.90556
883.831	-60.40135
884.011	-5.61958
884.192	-49.86771
884.373	-28.79853
884.553	-73.04089
884.734	34.42366
884.914	15.45473
885.095	-20.37016
885.275	-66.72124
885.456	-77.25387
885.636	-1.40491
885.817	-45.65407
885.997	28.10047
886.178	-51.97449
886.358	-22.47729
886.538	-26.69148
886.719	-20.37016
886.899	57.61047
887.08	49.17857
887.26	-1.40491
887.44	-30.90556
887.621	-51.97449
887.801	-1.40491
887.981	-1.40491
888.161	-45.65407
888.342	-7.72688
888.522	57.61047
888.702	13.34719
888.882	-26.69148
889.062	-9.83416
889.242	17.5623
889.423	-7.72688
889.603	-43.54722
889.783	32.3159
889.963	-1.40491
890.143	-18.26301
890.323	2.80986
890.503	0.70246
890.683	15.45473
890.863	15.45473
891.043	-45.65407
891.223	-75.1474
891.403	-3.51226
891.583	-108.84788
891.763	-1.40491
891.943	-20.37016
892.122	11.23968
892.302	-54.08124
892.482	-22.47729
892.662	-60.40135
892.842	-30.90556
893.022	28.10047
893.201	23.88513
893.381	-7.72688
893.561	-16.15583
893.741	-18.26301
893.92	-37.2265
894.1	28.10047
894.28	-18.26301
894.459	-33.01256
894.639	-30.90556
894.819	11.23968
894.998	2.80986
895.178	-47.7609
895.357	42.8549
895.537	80.80005
895.716	-51.97449
895.896	-47.7609
896.075	-18.26301
896.255	13.34719
896.434	-47.7609
896.614	17.5623
896.793	0.70246
896.973	82.90833
897.152	-51.97449
897.331	-24.5844
897.511	13.34719
897.69	-60.40135
897.87	47.07066
898.049	0.70246
898.228	-22.47729
898.407	0.70246
898.587	-18.26301
898.766	23.88513
898.945	11.23968
899.124	-56.18797
899.304	-26.69148
899.483	-66.72124
899.662	-68.82782
899.841	-7.72688
900.02	-98.3172
900.199	-26.69148
900.378	30.20817
900.557	49.17857
900.737	57.61047
900.916	32.3159
901.095	19.66988
901.274	-18.26301
901.453	15.45473
901.632	-75.1474
901.811	40.74705
901.989	-7.72688
902.168	-47.7609
902.347	53.39447
902.526	7.02472
902.705	51.28651
902.884	-45.65407
903.063	-87.78586
903.242	-62.50801
903.42	-20.37016
903.599	-11.94141
903.778	47.07066
903.957	-9.83416
904.135	36.53143
904.314	-26.69148
904.493	-22.47729
904.672	13.34719
904.85	66.04272
905.029	32.3159
905.207	-35.11954
905.386	4.91728
905.565	-81.46674
905.743	40.74705
905.922	-16.15583
906.1	21.7775
906.279	4.91728
906.457	-51.97449
906.636	15.45473
906.814	13.34719
906.993	-51.97449
907.171	55.50246
907.35	-24.5844
907.528	11.23968
907.707	-49.86771
907.885	-28.79853
908.063	23.88513
908.242	-60.40135
908.42	34.42366
908.598	23.88513
908.777	25.99279
908.955	17.5623
909.133	-9.83416
909.311	-33.01256
909.49	2.80986
909.668	32.3159
909.846	-35.11954
910.024	9.13219
910.202	-68.82782
910.38	-16.15583
910.559	-45.65407
910.737	13.34719
910.915	-41.44034
911.093	-47.7609
911.271	-30.90556
911.449	-47.7609
911.627	17.5623
911.805	87.12496
911.983	-56.18797
912.161	66.04272
912.339	23.88513
912.517	15.45473
912.695	-79.36032
912.872	-5.61958
913.05	-11.94141
913.228	25.99279
913.406	-54.08124
913.584	-123.58973
913.762	61.82655
913.939	-3.51226
914.117	-39.33343
914.295	7.02472
914.473	-47.7609
914.65	-14.04863
914.828	32.3159
915.006	-16.15583
915.184	-26.69148
915.361	-89.89218
915.539	-18.26301
915.716	19.66988
915.894	9.13219
916.072	-5.61958
916.249	13.34719
916.427	11.23968
916.604	-56.18797
916.782	78.6918
916.959	-83.57314
917.137	-3.51226
917.314	-30.90556
917.492	23.88513
917.669	-62.50801
917.847	42.8549
918.024	-7.72688
918.201	-7.72688
918.379	-11.94141
918.556	-47.7609
918.733	-43.54722
918.911	-39.33343
919.088	-91.99847
919.265	-56.18797
919.442	-73.04089
919.62	51.28651
919.797	-18.26301
919.974	36.53143
920.151	-5.61958
920.328	-24.5844
920.506	15.45473
920.683	-41.44034
920.86	36.53143
921.037	-20.37016
921.214	-26.69148
921.391	32.3159
921.568	17.5623
921.745	-33.01256
921.922	-5.61958
922.099	-51.97449
922.276	-47.7609
922.453	-66.72124
922.63	-9.83416
922.807	49.17857
922.984	15.45473
923.161	-5.61958
923.338	-9.83416
923.514	-33.01256
923.691	-70.93437
923.868	34.42366
924.045	-9.83416
924.222	-18.26301
924.399	17.5623
924.575	-56.18797
924.752	-68.82782
924.929	-43.54722
925.105	-26.69148
925.282	28.10047
925.459	-35.11954
925.635	40.74705
925.812	0.70246
925.989	-16.15583
926.165	-77.25387
926.342	-79.36032
926.518	17.5623
926.695	40.74705
926.871	-37.2265
927.048	40.74705
927.224	21.7775
927.401	-58.29468
927.577	2.80986
927.754	-28.79853
927.93	78.6918
928.107	-5.61958
928.283	25.99279
928.459	0.70246
928.636	-121.48383
928.812	47.07066
928.988	51.28651
929.165	17.5623
929.341	-49.86771
929.517	-62.50801
929.693	13.34719
929.87	-68.82782
930.046	30.20817
930.222	-56.18797
930.398	-26.69148
930.574	-11.94141
930.751	2.80986
930.927	4.91728
931.103	53.39447
931.279	4.91728
931.455	-24.5844
931.631	-51.97449
931.807	30.20817
931.983	-9.83416
932.159	-26.69148
932.335	-41.44034
932.511	-16.15583
932.687	-47.7609
932.863	-54.08124
933.039	2.80986
933.215	25.99279
933.391	-35.11954
933.566	51.28651
933.742	40.74705
933.918	-9.83416
934.094	-16.15583
934.27	11.23968
934.445	23.88513
934.621	-35.11954
934.797	19.66988
934.973	-20.37016
935.148	7.02472
935.324	11.23968
935.5	-18.26301
935.675	-30.90556
935.851	-51.97449
936.027	-26.69148
936.202	-60.40135
936.378	2.80986
936.553	-51.97449
936.729	-58.29468
936.904	2.80986
937.08	32.3159
937.255	11.23968
937.431	-43.54722
937.606	17.5623
937.782	15.45473
937.957	2.80986
938.133	-30.90556
938.308	-24.5844
938.483	0.70246
938.659	17.5623
938.834	7.02472
939.009	32.3159
939.185	2.80986
939.36	40.74705
939.535	-39.33343
939.71	49.17857
939.886	-30.90556
940.061	-58.29468
940.236	-24.5844
940.411	25.99279
940.586	-66.72124
940.761	-24.5844
940.937	-60.40135
941.112	-77.25387
941.287	-45.65407
941.462	78.6918
941.637	-43.54722
941.812	17.5623
941.987	51.28651
942.162	-35.11954
942.337	25.99279
942.512	-54.08124
942.687	-1.40491
942.862	7.02472
943.037	23.88513
943.212	13.34719
943.386	34.42366
943.561	-64.61464
943.736	15.45473
943.911	2.80986
944.086	30.20817
944.26	-18.26301
944.435	49.17857
944.61	-9.83416
944.785	2.80986
944.959	9.13219
945.134	-5.61958
945.309	-81.46674
945.483	-16.15583
945.658	-28.79853
945.833	-94.10474
946.007	-9.83416
946.182	-49.86771
946.357	-41.44034
946.531	21.7775
946.706	51.28651
946.88	-43.54722
947.055	-16.15583
947.229	11.23968
947.404	-66.72124
947.578	-14.04863
947.752	-41.44034
947.927	-18.26301
948.101	-26.69148
948.276	-18.26301
948.45	-47.7609
948.624	-24.5844
948.799	-9.83416
948.973	-39.33343
949.147	-60.40135
949.321	7.02472
949.496	-14.04863
949.67	-20.37016
949.844	-110.95394
950.018	-14.04863
950.193	40.74705
950.367	-33.01256
950.541	-60.40135
950.715	2.80986
950.889	-43.54722
951.063	44.96277
951.237	55.50246
951.411	11.23968
951.585	0.70246
951.759	-24.5844
951.933	0.70246
952.107	-51.97449
952.281	19.66988
952.455	-11.94141
952.629	32.3159
952.803	-43.54722
952.977	-77.25387
953.151	-51.97449
953.325	-81.46674
953.499	-77.25387
953.672	2.80986
953.846	15.45473
954.02	-7.72688
954.194	-43.54722
954.368	15.45473
954.541	13.34719
954.715	23.88513
954.889	-51.97449
955.062	7.02472
955.236	-7.72688
955.41	11.23968
955.583	23.88513
955.757	17.5623
955.93	-64.61464
956.104	-5.61958
956.278	23.88513
956.451	32.3159
956.625	-51.97449
956.798	-41.44034
956.972	-16.15583
957.145	-35.11954
957.319	-39.33343
957.492	34.42366
957.665	-22.47729
957.839	-43.54722
958.012	-81.46674
958.185	17.5623
958.359	-51.97449
958.532	-3.51226
958.705	-51.97449
958.879	-39.33343
959.052	-5.61958
959.225	42.8549
959.398	59.7185
959.572	-7.72688
959.745	-60.40135
959.918	-75.1474
960.091	11.23968
960.264	19.66988
960.438	-9.83416
960.611	42.8549
960.784	36.53143
960.957	44.96277
961.13	-5.61958
961.303	-30.90556
961.476	-37.2265
961.649	15.45473
961.822	23.88513
961.995	-24.5844
962.168	25.99279
962.341	-1.40491
962.514	-60.40135
962.686	82.90833
962.859	-49.86771
963.032	-9.83416
963.205	-77.25387
963.378	19.66988
963.551	-24.5844
963.723	-43.54722
963.896	-9.83416
964.069	-24.5844
964.242	28.10047
964.414	17.5623
964.587	-3.51226
964.76	19.66988
964.932	-39.33343
965.105	-9.83416
965.278	-14.04863
965.45	-49.86771
965.623	-56.18797
965.795	11.23968
965.968	-1.40491
966.14	-24.5844
966.313	-20.37016
966.485	40.74705
966.658	74.47535
966.83	17.5623
967.003	36.53143
967.175	-9.83416
967.348	-58.29468
967.52	40.74705
967.692	42.8549
967.865	66.04272
968.037	47.07066
968.209	-26.69148
968.382	32.3159
968.554	53.39447
968.726	53.39447
968.898	-43.54722
969.071	-66.72124
969.243	-9.83416
969.415	-66.72124
969.587	15.45473
969.759	30.20817
969.932	-60.40135
970.104	-5.61958
970.276	-56.18797
970.448	-33.01256
970.62	25.99279
970.792	7.02472
970.964	-24.5844
971.136	-62.50801
971.308	-102.52955
971.48	-37.2265
971.652	-20.37016
971.824	-26.69148
971.996	47.07066
972.168	-75.1474
972.339	-87.78586
972.511	85.01664
972.683	-56.18797
972.855	-66.72124
973.027	28.10047
973.199	-33.01256
973.37	-85.67951
973.542	-18.26301
973.714	-35.11954
973.886	-56.18797
974.057	-60.40135
974.229	15.45473
974.401	-47.7609
974.572	13.34719
974.744	-20.37016
974.915	19.66988
975.087	23.88513
975.259	-1.40491
975.43	61.82655
975.602	11.23968
975.773	-18.26301
975.945	-62.50801
976.116	-148.85842
976.288	-5.61958
976.459	0.70246
976.63	-41.44034
976.802	-49.86771
976.973	17.5623
977.145	-14.04863
977.316	-22.47729
977.487	-16.15583
977.659	-56.18797
977.83	-18.26301
978.001	-102.52955
978.172	11.23968
978.344	-43.54722
978.515	36.53143
978.686	-56.18797
978.857	9.13219
979.028	21.7775
979.2	19.66988
979.371	-35.11954
979.542	21.7775
979.713	-73.04089
979.884	-60.40135
980.055	11.23968
980.226	11.23968
980.397	40.74705
980.568	15.45473
980.739	-96.21098
980.91	-24.5844
981.081	-14.04863
981.252	-77.25387
981.423	-28.79853
981.594	-22.47729
981.765	-56.18797
981.936	-5.61958
982.106	-73.04089
982.277	34.42366
982.448	15.45473
982.619	9.13219
982.79	36.53143
982.96	-47.7609
983.131	-75.1474
983.302	-54.08124
983.472	44.96277
983.643	-11.94141
983.814	17.5623
983.984	-1.40491
984.155	-11.94141
984.326	-41.44034
984.496	13.34719
984.667	19.66988
984.837	-51.97449
985.008	-16.15583
985.178	15.45473
985.349	40.74705
985.519	23.88513
985.69	74.47535
985.86	-41.44034
986.031	-68.82782
986.201	-7.72688
986.371	32.3159
986.542	-1.40491
986.712	-9.83416
986.882	-18.26301
987.053	-24.5844
987.223	-7.72688
987.393	-35.11954
987.563	0.70246
987.734	23.88513
987.904	42.8549
988.074	9.13219
988.244	4.91728
988.414	-26.69148
988.585	-51.97449
988.755	-1.40491
988.925	-51.97449
989.095	-26.69148
989.265	7.02472
989.435	-14.04863
989.605	2.80986
989.775	32.3159
989.945	-54.08124
990.115	-28.79853
990.285	-51.97449
990.455	23.88513
990.625	-60.40135
990.795	-33.01256
990.965	7.02472
991.134	40.74705
991.304	13.34719
991.474	-94.10474
991.644	7.02472
991.814	-24.5844
991.984	-43.54722
992.153	2.80986
992.323	-20.37016
992.493	-26.69148
992.662	-89.89218
992.832	-60.40135
993.002	7.02472
993.171	-26.69148
993.341	-54.08124
993.511	2.80986
993.68	-30.90556
993.85	-18.26301
994.019	-14.04863
994.189	68.15085
994.358	32.3159
994.528	-30.90556
994.697	66.04272
994.867	7.02472
995.036	7.02472
995.206	-43.54722
995.375	-43.54722
995.544	-41.44034
995.714	-49.86771
995.883	-22.47729
996.052	13.34719
996.222	0.70246
996.391	40.74705
996.56	-20.37016
996.73	-51.97449
996.899	40.74705
997.068	-24.5844
997.237	-11.94141
997.406	36.53143
997.576	0.70246
997.745	66.04272
997.914	25.99279
998.083	-41.44034
998.252	25.99279
998.421	-28.79853
998.59	-5.61958
998.759	25.99279
998.928	-1.40491
999.097	-30.90556
999.266	-104.63569
999.435	-43.54722
999.604	-20.37016
999.773	-22.47729
999.942	-60.40135
1000.111	13.34719
1000.28	-56.18797
1000.448	-60.40135
1000.617	-16.15583
1000.786	-14.04863
1000.955	-20.37016
1001.124	-18.26301
1001.292	42.8549
1001.461	7.02472
1001.63	25.99279
1001.798	-26.69148
1001.967	11.23968
1002.136	15.45473
1002.304	59.7185
1002.473	44.96277
1002.642	13.34719
1002.81	-11.94141
1002.979	-91.99847
1003.147	44.96277
1003.316	-26.69148
1003.484	-51.97449
1003.653	-37.2265
1003.821	4.91728
1003.99	-33.01256
1004.158	7.02472
1004.327	-39.33343
1004.495	-24.5844
1004.663	-43.54722
1004.832	25.99279
1005	-60.40135
1005.168	-3.51226
1005.337	-30.90556
1005.505	28.10047
1005.673	23.88513
1005.842	-16.15583
1006.01	-26.69148
1006.178	-5.61958
1006.346	11.23968
1006.514	-41.44034
1006.683	-35.11954
1006.851	-49.86771
1007.019	-3.51226
1007.187	-75.1474
1007.355	36.53143
1007.523	-9.83416
1007.691	70.25899
1007.859	7.02472
1008.027	-1.40491
1008.195	19.66988
1008.363	47.07066
1008.531	-9.83416
1008.699	-5.61958
1008.867	-5.61958
1009.035	-47.7609
1009.203	-22.47729
1009.37	32.3159
1009.538	63.93463
1009.706	11.23968
1009.874	21.7775
1010.042	2.80986
1010.209	-75.1474
1010.377	-22.47729
1010.545	25.99279
1010.713	-58.29468
1010.88	-87.78586
1011.048	-28.79853
1011.216	28.10047
1011.383	-58.29468
1011.551	28.10047
1011.718	-49.86771
1011.886	-54.08124
1012.054	-5.61958
1012.221	-43.54722
1012.389	-75.1474
1012.556	21.7775
1012.724	-35.11954
1012.891	11.23968
1013.058	15.45473
1013.226	-68.82782
1013.393	17.5623
1013.561	25.99279
1013.728	-26.69148
1013.895	-85.67951
1014.063	53.39447
1014.23	15.45473
1014.397	-45.65407
1014.565	99.77538
1014.732	-9.83416
1014.899	-39.33343
1015.066	19.66988
1015.233	-83.57314
1015.401	-30.90556
1015.568	28.10047
1015.735	7.02472
1015.902	-22.47729
1016.069	82.90833
1016.236	-16.15583
1016.403	57.61047
1016.57	57.61047
1016.737	61.82655
1016.904	-51.97449
1017.071	-30.90556
1017.238	-54.08124
1017.405	36.53143
1017.572	-41.44034
1017.739	49.17857
1017.906	-35.11954
1018.073	-24.5844
1018.24	-41.44034
1018.407	-39.33343
1018.573	57.61047
1018.74	-106.7418
1018.907	-28.79853
1019.074	-26.69148
1019.241	-73.04089
1019.407	25.99279
1019.574	-60.40135
1019.741	-35.11954
1019.907	51.28651
1020.074	-5.61958
1020.241	-20.37016
1020.407	7.02472
1020.574	4.91728
1020.74	23.88513
1020.907	34.42366
1021.073	-56.18797
1021.24	-102.52955
1021.406	-1.40491
1021.573	-3.51226
1021.739	-14.04863
1021.906	-26.69148
1022.072	-79.36032
1022.239	-18.26301
1022.405	-24.5844
1022.571	-11.94141
1022.738	-24.5844
1022.904	-70.93437
1023.07	23.88513
1023.237	-41.44034
1023.403	66.04272
1023.569	-9.83416
1023.735	-51.97449
1023.902	-9.83416
1024.068	-49.86771
1024.234	-30.90556
1024.4	-11.94141
1024.566	53.39447
1024.732	42.8549
1024.898	34.42366
1025.065	-35.11954
1025.231	-51.97449
1025.397	13.34719
1025.563	-18.26301
1025.729	2.80986
1025.895	15.45473
1026.061	-18.26301
1026.227	-11.94141
1026.392	-1.40491
1026.558	15.45473
1026.724	-1.40491
1026.89	-60.40135
1027.056	-33.01256
1027.222	13.34719
1027.388	7.02472
1027.553	-1.40491
1027.719	17.5623
1027.885	-26.69148
1028.051	-3.51226
1028.216	76.58356
1028.382	28.10047
1028.548	-49.86771
1028.713	-16.15583
1028.879	-24.5844
1029.045	-64.61464
1029.21	85.01664
1029.376	-37.2265
1029.541	44.96277
1029.707	-41.44034
1029.873	-18.26301
1030.038	-5.61958
1030.204	-1.40491
1030.369	-24.5844
1030.534	2.80986
1030.7	-24.5844
1030.865	32.3159
1031.031	-41.44034
1031.196	-26.69148
1031.361	-14.04863
1031.527	-51.97449
1031.692	2.80986
1031.857	13.34719
1032.023	9.13219
1032.188	-9.83416
1032.353	25.99279
1032.518	-73.04089
1032.684	-35.11954
1032.849	-45.65407
1033.014	17.5623
1033.179	-18.26301
1033.344	55.50246
1033.509	-16.15583
1033.674	-85.67951
1033.839	34.42366
1034.004	82.90833
1034.17	-35.11954
1034.335	-24.5844
1034.5	2.80986
1034.664	-73.04089
1034.829	-22.47729
1034.994	-26.69148
1035.159	-5.61958
1035.324	118.75249
1035.489	-39.33343
1035.654	-18.26301
1035.819	-49.86771
1035.984	23.88513
1036.148	36.53143
1036.313	-28.79853
1036.478	57.61047
1036.643	-79.36032
1036.807	7.02472
1036.972	17.5623
1037.137	7.02472
1037.301	34.42366
1037.466	-47.7609
1037.631	-9.83416
1037.795	11.23968
1037.96	-1.40491
1038.124	-11.94141
1038.289	40.74705
1038.454	-43.54722
1038.618	7.02472
1038.783	-3.51226
1038.947	19.66988
1039.111	9.13219
1039.276	17.5623
1039.44	-33.01256
1039.605	-51.97449
1039.769	-35.11954
1039.933	-18.26301
1040.098	-26.69148
1040.262	9.13219
1040.426	-60.40135
1040.591	-51.97449
1040.755	-51.97449
1040.919	-43.54722
1041.083	-39.33343
1041.248	-51.97449
1041.412	-37.2265
1041.576	15.45473
1041.74	36.53143
1041.904	-33.01256
1042.068	-16.15583
1042.232	-30.90556
1042.397	15.45473
1042.561	-14.04863
1042.725	-14.04863
1042.889	-87.78586
1043.053	-41.44034
1043.217	-77.25387
1043.381	15.45473
1043.544	34.42366
1043.708	-39.33343
1043.872	-18.26301
1044.036	-41.44034
1044.2	-22.47729
1044.364	-28.79853
1044.528	25.99279
1044.691	57.61047
1044.855	66.04272
1045.019	19.66988
1045.183	7.02472
1045.346	23.88513
1045.51	-37.2265
1045.674	74.47535
1045.837	-60.40135
1046.001	-123.58973
1046.165	32.3159
1046.328	44.96277
1046.492	-3.51226
1046.655	40.74705
1046.819	25.99279
1046.983	-16.15583
1047.146	-77.25387
1047.31	-49.86771
1047.473	-45.65407
1047.636	-54.08124
1047.8	89.23331
1047.963	-3.51226
1048.127	-56.18797
1048.29	-81.46674
