Data from Scatter_Coeff_Baseline_USB4F045381__21__0021.txt Node

Date: Thu Feb 13 19:20:30 EST 2025
User: mmckonesweet
Spectrometer: USB4F04538
Trigger mode: 4
Integration Time (sec): 2.400000E-3
Scans to average: 1
Electric dark correction enabled: true
Nonlinearity correction enabled: true
Boxcar width: 0
XAxis mode: Wavelengths
Number of Pixels in Spectrum: 3648
>>>>>Begin Spectral Data<<<<<
345.52	-12.11701
345.736	-12.11701
345.952	-12.11701
346.168	30.03253
346.384	-16.33143
346.6	63.75895
346.816	-26.86706
347.032	8.95656
347.248	-10.00976
347.464	13.17157
347.68	17.38667
347.896	-24.75999
348.112	13.17157
348.328	0.52684
348.544	-16.33143
348.76	-26.86706
348.975	-12.11701
349.191	-50.04327
349.407	19.49425
349.623	-14.22423
349.839	8.95656
350.055	-64.79019
350.27	19.49425
350.486	4.74166
350.702	53.21881
350.918	67.97517
351.133	-64.79019
351.349	-12.11701
351.565	-18.43861
351.781	2.63424
351.996	-31.08114
352.212	-5.79519
352.428	8.95656
352.644	25.81715
352.859	-47.93647
353.075	-50.04327
353.291	25.81715
353.506	-43.72279
353.722	-47.93647
353.938	-7.90249
354.153	-66.89679
354.369	51.11085
354.584	42.67924
354.8	11.06405
355.016	13.17157
355.231	-62.68356
355.447	-56.36353
355.662	-16.33143
355.878	46.895
356.093	-5.79519
356.309	-7.90249
356.524	17.38667
356.74	-33.18815
356.955	-50.04327
357.171	-37.40208
357.386	-90.0677
357.602	-58.47023
357.817	-56.36353
358.033	-31.08114
358.248	8.95656
358.464	-75.32294
358.679	-33.18815
358.895	17.38667
359.11	25.81715
359.325	6.8491
359.541	36.35578
359.756	15.2791
359.972	13.17157
360.187	53.21881
360.402	-62.68356
360.618	-85.85504
360.833	8.95656
361.048	-41.61591
361.264	23.70949
361.479	-5.79519
361.694	-54.2568
361.909	-39.50901
362.125	-12.11701
362.34	0.52684
362.555	30.03253
362.77	51.11085
362.986	-58.47023
363.201	-10.00976
363.416	-28.97412
363.631	38.46358
363.847	-83.74867
364.062	-12.11701
364.277	0.52684
364.492	44.78711
364.707	-56.36353
364.922	-73.21644
365.138	17.38667
365.353	11.06405
365.568	27.92483
365.783	-14.22423
365.998	-16.33143
366.213	25.81715
366.428	84.84094
366.643	55.32679
366.858	8.95656
367.073	-41.61591
367.288	-39.50901
367.503	-5.79519
367.718	40.5714
367.933	-58.47023
368.148	11.06405
368.363	36.35578
368.578	6.8491
368.793	19.49425
369.008	11.06405
369.223	-79.53586
369.438	30.03253
369.653	-50.04327
369.868	-12.11701
370.083	-18.43861
370.298	-3.68787
370.513	42.67924
370.728	36.35578
370.943	-22.65289
371.157	19.49425
371.372	46.895
371.587	-64.79019
371.802	25.81715
372.017	6.8491
372.232	25.81715
372.446	11.06405
372.661	-20.54576
372.876	-24.75999
373.091	-26.86706
373.306	63.75895
373.52	23.70949
373.735	-5.79519
373.95	32.14026
374.165	-54.2568
374.379	-14.22423
374.594	0.52684
374.809	-24.75999
375.023	-16.33143
375.238	-12.11701
375.453	-31.08114
375.667	-16.33143
375.882	11.06405
376.097	-3.68787
376.311	19.49425
376.526	-10.00976
376.741	61.65088
376.955	-54.2568
377.17	-45.82964
377.384	38.46358
377.599	4.74166
377.813	46.895
378.028	23.70949
378.242	-85.85504
378.457	49.00291
378.672	-35.29512
378.886	-71.10991
379.101	-16.33143
379.315	40.5714
379.53	-54.2568
379.744	-1.58052
379.958	-31.08114
380.173	67.97517
380.387	-54.2568
380.602	-1.58052
380.816	59.54283
381.031	-12.11701
381.245	36.35578
381.459	-12.11701
381.674	-31.08114
381.888	4.74166
382.103	32.14026
382.317	-5.79519
382.531	-3.68787
382.746	-66.89679
382.96	13.17157
383.174	-26.86706
383.388	-22.65289
383.603	-5.79519
383.817	-45.82964
384.031	38.46358
384.246	-5.79519
384.46	42.67924
384.674	30.03253
384.888	30.03253
385.103	-5.79519
385.317	-7.90249
385.531	11.06405
385.745	17.38667
385.959	-58.47023
386.174	-5.79519
386.388	4.74166
386.602	-16.33143
386.816	-5.79519
387.03	-14.22423
387.244	-28.97412
387.458	42.67924
387.672	-73.21644
387.887	-37.40208
388.101	-62.68356
388.315	-33.18815
388.529	-20.54576
388.743	15.2791
388.957	-20.54576
389.171	-5.79519
389.385	15.2791
389.599	13.17157
389.813	21.60186
390.027	-37.40208
390.241	-75.32294
390.455	-7.90249
390.669	11.06405
390.883	51.11085
391.097	67.97517
391.311	-24.75999
391.525	25.81715
391.738	30.03253
391.952	44.78711
392.166	0.52684
392.38	17.38667
392.594	8.95656
392.808	-50.04327
393.022	-3.68787
393.236	46.895
393.449	-26.86706
393.663	-7.90249
393.877	-7.90249
394.091	-100.5989
394.305	8.95656
394.518	-7.90249
394.732	-45.82964
394.946	-7.90249
395.16	-5.79519
395.373	-75.32294
395.587	-58.47023
395.801	19.49425
396.015	-12.11701
396.228	-45.82964
396.442	34.24801
396.656	2.63424
396.869	-5.79519
397.083	-62.68356
397.297	-31.08114
397.51	21.60186
397.724	38.46358
397.938	19.49425
398.151	-14.22423
398.365	-71.10991
398.578	-24.75999
398.792	-3.68787
399.005	-41.61591
399.219	-22.65289
399.433	11.06405
399.646	-28.97412
399.86	49.00291
400.073	19.49425
400.287	6.8491
400.5	21.60186
400.714	13.17157
400.927	-41.61591
401.141	25.81715
401.354	67.97517
401.567	8.95656
401.781	36.35578
401.994	51.11085
402.208	23.70949
402.421	-73.21644
402.635	-20.54576
402.848	30.03253
403.061	44.78711
403.275	-7.90249
403.488	21.60186
403.701	-5.79519
403.915	-50.04327
404.128	4.74166
404.341	-14.22423
404.555	-35.29512
404.768	101.70815
404.981	-16.33143
405.195	-20.54576
405.408	-7.90249
405.621	-33.18815
405.834	-31.08114
406.048	23.70949
406.261	-50.04327
406.474	2.63424
406.687	4.74166
406.9	2.63424
407.114	-20.54576
407.327	-109.02339
407.54	-73.21644
407.753	76.40788
407.966	-24.75999
408.179	-1.58052
408.392	57.4348
408.605	-39.50901
408.819	-7.90249
409.032	-73.21644
409.245	-41.61591
409.458	-26.86706
409.671	-22.65289
409.884	51.11085
410.097	-54.2568
410.31	-10.00976
410.523	-5.79519
410.736	0.52684
410.949	-20.54576
411.162	-14.22423
411.375	59.54283
411.588	34.24801
411.801	-41.61591
412.014	-22.65289
412.227	25.81715
412.44	-31.08114
412.653	-83.74867
412.865	-5.79519
413.078	-14.22423
413.291	-26.86706
413.504	2.63424
413.717	-16.33143
413.93	0.52684
414.143	-16.33143
414.356	-39.50901
414.568	-1.58052
414.781	27.92483
414.994	-39.50901
415.207	25.81715
415.42	-26.86706
415.632	19.49425
415.845	61.65088
416.058	19.49425
416.271	-20.54576
416.483	-31.08114
416.696	36.35578
416.909	-64.79019
417.121	-75.32294
417.334	0.52684
417.547	13.17157
417.759	-41.61591
417.972	-41.61591
418.185	-26.86706
418.397	-90.0677
418.61	-24.75999
418.823	4.74166
419.035	4.74166
419.248	-3.68787
419.46	-22.65289
419.673	-56.36353
419.885	30.03253
420.098	0.52684
420.311	19.49425
420.523	-35.29512
420.736	72.19148
420.948	-7.90249
421.161	-47.93647
421.373	97.49122
421.586	49.00291
421.798	34.24801
422.01	63.75895
422.223	-16.33143
422.435	25.81715
422.648	-10.00976
422.86	-47.93647
423.073	-47.93647
423.285	-47.93647
423.497	-28.97412
423.71	19.49425
423.922	-47.93647
424.134	-35.29512
424.347	8.95656
424.559	4.74166
424.771	-24.75999
424.984	-45.82964
425.196	-26.86706
425.408	30.03253
425.621	-66.89679
425.833	-12.11701
426.045	-50.04327
426.257	8.95656
426.47	59.54283
426.682	89.05761
426.894	-79.53586
427.106	-47.93647
427.318	0.52684
427.531	-47.93647
427.743	17.38667
427.955	23.70949
428.167	49.00291
428.379	25.81715
428.591	-45.82964
428.804	0.52684
429.016	38.46358
429.228	0.52684
429.44	30.03253
429.652	0.52684
429.864	42.67924
430.076	4.74166
430.288	-14.22423
430.5	49.00291
430.712	19.49425
430.924	38.46358
431.136	17.38667
431.348	25.81715
431.56	11.06405
431.772	21.60186
431.984	34.24801
432.196	-3.68787
432.408	-90.0677
432.62	27.92483
432.832	57.4348
433.044	30.03253
433.256	2.63424
433.468	2.63424
433.679	51.11085
433.891	-37.40208
434.103	-1.58052
434.315	51.11085
434.527	13.17157
434.739	-24.75999
434.95	-16.33143
435.162	59.54283
435.374	21.60186
435.586	-33.18815
435.798	-5.79519
436.009	-5.79519
436.221	-60.57691
436.433	8.95656
436.645	30.03253
436.856	-20.54576
437.068	36.35578
437.28	0.52684
437.491	53.21881
437.703	13.17157
437.915	-50.04327
438.126	-39.50901
438.338	6.8491
438.55	-10.00976
438.761	17.38667
438.973	59.54283
439.184	8.95656
439.396	6.8491
439.608	8.95656
439.819	53.21881
440.031	-24.75999
440.242	-41.61591
440.454	-58.47023
440.665	-33.18815
440.877	36.35578
441.088	38.46358
441.3	-7.90249
441.511	17.38667
441.723	-5.79519
441.934	-35.29512
442.146	2.63424
442.357	-3.68787
442.569	19.49425
442.78	-35.29512
442.991	67.97517
443.203	32.14026
443.414	-24.75999
443.626	59.54283
443.837	21.60186
444.048	-14.22423
444.26	25.81715
444.471	-10.00976
444.682	-24.75999
444.894	-62.68356
445.105	17.38667
445.316	-41.61591
445.528	-24.75999
445.739	-14.22423
445.95	42.67924
446.161	30.03253
446.373	17.38667
446.584	27.92483
446.795	-3.68787
447.006	17.38667
447.217	-33.18815
447.429	11.06405
447.64	25.81715
447.851	42.67924
448.062	-16.33143
448.273	-24.75999
448.484	-14.22423
448.695	-66.89679
448.907	8.95656
449.118	-37.40208
449.329	-37.40208
449.54	-71.10991
449.751	-16.33143
449.962	19.49425
450.173	-31.08114
450.384	-31.08114
450.595	44.78711
450.806	-81.64228
451.017	-83.74867
451.228	-41.61591
451.439	-7.90249
451.65	27.92483
451.861	-66.89679
452.072	11.06405
452.283	34.24801
452.494	17.38667
452.705	11.06405
452.915	-7.90249
453.126	-22.65289
453.337	-41.61591
453.548	-50.04327
453.759	-31.08114
453.97	-28.97412
454.181	30.03253
454.391	-12.11701
454.602	-64.79019
454.813	42.67924
455.024	42.67924
455.235	-75.32294
455.445	25.81715
455.656	38.46358
455.867	2.63424
456.078	-58.47023
456.288	-24.75999
456.499	-58.47023
456.71	-37.40208
456.921	8.95656
457.131	-1.58052
457.342	-77.42941
457.553	6.8491
457.763	34.24801
457.974	46.895
458.184	53.21881
458.395	-50.04327
458.606	-83.74867
458.816	-83.74867
459.027	-58.47023
459.237	-20.54576
459.448	-41.61591
459.659	-69.00336
459.869	49.00291
460.08	-41.61591
460.29	-54.2568
460.501	-39.50901
460.711	-28.97412
460.922	34.24801
461.132	-47.93647
461.343	46.895
461.553	21.60186
461.764	-64.79019
461.974	-85.85504
462.184	23.70949
462.395	-33.18815
462.605	-20.54576
462.816	36.35578
463.026	-20.54576
463.236	13.17157
463.447	-81.64228
463.657	-79.53586
463.867	36.35578
464.078	6.8491
464.288	-18.43861
464.498	-73.21644
464.709	17.38667
464.919	-33.18815
465.129	-31.08114
465.339	-54.2568
465.55	-7.90249
465.76	76.40788
465.97	-24.75999
466.18	2.63424
466.391	-31.08114
466.601	44.78711
466.811	30.03253
467.021	21.60186
467.231	-5.79519
467.441	-10.00976
467.651	59.54283
467.862	-66.89679
468.072	46.895
468.282	-28.97412
468.492	32.14026
468.702	13.17157
468.912	42.67924
469.122	25.81715
469.332	-109.02339
469.542	-20.54576
469.752	70.08331
469.962	-7.90249
470.172	42.67924
470.382	-71.10991
470.592	-18.43861
470.802	51.11085
471.012	11.06405
471.222	-26.86706
471.432	-54.2568
471.642	-26.86706
471.852	-16.33143
472.062	-5.79519
472.272	51.11085
472.482	-20.54576
472.691	46.895
472.901	-3.68787
473.111	30.03253
473.321	-1.58052
473.531	-39.50901
473.741	-20.54576
473.95	-37.40208
474.16	8.95656
474.37	82.73264
474.58	36.35578
474.79	-79.53586
474.999	4.74166
475.209	-22.65289
475.419	6.8491
475.628	-37.40208
475.838	-90.0677
476.048	-5.79519
476.258	-7.90249
476.467	-45.82964
476.677	-45.82964
476.886	-3.68787
477.096	-28.97412
477.306	-45.82964
477.515	11.06405
477.725	8.95656
477.935	17.38667
478.144	-41.61591
478.354	11.06405
478.563	30.03253
478.773	53.21881
478.982	-58.47023
479.192	-3.68787
479.401	13.17157
479.611	19.49425
479.82	-1.58052
480.03	2.63424
480.239	-37.40208
480.449	-45.82964
480.658	-3.68787
480.868	-50.04327
481.077	-58.47023
481.287	-7.90249
481.496	-20.54576
481.705	55.32679
481.915	25.81715
482.124	46.895
482.333	-10.00976
482.543	25.81715
482.752	-33.18815
482.961	-77.42941
483.171	-24.75999
483.38	46.895
483.589	-58.47023
483.799	4.74166
484.008	-16.33143
484.217	42.67924
484.426	-10.00976
484.636	25.81715
484.845	-20.54576
485.054	-50.04327
485.263	82.73264
485.472	17.38667
485.682	-24.75999
485.891	8.95656
486.1	-54.2568
486.309	-104.8112
486.518	49.00291
486.727	61.65088
486.936	-41.61591
487.146	-56.36353
487.355	34.24801
487.564	-35.29512
487.773	-12.11701
487.982	27.92483
488.191	42.67924
488.4	13.17157
488.609	-58.47023
488.818	-18.43861
489.027	-31.08114
489.236	-26.86706
489.445	70.08331
489.654	-3.68787
489.863	-24.75999
490.072	-14.22423
490.281	-26.86706
490.49	-7.90249
490.698	-41.61591
490.907	-28.97412
491.116	-12.11701
491.325	40.5714
491.534	-41.61591
491.743	6.8491
491.952	-66.89679
492.16	-26.86706
492.369	-22.65289
492.578	-47.93647
492.787	23.70949
492.996	-12.11701
493.204	-20.54576
493.413	61.65088
493.622	-39.50901
493.831	4.74166
494.039	53.21881
494.248	-35.29512
494.457	-5.79519
494.665	13.17157
494.874	23.70949
495.083	13.17157
495.291	-50.04327
495.5	-56.36353
495.709	-47.93647
495.917	-3.68787
496.126	46.895
496.335	15.2791
496.543	25.81715
496.752	19.49425
496.96	-33.18815
497.169	-22.65289
497.377	-24.75999
497.586	-12.11701
497.794	-10.00976
498.003	-35.29512
498.211	25.81715
498.42	-12.11701
498.628	-24.75999
498.837	-45.82964
499.045	2.63424
499.254	-75.32294
499.462	17.38667
499.671	-1.58052
499.879	17.38667
500.087	42.67924
500.296	-39.50901
500.504	-66.89679
500.713	36.35578
500.921	8.95656
501.129	-37.40208
501.338	8.95656
501.546	8.95656
501.754	19.49425
501.962	-24.75999
502.171	44.78711
502.379	25.81715
502.587	6.8491
502.795	-18.43861
503.004	25.81715
503.212	19.49425
503.42	15.2791
503.628	-28.97412
503.837	-28.97412
504.045	-58.47023
504.253	-41.61591
504.461	25.81715
504.669	-50.04327
504.877	23.70949
505.085	-10.00976
505.294	-3.68787
505.502	-54.2568
505.71	-62.68356
505.918	-41.61591
506.126	13.17157
506.334	19.49425
506.542	34.24801
506.75	-35.29512
506.958	27.92483
507.166	8.95656
507.374	0.52684
507.582	-16.33143
507.79	-14.22423
507.998	0.52684
508.206	61.65088
508.414	6.8491
508.622	-28.97412
508.83	51.11085
509.037	15.2791
509.245	32.14026
509.453	-16.33143
509.661	53.21881
509.869	0.52684
510.077	-52.15005
510.285	-12.11701
510.492	-50.04327
510.7	2.63424
510.908	42.67924
511.116	-31.08114
511.324	-37.40208
511.531	-1.58052
511.739	34.24801
511.947	13.17157
512.155	-90.0677
512.362	25.81715
512.57	-7.90249
512.778	19.49425
512.985	-3.68787
513.193	40.5714
513.401	-3.68787
513.608	21.60186
513.816	0.52684
514.024	-71.10991
514.231	4.74166
514.439	-14.22423
514.646	-10.00976
514.854	27.92483
515.061	-58.47023
515.269	-12.11701
515.477	23.70949
515.684	-33.18815
515.892	-54.2568
516.099	-7.90249
516.307	0.52684
516.514	8.95656
516.722	76.40788
516.929	-87.96139
517.136	-62.68356
517.344	8.95656
517.551	-73.21644
517.759	-12.11701
517.966	-71.10991
518.173	17.38667
518.381	49.00291
518.588	-45.82964
518.796	42.67924
519.003	-16.33143
519.21	8.95656
519.418	-24.75999
519.625	-41.61591
519.832	-54.2568
520.039	-100.5989
520.247	49.00291
520.454	-16.33143
520.661	-64.79019
520.868	-24.75999
521.076	-18.43861
521.283	25.81715
521.49	-62.68356
521.697	-26.86706
521.904	-26.86706
522.112	-20.54576
522.319	-79.53586
522.526	-35.29512
522.733	25.81715
522.94	-7.90249
523.147	-12.11701
523.354	-22.65289
523.561	30.03253
523.768	53.21881
523.975	27.92483
524.183	-47.93647
524.39	59.54283
524.597	-58.47023
524.804	67.97517
525.011	-16.33143
525.218	-3.68787
525.425	21.60186
525.632	-92.17399
525.838	-58.47023
526.045	15.2791
526.252	-16.33143
526.459	-24.75999
526.666	-35.29512
526.873	-31.08114
527.08	15.2791
527.287	25.81715
527.494	21.60186
527.701	-50.04327
527.907	-10.00976
528.114	-16.33143
528.321	8.95656
528.528	-1.58052
528.735	-3.68787
528.941	30.03253
529.148	13.17157
529.355	-14.22423
529.562	51.11085
529.768	-37.40208
529.975	-1.58052
530.182	2.63424
530.388	-3.68787
530.595	-39.50901
530.802	-1.58052
531.008	38.46358
531.215	59.54283
531.422	8.95656
531.628	15.2791
531.835	17.38667
532.042	-3.68787
532.248	49.00291
532.455	34.24801
532.661	23.70949
532.868	-33.18815
533.074	4.74166
533.281	6.8491
533.487	-7.90249
533.694	-47.93647
533.9	-69.00336
534.107	-83.74867
534.313	27.92483
534.52	30.03253
534.726	4.74166
534.933	-14.22423
535.139	-16.33143
535.345	-56.36353
535.552	-37.40208
535.758	0.52684
535.965	-60.57691
536.171	-14.22423
536.377	40.5714
536.584	0.52684
536.79	-50.04327
536.996	-39.50901
537.203	27.92483
537.409	17.38667
537.615	61.65088
537.821	-62.68356
538.028	11.06405
538.234	-16.33143
538.44	-14.22423
538.646	-50.04327
538.853	-12.11701
539.059	-62.68356
539.265	-14.22423
539.471	-35.29512
539.677	-10.00976
539.883	15.2791
540.09	19.49425
540.296	-58.47023
540.502	-43.72279
540.708	42.67924
540.914	-43.72279
541.12	6.8491
541.326	-16.33143
541.532	-3.68787
541.738	-52.15005
541.944	59.54283
542.15	17.38667
542.356	-16.33143
542.562	40.5714
542.768	-20.54576
542.974	-62.68356
543.18	-52.15005
543.386	2.63424
543.592	30.03253
543.798	36.35578
544.004	27.92483
544.21	-28.97412
544.415	-3.68787
544.621	-47.93647
544.827	-5.79519
545.033	-52.15005
545.239	-50.04327
545.445	-41.61591
545.651	21.60186
545.856	8.95656
546.062	17.38667
546.268	-18.43861
546.474	2.63424
546.679	-16.33143
546.885	-5.79519
547.091	-43.72279
547.297	-3.68787
547.502	8.95656
547.708	4.74166
547.914	-1.58052
548.119	-56.36353
548.325	11.06405
548.531	8.95656
548.736	-24.75999
548.942	34.24801
549.147	-71.10991
549.353	-16.33143
549.559	110.14229
549.764	-12.11701
549.97	-5.79519
550.175	30.03253
550.381	-14.22423
550.586	46.895
550.792	-50.04327
550.997	59.54283
551.203	-45.82964
551.408	-22.65289
551.614	32.14026
551.819	55.32679
552.025	15.2791
552.23	-54.2568
552.435	13.17157
552.641	-16.33143
552.846	0.52684
553.052	-3.68787
553.257	17.38667
553.462	32.14026
553.668	-24.75999
553.873	17.38667
554.078	-47.93647
554.283	34.24801
554.489	-50.04327
554.694	-26.86706
554.899	-14.22423
555.105	-5.79519
555.31	-37.40208
555.515	17.38667
555.72	-31.08114
555.925	-31.08114
556.131	17.38667
556.336	-22.65289
556.541	86.94927
556.746	-37.40208
556.951	46.895
557.156	-31.08114
557.361	-37.40208
557.567	42.67924
557.772	-1.58052
557.977	65.86705
558.182	13.17157
558.387	-14.22423
558.592	25.81715
558.797	11.06405
559.002	51.11085
559.207	13.17157
559.412	-5.79519
559.617	-58.47023
559.822	-7.90249
560.027	-28.97412
560.232	-7.90249
560.437	25.81715
560.642	-7.90249
560.847	-24.75999
561.051	-26.86706
561.256	55.32679
561.461	32.14026
561.666	21.60186
561.871	0.52684
562.076	-20.54576
562.281	6.8491
562.485	19.49425
562.69	-3.68787
562.895	-10.00976
563.1	40.5714
563.305	15.2791
563.509	-28.97412
563.714	23.70949
563.919	-33.18815
564.123	36.35578
564.328	57.4348
564.533	-10.00976
564.737	4.74166
564.942	11.06405
565.147	4.74166
565.351	0.52684
565.556	-24.75999
565.761	-33.18815
565.965	0.52684
566.17	-7.90249
566.374	-50.04327
566.579	4.74166
566.784	-3.68787
566.988	-22.65289
567.193	-31.08114
567.397	23.70949
567.602	-14.22423
567.806	34.24801
568.011	-24.75999
568.215	36.35578
568.42	13.17157
568.624	-20.54576
568.828	-50.04327
569.033	-60.57691
569.237	59.54283
569.442	8.95656
569.646	19.49425
569.85	-28.97412
570.055	30.03253
570.259	-24.75999
570.463	-28.97412
570.668	63.75895
570.872	17.38667
571.076	19.49425
571.281	-31.08114
571.485	6.8491
571.689	11.06405
571.893	-73.21644
572.098	-16.33143
572.302	-50.04327
572.506	-79.53586
572.71	21.60186
572.914	-3.68787
573.119	42.67924
573.323	-47.93647
573.527	-33.18815
573.731	-10.00976
573.935	17.38667
574.139	-18.43861
574.343	-7.90249
574.547	46.895
574.751	-50.04327
574.955	-47.93647
575.159	27.92483
575.364	-54.2568
575.568	34.24801
575.772	30.03253
575.976	-24.75999
576.18	6.8491
576.383	19.49425
576.587	-54.2568
576.791	-1.58052
576.995	51.11085
577.199	-14.22423
577.403	-22.65289
577.607	-41.61591
577.811	-20.54576
578.015	-50.04327
578.219	19.49425
578.422	53.21881
578.626	-39.50901
578.83	-3.68787
579.034	-52.15005
579.238	13.17157
579.442	-14.22423
579.645	23.70949
579.849	-64.79019
580.053	-39.50901
580.257	-20.54576
580.46	-18.43861
580.664	-10.00976
580.868	27.92483
581.071	-56.36353
581.275	61.65088
581.479	-54.2568
581.682	-64.79019
581.886	-12.11701
582.09	23.70949
582.293	-20.54576
582.497	-33.18815
582.7	78.51611
582.904	-20.54576
583.107	-10.00976
583.311	13.17157
583.515	13.17157
583.718	-94.28026
583.922	-12.11701
584.125	-31.08114
584.329	44.78711
584.532	-115.34148
584.735	-33.18815
584.939	-31.08114
585.142	-62.68356
585.346	6.8491
585.549	-94.28026
585.753	-41.61591
585.956	-33.18815
586.159	53.21881
586.363	-5.79519
586.566	-16.33143
586.769	-14.22423
586.973	-33.18815
587.176	-50.04327
587.379	-26.86706
587.582	8.95656
587.786	-3.68787
587.989	-33.18815
588.192	-50.04327
588.395	-98.49271
588.599	-37.40208
588.802	-39.50901
589.005	-5.79519
589.208	0.52684
589.411	-7.90249
589.615	-10.00976
589.818	82.73264
590.021	34.24801
590.224	21.60186
590.427	8.95656
590.63	-28.97412
590.833	8.95656
591.036	23.70949
591.239	-28.97412
591.442	-10.00976
591.645	36.35578
591.848	34.24801
592.051	-43.72279
592.254	80.62436
592.457	-12.11701
592.66	89.05761
592.863	6.8491
593.066	38.46358
593.269	-16.33143
593.472	-31.08114
593.675	2.63424
593.878	-35.29512
594.081	4.74166
594.284	-45.82964
594.486	2.63424
594.689	-28.97412
594.892	2.63424
595.095	57.4348
595.298	19.49425
595.5	-7.90249
595.703	112.25088
595.906	51.11085
596.109	0.52684
596.311	67.97517
596.514	-66.89679
596.717	-12.11701
596.92	-20.54576
597.122	-28.97412
597.325	-47.93647
597.528	-43.72279
597.73	-31.08114
597.933	55.32679
598.136	84.84094
598.338	46.895
598.541	8.95656
598.743	36.35578
598.946	-60.57691
599.148	-75.32294
599.351	0.52684
599.554	17.38667
599.756	-7.90249
599.959	38.46358
600.161	21.60186
600.363	-47.93647
600.566	8.95656
600.768	61.65088
600.971	-3.68787
601.173	23.70949
601.376	-12.11701
601.578	25.81715
601.78	-50.04327
601.983	-125.87109
602.185	-26.86706
602.388	53.21881
602.59	-66.89679
602.792	-3.68787
602.995	59.54283
603.197	-24.75999
603.399	59.54283
603.601	-47.93647
603.804	34.24801
604.006	-41.61591
604.208	4.74166
604.41	-33.18815
604.613	30.03253
604.815	70.08331
605.017	-1.58052
605.219	6.8491
605.421	-14.22423
605.623	-14.22423
605.826	8.95656
606.028	-7.90249
606.23	11.06405
606.432	0.52684
606.634	93.27437
606.836	38.46358
607.038	2.63424
607.24	-41.61591
607.442	-24.75999
607.644	-39.50901
607.846	72.19148
608.048	-16.33143
608.25	-7.90249
608.452	8.95656
608.654	40.5714
608.856	-24.75999
609.058	-39.50901
609.26	-14.22423
609.462	46.895
609.664	-100.5989
609.866	21.60186
610.067	-41.61591
610.269	4.74166
610.471	4.74166
610.673	-16.33143
610.875	-37.40208
611.077	-1.58052
611.278	67.97517
611.48	-109.02339
611.682	-50.04327
611.884	-1.58052
612.085	8.95656
612.287	-20.54576
612.489	21.60186
612.69	51.11085
612.892	-33.18815
613.094	-28.97412
613.295	-16.33143
613.497	6.8491
613.699	42.67924
613.9	-52.15005
614.102	-26.86706
614.304	13.17157
614.505	15.2791
614.707	32.14026
614.908	17.38667
615.11	-22.65289
615.311	-56.36353
615.513	-26.86706
615.714	44.78711
615.916	34.24801
616.117	23.70949
616.319	27.92483
616.52	-28.97412
616.722	-37.40208
616.923	2.63424
617.124	-31.08114
617.326	-52.15005
617.527	-31.08114
617.729	-41.61591
617.93	2.63424
618.131	8.95656
618.333	-28.97412
618.534	-43.72279
618.735	51.11085
618.937	13.17157
619.138	44.78711
619.339	13.17157
619.54	76.40788
619.742	-5.79519
619.943	-20.54576
620.144	2.63424
620.345	42.67924
620.546	-5.79519
620.748	-41.61591
620.949	76.40788
621.15	-35.29512
621.351	25.81715
621.552	-41.61591
621.753	11.06405
621.954	65.86705
622.155	51.11085
622.356	32.14026
622.558	-7.90249
622.759	-16.33143
622.96	40.5714
623.161	4.74166
623.362	-22.65289
623.563	-33.18815
623.764	-10.00976
623.965	-41.61591
624.166	55.32679
624.366	-7.90249
624.567	0.52684
624.768	-3.68787
624.969	-22.65289
625.17	-52.15005
625.371	57.4348
625.572	-26.86706
625.773	34.24801
625.973	61.65088
626.174	4.74166
626.375	-16.33143
626.576	-50.04327
626.777	-35.29512
626.977	-14.22423
627.178	8.95656
627.379	-22.65289
627.58	-28.97412
627.78	-22.65289
627.981	6.8491
628.182	-94.28026
628.382	-39.50901
628.583	-7.90249
628.784	-75.32294
628.984	-66.89679
629.185	-35.29512
629.386	-16.33143
629.586	-37.40208
629.787	67.97517
629.987	11.06405
630.188	49.00291
630.388	-28.97412
630.589	-37.40208
630.79	-26.86706
630.99	-43.72279
631.191	-33.18815
631.391	67.97517
631.591	-7.90249
631.792	-24.75999
631.992	-56.36353
632.193	-12.11701
632.393	-39.50901
632.594	53.21881
632.794	38.46358
632.994	63.75895
633.195	-16.33143
633.395	-1.58052
633.595	-5.79519
633.796	-16.33143
633.996	-1.58052
634.196	-31.08114
634.397	61.65088
634.597	-26.86706
634.797	30.03253
634.997	-28.97412
635.198	17.38667
635.398	-3.68787
635.598	-20.54576
635.798	6.8491
635.998	-56.36353
636.199	34.24801
636.399	8.95656
636.599	42.67924
636.799	25.81715
636.999	36.35578
637.199	-33.18815
637.399	-20.54576
637.599	-73.21644
637.799	-5.79519
637.999	-41.61591
638.199	-22.65289
638.399	11.06405
638.599	-22.65289
638.799	-20.54576
638.999	34.24801
639.199	0.52684
639.399	2.63424
639.599	-37.40208
639.799	-7.90249
639.999	2.63424
640.199	-41.61591
640.399	-7.90249
640.599	-69.00336
640.799	34.24801
640.998	-20.54576
641.198	-52.15005
641.398	-16.33143
641.598	11.06405
641.798	-45.82964
641.997	-10.00976
642.197	-18.43861
642.397	-22.65289
642.597	-41.61591
642.796	-16.33143
642.996	0.52684
643.196	-22.65289
643.395	-18.43861
643.595	-20.54576
643.795	46.895
643.994	-1.58052
644.194	19.49425
644.394	46.895
644.593	-35.29512
644.793	-22.65289
644.992	-28.97412
645.192	-7.90249
645.392	-50.04327
645.591	51.11085
645.791	-24.75999
645.99	-24.75999
646.19	-45.82964
646.389	25.81715
646.589	42.67924
646.788	-41.61591
646.987	40.5714
647.187	25.81715
647.386	8.95656
647.586	-5.79519
647.785	-50.04327
647.984	-60.57691
648.184	46.895
648.383	-52.15005
648.582	0.52684
648.782	-20.54576
648.981	-50.04327
649.18	30.03253
649.38	-3.68787
649.579	42.67924
649.778	21.60186
649.977	-14.22423
650.177	-62.68356
650.376	32.14026
650.575	0.52684
650.774	-12.11701
650.973	-22.65289
651.173	34.24801
651.372	-39.50901
651.571	-45.82964
651.77	42.67924
651.969	19.49425
652.168	-45.82964
652.367	-37.40208
652.566	-7.90249
652.765	19.49425
652.964	61.65088
653.163	-20.54576
653.362	-52.15005
653.561	-54.2568
653.76	11.06405
653.959	8.95656
654.158	-10.00976
654.357	-14.22423
654.556	-12.11701
654.755	-20.54576
654.954	51.11085
655.153	-24.75999
655.352	46.895
655.551	-56.36353
655.749	4.74166
655.948	-20.54576
656.147	74.29967
656.346	91.16598
656.545	17.38667
656.743	72.19148
656.942	-18.43861
657.141	-7.90249
657.34	46.895
657.538	-3.68787
657.737	-16.33143
657.936	-31.08114
658.135	-20.54576
658.333	-50.04327
658.532	-54.2568
658.731	51.11085
658.929	-7.90249
659.128	4.74166
659.326	-7.90249
659.525	-12.11701
659.724	17.38667
659.922	-37.40208
660.121	-3.68787
660.319	-16.33143
660.518	-50.04327
660.716	-41.61591
660.915	-37.40208
661.113	-33.18815
661.312	-16.33143
661.51	-47.93647
661.709	42.67924
661.907	25.81715
662.105	-31.08114
662.304	-5.79519
662.502	-20.54576
662.701	-33.18815
662.899	8.95656
663.097	-45.82964
663.296	25.81715
663.494	38.46358
663.692	-16.33143
663.891	-7.90249
664.089	19.49425
664.287	-20.54576
664.485	127.01161
664.684	-20.54576
664.882	-3.68787
665.08	-79.53586
665.278	38.46358
665.476	23.70949
665.675	36.35578
665.873	51.11085
666.071	13.17157
666.269	-33.18815
666.467	-31.08114
666.665	42.67924
666.863	-12.11701
667.061	6.8491
667.259	-22.65289
667.457	34.24801
667.655	82.73264
667.853	8.95656
668.051	-12.11701
668.249	-28.97412
668.447	-20.54576
668.645	19.49425
668.843	55.32679
669.041	-113.23547
669.239	-69.00336
669.437	-41.61591
669.635	34.24801
669.833	-1.58052
670.031	23.70949
670.229	-41.61591
670.426	-1.58052
670.624	42.67924
670.822	-3.68787
671.02	13.17157
671.218	4.74166
671.415	67.97517
671.613	30.03253
671.811	8.95656
672.009	-16.33143
672.206	38.46358
672.404	-33.18815
672.602	17.38667
672.799	17.38667
672.997	0.52684
673.195	25.81715
673.392	-16.33143
673.59	-56.36353
673.788	-35.29512
673.985	8.95656
674.183	32.14026
674.38	30.03253
674.578	-45.82964
674.775	93.27437
674.973	-12.11701
675.17	15.2791
675.368	-31.08114
675.565	-58.47023
675.763	-3.68787
675.96	-52.15005
676.158	-37.40208
676.355	-41.61591
676.553	25.81715
676.75	103.81665
676.947	-41.61591
677.145	27.92483
677.342	2.63424
677.539	-28.97412
677.737	-56.36353
677.934	8.95656
678.131	76.40788
678.329	-41.61591
678.526	4.74166
678.723	42.67924
678.92	-16.33143
679.118	-16.33143
679.315	-16.33143
679.512	-16.33143
679.709	-31.08114
679.906	-37.40208
680.104	76.40788
680.301	-1.58052
680.498	-24.75999
680.695	51.11085
680.892	59.54283
681.089	42.67924
681.286	-92.17399
681.483	36.35578
681.68	-37.40208
681.877	8.95656
682.075	-16.33143
682.272	34.24801
682.469	-56.36353
682.665	11.06405
682.862	76.40788
683.059	-20.54576
683.256	34.24801
683.453	70.08331
683.65	25.81715
683.847	-75.32294
684.044	53.21881
684.241	19.49425
684.438	0.52684
684.635	-31.08114
684.831	2.63424
685.028	76.40788
685.225	-14.22423
685.422	32.14026
685.619	-52.15005
685.815	-7.90249
686.012	-33.18815
686.209	15.2791
686.405	-16.33143
686.602	27.92483
686.799	-71.10991
686.996	40.5714
687.192	13.17157
687.389	-18.43861
687.586	-26.86706
687.782	0.52684
687.979	46.895
688.175	15.2791
688.372	-52.15005
688.568	46.895
688.765	-22.65289
688.962	-33.18815
689.158	-24.75999
689.355	2.63424
689.551	-50.04327
689.748	-45.82964
689.944	-7.90249
690.14	-16.33143
690.337	-43.72279
690.533	25.81715
690.73	-7.90249
690.926	72.19148
691.123	4.74166
691.319	27.92483
691.515	-58.47023
691.712	-66.89679
691.908	42.67924
692.104	6.8491
692.301	0.52684
692.497	-12.11701
692.693	-43.72279
692.889	8.95656
693.086	-16.33143
693.282	82.73264
693.478	-20.54576
693.674	57.4348
693.87	27.92483
694.067	11.06405
694.263	34.24801
694.459	4.74166
694.655	-43.72279
694.851	-7.90249
695.047	51.11085
695.243	30.03253
695.439	2.63424
695.635	17.38667
695.831	-31.08114
696.027	0.52684
696.224	-24.75999
696.42	-54.2568
696.615	-54.2568
696.811	42.67924
697.007	-22.65289
697.203	25.81715
697.399	-54.2568
697.595	0.52684
697.791	8.95656
697.987	-35.29512
698.183	36.35578
698.379	42.67924
698.575	49.00291
698.77	38.46358
698.966	2.63424
699.162	34.24801
699.358	-106.91731
699.554	78.51611
699.749	17.38667
699.945	46.895
700.141	34.24801
700.337	-92.17399
700.532	-12.11701
700.728	25.81715
700.924	6.8491
701.119	70.08331
701.315	-35.29512
701.511	-24.75999
701.706	34.24801
701.902	-66.89679
702.097	76.40788
702.293	-12.11701
702.489	-66.89679
702.684	27.92483
702.88	-12.11701
703.075	-18.43861
703.271	-24.75999
703.466	-20.54576
703.662	-1.58052
703.857	27.92483
704.053	-7.90249
704.248	19.49425
704.443	-66.89679
704.639	-35.29512
704.834	27.92483
705.03	44.78711
705.225	36.35578
705.42	21.60186
705.616	-58.47023
705.811	-39.50901
706.006	-16.33143
706.202	4.74166
706.397	-75.32294
706.592	-24.75999
706.787	17.38667
706.983	44.78711
707.178	-54.2568
707.373	-5.79519
707.568	8.95656
707.763	-3.68787
707.959	-54.2568
708.154	36.35578
708.349	4.74166
708.544	-54.2568
708.739	-16.33143
708.934	34.24801
709.129	-16.33143
709.324	42.67924
709.519	-16.33143
709.714	-41.61591
709.909	-37.40208
710.104	0.52684
710.299	-73.21644
710.494	25.81715
710.689	21.60186
710.884	80.62436
711.079	38.46358
711.274	-20.54576
711.469	74.29967
711.664	46.895
711.859	21.60186
712.054	-33.18815
712.249	38.46358
712.443	-33.18815
712.638	55.32679
712.833	-50.04327
713.028	-3.68787
713.223	-14.22423
713.417	-33.18815
713.612	67.97517
713.807	-10.00976
714.002	-50.04327
714.196	-16.33143
714.391	-50.04327
714.586	82.73264
714.78	55.32679
714.975	-24.75999
715.17	-20.54576
715.364	-14.22423
715.559	30.03253
715.754	-45.82964
715.948	76.40788
716.143	-14.22423
716.337	17.38667
716.532	-24.75999
716.726	34.24801
716.921	13.17157
717.115	2.63424
717.31	-54.2568
717.504	-18.43861
717.699	-43.72279
717.893	-71.10991
718.088	4.74166
718.282	-28.97412
718.476	19.49425
718.671	-20.54576
718.865	4.74166
719.059	2.63424
719.254	-14.22423
719.448	-41.61591
719.642	38.46358
719.837	-24.75999
720.031	30.03253
720.225	25.81715
720.419	-31.08114
720.614	76.40788
720.808	-5.79519
721.002	86.94927
721.196	0.52684
721.39	0.52684
721.585	-134.2943
721.779	-98.49271
721.973	8.95656
722.167	-12.11701
722.361	0.52684
722.555	63.75895
722.749	78.51611
722.943	-18.43861
723.137	8.95656
723.331	-56.36353
723.525	-33.18815
723.719	-20.54576
723.913	53.21881
724.107	-12.11701
724.301	80.62436
724.495	-66.89679
724.689	-7.90249
724.883	44.78711
725.077	-50.04327
725.271	-7.90249
725.465	51.11085
725.659	34.24801
725.853	-1.58052
726.046	8.95656
726.24	19.49425
726.434	84.84094
726.628	-20.54576
726.822	-24.75999
727.015	34.24801
727.209	-28.97412
727.403	-54.2568
727.596	-16.33143
727.79	-56.36353
727.984	0.52684
728.177	0.52684
728.371	25.81715
728.565	8.95656
728.758	-3.68787
728.952	25.81715
729.146	-5.79519
729.339	2.63424
729.533	2.63424
729.726	25.81715
729.92	4.74166
730.113	55.32679
730.307	51.11085
730.5	-52.15005
730.694	-22.65289
730.887	59.54283
731.081	34.24801
731.274	6.8491
731.468	-37.40208
731.661	-39.50901
731.854	-41.61591
732.048	-37.40208
732.241	-41.61591
732.435	23.70949
732.628	61.65088
732.821	2.63424
733.014	-3.68787
733.208	-16.33143
733.401	61.65088
733.594	27.92483
733.788	17.38667
733.981	0.52684
734.174	36.35578
734.367	27.92483
734.56	46.895
734.754	34.24801
734.947	17.38667
735.14	8.95656
735.333	-12.11701
735.526	46.895
735.719	-24.75999
735.912	-14.22423
736.105	93.27437
736.298	17.38667
736.491	-7.90249
736.684	-41.61591
736.877	25.81715
737.07	-12.11701
737.263	38.46358
737.456	76.40788
737.649	0.52684
737.842	-3.68787
738.035	-1.58052
738.228	17.38667
738.421	17.38667
738.614	-24.75999
738.807	-14.22423
739	27.92483
739.192	42.67924
739.385	-14.22423
739.578	30.03253
739.771	-54.2568
739.964	-28.97412
740.156	-7.90249
740.349	-5.79519
740.542	19.49425
740.735	67.97517
740.927	-28.97412
741.12	-18.43861
741.313	-35.29512
741.505	-92.17399
741.698	-50.04327
741.891	42.67924
742.083	-62.68356
742.276	44.78711
742.468	8.95656
742.661	0.52684
742.854	-12.11701
743.046	-3.68787
743.239	4.74166
743.431	30.03253
743.624	-7.90249
743.816	-117.44745
744.009	-33.18815
744.201	-28.97412
744.393	76.40788
744.586	17.38667
744.778	-92.17399
744.971	-56.36353
745.163	8.95656
745.355	61.65088
745.548	-31.08114
745.74	25.81715
745.932	17.38667
746.125	19.49425
746.317	-24.75999
746.509	27.92483
746.702	-66.89679
746.894	51.11085
747.086	6.8491
747.278	0.52684
747.471	-43.72279
747.663	-50.04327
747.855	-47.93647
748.047	-3.68787
748.239	-12.11701
748.431	59.54283
748.623	23.70949
748.815	32.14026
749.008	27.92483
749.2	-28.97412
749.392	25.81715
749.584	30.03253
749.776	34.24801
749.968	-35.29512
750.16	15.2791
750.352	4.74166
750.544	6.8491
750.736	-14.22423
750.928	-24.75999
751.12	2.63424
751.311	0.52684
751.503	19.49425
751.695	63.75895
751.887	-12.11701
752.079	-16.33143
752.271	67.97517
752.463	57.4348
752.654	59.54283
752.846	25.81715
753.038	44.78711
753.23	-5.79519
753.421	110.14229
753.613	-47.93647
753.805	2.63424
753.997	-69.00336
754.188	-12.11701
754.38	-33.18815
754.572	30.03253
754.763	27.92483
754.955	72.19148
755.146	17.38667
755.338	2.63424
755.53	4.74166
755.721	89.05761
755.913	38.46358
756.104	34.24801
756.296	8.95656
756.487	23.70949
756.679	11.06405
756.87	-33.18815
757.062	46.895
757.253	-14.22423
757.445	-39.50901
757.636	30.03253
757.827	-41.61591
758.019	8.95656
758.21	30.03253
758.401	-7.90249
758.593	-5.79519
758.784	-41.61591
758.975	36.35578
759.167	-33.18815
759.358	0.52684
759.549	8.95656
759.74	0.52684
759.932	-12.11701
760.123	51.11085
760.314	-3.68787
760.505	17.38667
760.696	-75.32294
760.888	-7.90249
761.079	-7.90249
761.27	38.46358
761.461	76.40788
761.652	51.11085
761.843	4.74166
762.034	-33.18815
762.225	-10.00976
762.416	-33.18815
762.607	-22.65289
762.798	-7.90249
762.989	17.38667
763.18	-35.29512
763.371	-14.22423
763.562	-66.89679
763.753	-33.18815
763.944	-37.40208
764.135	34.24801
764.326	-16.33143
764.517	-5.79519
764.708	21.60186
764.899	-50.04327
765.089	19.49425
765.28	34.24801
765.471	-18.43861
765.662	-7.90249
765.853	70.08331
766.043	23.70949
766.234	21.60186
766.425	80.62436
766.615	78.51611
766.806	-24.75999
766.997	-37.40208
767.187	4.74166
767.378	13.17157
767.569	-66.89679
767.759	-26.86706
767.95	-5.79519
768.141	-1.58052
768.331	55.32679
768.522	-22.65289
768.712	21.60186
768.903	-64.79019
769.093	15.2791
769.284	-16.33143
769.474	-24.75999
769.665	40.5714
769.855	89.05761
770.046	-16.33143
770.236	13.17157
770.426	46.895
770.617	8.95656
770.807	40.5714
770.998	8.95656
771.188	-28.97412
771.378	53.21881
771.569	-47.93647
771.759	19.49425
771.949	-28.97412
772.139	34.24801
772.33	-24.75999
772.52	-5.79519
772.71	25.81715
772.9	-24.75999
773.09	44.78711
773.281	-5.79519
773.471	8.95656
773.661	0.52684
773.851	-22.65289
774.041	-3.68787
774.231	74.29967
774.421	17.38667
774.611	-24.75999
774.802	42.67924
774.992	-3.68787
775.182	23.70949
775.372	-20.54576
775.562	-45.82964
775.752	17.38667
775.942	-28.97412
776.131	-12.11701
776.321	-26.86706
776.511	13.17157
776.701	-71.10991
776.891	-37.40208
777.081	15.2791
777.271	-47.93647
777.461	-3.68787
777.651	97.49122
777.84	-16.33143
778.03	15.2791
778.22	-7.90249
778.41	-20.54576
778.599	19.49425
778.789	-12.11701
778.979	0.52684
779.169	-33.18815
779.358	-16.33143
779.548	-41.61591
779.738	51.11085
779.927	36.35578
780.117	-66.89679
780.307	36.35578
780.496	-33.18815
780.686	8.95656
780.875	25.81715
781.065	19.49425
781.254	19.49425
781.444	-28.97412
781.633	36.35578
781.823	80.62436
782.012	17.38667
782.202	-5.79519
782.391	-3.68787
782.581	-1.58052
782.77	-41.61591
782.96	44.78711
783.149	0.52684
783.338	-3.68787
783.528	-3.68787
783.717	36.35578
783.906	15.2791
784.096	-7.90249
784.285	-50.04327
784.474	-50.04327
784.663	0.52684
784.853	-3.68787
785.042	-20.54576
785.231	76.40788
785.42	0.52684
785.61	-64.79019
785.799	17.38667
785.988	40.5714
786.177	95.38278
786.366	2.63424
786.555	17.38667
786.744	27.92483
786.933	0.52684
787.122	-33.18815
787.312	105.92518
787.501	-26.86706
787.69	30.03253
787.879	34.24801
788.068	-14.22423
788.257	-24.75999
788.445	-35.29512
788.634	4.74166
788.823	42.67924
789.012	8.95656
789.201	25.81715
789.39	32.14026
789.579	42.67924
789.768	-22.65289
789.957	-12.11701
790.145	-33.18815
790.334	-41.61591
790.523	34.24801
790.712	-58.47023
790.9	17.38667
791.089	25.81715
791.278	-14.22423
791.467	-14.22423
791.655	-37.40208
791.844	61.65088
792.033	-5.79519
792.221	59.54283
792.41	-3.68787
792.599	55.32679
792.787	4.74166
792.976	25.81715
793.164	0.52684
793.353	25.81715
793.541	-1.58052
793.73	76.40788
793.918	17.38667
794.107	-100.5989
794.295	-26.86706
794.484	15.2791
794.672	76.40788
794.861	-16.33143
795.049	-41.61591
795.238	4.74166
795.426	38.46358
795.614	19.49425
795.803	17.38667
795.991	-28.97412
796.179	67.97517
796.368	17.38667
796.556	2.63424
796.744	4.74166
796.932	-20.54576
797.121	6.8491
797.309	-26.86706
797.497	-31.08114
797.685	-1.58052
797.874	21.60186
798.062	8.95656
798.25	13.17157
798.438	-37.40208
798.626	0.52684
798.814	38.46358
799.002	-56.36353
799.19	23.70949
799.378	21.60186
799.566	-41.61591
799.755	34.24801
799.943	-62.68356
800.131	11.06405
800.318	6.8491
800.506	-24.75999
800.694	-66.89679
800.882	11.06405
801.07	-56.36353
801.258	-45.82964
801.446	-18.43861
801.634	-58.47023
801.822	67.97517
802.01	55.32679
802.197	-5.79519
802.385	70.08331
802.573	-5.79519
802.761	-22.65289
802.949	-20.54576
803.136	11.06405
803.324	51.11085
803.512	2.63424
803.699	36.35578
803.887	-47.93647
804.075	-7.90249
804.262	-41.61591
804.45	57.4348
804.638	67.97517
804.825	-14.22423
805.013	-58.47023
805.201	19.49425
805.388	55.32679
805.576	57.4348
805.763	8.95656
805.951	0.52684
806.138	-28.97412
806.326	8.95656
806.513	-33.18815
806.701	25.81715
806.888	38.46358
807.075	-64.79019
807.263	-22.65289
807.45	-3.68787
807.638	-26.86706
807.825	-20.54576
808.012	30.03253
808.2	21.60186
808.387	-5.79519
808.574	-54.2568
808.761	70.08331
808.949	53.21881
809.136	-5.79519
809.323	-79.53586
809.51	-14.22423
809.698	67.97517
809.885	8.95656
810.072	13.17157
810.259	0.52684
810.446	0.52684
810.633	-7.90249
810.82	-28.97412
811.008	25.81715
811.195	57.4348
811.382	13.17157
811.569	-43.72279
811.756	-33.18815
811.943	13.17157
812.13	-33.18815
812.317	80.62436
812.504	72.19148
812.691	-50.04327
812.878	-18.43861
813.064	2.63424
813.251	-22.65289
813.438	84.84094
813.625	17.38667
813.812	-14.22423
813.999	-3.68787
814.186	-39.50901
814.372	-58.47023
814.559	25.81715
814.746	11.06405
814.933	19.49425
815.12	-24.75999
815.306	36.35578
815.493	-31.08114
815.68	-35.29512
815.866	27.92483
816.053	25.81715
816.24	-16.33143
816.426	-87.96139
816.613	-7.90249
816.799	-10.00976
816.986	-60.57691
817.173	0.52684
817.359	13.17157
817.546	-3.68787
817.732	-14.22423
817.919	65.86705
818.105	34.24801
818.292	-16.33143
818.478	13.17157
818.665	-12.11701
818.851	25.81715
819.037	-3.68787
819.224	-33.18815
819.41	46.895
819.597	17.38667
819.783	-37.40208
819.969	-31.08114
820.156	-31.08114
820.342	8.95656
820.528	36.35578
820.714	42.67924
820.901	17.38667
821.087	61.65088
821.273	25.81715
821.459	-7.90249
821.646	-71.10991
821.832	40.5714
822.018	-37.40208
822.204	21.60186
822.39	27.92483
822.576	-66.89679
822.762	57.4348
822.948	95.38278
823.134	-20.54576
823.32	-14.22423
823.507	-5.79519
823.693	-18.43861
823.879	15.2791
824.065	63.75895
824.25	32.14026
824.436	34.24801
824.622	-5.79519
824.808	-83.74867
824.994	46.895
825.18	-7.90249
825.366	21.60186
825.552	-45.82964
825.738	42.67924
825.923	44.78711
826.109	-24.75999
826.295	8.95656
826.481	21.60186
826.667	-20.54576
826.852	30.03253
827.038	93.27437
827.224	-81.64228
827.409	17.38667
827.595	-24.75999
827.781	93.27437
827.966	-92.17399
828.152	15.2791
828.338	-16.33143
828.523	-33.18815
828.709	-18.43861
828.894	23.70949
829.08	97.49122
829.266	44.78711
829.451	0.52684
829.637	-58.47023
829.822	15.2791
830.008	15.2791
830.193	0.52684
830.378	11.06405
830.564	34.24801
830.749	19.49425
830.935	-104.8112
831.12	67.97517
831.305	32.14026
831.491	27.92483
831.676	-41.61591
831.861	13.17157
832.047	-22.65289
832.232	25.81715
832.417	-66.89679
832.602	44.78711
832.788	-3.68787
832.973	-22.65289
833.158	-20.54576
833.343	32.14026
833.528	-3.68787
833.714	-47.93647
833.899	25.81715
834.084	30.03253
834.269	-26.86706
834.454	-16.33143
834.639	-12.11701
834.824	-14.22423
835.009	-71.10991
835.194	32.14026
835.379	-12.11701
835.564	-12.11701
835.749	72.19148
835.934	-3.68787
836.119	34.24801
836.304	-12.11701
836.489	8.95656
836.674	21.60186
836.859	17.38667
837.044	-24.75999
837.228	-12.11701
837.413	-39.50901
837.598	8.95656
837.783	34.24801
837.968	34.24801
838.152	8.95656
838.337	-10.00976
838.522	-37.40208
838.707	-16.33143
838.891	36.35578
839.076	-18.43861
839.261	51.11085
839.445	4.74166
839.63	-24.75999
839.815	-16.33143
839.999	-47.93647
840.184	25.81715
840.368	4.74166
840.553	30.03253
840.737	21.60186
840.922	46.895
841.106	25.81715
841.291	25.81715
841.475	-20.54576
841.66	-12.11701
841.844	23.70949
842.029	-41.61591
842.213	95.38278
842.397	0.52684
842.582	-7.90249
842.766	-66.89679
842.951	-16.33143
843.135	-33.18815
843.319	53.21881
843.504	17.38667
843.688	-47.93647
843.872	2.63424
844.056	2.63424
844.241	25.81715
844.425	51.11085
844.609	-28.97412
844.793	11.06405
844.977	34.24801
845.161	38.46358
845.346	19.49425
845.53	-3.68787
845.714	6.8491
845.898	25.81715
846.082	-20.54576
846.266	76.40788
846.45	46.895
846.634	-28.97412
846.818	57.4348
847.002	0.52684
847.186	-22.65289
847.37	25.81715
847.554	-20.54576
847.738	-7.90249
847.922	-26.86706
848.106	-3.68787
848.29	-3.68787
848.473	0.52684
848.657	0.52684
848.841	-3.68787
849.025	-24.75999
849.209	21.60186
849.392	-54.2568
849.576	36.35578
849.76	8.95656
849.944	-24.75999
850.127	-96.3865
850.311	0.52684
850.495	-5.79519
850.678	55.32679
850.862	2.63424
851.046	0.52684
851.229	-24.75999
851.413	-12.11701
851.596	82.73264
851.78	-31.08114
851.964	-14.22423
852.147	-1.58052
852.331	2.63424
852.514	-16.33143
852.698	49.00291
852.881	51.11085
853.065	0.52684
853.248	-37.40208
853.431	-43.72279
853.615	30.03253
853.798	13.17157
853.982	19.49425
854.165	0.52684
854.348	-3.68787
854.532	2.63424
854.715	-33.18815
854.898	-20.54576
855.081	-7.90249
855.265	-22.65289
855.448	21.60186
855.631	59.54283
855.814	67.97517
855.997	-39.50901
856.181	2.63424
856.364	38.46358
856.547	-18.43861
856.73	19.49425
856.913	27.92483
857.096	-28.97412
857.279	51.11085
857.462	0.52684
857.645	30.03253
857.828	82.73264
858.011	-7.90249
858.194	-45.82964
858.377	4.74166
858.56	-7.90249
858.743	-5.79519
858.926	-3.68787
859.109	-45.82964
859.292	49.00291
859.475	36.35578
859.658	21.60186
859.841	8.95656
860.023	86.94927
860.206	-35.29512
860.389	-12.11701
860.572	-24.75999
860.755	2.63424
860.937	-16.33143
861.12	42.67924
861.303	-45.82964
861.486	-24.75999
861.668	-20.54576
861.851	-22.65289
862.034	4.74166
862.216	-52.15005
862.399	51.11085
862.581	38.46358
862.764	-20.54576
862.947	-26.86706
863.129	-47.93647
863.312	-1.58052
863.494	-45.82964
863.677	-24.75999
863.859	6.8491
864.042	-16.33143
864.224	-33.18815
864.406	-12.11701
864.589	-33.18815
864.771	-73.21644
864.954	46.895
865.136	27.92483
865.318	-14.22423
865.501	0.52684
865.683	-58.47023
865.865	91.16598
866.048	17.38667
866.23	-24.75999
866.412	2.63424
866.594	-20.54576
866.777	-41.61591
866.959	8.95656
867.141	-33.18815
867.323	-12.11701
867.505	72.19148
867.687	17.38667
867.869	0.52684
868.052	-7.90249
868.234	-37.40208
868.416	-66.89679
868.598	-12.11701
868.78	-1.58052
868.962	-31.08114
869.144	-37.40208
869.326	-41.61591
869.508	-3.68787
869.69	-12.11701
869.872	-12.11701
870.054	13.17157
870.236	25.81715
870.417	61.65088
870.599	-83.74867
870.781	-75.32294
870.963	-14.22423
871.145	-3.68787
871.327	-47.93647
871.508	13.17157
871.69	4.74166
871.872	86.94927
872.054	8.95656
872.235	8.95656
872.417	-31.08114
872.599	-12.11701
872.78	-33.18815
872.962	-28.97412
873.144	40.5714
873.325	25.81715
873.507	8.95656
873.689	-39.50901
873.87	-14.22423
874.052	51.11085
874.233	-14.22423
874.415	-26.86706
874.596	-16.33143
874.778	-41.61591
874.959	11.06405
875.141	-24.75999
875.322	65.86705
875.503	-66.89679
875.685	17.38667
875.866	40.5714
876.048	42.67924
876.229	99.59967
876.41	-58.47023
876.592	44.78711
876.773	-33.18815
876.954	-47.93647
877.136	-18.43861
877.317	19.49425
877.498	25.81715
877.679	34.24801
877.86	32.14026
878.042	34.24801
878.223	34.24801
878.404	30.03253
878.585	51.11085
878.766	-83.74867
878.947	-12.11701
879.128	55.32679
879.309	-41.61591
879.49	21.60186
879.672	-90.0677
879.853	11.06405
880.034	-20.54576
880.215	8.95656
880.396	-16.33143
880.576	-24.75999
880.757	-10.00976
880.938	0.52684
881.119	23.70949
881.3	-52.15005
881.481	0.52684
881.662	-28.97412
881.843	-3.68787
882.023	51.11085
882.204	-43.72279
882.385	-71.10991
882.566	-5.79519
882.747	34.24801
882.927	4.74166
883.108	0.52684
883.289	-35.29512
883.469	-1.58052
883.65	-41.61591
883.831	-56.36353
884.011	-18.43861
884.192	82.73264
884.373	-16.33143
884.553	-18.43861
884.734	-18.43861
884.914	21.60186
885.095	103.81665
885.275	-28.97412
885.456	2.63424
885.636	21.60186
885.817	6.8491
885.997	-20.54576
886.178	-43.72279
886.358	19.49425
886.538	2.63424
886.719	51.11085
886.899	25.81715
887.08	-12.11701
887.26	-22.65289
887.44	-62.68356
887.621	42.67924
887.801	59.54283
887.981	-37.40208
888.161	-7.90249
888.342	-20.54576
888.522	-7.90249
888.702	46.895
888.882	-1.58052
889.062	4.74166
889.242	25.81715
889.423	42.67924
889.603	-20.54576
889.783	2.63424
889.963	17.38667
890.143	-35.29512
890.323	59.54283
890.503	42.67924
890.683	25.81715
890.863	17.38667
891.043	19.49425
891.223	34.24801
891.403	-16.33143
891.583	-52.15005
891.763	-37.40208
891.943	-64.79019
892.122	-5.79519
892.302	-28.97412
892.482	27.92483
892.662	63.75895
892.842	-12.11701
893.022	42.67924
893.201	-22.65289
893.381	-20.54576
893.561	-45.82964
893.741	-14.22423
893.92	13.17157
894.1	8.95656
894.28	27.92483
894.459	0.52684
894.639	-28.97412
894.819	-47.93647
894.998	-5.79519
895.178	-26.86706
895.357	0.52684
895.537	-10.00976
895.716	-37.40208
895.896	27.92483
896.075	42.67924
896.255	4.74166
896.434	-20.54576
896.614	0.52684
896.793	-24.75999
896.973	-10.00976
897.152	0.52684
897.331	23.70949
897.511	-37.40208
897.69	17.38667
897.87	-60.57691
898.049	-41.61591
898.228	-83.74867
898.407	46.895
898.587	30.03253
898.766	-54.2568
898.945	-10.00976
899.124	-64.79019
899.304	25.81715
899.483	38.46358
899.662	44.78711
899.841	-37.40208
900.02	-31.08114
900.199	-26.86706
900.378	36.35578
900.557	-16.33143
900.737	0.52684
900.916	17.38667
901.095	-26.86706
901.274	-87.96139
901.453	63.75895
901.632	-73.21644
901.811	27.92483
901.989	53.21881
902.168	-50.04327
902.347	27.92483
902.526	4.74166
902.705	-33.18815
902.884	-47.93647
903.063	-71.10991
903.242	57.4348
903.42	-87.96139
903.599	70.08331
903.778	-3.68787
903.957	-81.64228
904.135	-39.50901
904.314	-28.97412
904.493	17.38667
904.672	46.895
904.85	-12.11701
905.029	40.5714
905.207	-47.93647
905.386	-5.79519
905.565	-39.50901
905.743	0.52684
905.922	8.95656
906.1	-7.90249
906.279	-39.50901
906.457	-7.90249
906.636	-5.79519
906.814	46.895
906.993	51.11085
907.171	-12.11701
907.35	-47.93647
907.528	-10.00976
907.707	8.95656
907.885	-12.11701
908.063	-16.33143
908.242	11.06405
908.42	8.95656
908.598	17.38667
908.777	-73.21644
908.955	-90.0677
909.133	-7.90249
909.311	-41.61591
909.49	25.81715
909.668	-31.08114
909.846	-5.79519
910.024	55.32679
910.202	-3.68787
910.38	-45.82964
910.559	-16.33143
910.737	-22.65289
910.915	-16.33143
911.093	-35.29512
911.271	0.52684
911.449	34.24801
911.627	-54.2568
911.805	-20.54576
911.983	15.2791
912.161	8.95656
912.339	-24.75999
912.517	27.92483
912.695	4.74166
912.872	27.92483
913.05	-54.2568
913.228	46.895
913.406	17.38667
913.584	-3.68787
913.762	4.74166
913.939	-50.04327
914.117	8.95656
914.295	-54.2568
914.473	-31.08114
914.65	67.97517
914.828	-7.90249
915.006	19.49425
915.184	25.81715
915.361	-56.36353
915.539	17.38667
915.716	-20.54576
915.894	-35.29512
916.072	-10.00976
916.249	32.14026
916.427	-16.33143
916.604	11.06405
916.782	-33.18815
916.959	23.70949
917.137	-16.33143
917.314	-16.33143
917.492	-20.54576
917.669	27.92483
917.847	-26.86706
918.024	-20.54576
918.201	-12.11701
918.379	2.63424
918.556	-64.79019
918.733	11.06405
918.911	-7.90249
919.088	93.27437
919.265	19.49425
919.442	-12.11701
919.62	21.60186
919.797	-28.97412
919.974	55.32679
920.151	34.24801
920.328	32.14026
920.506	13.17157
920.683	15.2791
920.86	63.75895
921.037	49.00291
921.214	23.70949
921.391	-7.90249
921.568	13.17157
921.745	-16.33143
921.922	-5.79519
922.099	36.35578
922.276	93.27437
922.453	-5.79519
922.63	65.86705
922.807	-7.90249
922.984	30.03253
923.161	40.5714
923.338	-26.86706
923.514	44.78711
923.691	13.17157
923.868	-22.65289
924.045	-60.57691
924.222	51.11085
924.399	93.27437
924.575	-20.54576
924.752	30.03253
924.929	55.32679
925.105	-37.40208
925.282	-18.43861
925.459	-35.29512
925.635	-16.33143
925.812	8.95656
925.989	4.74166
926.165	-12.11701
926.342	-31.08114
926.518	40.5714
926.695	-24.75999
926.871	13.17157
927.048	-7.90249
927.224	36.35578
927.401	-56.36353
927.577	-18.43861
927.754	27.92483
927.93	57.4348
928.107	13.17157
928.283	0.52684
928.459	-66.89679
928.636	25.81715
928.812	-1.58052
928.988	2.63424
929.165	21.60186
929.341	0.52684
929.517	-7.90249
929.693	-14.22423
929.87	-50.04327
930.046	-18.43861
930.222	-7.90249
930.398	-20.54576
930.574	-28.97412
930.751	0.52684
930.927	44.78711
931.103	49.00291
931.279	-33.18815
931.455	25.81715
931.631	-20.54576
931.807	23.70949
931.983	-54.2568
932.159	-69.00336
932.335	11.06405
932.511	36.35578
932.687	-45.82964
932.863	-12.11701
933.039	-14.22423
933.215	8.95656
933.391	-45.82964
933.566	49.00291
933.742	86.94927
933.918	-37.40208
934.094	0.52684
934.27	21.60186
934.445	-50.04327
934.621	-10.00976
934.797	-22.65289
934.973	-50.04327
935.148	-66.89679
935.324	-12.11701
935.5	-16.33143
935.675	-58.47023
935.851	46.895
936.027	-35.29512
936.202	-85.85504
936.378	-31.08114
936.553	-33.18815
936.729	-39.50901
936.904	-14.22423
937.08	-31.08114
937.255	-47.93647
937.431	-64.79019
937.606	0.52684
937.782	36.35578
937.957	-50.04327
938.133	36.35578
938.308	27.92483
938.483	-62.68356
938.659	74.29967
938.834	-41.61591
939.009	-56.36353
939.185	-62.68356
939.36	25.81715
939.535	8.95656
939.71	-43.72279
939.886	19.49425
940.061	17.38667
940.236	-35.29512
940.411	17.38667
940.586	-10.00976
940.761	-20.54576
940.937	-16.33143
941.112	61.65088
941.287	13.17157
941.462	15.2791
941.637	-12.11701
941.812	34.24801
941.987	-28.97412
942.162	-45.82964
942.337	-1.58052
942.512	27.92483
942.687	-50.04327
942.862	-7.90249
943.037	32.14026
943.212	21.60186
943.386	-24.75999
943.561	25.81715
943.736	51.11085
943.911	-7.90249
944.086	36.35578
944.26	72.19148
944.435	-16.33143
944.61	19.49425
944.785	-39.50901
944.959	76.40788
945.134	13.17157
945.309	-16.33143
945.483	42.67924
945.658	-16.33143
945.833	-54.2568
946.007	-41.61591
946.182	-24.75999
946.357	-12.11701
946.531	15.2791
946.706	-16.33143
946.88	21.60186
947.055	-58.47023
947.229	25.81715
947.404	-26.86706
947.578	55.32679
947.752	-20.54576
947.927	-50.04327
948.101	-16.33143
948.276	-35.29512
948.45	17.38667
948.624	27.92483
948.799	25.81715
948.973	-121.65933
949.147	-45.82964
949.321	6.8491
949.496	-7.90249
949.67	32.14026
949.844	53.21881
950.018	-12.11701
950.193	15.2791
950.367	-47.93647
950.541	-18.43861
950.715	-7.90249
950.889	0.52684
951.063	13.17157
951.237	-16.33143
951.411	17.38667
951.585	74.29967
951.759	-47.93647
951.933	72.19148
952.107	13.17157
952.281	25.81715
952.455	4.74166
952.629	-10.00976
952.803	-5.79519
952.977	-35.29512
953.151	32.14026
953.325	59.54283
953.499	-28.97412
953.672	-14.22423
953.846	-50.04327
954.02	17.38667
954.194	-56.36353
954.368	-87.96139
954.541	17.38667
954.715	17.38667
954.889	36.35578
955.062	-5.79519
955.236	-62.68356
955.41	51.11085
955.583	17.38667
955.757	-20.54576
955.93	27.92483
956.104	-22.65289
956.278	46.895
956.451	-7.90249
956.625	-60.57691
956.798	-37.40208
956.972	-41.61591
957.145	-41.61591
957.319	34.24801
957.492	46.895
957.665	25.81715
957.839	-45.82964
958.012	-22.65289
958.185	17.38667
958.359	2.63424
958.532	27.92483
958.705	-12.11701
958.879	-100.5989
959.052	-41.61591
959.225	19.49425
959.398	-41.61591
959.572	112.25088
959.745	8.95656
959.918	-50.04327
960.091	-47.93647
960.264	-24.75999
960.438	-7.90249
960.611	-7.90249
960.784	13.17157
960.957	-31.08114
961.13	17.38667
961.303	57.4348
961.476	-31.08114
961.649	-24.75999
961.822	-41.61591
961.995	-60.57691
962.168	51.11085
962.341	23.70949
962.514	-41.61591
962.686	21.60186
962.859	34.24801
963.032	17.38667
963.205	0.52684
963.378	25.81715
963.551	25.81715
963.723	13.17157
963.896	-18.43861
964.069	-35.29512
964.242	46.895
964.414	-35.29512
964.587	-3.68787
964.76	-37.40208
964.932	-14.22423
965.105	-64.79019
965.278	-3.68787
965.45	46.895
965.623	-16.33143
965.795	8.95656
965.968	0.52684
966.14	8.95656
966.313	-37.40208
966.485	8.95656
966.658	6.8491
966.83	36.35578
967.003	65.86705
967.175	-66.89679
967.348	21.60186
967.52	-39.50901
967.692	11.06405
967.865	-3.68787
968.037	-5.79519
968.209	44.78711
968.382	-24.75999
968.554	-41.61591
968.726	23.70949
968.898	-22.65289
969.071	-125.87109
969.243	0.52684
969.415	-22.65289
969.587	32.14026
969.759	-5.79519
969.932	6.8491
970.104	19.49425
970.276	-41.61591
970.448	0.52684
970.62	-28.97412
970.792	25.81715
970.964	95.38278
971.136	-22.65289
971.308	30.03253
971.48	-92.17399
971.652	-3.68787
971.824	-39.50901
971.996	21.60186
972.168	25.81715
972.339	25.81715
972.511	51.11085
972.683	44.78711
972.855	-58.47023
973.027	6.8491
973.199	2.63424
973.37	-92.17399
973.542	27.92483
973.714	51.11085
973.886	-56.36353
974.057	-20.54576
974.229	-16.33143
974.401	-66.89679
974.572	8.95656
974.744	8.95656
974.915	6.8491
975.087	-33.18815
975.259	-37.40208
975.43	-14.22423
975.602	4.74166
975.773	-24.75999
975.945	32.14026
976.116	-43.72279
976.288	-31.08114
976.459	6.8491
976.63	-60.57691
976.802	27.92483
976.973	6.8491
977.145	-20.54576
977.316	27.92483
977.487	17.38667
977.659	-1.58052
977.83	-3.68787
978.001	25.81715
978.172	76.40788
978.344	-16.33143
978.515	-60.57691
978.686	-28.97412
978.857	46.895
979.028	-41.61591
979.2	17.38667
979.371	-56.36353
979.542	-60.57691
979.713	-22.65289
979.884	30.03253
980.055	-20.54576
980.226	30.03253
980.397	118.57677
980.568	-33.18815
980.739	-7.90249
980.91	-47.93647
981.081	-5.79519
981.252	8.95656
981.423	27.92483
981.594	-43.72279
981.765	6.8491
981.936	19.49425
982.106	36.35578
982.277	-18.43861
982.448	55.32679
982.619	44.78711
982.79	-16.33143
982.96	11.06405
983.131	8.95656
983.302	-22.65289
983.472	-7.90249
983.643	25.81715
983.814	-22.65289
983.984	11.06405
984.155	0.52684
984.326	17.38667
984.496	-31.08114
984.667	-14.22423
984.837	-28.97412
985.008	30.03253
985.178	53.21881
985.349	55.32679
985.519	-75.32294
985.69	-64.79019
985.86	40.5714
986.031	27.92483
986.201	-47.93647
986.371	42.67924
986.542	-14.22423
986.712	0.52684
986.882	23.70949
987.053	4.74166
987.223	27.92483
987.393	-33.18815
987.563	-20.54576
987.734	-33.18815
987.904	-3.68787
988.074	-1.58052
988.244	4.74166
988.414	-14.22423
988.585	-41.61591
988.755	8.95656
988.925	-47.93647
989.095	-24.75999
989.265	11.06405
989.435	-7.90249
989.605	8.95656
989.775	-3.68787
989.945	-16.33143
990.115	-123.76522
990.285	53.21881
990.455	-24.75999
990.625	-16.33143
990.795	-33.18815
990.965	38.46358
991.134	34.24801
991.304	-20.54576
991.474	42.67924
991.644	-50.04327
991.814	-7.90249
991.984	8.95656
992.153	-79.53586
992.323	-24.75999
992.493	-41.61591
992.662	-18.43861
992.832	-12.11701
993.002	42.67924
993.171	-54.2568
993.341	-73.21644
993.511	32.14026
993.68	-85.85504
993.85	6.8491
994.019	2.63424
994.189	-39.50901
994.358	-22.65289
994.528	2.63424
994.697	0.52684
994.867	30.03253
995.036	-64.79019
995.206	8.95656
995.375	2.63424
995.544	-7.90249
995.714	-73.21644
995.883	17.38667
996.052	34.24801
996.222	38.46358
996.391	13.17157
996.56	51.11085
996.73	19.49425
996.899	34.24801
997.068	-33.18815
997.237	25.81715
997.406	-22.65289
997.576	-33.18815
997.745	0.52684
997.914	57.4348
998.083	-33.18815
998.252	-5.79519
998.421	57.4348
998.59	-58.47023
998.759	-26.86706
998.928	-14.22423
999.097	-16.33143
999.266	-60.57691
999.435	13.17157
999.604	-31.08114
999.773	53.21881
999.942	30.03253
1000.111	-16.33143
1000.28	17.38667
1000.448	0.52684
1000.617	-39.50901
1000.786	-31.08114
1000.955	0.52684
1001.124	84.84094
1001.292	-26.86706
1001.461	-12.11701
1001.63	-54.2568
1001.798	30.03253
1001.967	63.75895
1002.136	-41.61591
1002.304	0.52684
1002.473	-7.90249
1002.642	42.67924
1002.81	4.74166
1002.979	-52.15005
1003.147	0.52684
1003.316	51.11085
1003.484	19.49425
1003.653	-3.68787
1003.821	25.81715
1003.99	13.17157
1004.158	-50.04327
1004.327	-3.68787
1004.495	-10.00976
1004.663	0.52684
1004.832	-33.18815
1005	-41.61591
1005.168	2.63424
1005.337	34.24801
1005.505	-7.90249
1005.673	-83.74867
1005.842	30.03253
1006.01	44.78711
1006.178	17.38667
1006.346	21.60186
1006.514	-79.53586
1006.683	-37.40208
1006.851	13.17157
1007.019	122.79415
1007.187	-12.11701
1007.355	-66.89679
1007.523	-113.23547
1007.691	-20.54576
1007.859	15.2791
1008.027	2.63424
1008.195	-60.57691
1008.363	8.95656
1008.531	-3.68787
1008.699	-56.36353
1008.867	-5.79519
1009.035	46.895
1009.203	55.32679
1009.37	42.67924
1009.538	-56.36353
1009.706	53.21881
1009.874	6.8491
1010.042	-20.54576
1010.209	19.49425
1010.377	-18.43861
1010.545	72.19148
1010.713	13.17157
1010.88	25.81715
1011.048	65.86705
1011.216	-92.17399
1011.383	-45.82964
1011.551	40.5714
1011.718	17.38667
1011.886	-62.68356
1012.054	-66.89679
1012.221	-52.15005
1012.389	-1.58052
1012.556	-16.33143
1012.724	-47.93647
1012.891	15.2791
1013.058	-37.40208
1013.226	2.63424
1013.393	-62.68356
1013.561	-47.93647
1013.728	2.63424
1013.895	-66.89679
1014.063	19.49425
1014.23	-31.08114
1014.397	-24.75999
1014.565	30.03253
1014.732	-41.61591
1014.899	-5.79519
1015.066	-12.11701
1015.233	-43.72279
1015.401	-39.50901
1015.568	-16.33143
1015.735	-47.93647
1015.902	34.24801
1016.069	27.92483
1016.236	25.81715
1016.403	-66.89679
1016.57	80.62436
1016.737	8.95656
1016.904	-5.79519
1017.071	-18.43861
1017.238	-12.11701
1017.405	11.06405
1017.572	-7.90249
1017.739	-24.75999
1017.906	-56.36353
1018.073	-47.93647
1018.24	6.8491
1018.407	8.95656
1018.573	-54.2568
1018.74	-83.74867
1018.907	30.03253
1019.074	42.67924
1019.241	-10.00976
1019.407	-22.65289
1019.574	-7.90249
1019.741	34.24801
1019.907	-24.75999
1020.074	-37.40208
1020.241	-31.08114
1020.407	0.52684
1020.574	-85.85504
1020.74	72.19148
1020.907	17.38667
1021.073	11.06405
1021.24	21.60186
1021.406	-12.11701
1021.573	-7.90249
1021.739	-7.90249
1021.906	84.84094
1022.072	-5.79519
1022.239	-18.43861
1022.405	-16.33143
1022.571	30.03253
1022.738	-24.75999
1022.904	-54.2568
1023.07	-20.54576
1023.237	-26.86706
1023.403	-33.18815
1023.569	13.17157
1023.735	11.06405
1023.902	-3.68787
1024.068	34.24801
1024.234	-58.47023
1024.4	25.81715
1024.566	17.38667
1024.732	-73.21644
1024.898	30.03253
1025.065	-22.65289
1025.231	-5.79519
1025.397	55.32679
1025.563	-22.65289
1025.729	19.49425
1025.895	-7.90249
1026.061	-71.10991
1026.227	-71.10991
1026.392	8.95656
1026.558	8.95656
1026.724	38.46358
1026.89	44.78711
1027.056	72.19148
1027.222	17.38667
1027.388	11.06405
1027.553	-56.36353
1027.719	11.06405
1027.885	19.49425
1028.051	-39.50901
1028.216	25.81715
1028.382	15.2791
1028.548	-22.65289
1028.713	-31.08114
1028.879	38.46358
1029.045	-20.54576
1029.21	-28.97412
1029.376	-50.04327
1029.541	-24.75999
1029.707	-28.97412
1029.873	-24.75999
1030.038	-12.11701
1030.204	-81.64228
1030.369	34.24801
1030.534	42.67924
1030.7	42.67924
1030.865	-33.18815
1031.031	-73.21644
1031.196	42.67924
1031.361	-33.18815
1031.527	36.35578
1031.692	-58.47023
1031.857	49.00291
1032.023	2.63424
1032.188	-58.47023
1032.353	4.74166
1032.518	23.70949
1032.684	-45.82964
1032.849	2.63424
1033.014	-52.15005
1033.179	-18.43861
1033.344	-22.65289
1033.509	-37.40208
1033.674	13.17157
1033.839	-37.40208
1034.004	32.14026
1034.17	-50.04327
1034.335	-10.00976
1034.5	-52.15005
1034.664	-12.11701
1034.829	-7.90249
1034.994	-3.68787
1035.159	-35.29512
1035.324	25.81715
1035.489	-28.97412
1035.654	72.19148
1035.819	-54.2568
1035.984	84.84094
1036.148	11.06405
1036.313	15.2791
1036.478	8.95656
1036.643	21.60186
1036.807	-14.22423
1036.972	2.63424
1037.137	0.52684
1037.301	-50.04327
1037.466	-60.57691
1037.631	-47.93647
1037.795	17.38667
1037.96	-37.40208
1038.124	-35.29512
1038.289	72.19148
1038.454	-16.33143
1038.618	-5.79519
1038.783	-1.58052
1038.947	34.24801
1039.111	-54.2568
1039.276	21.60186
1039.44	-7.90249
1039.605	32.14026
1039.769	-14.22423
1039.933	59.54283
1040.098	-28.97412
1040.262	-24.75999
1040.426	0.52684
1040.591	-33.18815
1040.755	19.49425
1040.919	93.27437
1041.083	8.95656
1041.248	-5.79519
1041.412	-60.57691
1041.576	0.52684
1041.74	-28.97412
1041.904	8.95656
1042.068	-10.00976
1042.232	-16.33143
1042.397	-5.79519
1042.561	-60.57691
1042.725	-52.15005
1042.889	-7.90249
1043.053	-47.93647
1043.217	27.92483
1043.381	-28.97412
1043.544	-20.54576
1043.708	19.49425
1043.872	-33.18815
1044.036	32.14026
1044.2	-50.04327
1044.364	8.95656
1044.528	-33.18815
1044.691	-35.29512
1044.855	38.46358
1045.019	-10.00976
1045.183	25.81715
1045.346	67.97517
1045.51	-50.04327
1045.674	0.52684
1045.837	2.63424
1046.001	11.06405
1046.165	34.24801
1046.328	0.52684
1046.492	-41.61591
1046.655	17.38667
1046.819	59.54283
1046.983	-50.04327
1047.146	36.35578
1047.31	0.52684
1047.473	-22.65289
1047.636	4.74166
1047.8	-12.11701
1047.963	8.95656
1048.127	-5.79519
1048.29	-5.79519
