Data from Scatter_Coeff_Baseline_USB4F045381__12__0012.txt Node

Date: Thu Feb 13 19:17:43 EST 2025
User: mmckonesweet
Spectrometer: USB4F04538
Trigger mode: 4
Integration Time (sec): 2.400000E-3
Scans to average: 1
Electric dark correction enabled: true
Nonlinearity correction enabled: true
Boxcar width: 0
XAxis mode: Wavelengths
Number of Pixels in Spectrum: 3648
>>>>>Begin Spectral Data<<<<<
345.52	-0.17561
345.736	-0.17561
345.952	-0.17561
346.168	-42.31821
346.384	4.03918
346.6	-0.17561
346.816	-12.81942
347.032	31.43768
347.248	-8.60492
347.464	46.19237
347.68	-65.49239
347.896	63.05626
348.112	-35.99745
348.328	-12.81942
348.544	-12.81942
348.76	-12.81942
348.975	20.89932
349.191	14.57659
349.407	-54.95905
349.623	-63.38577
349.839	16.68414
350.055	-31.78348
350.27	8.25407
350.486	-57.06577
350.702	71.48875
350.918	-103.40711
351.133	-19.141
351.349	-17.03383
351.565	-50.74553
351.781	1.93177
351.996	-76.0251
352.212	-31.78348
352.428	-4.39031
352.644	29.32996
352.859	-25.46235
353.075	-4.39031
353.291	56.73213
353.506	-61.27913
353.722	29.32996
353.938	-19.141
354.153	-31.78348
354.369	-80.238
354.584	33.54542
354.8	41.97663
355.016	6.14661
355.231	-12.81942
355.447	-46.53192
355.662	-33.89048
355.878	-80.238
356.093	-63.38577
356.309	33.54542
356.524	52.51615
356.74	-4.39031
356.955	-25.46235
357.171	-4.39031
357.386	58.84015
357.602	-57.06577
357.817	-86.55716
358.033	-4.39031
358.248	-35.99745
358.464	-59.17246
358.679	-23.35526
358.895	-57.06577
359.11	4.03918
359.325	-14.92664
359.541	16.68414
359.756	-27.56942
359.972	-19.141
360.187	-38.10439
360.402	6.14661
360.618	-21.24814
360.833	-27.56942
361.048	-12.81942
361.264	14.57659
361.479	-8.60492
361.694	-8.60492
361.909	4.03918
362.125	6.14661
362.34	-46.53192
362.555	23.00695
362.77	-4.39031
362.986	-40.21131
363.201	8.25407
363.416	-59.17246
363.631	90.46319
363.847	29.32996
364.062	-54.95905
364.277	52.51615
364.492	-44.42508
364.707	-88.66349
364.922	-4.39031
365.138	23.00695
365.353	-46.53192
365.568	12.46906
365.783	27.22227
365.998	16.68414
366.213	25.11459
366.428	31.43768
366.643	-57.06577
366.858	6.14661
367.073	92.57157
367.288	-4.39031
367.503	-12.81942
367.718	-50.74553
367.933	79.92161
368.148	-8.60492
368.363	-94.98234
368.578	-90.7698
368.793	-35.99745
369.008	-33.89048
369.223	-21.24814
369.438	20.89932
369.653	-80.238
369.868	-21.24814
370.083	-33.89048
370.298	16.68414
370.513	79.92161
370.728	48.30027
370.943	50.4082
371.157	18.79172
371.372	-29.67646
371.587	31.43768
371.802	-86.55716
372.017	-17.03383
372.232	-46.53192
372.446	92.57157
372.661	10.36155
372.876	-6.49763
373.091	16.68414
373.306	4.03918
373.52	-29.67646
373.735	-14.92664
373.95	-69.70555
374.165	-54.95905
374.379	-17.03383
374.594	-54.95905
374.809	-0.17561
375.023	29.32996
375.238	-42.31821
375.453	-84.4508
375.667	6.14661
375.882	41.97663
376.097	4.03918
376.311	12.46906
376.526	4.03918
376.741	12.46906
376.955	-14.92664
377.17	-57.06577
377.384	27.22227
377.599	-38.10439
377.813	-33.89048
378.028	-54.95905
378.242	-54.95905
378.457	-54.95905
378.672	20.89932
378.886	31.43768
379.101	33.54542
379.315	-38.10439
379.53	-2.28298
379.744	-63.38577
379.958	-40.21131
380.173	-46.53192
380.387	39.86879
380.602	-10.71218
380.816	33.54542
381.031	-12.81942
381.245	-33.89048
381.459	20.89932
381.674	25.11459
381.888	46.19237
382.103	27.22227
382.317	-97.08857
382.531	-71.81209
382.746	-12.81942
382.96	20.89932
383.174	-38.10439
383.388	-38.10439
383.603	63.05626
383.817	84.13817
384.031	-27.56942
384.246	1.93177
384.46	63.05626
384.674	-33.89048
384.888	48.30027
385.103	-0.17561
385.317	-2.28298
385.531	14.57659
385.745	-19.141
385.959	-38.10439
386.174	16.68414
386.388	25.11459
386.602	4.03918
386.816	20.89932
387.03	4.03918
387.244	69.38059
387.458	-17.03383
387.672	6.14661
387.887	-78.13156
388.101	25.11459
388.315	8.25407
388.529	16.68414
388.743	39.86879
388.957	-2.28298
389.171	29.32996
389.385	-29.67646
389.599	-59.17246
389.813	-29.67646
390.027	-27.56942
390.241	-78.13156
390.455	-52.8523
390.669	-19.141
390.883	4.03918
391.097	46.19237
391.311	-10.71218
391.525	20.89932
391.738	8.25407
391.952	-31.78348
392.166	1.93177
392.38	-21.24814
392.594	37.76098
392.808	-50.74553
393.022	-61.27913
393.236	16.68414
393.449	48.30027
393.663	-63.38577
393.877	-2.28298
394.091	73.59693
394.305	-46.53192
394.518	-63.38577
394.732	-38.10439
394.946	8.25407
395.16	29.32996
395.373	-0.17561
395.587	-33.89048
395.801	-23.35526
396.015	-69.70555
396.228	-10.71218
396.442	-59.17246
396.656	-78.13156
396.869	-12.81942
397.083	54.62413
397.297	-8.60492
397.51	-71.81209
397.724	-35.99745
397.938	31.43768
398.151	-17.03383
398.365	10.36155
398.578	-21.24814
398.792	-12.81942
399.005	-19.141
399.219	60.94819
399.433	-19.141
399.646	37.76098
399.86	63.05626
400.073	56.73213
400.287	-59.17246
400.5	4.03918
400.714	37.76098
400.927	-8.60492
401.141	46.19237
401.354	-17.03383
401.567	-4.39031
401.781	-42.31821
401.994	4.03918
402.208	4.03918
402.421	-38.10439
402.635	-8.60492
402.848	31.43768
403.061	56.73213
403.275	-10.71218
403.488	37.76098
403.701	14.57659
403.915	39.86879
404.128	-80.238
404.341	35.65319
404.555	-25.46235
404.768	-25.46235
404.981	46.19237
405.195	67.27246
405.408	-42.31821
405.621	-14.92664
405.834	-78.13156
406.048	-38.10439
406.261	8.25407
406.474	10.36155
406.687	-44.42508
406.9	54.62413
407.114	29.32996
407.327	20.89932
407.54	-54.95905
407.753	65.16435
407.966	-57.06577
408.179	-46.53192
408.392	50.4082
408.605	-63.38577
408.819	-42.31821
409.032	-12.81942
409.245	12.46906
409.458	-19.141
409.671	-29.67646
409.884	12.46906
410.097	-63.38577
410.31	-86.55716
410.523	-38.10439
410.736	-46.53192
410.949	-29.67646
411.162	-21.24814
411.375	-38.10439
411.588	6.14661
411.801	46.19237
412.014	-12.81942
412.227	-12.81942
412.44	33.54542
412.653	35.65319
412.865	-25.46235
413.078	-23.35526
413.291	-46.53192
413.504	-92.87609
413.717	23.00695
413.93	-88.66349
414.143	4.03918
414.356	-78.13156
414.568	-76.0251
414.781	-33.89048
414.994	-6.49763
415.207	23.00695
415.42	-8.60492
415.632	-25.46235
415.845	31.43768
416.058	14.57659
416.271	25.11459
416.483	8.25407
416.696	-33.89048
416.909	-50.74553
417.121	27.22227
417.334	23.00695
417.547	39.86879
417.759	37.76098
417.972	4.03918
418.185	-82.34441
418.397	-25.46235
418.61	71.48875
418.823	-0.17561
419.035	6.14661
419.248	46.19237
419.46	-88.66349
419.673	-21.24814
419.885	-80.238
420.098	29.32996
420.311	-25.46235
420.523	12.46906
420.736	-10.71218
420.948	-23.35526
421.161	-42.31821
421.373	-6.49763
421.586	-35.99745
421.798	-4.39031
422.01	50.4082
422.223	-21.24814
422.435	16.68414
422.648	-80.238
422.86	-19.141
423.073	-12.81942
423.285	4.03918
423.497	-38.10439
423.71	27.22227
423.922	-14.92664
424.134	-44.42508
424.347	-27.56942
424.559	4.03918
424.771	-0.17561
424.984	-42.31821
425.196	-109.72541
425.408	-57.06577
425.621	-48.63874
425.833	-27.56942
426.045	-57.06577
426.257	52.51615
426.47	-35.99745
426.682	6.14661
426.894	-69.70555
427.106	-59.17246
427.318	33.54542
427.531	-8.60492
427.743	14.57659
427.955	54.62413
428.167	41.97663
428.379	-21.24814
428.591	-0.17561
428.804	29.32996
429.016	-63.38577
429.228	-48.63874
429.44	29.32996
429.652	58.84015
429.864	8.25407
430.076	-4.39031
430.288	1.93177
430.5	-27.56942
430.712	23.00695
430.924	67.27246
431.136	-94.98234
431.348	-27.56942
431.56	58.84015
431.772	-27.56942
431.984	4.03918
432.196	-40.21131
432.408	6.14661
432.62	-25.46235
432.832	-27.56942
433.044	-14.92664
433.256	8.25407
433.468	-19.141
433.679	-10.71218
433.891	8.25407
434.103	23.00695
434.315	-17.03383
434.527	4.03918
434.739	50.4082
434.95	-19.141
435.162	-29.67646
435.374	41.97663
435.586	-69.70555
435.798	20.89932
436.009	18.79172
436.221	-19.141
436.433	-12.81942
436.645	12.46906
436.856	-12.81942
437.068	-2.28298
437.28	46.19237
437.491	50.4082
437.703	-52.8523
437.915	16.68414
438.126	-4.39031
438.338	6.14661
438.55	48.30027
438.761	4.03918
438.973	-42.31821
439.184	-10.71218
439.396	33.54542
439.608	-31.78348
439.819	-59.17246
440.031	-17.03383
440.242	6.14661
440.454	-59.17246
440.665	-31.78348
440.877	-46.53192
441.088	20.89932
441.3	33.54542
441.511	-21.24814
441.723	-8.60492
441.934	-120.25538
442.146	12.46906
442.357	48.30027
442.569	6.14661
442.78	48.30027
442.991	10.36155
443.203	69.38059
443.414	-65.49239
443.626	12.46906
443.837	-21.24814
444.048	33.54542
444.26	-29.67646
444.471	8.25407
444.682	-67.59898
444.894	-33.89048
445.105	-8.60492
445.316	-33.89048
445.528	8.25407
445.739	-88.66349
445.95	-46.53192
446.161	-23.35526
446.373	-4.39031
446.584	-35.99745
446.795	-40.21131
447.006	4.03918
447.217	-61.27913
447.429	-23.35526
447.64	4.03918
447.851	-4.39031
448.062	-50.74553
448.273	20.89932
448.484	12.46906
448.695	-14.92664
448.907	122.09124
449.118	-63.38577
449.329	-6.49763
449.54	-71.81209
449.751	-25.46235
449.962	-4.39031
450.173	-29.67646
450.384	-40.21131
450.595	-67.59898
450.806	-54.95905
451.017	-19.141
451.228	-54.95905
451.439	58.84015
451.65	-14.92664
451.861	33.54542
452.072	-6.49763
452.283	-2.28298
452.494	37.76098
452.705	31.43768
452.915	-46.53192
453.126	65.16435
453.337	-6.49763
453.548	-65.49239
453.759	-10.71218
453.97	-38.10439
454.181	-27.56942
454.391	-23.35526
454.602	-27.56942
454.813	8.25407
455.024	29.32996
455.235	16.68414
455.445	-19.141
455.656	31.43768
455.867	52.51615
456.078	-10.71218
456.288	-73.91861
456.499	-4.39031
456.71	-8.60492
456.921	-80.238
457.131	-71.81209
457.342	-21.24814
457.553	-29.67646
457.763	-52.8523
457.974	20.89932
458.184	-63.38577
458.395	-0.17561
458.606	-48.63874
458.816	-12.81942
459.027	56.73213
459.237	-86.55716
459.448	-46.53192
459.659	-2.28298
459.869	-54.95905
460.08	-27.56942
460.29	6.14661
460.501	63.05626
460.711	14.57659
460.922	-38.10439
461.132	-46.53192
461.343	8.25407
461.553	25.11459
461.764	4.03918
461.974	29.32996
462.184	-40.21131
462.395	-44.42508
462.605	-118.14944
462.816	6.14661
463.026	-4.39031
463.236	23.00695
463.447	29.32996
463.657	12.46906
463.867	-38.10439
464.078	63.05626
464.288	50.4082
464.498	-54.95905
464.709	-17.03383
464.919	-29.67646
465.129	-57.06577
465.339	-6.49763
465.55	-33.89048
465.76	-71.81209
465.97	-29.67646
466.18	-31.78348
466.391	-25.46235
466.601	-10.71218
466.811	39.86879
467.021	12.46906
467.231	-143.41896
467.441	-0.17561
467.651	-25.46235
467.862	-35.99745
468.072	-14.92664
468.282	-94.98234
468.492	20.89932
468.702	-0.17561
468.912	14.57659
469.122	8.25407
469.332	-38.10439
469.542	-17.03383
469.752	25.11459
469.962	-21.24814
470.172	-71.81209
470.382	44.08449
470.592	54.62413
470.802	-21.24814
471.012	-31.78348
471.222	-19.141
471.432	20.89932
471.642	-4.39031
471.852	-12.81942
472.062	8.25407
472.272	8.25407
472.482	-97.08857
472.691	4.03918
472.901	-29.67646
473.111	-27.56942
473.321	-42.31821
473.531	-33.89048
473.741	12.46906
473.95	-14.92664
474.16	23.00695
474.37	-84.4508
474.58	6.14661
474.79	-50.74553
474.999	58.84015
475.209	-120.25538
475.419	-0.17561
475.628	12.46906
475.838	-31.78348
476.048	-21.24814
476.258	-19.141
476.467	-103.40711
476.677	27.22227
476.886	41.97663
477.096	-105.51324
477.306	65.16435
477.515	-21.24814
477.725	-23.35526
477.935	-69.70555
478.144	-19.141
478.354	-4.39031
478.563	-29.67646
478.773	23.00695
478.982	-31.78348
479.192	27.22227
479.401	-31.78348
479.611	-42.31821
479.82	-50.74553
480.03	-57.06577
480.239	39.86879
480.449	-61.27913
480.658	-23.35526
480.868	-12.81942
481.077	12.46906
481.287	10.36155
481.496	63.05626
481.705	37.76098
481.915	-69.70555
482.124	4.03918
482.333	18.79172
482.543	-21.24814
482.752	-46.53192
482.961	-71.81209
483.171	-111.83146
483.38	-71.81209
483.589	-67.59898
483.799	41.97663
484.008	-25.46235
484.217	-40.21131
484.426	8.25407
484.636	-71.81209
484.845	1.93177
485.054	-12.81942
485.263	-44.42508
485.472	-0.17561
485.682	-50.74553
485.891	20.89932
486.1	-40.21131
486.309	-52.8523
486.518	12.46906
486.727	-42.31821
486.936	-8.60492
487.146	60.94819
487.355	20.89932
487.564	-8.60492
487.773	-67.59898
487.982	14.57659
488.191	16.68414
488.4	-14.92664
488.609	-25.46235
488.818	-38.10439
489.027	-61.27913
489.236	8.25407
489.445	-4.39031
489.654	4.03918
489.863	-61.27913
490.072	71.48875
490.281	37.76098
490.49	-61.27913
490.698	1.93177
490.907	-42.31821
491.116	46.19237
491.325	-52.8523
491.534	-31.78348
491.743	-25.46235
491.952	-29.67646
492.16	12.46906
492.369	-105.51324
492.578	-17.03383
492.787	46.19237
492.996	27.22227
493.204	-2.28298
493.413	16.68414
493.622	-42.31821
493.831	-78.13156
494.039	-29.67646
494.248	23.00695
494.457	6.14661
494.665	-67.59898
494.874	4.03918
495.083	29.32996
495.291	44.08449
495.5	-88.66349
495.709	41.97663
495.917	39.86879
496.126	-48.63874
496.335	16.68414
496.543	27.22227
496.752	-38.10439
496.96	-0.17561
497.169	-42.31821
497.377	37.76098
497.586	44.08449
497.794	41.97663
498.003	-8.60492
498.211	-27.56942
498.42	-10.71218
498.628	4.03918
498.837	-2.28298
499.045	-52.8523
499.254	-42.31821
499.462	-54.95905
499.671	-57.06577
499.879	-46.53192
500.087	-4.39031
500.296	-6.49763
500.504	14.57659
500.713	-21.24814
500.921	4.03918
501.129	-17.03383
501.338	-59.17246
501.546	6.14661
501.754	20.89932
501.962	16.68414
502.171	-35.99745
502.379	-44.42508
502.587	-67.59898
502.795	-52.8523
503.004	-17.03383
503.212	25.11459
503.42	23.00695
503.628	-57.06577
503.837	-59.17246
504.045	-113.93748
504.253	-8.60492
504.461	16.68414
504.669	-23.35526
504.877	-19.141
505.085	-92.87609
505.294	8.25407
505.502	-50.74553
505.71	50.4082
505.918	-14.92664
506.126	-4.39031
506.334	4.03918
506.542	-40.21131
506.75	-38.10439
506.958	20.89932
507.166	-10.71218
507.374	-71.81209
507.582	-21.24814
507.79	-38.10439
507.998	4.03918
508.206	20.89932
508.414	4.03918
508.622	-2.28298
508.83	58.84015
509.037	-6.49763
509.245	12.46906
509.453	-19.141
509.661	-10.71218
509.869	-4.39031
510.077	-82.34441
510.285	-21.24814
510.492	-42.31821
510.7	-71.81209
510.908	6.14661
511.116	-19.141
511.324	-4.39031
511.531	-54.95905
511.739	-33.89048
511.947	-33.89048
512.155	-71.81209
512.362	-52.8523
512.57	-12.81942
512.778	-76.0251
512.985	-44.42508
513.193	-35.99745
513.401	4.03918
513.608	56.73213
513.816	-0.17561
514.024	-25.46235
514.231	4.03918
514.439	12.46906
514.646	-92.87609
514.854	23.00695
515.061	-27.56942
515.269	25.11459
515.477	-21.24814
515.684	-27.56942
515.892	-21.24814
516.099	-54.95905
516.307	46.19237
516.514	6.14661
516.722	20.89932
516.929	14.57659
517.136	-63.38577
517.344	4.03918
517.551	-33.89048
517.759	-8.60492
517.966	46.19237
518.173	-80.238
518.381	-0.17561
518.588	-27.56942
518.796	60.94819
519.003	-84.4508
519.21	-4.39031
519.418	-21.24814
519.625	-50.74553
519.832	79.92161
520.039	-23.35526
520.247	-38.10439
520.454	-17.03383
520.661	8.25407
520.868	33.54542
521.076	12.46906
521.283	-33.89048
521.49	-63.38577
521.697	-8.60492
521.904	-0.17561
522.112	20.89932
522.319	-59.17246
522.526	-0.17561
522.733	-0.17561
522.94	-17.03383
523.147	-29.67646
523.354	8.25407
523.561	-44.42508
523.768	48.30027
523.975	-59.17246
524.183	6.14661
524.39	-54.95905
524.597	54.62413
524.804	-97.08857
525.011	12.46906
525.218	-38.10439
525.425	-12.81942
525.632	-0.17561
525.838	20.89932
526.045	-31.78348
526.252	-2.28298
526.459	-76.0251
526.666	-67.59898
526.873	-54.95905
527.08	-40.21131
527.287	-21.24814
527.494	-17.03383
527.701	20.89932
527.907	-27.56942
528.114	1.93177
528.321	33.54542
528.528	-42.31821
528.735	-14.92664
528.941	-69.70555
529.148	54.62413
529.355	-12.81942
529.562	-0.17561
529.768	6.14661
529.975	-33.89048
530.182	71.48875
530.388	-71.81209
530.595	-19.141
530.802	-29.67646
531.008	46.19237
531.215	-25.46235
531.422	8.25407
531.628	-48.63874
531.835	8.25407
532.042	37.76098
532.248	4.03918
532.455	20.89932
532.661	-50.74553
532.868	-103.40711
533.074	-59.17246
533.281	12.46906
533.487	37.76098
533.694	-23.35526
533.9	8.25407
534.107	-105.51324
534.313	12.46906
534.52	-130.78468
534.726	-2.28298
534.933	-10.71218
535.139	-25.46235
535.345	-14.92664
535.552	-29.67646
535.758	-0.17561
535.965	-25.46235
536.171	1.93177
536.377	16.68414
536.584	23.00695
536.79	23.00695
536.996	-63.38577
537.203	-25.46235
537.409	56.73213
537.615	-52.8523
537.821	-71.81209
538.028	-12.81942
538.234	-27.56942
538.44	-10.71218
538.646	-0.17561
538.853	12.46906
539.059	-88.66349
539.265	-29.67646
539.471	-113.93748
539.677	16.68414
539.883	-71.81209
540.09	4.03918
540.296	-14.92664
540.502	12.46906
540.708	16.68414
540.914	-17.03383
541.12	-14.92664
541.326	-25.46235
541.532	-61.27913
541.738	-23.35526
541.944	29.32996
542.15	-54.95905
542.356	-33.89048
542.562	8.25407
542.768	-61.27913
542.974	-65.49239
543.18	-46.53192
543.386	-48.63874
543.592	-50.74553
543.798	16.68414
544.004	-46.53192
544.21	20.89932
544.415	-31.78348
544.621	-27.56942
544.827	6.14661
545.033	35.65319
545.239	-38.10439
545.445	-10.71218
545.651	12.46906
545.856	-2.28298
546.062	-6.49763
546.268	-38.10439
546.474	20.89932
546.679	-50.74553
546.885	-33.89048
547.091	-4.39031
547.297	-63.38577
547.502	8.25407
547.708	-4.39031
547.914	-57.06577
548.119	-19.141
548.325	-23.35526
548.531	69.38059
548.736	-46.53192
548.942	14.57659
549.147	39.86879
549.353	37.76098
549.559	-46.53192
549.764	-4.39031
549.97	-17.03383
550.175	12.46906
550.381	29.32996
550.586	58.84015
550.792	-29.67646
550.997	-29.67646
551.203	-12.81942
551.408	-19.141
551.614	-21.24814
551.819	8.25407
552.025	-6.49763
552.23	-46.53192
552.435	-35.99745
552.641	-46.53192
552.846	-46.53192
553.052	-17.03383
553.257	-17.03383
553.462	1.93177
553.668	-23.35526
553.873	16.68414
554.078	20.89932
554.283	-12.81942
554.489	-35.99745
554.694	-0.17561
554.899	-27.56942
555.105	-46.53192
555.31	33.54542
555.515	-71.81209
555.72	-54.95905
555.925	20.89932
556.131	-31.78348
556.336	-25.46235
556.541	12.46906
556.746	-35.99745
556.951	-25.46235
557.156	-42.31821
557.361	-38.10439
557.567	14.57659
557.772	6.14661
557.977	31.43768
558.182	16.68414
558.387	-31.78348
558.592	14.57659
558.797	-8.60492
559.002	-21.24814
559.207	12.46906
559.412	-2.28298
559.617	46.19237
559.822	-44.42508
560.027	4.03918
560.232	20.89932
560.437	-54.95905
560.642	-25.46235
560.847	-17.03383
561.051	-105.51324
561.256	-42.31821
561.461	29.32996
561.666	12.46906
561.871	-10.71218
562.076	-44.42508
562.281	-14.92664
562.485	-63.38577
562.69	-105.51324
562.895	-59.17246
563.1	20.89932
563.305	-21.24814
563.509	46.19237
563.714	23.00695
563.919	-21.24814
564.123	-27.56942
564.328	-23.35526
564.533	-57.06577
564.737	6.14661
564.942	-69.70555
565.147	-29.67646
565.351	4.03918
565.556	-44.42508
565.761	-17.03383
565.965	54.62413
566.17	46.19237
566.374	-33.89048
566.579	-59.17246
566.784	37.76098
566.988	-19.141
567.193	-38.10439
567.397	-69.70555
567.602	-57.06577
567.806	-52.8523
568.011	-19.141
568.215	-40.21131
568.42	-63.38577
568.624	-92.87609
568.828	-29.67646
569.033	16.68414
569.237	27.22227
569.442	-33.89048
569.646	-4.39031
569.85	-17.03383
570.055	8.25407
570.259	14.57659
570.463	-76.0251
570.668	-6.49763
570.872	-2.28298
571.076	-12.81942
571.281	39.86879
571.485	-10.71218
571.689	-19.141
571.893	39.86879
572.098	8.25407
572.302	-17.03383
572.506	-4.39031
572.71	23.00695
572.914	-52.8523
573.119	-50.74553
573.323	25.11459
573.527	-99.19478
573.731	4.03918
573.935	-21.24814
574.139	10.36155
574.343	-50.74553
574.547	8.25407
574.751	12.46906
574.955	88.35483
575.159	4.03918
575.364	35.65319
575.568	37.76098
575.772	-40.21131
575.976	-14.92664
576.18	29.32996
576.383	33.54542
576.587	-33.89048
576.791	-33.89048
576.995	-80.238
577.199	-12.81942
577.403	12.46906
577.607	-65.49239
577.811	-19.141
578.015	31.43768
578.219	-27.56942
578.422	-27.56942
578.626	58.84015
578.83	18.79172
579.034	-84.4508
579.238	16.68414
579.442	-4.39031
579.645	69.38059
579.849	-73.91861
580.053	41.97663
580.257	-69.70555
580.46	12.46906
580.664	-12.81942
580.868	-44.42508
581.071	-42.31821
581.275	6.14661
581.479	44.08449
581.682	12.46906
581.886	23.00695
582.09	-59.17246
582.293	-21.24814
582.497	4.03918
582.7	75.70514
582.904	20.89932
583.107	-63.38577
583.311	-21.24814
583.515	6.14661
583.718	1.93177
583.922	-33.89048
584.125	8.25407
584.329	-29.67646
584.532	-10.71218
584.735	-10.71218
584.939	48.30027
585.142	-44.42508
585.346	-48.63874
585.549	33.54542
585.753	29.32996
585.956	-61.27913
586.159	73.59693
586.363	1.93177
586.566	-10.71218
586.769	-61.27913
586.973	23.00695
587.176	39.86879
587.379	-50.74553
587.582	12.46906
587.786	-38.10439
587.989	-12.81942
588.192	-10.71218
588.395	-6.49763
588.599	-61.27913
588.802	41.97663
589.005	-54.95905
589.208	25.11459
589.411	-57.06577
589.615	-48.63874
589.818	-6.49763
590.021	41.97663
590.224	41.97663
590.427	-8.60492
590.63	23.00695
590.833	-29.67646
591.036	16.68414
591.239	-33.89048
591.442	12.46906
591.645	29.32996
591.848	-50.74553
592.051	12.46906
592.254	-4.39031
592.457	-52.8523
592.66	-12.81942
592.863	-14.92664
593.066	-42.31821
593.269	-29.67646
593.472	-19.141
593.675	-27.56942
593.878	-29.67646
594.081	-27.56942
594.284	-14.92664
594.486	-4.39031
594.689	-2.28298
594.892	-67.59898
595.095	6.14661
595.298	-71.81209
595.5	-10.71218
595.703	-97.08857
595.906	8.25407
596.109	-6.49763
596.311	-8.60492
596.514	-38.10439
596.717	71.48875
596.92	-42.31821
597.122	-31.78348
597.325	63.05626
597.528	-59.17246
597.73	-19.141
597.933	-42.31821
598.136	-12.81942
598.338	23.00695
598.541	-67.59898
598.743	-25.46235
598.946	-50.74553
599.148	-35.99745
599.351	-44.42508
599.554	-84.4508
599.756	-6.49763
599.959	65.16435
600.161	-35.99745
600.363	-29.67646
600.566	23.00695
600.768	-69.70555
600.971	-109.72541
601.173	23.00695
601.376	-59.17246
601.578	-88.66349
601.78	4.03918
601.983	4.03918
602.185	-35.99745
602.388	4.03918
602.59	29.32996
602.792	-29.67646
602.995	-2.28298
603.197	-29.67646
603.399	-54.95905
603.601	-29.67646
603.804	-12.81942
604.006	-10.71218
604.208	18.79172
604.41	-21.24814
604.613	1.93177
604.815	-12.81942
605.017	8.25407
605.219	12.46906
605.421	-48.63874
605.623	-19.141
605.826	-38.10439
606.028	-76.0251
606.23	-21.24814
606.432	35.65319
606.634	-63.38577
606.836	-12.81942
607.038	-23.35526
607.24	12.46906
607.442	-19.141
607.644	-17.03383
607.846	-42.31821
608.048	63.05626
608.25	-44.42508
608.452	-29.67646
608.654	-61.27913
608.856	-57.06577
609.058	-33.89048
609.26	-42.31821
609.462	25.11459
609.664	-38.10439
609.866	-80.238
610.067	4.03918
610.269	-19.141
610.471	58.84015
610.673	-94.98234
610.875	-17.03383
611.077	-73.91861
611.278	-59.17246
611.48	35.65319
611.682	-8.60492
611.884	-54.95905
612.085	-6.49763
612.287	-2.28298
612.489	-8.60492
612.69	-10.71218
612.892	-44.42508
613.094	8.25407
613.295	-42.31821
613.497	-76.0251
613.699	-35.99745
613.9	-27.56942
614.102	-21.24814
614.304	-14.92664
614.505	-10.71218
614.707	-48.63874
614.908	-50.74553
615.11	-23.35526
615.311	-14.92664
615.513	-59.17246
615.714	56.73213
615.916	-54.95905
616.117	29.32996
616.319	10.36155
616.52	-27.56942
616.722	-17.03383
616.923	29.32996
617.124	-21.24814
617.326	-21.24814
617.527	23.00695
617.729	25.11459
617.93	27.22227
618.131	-10.71218
618.333	-17.03383
618.534	48.30027
618.735	-25.46235
618.937	31.43768
619.138	-76.0251
619.339	-27.56942
619.54	-57.06577
619.742	4.03918
619.943	-29.67646
620.144	1.93177
620.345	-69.70555
620.546	-14.92664
620.748	12.46906
620.949	37.76098
621.15	-44.42508
621.351	37.76098
621.552	-4.39031
621.753	33.54542
621.954	-52.8523
622.155	14.57659
622.356	-44.42508
622.558	-25.46235
622.759	-42.31821
622.96	-40.21131
623.161	-2.28298
623.362	4.03918
623.563	-2.28298
623.764	-33.89048
623.965	-17.03383
624.166	-10.71218
624.366	-61.27913
624.567	-63.38577
624.768	-21.24814
624.969	-33.89048
625.17	35.65319
625.371	27.22227
625.572	-38.10439
625.773	16.68414
625.973	-25.46235
626.174	65.16435
626.375	-50.74553
626.576	54.62413
626.777	-44.42508
626.977	-40.21131
627.178	-31.78348
627.379	-78.13156
627.58	6.14661
627.78	-27.56942
627.981	-63.38577
628.182	-23.35526
628.382	48.30027
628.583	-19.141
628.784	-33.89048
628.984	29.32996
629.185	-46.53192
629.386	-76.0251
629.586	-48.63874
629.787	46.19237
629.987	-101.30096
630.188	-19.141
630.388	-0.17561
630.589	25.11459
630.79	10.36155
630.99	14.57659
631.191	-63.38577
631.391	-14.92664
631.591	-27.56942
631.792	-12.81942
631.992	20.89932
632.193	-10.71218
632.393	-44.42508
632.594	-25.46235
632.794	31.43768
632.994	-25.46235
633.195	-21.24814
633.395	-63.38577
633.595	-21.24814
633.796	54.62413
633.996	6.14661
634.196	6.14661
634.397	8.25407
634.597	-4.39031
634.797	-12.81942
634.997	-33.89048
635.198	-10.71218
635.398	-0.17561
635.598	-29.67646
635.798	41.97663
635.998	92.57157
636.199	-113.93748
636.399	-4.39031
636.599	-4.39031
636.799	-2.28298
636.999	-25.46235
637.199	-63.38577
637.399	23.00695
637.599	-122.36129
637.799	-17.03383
637.999	-0.17561
638.199	23.00695
638.399	6.14661
638.599	-54.95905
638.799	-86.55716
638.999	16.68414
639.199	29.32996
639.399	-38.10439
639.599	-27.56942
639.799	27.22227
639.999	4.03918
640.199	-4.39031
640.399	23.00695
640.599	-38.10439
640.799	14.57659
640.998	-14.92664
641.198	12.46906
641.398	-0.17561
641.598	-29.67646
641.798	18.79172
641.997	-65.49239
642.197	-54.95905
642.397	-67.59898
642.597	-42.31821
642.796	-21.24814
642.996	-29.67646
643.196	33.54542
643.395	-12.81942
643.595	-19.141
643.795	-48.63874
643.994	71.48875
644.194	-17.03383
644.394	-128.67888
644.593	-12.81942
644.793	12.46906
644.992	54.62413
645.192	-35.99745
645.392	-84.4508
645.591	-52.8523
645.791	-33.89048
645.99	-2.28298
646.19	-126.57304
646.389	-50.74553
646.589	-29.67646
646.788	-71.81209
646.987	14.57659
647.187	-78.13156
647.386	-46.53192
647.586	-84.4508
647.785	-10.71218
647.984	-69.70555
648.184	-23.35526
648.383	14.57659
648.582	-4.39031
648.782	14.57659
648.981	12.46906
649.18	1.93177
649.38	48.30027
649.579	8.25407
649.778	-17.03383
649.977	-107.61934
650.177	39.86879
650.376	-4.39031
650.575	-10.71218
650.774	20.89932
650.973	-46.53192
651.173	-27.56942
651.372	-35.99745
651.571	46.19237
651.77	-61.27913
651.969	20.89932
652.168	-46.53192
652.367	-29.67646
652.566	29.32996
652.765	-35.99745
652.964	52.51615
653.163	-33.89048
653.362	41.97663
653.561	-63.38577
653.76	20.89932
653.959	37.76098
654.158	29.32996
654.357	-10.71218
654.556	6.14661
654.755	-46.53192
654.954	-17.03383
655.153	-42.31821
655.352	4.03918
655.551	-31.78348
655.749	-25.46235
655.948	14.57659
656.147	8.25407
656.346	88.35483
656.545	71.48875
656.743	4.03918
656.942	-71.81209
657.141	-25.46235
657.34	-21.24814
657.538	-78.13156
657.737	20.89932
657.936	-67.59898
658.135	-14.92664
658.333	-0.17561
658.532	-0.17561
658.731	-40.21131
658.929	-94.98234
659.128	-38.10439
659.326	-25.46235
659.525	10.36155
659.724	-76.0251
659.922	10.36155
660.121	35.65319
660.319	-0.17561
660.518	35.65319
660.716	48.30027
660.915	20.89932
661.113	58.84015
661.312	-50.74553
661.51	-8.60492
661.709	-40.21131
661.907	-12.81942
662.105	-2.28298
662.304	-25.46235
662.502	31.43768
662.701	-25.46235
662.899	-8.60492
663.097	4.03918
663.296	-88.66349
663.494	-88.66349
663.692	14.57659
663.891	-0.17561
664.089	-12.81942
664.287	37.76098
664.485	56.73213
664.684	-54.95905
664.882	71.48875
665.08	16.68414
665.278	-50.74553
665.476	-52.8523
665.675	-4.39031
665.873	-35.99745
666.071	-92.87609
666.269	-38.10439
666.467	25.11459
666.665	-80.238
666.863	-8.60492
667.061	-35.99745
667.259	16.68414
667.457	14.57659
667.655	-46.53192
667.853	-0.17561
668.051	18.79172
668.249	-78.13156
668.447	-17.03383
668.645	-2.28298
668.843	14.57659
669.041	-54.95905
669.239	18.79172
669.437	-29.67646
669.635	-25.46235
669.833	-21.24814
670.031	-23.35526
670.229	29.32996
670.426	107.33087
670.624	-80.238
670.822	-86.55716
671.02	-35.99745
671.218	20.89932
671.415	-71.81209
671.613	-21.24814
671.811	-12.81942
672.009	27.22227
672.206	-0.17561
672.404	-12.81942
672.602	25.11459
672.799	10.36155
672.997	29.32996
673.195	-4.39031
673.392	-54.95905
673.59	-69.70555
673.788	-4.39031
673.985	-27.56942
674.183	12.46906
674.38	-31.78348
674.578	6.14661
674.775	18.79172
674.973	-52.8523
675.17	-0.17561
675.368	-35.99745
675.565	20.89932
675.763	-23.35526
675.96	-67.59898
676.158	-25.46235
676.355	-57.06577
676.553	-8.60492
676.75	-50.74553
676.947	-50.74553
677.145	-67.59898
677.342	-23.35526
677.539	-14.92664
677.737	-35.99745
677.934	-17.03383
678.131	-46.53192
678.329	-27.56942
678.526	-29.67646
678.723	-10.71218
678.92	-4.39031
679.118	58.84015
679.315	-33.89048
679.512	4.03918
679.709	-35.99745
679.906	-4.39031
680.104	12.46906
680.301	-35.99745
680.498	-33.89048
680.695	-29.67646
680.892	-4.39031
681.089	4.03918
681.286	10.36155
681.483	-35.99745
681.68	-54.95905
681.877	82.02988
682.075	14.57659
682.272	-10.71218
682.469	-76.0251
682.665	-21.24814
682.862	-46.53192
683.059	-44.42508
683.256	-42.31821
683.453	-38.10439
683.65	71.48875
683.847	4.03918
684.044	-38.10439
684.241	-50.74553
684.438	46.19237
684.635	37.76098
684.831	-63.38577
685.028	12.46906
685.225	-118.14944
685.422	20.89932
685.619	23.00695
685.815	6.14661
686.012	-29.67646
686.209	-44.42508
686.405	-63.38577
686.602	-29.67646
686.799	-17.03383
686.996	-27.56942
687.192	-21.24814
687.389	-67.59898
687.586	-54.95905
687.782	-27.56942
687.979	-23.35526
688.175	23.00695
688.372	4.03918
688.568	-33.89048
688.765	-23.35526
688.962	-0.17561
689.158	-25.46235
689.355	-21.24814
689.551	-38.10439
689.748	-29.67646
689.944	-31.78348
690.14	46.19237
690.337	-8.60492
690.533	29.32996
690.73	73.59693
690.926	12.46906
691.123	-67.59898
691.319	-10.71218
691.515	-80.238
691.712	-17.03383
691.908	-17.03383
692.104	-42.31821
692.301	-29.67646
692.497	8.25407
692.693	-46.53192
692.889	-29.67646
693.086	-12.81942
693.282	4.03918
693.478	-4.39031
693.674	-8.60492
693.87	27.22227
694.067	-54.95905
694.263	-2.28298
694.459	16.68414
694.655	-19.141
694.851	-21.24814
695.047	44.08449
695.243	-29.67646
695.439	-99.19478
695.635	-12.81942
695.831	-31.78348
696.027	-17.03383
696.224	20.89932
696.42	4.03918
696.615	58.84015
696.811	16.68414
697.007	63.05626
697.203	-71.81209
697.399	-50.74553
697.595	-17.03383
697.791	-2.28298
697.987	31.43768
698.183	-59.17246
698.379	-73.91861
698.575	-46.53192
698.77	48.30027
698.966	-0.17561
699.162	-29.67646
699.358	-19.141
699.554	-67.59898
699.749	27.22227
699.945	1.93177
700.141	10.36155
700.337	-27.56942
700.532	41.97663
700.728	-27.56942
700.924	20.89932
701.119	-38.10439
701.315	-33.89048
701.511	14.57659
701.706	12.46906
701.902	6.14661
702.097	-52.8523
702.293	-35.99745
702.489	18.79172
702.684	-61.27913
702.88	-29.67646
703.075	8.25407
703.271	-0.17561
703.466	39.86879
703.662	-33.89048
703.857	-63.38577
704.053	8.25407
704.248	39.86879
704.443	-44.42508
704.639	-23.35526
704.834	-54.95905
705.03	-38.10439
705.225	-67.59898
705.42	-29.67646
705.616	8.25407
705.811	4.03918
706.006	37.76098
706.202	8.25407
706.397	-17.03383
706.592	-4.39031
706.787	-59.17246
706.983	23.00695
707.178	-38.10439
707.373	39.86879
707.568	-29.67646
707.763	-57.06577
707.959	10.36155
708.154	71.48875
708.349	-29.67646
708.544	37.76098
708.739	-35.99745
708.934	1.93177
709.129	56.73213
709.324	-25.46235
709.519	-23.35526
709.714	-12.81942
709.909	54.62413
710.104	-33.89048
710.299	-67.59898
710.494	16.68414
710.689	-8.60492
710.884	-21.24814
711.079	-4.39031
711.274	8.25407
711.469	-6.49763
711.664	-4.39031
711.859	20.89932
712.054	1.93177
712.249	29.32996
712.443	37.76098
712.638	-61.27913
712.833	-25.46235
713.028	31.43768
713.223	-35.99745
713.417	-10.71218
713.612	16.68414
713.807	-21.24814
714.002	-52.8523
714.196	-52.8523
714.391	-52.8523
714.586	29.32996
714.78	16.68414
714.975	-29.67646
715.17	-17.03383
715.364	-12.81942
715.559	65.16435
715.754	-0.17561
715.948	-2.28298
716.143	-8.60492
716.337	12.46906
716.532	12.46906
716.726	-27.56942
716.921	-71.81209
717.115	-21.24814
717.31	-63.38577
717.504	6.14661
717.699	56.73213
717.893	-4.39031
718.088	1.93177
718.282	-29.67646
718.476	-14.92664
718.671	-12.81942
718.865	-17.03383
719.059	23.00695
719.254	101.00532
719.448	-27.56942
719.642	39.86879
719.837	-29.67646
720.031	-59.17246
720.225	-21.24814
720.419	-52.8523
720.614	-4.39031
720.808	8.25407
721.002	-27.56942
721.196	-63.38577
721.39	54.62413
721.585	29.32996
721.779	-4.39031
721.973	37.76098
722.167	29.32996
722.361	-2.28298
722.555	52.51615
722.749	-27.56942
722.943	63.05626
723.137	-92.87609
723.331	29.32996
723.525	-17.03383
723.719	-63.38577
723.913	29.32996
724.107	60.94819
724.301	-38.10439
724.495	-35.99745
724.689	-40.21131
724.883	63.05626
725.077	41.97663
725.271	-33.89048
725.465	-63.38577
725.659	23.00695
725.853	-44.42508
726.046	12.46906
726.24	-67.59898
726.434	-14.92664
726.628	25.11459
726.822	-63.38577
727.015	-33.89048
727.209	-19.141
727.403	-19.141
727.596	20.89932
727.79	-8.60492
727.984	-46.53192
728.177	-29.67646
728.371	14.57659
728.565	-4.39031
728.758	-52.8523
728.952	-29.67646
729.146	-6.49763
729.339	-4.39031
729.533	12.46906
729.726	-29.67646
729.92	37.76098
730.113	16.68414
730.307	56.73213
730.5	-67.59898
730.694	-35.99745
730.887	8.25407
731.081	-35.99745
731.274	4.03918
731.468	6.14661
731.661	71.48875
731.854	-44.42508
732.048	27.22227
732.241	23.00695
732.435	-31.78348
732.628	29.32996
732.821	-54.95905
733.014	12.46906
733.208	23.00695
733.401	-46.53192
733.594	8.25407
733.788	-44.42508
733.981	-2.28298
734.174	16.68414
734.367	-10.71218
734.56	25.11459
734.754	-76.0251
734.947	-21.24814
735.14	50.4082
735.333	23.00695
735.526	29.32996
735.719	-21.24814
735.912	-46.53192
736.105	31.43768
736.298	-88.66349
736.491	50.4082
736.684	-35.99745
736.877	-10.71218
737.07	-46.53192
737.263	-44.42508
737.456	-57.06577
737.649	48.30027
737.842	27.22227
738.035	-54.95905
738.228	20.89932
738.421	-44.42508
738.614	33.54542
738.807	46.19237
739	-23.35526
739.192	-25.46235
739.385	29.32996
739.578	41.97663
739.771	25.11459
739.964	25.11459
740.156	-4.39031
740.349	-54.95905
740.542	14.57659
740.735	41.97663
740.927	14.57659
741.12	-65.49239
741.313	-4.39031
741.505	-33.89048
741.698	-31.78348
741.891	16.68414
742.083	1.93177
742.276	-33.89048
742.468	-12.81942
742.661	-27.56942
742.854	-120.25538
743.046	-59.17246
743.239	65.16435
743.431	-46.53192
743.624	-21.24814
743.816	4.03918
744.009	50.4082
744.201	-17.03383
744.393	20.89932
744.586	-33.89048
744.778	-6.49763
744.971	14.57659
745.163	1.93177
745.355	4.03918
745.548	-48.63874
745.74	14.57659
745.932	-31.78348
746.125	-35.99745
746.317	-12.81942
746.509	-6.49763
746.702	67.27246
746.894	-21.24814
747.086	25.11459
747.278	-35.99745
747.471	-33.89048
747.663	-8.60492
747.855	8.25407
748.047	-44.42508
748.239	-78.13156
748.431	75.70514
748.623	-8.60492
748.815	6.14661
749.008	-61.27913
749.2	-2.28298
749.392	-23.35526
749.584	-29.67646
749.776	12.46906
749.968	-46.53192
750.16	12.46906
750.352	-23.35526
750.544	-14.92664
750.736	-31.78348
750.928	-17.03383
751.12	-76.0251
751.311	27.22227
751.503	31.43768
751.695	-48.63874
751.887	-21.24814
752.079	23.00695
752.271	37.76098
752.463	-57.06577
752.654	-103.40711
752.846	-17.03383
753.038	8.25407
753.23	-38.10439
753.421	-35.99745
753.613	-38.10439
753.805	-33.89048
753.997	-27.56942
754.188	-29.67646
754.38	-25.46235
754.572	27.22227
754.763	18.79172
754.955	35.65319
755.146	-48.63874
755.338	-52.8523
755.53	1.93177
755.721	-19.141
755.913	-38.10439
756.104	-109.72541
756.296	-54.95905
756.487	54.62413
756.679	-17.03383
756.87	-19.141
757.062	-6.49763
757.253	-2.28298
757.445	12.46906
757.636	-12.81942
757.827	-0.17561
758.019	-50.74553
758.21	35.65319
758.401	-54.95905
758.593	75.70514
758.784	8.25407
758.975	-21.24814
759.167	14.57659
759.358	-8.60492
759.549	10.36155
759.74	-8.60492
759.932	-38.10439
760.123	-50.74553
760.314	-59.17246
760.505	-73.91861
760.696	65.16435
760.888	-6.49763
761.079	18.79172
761.27	-69.70555
761.461	-38.10439
761.652	-6.49763
761.843	27.22227
762.034	4.03918
762.225	39.86879
762.416	-27.56942
762.607	-17.03383
762.798	-69.70555
762.989	-12.81942
763.18	-65.49239
763.371	-6.49763
763.562	-19.141
763.753	-38.10439
763.944	-21.24814
764.135	-17.03383
764.326	16.68414
764.517	14.57659
764.708	-8.60492
764.899	-88.66349
765.089	103.11382
765.28	31.43768
765.471	-29.67646
765.662	-52.8523
765.853	-59.17246
766.043	-76.0251
766.234	14.57659
766.425	41.97663
766.615	-46.53192
766.806	86.24649
766.997	-23.35526
767.187	-17.03383
767.378	-8.60492
767.569	4.03918
767.759	-65.49239
767.95	44.08449
768.141	31.43768
768.331	-69.70555
768.522	-38.10439
768.712	-80.238
768.903	-80.238
769.093	-21.24814
769.284	-33.89048
769.474	23.00695
769.665	-2.28298
769.855	-90.7698
770.046	35.65319
770.236	-4.39031
770.426	82.02988
770.617	-54.95905
770.807	-21.24814
770.998	-8.60492
771.188	-12.81942
771.378	63.05626
771.569	-6.49763
771.759	-12.81942
771.949	-21.24814
772.139	-25.46235
772.33	-25.46235
772.52	-12.81942
772.71	4.03918
772.9	-69.70555
773.09	-21.24814
773.281	-8.60492
773.471	37.76098
773.661	-63.38577
773.851	-42.31821
774.041	54.62413
774.231	-120.25538
774.421	23.00695
774.611	23.00695
774.802	20.89932
774.992	25.11459
775.182	-0.17561
775.372	-6.49763
775.562	-2.28298
775.752	14.57659
775.942	-61.27913
776.131	-78.13156
776.321	-40.21131
776.511	-42.31821
776.701	23.00695
776.891	14.57659
777.081	16.68414
777.271	-40.21131
777.461	-44.42508
777.651	-67.59898
777.84	20.89932
778.03	-69.70555
778.22	-27.56942
778.41	-126.57304
778.599	23.00695
778.789	-14.92664
778.979	-12.81942
779.169	-61.27913
779.358	-8.60492
779.548	-14.92664
779.738	12.46906
779.927	-21.24814
780.117	12.46906
780.307	31.43768
780.496	69.38059
780.686	-38.10439
780.875	-8.60492
781.065	-48.63874
781.254	10.36155
781.444	-40.21131
781.633	-33.89048
781.823	-2.28298
782.012	54.62413
782.202	-52.8523
782.391	-8.60492
782.581	25.11459
782.77	12.46906
782.96	29.32996
783.149	-19.141
783.338	-4.39031
783.528	6.14661
783.717	-8.60492
783.906	-23.35526
784.096	20.89932
784.285	-48.63874
784.474	-35.99745
784.663	14.57659
784.853	10.36155
785.042	1.93177
785.231	12.46906
785.42	25.11459
785.61	-40.21131
785.799	-29.67646
785.988	41.97663
786.177	-52.8523
786.366	35.65319
786.555	12.46906
786.744	29.32996
786.933	12.46906
787.122	29.32996
787.312	-8.60492
787.501	10.36155
787.69	-8.60492
787.879	29.32996
788.068	-71.81209
788.257	-76.0251
788.445	-38.10439
788.634	6.14661
788.823	-42.31821
789.012	-12.81942
789.201	-46.53192
789.39	-54.95905
789.579	-27.56942
789.768	-4.39031
789.957	-33.89048
790.145	-65.49239
790.334	6.14661
790.523	-17.03383
790.712	-12.81942
790.9	-19.141
791.089	-10.71218
791.278	4.03918
791.467	-84.4508
791.655	-103.40711
791.844	-35.99745
792.033	-42.31821
792.221	-35.99745
792.41	-27.56942
792.599	12.46906
792.787	-71.81209
792.976	23.00695
793.164	-21.24814
793.353	-19.141
793.541	54.62413
793.73	-10.71218
793.918	-35.99745
794.107	-78.13156
794.295	37.76098
794.484	-54.95905
794.672	75.70514
794.861	-25.46235
795.049	-44.42508
795.238	-21.24814
795.426	48.30027
795.614	18.79172
795.803	-48.63874
795.991	8.25407
796.179	-8.60492
796.368	-8.60492
796.556	16.68414
796.744	33.54542
796.932	20.89932
797.121	-38.10439
797.309	-101.30096
797.497	-12.81942
797.685	-71.81209
797.874	-10.71218
798.062	-44.42508
798.25	-14.92664
798.438	35.65319
798.626	37.76098
798.814	12.46906
799.002	14.57659
799.19	-52.8523
799.378	-17.03383
799.566	-12.81942
799.755	-4.39031
799.943	-27.56942
800.131	8.25407
800.318	-12.81942
800.506	52.51615
800.694	-29.67646
800.882	23.00695
801.07	-78.13156
801.258	25.11459
801.446	29.32996
801.634	-10.71218
801.822	27.22227
802.01	-17.03383
802.197	-29.67646
802.385	33.54542
802.573	-19.141
802.761	4.03918
802.949	-6.49763
803.136	4.03918
803.324	6.14661
803.512	12.46906
803.699	-46.53192
803.887	-33.89048
804.075	-61.27913
804.262	29.32996
804.45	63.05626
804.638	-12.81942
804.825	-38.10439
805.013	14.57659
805.201	39.86879
805.388	-23.35526
805.576	1.93177
805.763	-23.35526
805.951	-40.21131
806.138	-17.03383
806.326	-42.31821
806.513	-42.31821
806.701	-42.31821
806.888	-8.60492
807.075	-27.56942
807.263	-38.10439
807.45	1.93177
807.638	23.00695
807.825	35.65319
808.012	-4.39031
808.2	46.19237
808.387	-4.39031
808.574	1.93177
808.761	33.54542
808.949	-12.81942
809.136	-4.39031
809.323	6.14661
809.51	-0.17561
809.698	-40.21131
809.885	33.54542
810.072	-52.8523
810.259	4.03918
810.446	35.65319
810.633	20.89932
810.82	4.03918
811.008	25.11459
811.195	29.32996
811.382	-8.60492
811.569	-21.24814
811.756	-80.238
811.943	58.84015
812.13	-12.81942
812.317	-2.28298
812.504	-25.46235
812.691	-31.78348
812.878	12.46906
813.064	-10.71218
813.251	60.94819
813.438	60.94819
813.625	20.89932
813.812	48.30027
813.999	31.43768
814.186	46.19237
814.372	1.93177
814.559	-6.49763
814.746	-46.53192
814.933	-80.238
815.12	-10.71218
815.306	-12.81942
815.493	-27.56942
815.68	-65.49239
815.866	-4.39031
816.053	25.11459
816.24	-46.53192
816.426	-35.99745
816.613	-14.92664
816.799	-54.95905
816.986	25.11459
817.173	14.57659
817.359	-25.46235
817.546	37.76098
817.732	50.4082
817.919	48.30027
818.105	-0.17561
818.292	8.25407
818.478	-86.55716
818.665	-38.10439
818.851	-31.78348
819.037	-2.28298
819.224	-17.03383
819.41	-4.39031
819.597	25.11459
819.783	-44.42508
819.969	-19.141
820.156	20.89932
820.342	-8.60492
820.528	14.57659
820.714	-48.63874
820.901	-42.31821
821.087	-21.24814
821.273	-46.53192
821.459	-0.17561
821.646	10.36155
821.832	-23.35526
822.018	-25.46235
822.204	-2.28298
822.39	52.51615
822.576	4.03918
822.762	-0.17561
822.948	4.03918
823.134	-46.53192
823.32	-17.03383
823.507	-0.17561
823.693	-71.81209
823.879	-4.39031
824.065	-99.19478
824.25	-4.39031
824.436	50.4082
824.622	16.68414
824.808	37.76098
824.994	20.89932
825.18	-31.78348
825.366	-19.141
825.552	6.14661
825.738	-59.17246
825.923	20.89932
826.109	-21.24814
826.295	-76.0251
826.481	-21.24814
826.667	-27.56942
826.852	-40.21131
827.038	-40.21131
827.224	-14.92664
827.409	8.25407
827.595	8.25407
827.781	-4.39031
827.966	-4.39031
828.152	-12.81942
828.338	-12.81942
828.523	-38.10439
828.709	-73.91861
828.894	-61.27913
829.08	-33.89048
829.266	-8.60492
829.451	50.4082
829.637	-6.49763
829.822	-59.17246
830.008	16.68414
830.193	29.32996
830.378	-31.78348
830.564	69.38059
830.749	-42.31821
830.935	-27.56942
831.12	41.97663
831.305	1.93177
831.491	-33.89048
831.676	-0.17561
831.861	-14.92664
832.047	25.11459
832.232	29.32996
832.417	-14.92664
832.602	-29.67646
832.788	-17.03383
832.973	20.89932
833.158	18.79172
833.343	39.86879
833.528	-14.92664
833.714	-187.63119
833.899	-8.60492
834.084	31.43768
834.269	41.97663
834.454	12.46906
834.639	29.32996
834.824	18.79172
835.009	-2.28298
835.194	-0.17561
835.379	-46.53192
835.564	33.54542
835.749	-29.67646
835.934	-21.24814
836.119	12.46906
836.304	4.03918
836.489	-2.28298
836.674	-4.39031
836.859	-38.10439
837.044	54.62413
837.228	-52.8523
837.413	-46.53192
837.598	-69.70555
837.783	-8.60492
837.968	41.97663
838.152	-52.8523
838.337	-0.17561
838.522	14.57659
838.707	4.03918
838.891	31.43768
839.076	-50.74553
839.261	-17.03383
839.445	-10.71218
839.63	6.14661
839.815	-71.81209
839.999	-14.92664
840.184	-17.03383
840.368	-21.24814
840.553	-38.10439
840.737	6.14661
840.922	25.11459
841.106	23.00695
841.291	-35.99745
841.475	-40.21131
841.66	-29.67646
841.844	56.73213
842.029	-29.67646
842.213	-12.81942
842.397	-54.95905
842.582	41.97663
842.766	-52.8523
842.951	33.54542
843.135	58.84015
843.319	56.73213
843.504	23.00695
843.688	-46.53192
843.872	8.25407
844.056	14.57659
844.241	-25.46235
844.425	-29.67646
844.609	-6.49763
844.793	-10.71218
844.977	-48.63874
845.161	16.68414
845.346	-33.89048
845.53	41.97663
845.714	50.4082
845.898	-14.92664
846.082	-33.89048
846.266	48.30027
846.45	-80.238
846.634	4.03918
846.818	-8.60492
847.002	20.89932
847.186	16.68414
847.37	-54.95905
847.554	-78.13156
847.738	-23.35526
847.922	-0.17561
848.106	20.89932
848.29	-14.92664
848.473	-61.27913
848.657	-2.28298
848.841	-48.63874
849.025	29.32996
849.209	-92.87609
849.392	-25.46235
849.576	65.16435
849.76	-33.89048
849.944	25.11459
850.127	-73.91861
850.311	-4.39031
850.495	8.25407
850.678	-35.99745
850.862	-17.03383
851.046	-21.24814
851.229	-54.95905
851.413	-17.03383
851.596	25.11459
851.78	25.11459
851.964	-6.49763
852.147	29.32996
852.331	-44.42508
852.514	-29.67646
852.698	-25.46235
852.881	16.68414
853.065	-69.70555
853.248	-40.21131
853.431	14.57659
853.615	-10.71218
853.798	-38.10439
853.982	39.86879
854.165	-29.67646
854.348	4.03918
854.532	41.97663
854.715	-59.17246
854.898	-12.81942
855.081	-2.28298
855.265	-88.66349
855.448	-65.49239
855.631	-42.31821
855.814	-8.60492
855.997	-8.60492
856.181	20.89932
856.364	-4.39031
856.547	14.57659
856.73	-44.42508
856.913	-6.49763
857.096	-19.141
857.279	50.4082
857.462	-27.56942
857.645	33.54542
857.828	33.54542
858.011	6.14661
858.194	63.05626
858.377	14.57659
858.56	41.97663
858.743	-2.28298
858.926	29.32996
859.109	-44.42508
859.292	-50.74553
859.475	46.19237
859.658	-0.17561
859.841	8.25407
860.023	-23.35526
860.206	6.14661
860.389	14.57659
860.572	6.14661
860.755	-10.71218
860.937	-35.99745
861.12	-38.10439
861.303	-8.60492
861.486	39.86879
861.668	48.30027
861.851	-71.81209
862.034	-4.39031
862.216	8.25407
862.399	-76.0251
862.581	-59.17246
862.764	-27.56942
862.947	-12.81942
863.129	-35.99745
863.312	79.92161
863.494	48.30027
863.677	-27.56942
863.859	-35.99745
864.042	-23.35526
864.224	20.89932
864.406	50.4082
864.589	-21.24814
864.771	-29.67646
864.954	-33.89048
865.136	-27.56942
865.318	-27.56942
865.501	-19.141
865.683	-29.67646
865.865	-57.06577
866.048	12.46906
866.23	-4.39031
866.412	-92.87609
866.594	-38.10439
866.777	-69.70555
866.959	-35.99745
867.141	-54.95905
867.323	14.57659
867.505	18.79172
867.687	-21.24814
867.869	-21.24814
868.052	-17.03383
868.234	23.00695
868.416	-27.56942
868.598	-29.67646
868.78	-8.60492
868.962	-12.81942
869.144	-31.78348
869.326	-2.28298
869.508	-4.39031
869.69	1.93177
869.872	37.76098
870.054	12.46906
870.236	-12.81942
870.417	-57.06577
870.599	-12.81942
870.781	-0.17561
870.963	4.03918
871.145	-54.95905
871.327	46.19237
871.508	20.89932
871.69	-14.92664
871.872	-46.53192
872.054	-71.81209
872.235	10.36155
872.417	-19.141
872.599	39.86879
872.78	-4.39031
872.962	-6.49763
873.144	-0.17561
873.325	20.89932
873.507	-25.46235
873.689	-33.89048
873.87	20.89932
874.052	-4.39031
874.233	-50.74553
874.415	18.79172
874.596	-97.08857
874.778	1.93177
874.959	58.84015
875.141	23.00695
875.322	-44.42508
875.503	25.11459
875.685	-14.92664
875.866	-52.8523
876.048	33.54542
876.229	-17.03383
876.41	29.32996
876.592	48.30027
876.773	20.89932
876.954	50.4082
877.136	-2.28298
877.317	-25.46235
877.498	4.03918
877.679	27.22227
877.86	12.46906
878.042	-46.53192
878.223	-35.99745
878.404	1.93177
878.585	44.08449
878.766	-17.03383
878.947	-12.81942
879.128	-17.03383
879.309	-6.49763
879.49	84.13817
879.672	-8.60492
879.853	4.03918
880.034	54.62413
880.215	20.89932
880.396	-63.38577
880.576	-21.24814
880.757	-27.56942
880.938	-14.92664
881.119	-8.60492
881.3	-63.38577
881.481	-17.03383
881.662	-12.81942
881.843	4.03918
882.023	8.25407
882.204	44.08449
882.385	-4.39031
882.566	-54.95905
882.747	41.97663
882.927	-40.21131
883.108	-52.8523
883.289	46.19237
883.469	46.19237
883.65	41.97663
883.831	-38.10439
884.011	-12.81942
884.192	20.89932
884.373	37.76098
884.553	-33.89048
884.734	-4.39031
884.914	-6.49763
885.095	14.57659
885.275	-2.28298
885.456	-4.39031
885.636	60.94819
885.817	-21.24814
885.997	-73.91861
886.178	-76.0251
886.358	-35.99745
886.538	-46.53192
886.719	-4.39031
886.899	31.43768
887.08	8.25407
887.26	-29.67646
887.44	20.89932
887.621	-0.17561
887.801	-40.21131
887.981	16.68414
888.161	-59.17246
888.342	48.30027
888.522	20.89932
888.702	-116.04347
888.882	44.08449
889.062	41.97663
889.242	-25.46235
889.423	12.46906
889.603	-38.10439
889.783	-12.81942
889.963	18.79172
890.143	-48.63874
890.323	-33.89048
890.503	58.84015
890.683	-38.10439
890.863	-65.49239
891.043	-21.24814
891.223	14.57659
891.403	-4.39031
891.583	8.25407
891.763	35.65319
891.943	1.93177
892.122	-4.39031
892.302	8.25407
892.482	-14.92664
892.662	-17.03383
892.842	-71.81209
893.022	-118.14944
893.201	-35.99745
893.381	39.86879
893.561	-0.17561
893.741	-17.03383
893.92	-50.74553
894.1	-35.99745
894.28	-35.99745
894.459	29.32996
894.639	14.57659
894.819	-4.39031
894.998	16.68414
895.178	-6.49763
895.357	27.22227
895.537	-67.59898
895.716	63.05626
895.896	-35.99745
896.075	20.89932
896.255	-67.59898
896.434	39.86879
896.614	-67.59898
896.793	4.03918
896.973	-10.71218
897.152	-10.71218
897.331	-12.81942
897.511	25.11459
897.69	-21.24814
897.87	-6.49763
898.049	-14.92664
898.228	-2.28298
898.407	4.03918
898.587	-21.24814
898.766	-46.53192
898.945	82.02988
899.124	-21.24814
899.304	-21.24814
899.483	54.62413
899.662	14.57659
899.841	29.32996
900.02	-59.17246
900.199	-59.17246
900.378	8.25407
900.557	-21.24814
900.737	-21.24814
900.916	-46.53192
901.095	-84.4508
901.274	-21.24814
901.453	-12.81942
901.632	-38.10439
901.811	-31.78348
901.989	-33.89048
902.168	-21.24814
902.347	1.93177
902.526	-27.56942
902.705	54.62413
902.884	-27.56942
903.063	14.57659
903.242	-63.38577
903.42	-50.74553
903.599	12.46906
903.778	-19.141
903.957	-31.78348
904.135	1.93177
904.314	4.03918
904.493	-80.238
904.672	-29.67646
904.85	-12.81942
905.029	4.03918
905.207	-33.89048
905.386	-4.39031
905.565	14.57659
905.743	-4.39031
905.922	31.43768
906.1	-4.39031
906.279	35.65319
906.457	18.79172
906.636	-19.141
906.814	-29.67646
906.993	37.76098
907.171	14.57659
907.35	6.14661
907.528	25.11459
907.707	31.43768
907.885	8.25407
908.063	-38.10439
908.242	16.68414
908.42	-42.31821
908.598	-54.95905
908.777	-35.99745
908.955	8.25407
909.133	12.46906
909.311	-46.53192
909.49	8.25407
909.668	8.25407
909.846	-6.49763
910.024	-12.81942
910.202	-12.81942
910.38	-10.71218
910.559	14.57659
910.737	-63.38577
910.915	-0.17561
911.093	4.03918
911.271	-76.0251
911.449	20.89932
911.627	-78.13156
911.805	27.22227
911.983	-4.39031
912.161	14.57659
912.339	-2.28298
912.517	-2.28298
912.695	-84.4508
912.872	-0.17561
913.05	-71.81209
913.228	-21.24814
913.406	-0.17561
913.584	-17.03383
913.762	-38.10439
913.939	18.79172
914.117	54.62413
914.295	50.4082
914.473	6.14661
914.65	-4.39031
914.828	-29.67646
915.006	-61.27913
915.184	-54.95905
915.361	-12.81942
915.539	-31.78348
915.716	29.32996
915.894	-54.95905
916.072	-2.28298
916.249	-25.46235
916.427	-31.78348
916.604	-48.63874
916.782	-44.42508
916.959	4.03918
917.137	12.46906
917.314	-40.21131
917.492	-35.99745
917.669	-63.38577
917.847	-42.31821
918.024	54.62413
918.201	23.00695
918.379	4.03918
918.556	18.79172
918.733	-38.10439
918.911	-35.99745
919.088	-97.08857
919.265	-2.28298
919.442	20.89932
919.62	-12.81942
919.797	-14.92664
919.974	4.03918
920.151	-54.95905
920.328	-31.78348
920.506	12.46906
920.683	-31.78348
920.86	-25.46235
921.037	-84.4508
921.214	16.68414
921.391	-63.38577
921.568	4.03918
921.745	-35.99745
921.922	-88.66349
922.099	48.30027
922.276	35.65319
922.453	-19.141
922.63	-19.141
922.807	1.93177
922.984	54.62413
923.161	12.46906
923.338	54.62413
923.514	27.22227
923.691	20.89932
923.868	-2.28298
924.045	-8.60492
924.222	33.54542
924.399	4.03918
924.575	18.79172
924.752	-25.46235
924.929	-69.70555
925.105	16.68414
925.282	-17.03383
925.459	-19.141
925.635	25.11459
925.812	4.03918
925.989	-71.81209
926.165	-4.39031
926.342	-35.99745
926.518	-38.10439
926.695	-2.28298
926.871	12.46906
927.048	48.30027
927.224	20.89932
927.401	-29.67646
927.577	-19.141
927.754	-21.24814
927.93	-23.35526
928.107	37.76098
928.283	4.03918
928.459	-25.46235
928.636	-2.28298
928.812	-4.39031
928.988	-101.30096
929.165	-50.74553
929.341	-10.71218
929.517	29.32996
929.693	16.68414
929.87	-90.7698
930.046	20.89932
930.222	27.22227
930.398	-6.49763
930.574	18.79172
930.751	-29.67646
930.927	4.03918
931.103	-50.74553
931.279	-50.74553
931.455	25.11459
931.631	16.68414
931.807	96.7884
931.983	-12.81942
932.159	-38.10439
932.335	8.25407
932.511	60.94819
932.687	31.43768
932.863	-2.28298
933.039	-52.8523
933.215	-4.39031
933.391	37.76098
933.566	-44.42508
933.742	73.59693
933.918	-50.74553
934.094	-29.67646
934.27	33.54542
934.445	-12.81942
934.621	41.97663
934.797	-27.56942
934.973	-29.67646
935.148	-19.141
935.324	-38.10439
935.5	14.57659
935.675	-42.31821
935.851	-2.28298
936.027	4.03918
936.202	-44.42508
936.378	-25.46235
936.553	-8.60492
936.729	-103.40711
936.904	29.32996
937.08	-73.91861
937.255	-10.71218
937.431	-42.31821
937.606	-0.17561
937.782	-42.31821
937.957	50.4082
938.133	-38.10439
938.308	37.76098
938.483	-65.49239
938.659	-94.98234
938.834	-12.81942
939.009	-54.95905
939.185	-8.60492
939.36	-38.10439
939.535	-0.17561
939.71	-25.46235
939.886	-4.39031
940.061	-17.03383
940.236	-2.28298
940.411	-19.141
940.586	20.89932
940.761	20.89932
940.937	4.03918
941.112	-0.17561
941.287	-8.60492
941.462	50.4082
941.637	-63.38577
941.812	-94.98234
941.987	-27.56942
942.162	8.25407
942.337	20.89932
942.512	-19.141
942.687	-14.92664
942.862	-27.56942
943.037	27.22227
943.212	-21.24814
943.386	-54.95905
943.561	-25.46235
943.736	4.03918
943.911	-54.95905
944.086	-46.53192
944.26	-38.10439
944.435	33.54542
944.61	-23.35526
944.785	-92.87609
944.959	-8.60492
945.134	-0.17561
945.309	-19.141
945.483	-10.71218
945.658	41.97663
945.833	-33.89048
946.007	-33.89048
946.182	4.03918
946.357	-10.71218
946.531	25.11459
946.706	-12.81942
946.88	-86.55716
947.055	-17.03383
947.229	48.30027
947.404	39.86879
947.578	-19.141
947.752	-14.92664
947.927	-27.56942
948.101	71.48875
948.276	14.57659
948.45	48.30027
948.624	-21.24814
948.799	-57.06577
948.973	8.25407
949.147	-50.74553
949.321	4.03918
949.496	-19.141
949.67	-12.81942
949.844	-21.24814
950.018	20.89932
950.193	-12.81942
950.367	-31.78348
950.541	-46.53192
950.715	-71.81209
950.889	4.03918
951.063	-23.35526
951.237	-0.17561
951.411	-25.46235
951.585	-2.28298
951.759	-31.78348
951.933	-12.81942
952.107	-59.17246
952.281	-10.71218
952.455	-10.71218
952.629	4.03918
952.803	-80.238
952.977	6.14661
953.151	46.19237
953.325	1.93177
953.499	-14.92664
953.672	27.22227
953.846	50.4082
954.02	1.93177
954.194	-63.38577
954.368	39.86879
954.541	-2.28298
954.715	4.03918
954.889	-61.27913
955.062	-105.51324
955.236	-2.28298
955.41	16.68414
955.583	-38.10439
955.757	-99.19478
955.93	-35.99745
956.104	6.14661
956.278	-52.8523
956.451	50.4082
956.625	41.97663
956.798	4.03918
956.972	84.13817
957.145	-10.71218
957.319	-67.59898
957.492	-17.03383
957.665	39.86879
957.839	4.03918
958.012	16.68414
958.185	52.51615
958.359	25.11459
958.532	-4.39031
958.705	-10.71218
958.879	-25.46235
959.052	-31.78348
959.225	12.46906
959.398	-80.238
959.572	54.62413
959.745	-46.53192
959.918	-19.141
960.091	-54.95905
960.264	-44.42508
960.438	23.00695
960.611	18.79172
960.784	-27.56942
960.957	-17.03383
961.13	-33.89048
961.303	-46.53192
961.476	-52.8523
961.649	-109.72541
961.822	-17.03383
961.995	-25.46235
962.168	-40.21131
962.341	31.43768
962.514	33.54542
962.686	-59.17246
962.859	-57.06577
963.032	18.79172
963.205	4.03918
963.378	23.00695
963.551	-46.53192
963.723	-65.49239
963.896	4.03918
964.069	-19.141
964.242	46.19237
964.414	54.62413
964.587	-2.28298
964.76	101.00532
964.932	-2.28298
965.105	23.00695
965.278	-31.78348
965.45	-2.28298
965.623	31.43768
965.795	-14.92664
965.968	52.51615
966.14	-29.67646
966.313	-8.60492
966.485	14.57659
966.658	14.57659
966.83	-40.21131
967.003	-31.78348
967.175	-0.17561
967.348	20.89932
967.52	-76.0251
967.692	29.32996
967.865	25.11459
968.037	-21.24814
968.209	-23.35526
968.382	-14.92664
968.554	-19.141
968.726	37.76098
968.898	6.14661
969.071	-38.10439
969.243	-0.17561
969.415	-23.35526
969.587	-0.17561
969.759	39.86879
969.932	-25.46235
970.104	46.19237
970.276	-6.49763
970.448	-29.67646
970.62	-4.39031
970.792	-8.60492
970.964	8.25407
971.136	-12.81942
971.308	-46.53192
971.48	-27.56942
971.652	-35.99745
971.824	-38.10439
971.996	18.79172
972.168	-0.17561
972.339	12.46906
972.511	-57.06577
972.683	4.03918
972.855	-6.49763
973.027	27.22227
973.199	-17.03383
973.37	-61.27913
973.542	48.30027
973.714	-2.28298
973.886	-23.35526
974.057	-2.28298
974.229	-0.17561
974.401	-12.81942
974.572	-71.81209
974.744	-25.46235
974.915	75.70514
975.087	-14.92664
975.259	-27.56942
975.43	6.14661
975.602	-12.81942
975.773	-71.81209
975.945	-27.56942
976.116	6.14661
976.288	4.03918
976.459	8.25407
976.63	-76.0251
976.802	20.89932
976.973	-29.67646
977.145	12.46906
977.316	-23.35526
977.487	37.76098
977.659	16.68414
977.83	-21.24814
978.001	-44.42508
978.172	4.03918
978.344	-50.74553
978.515	-12.81942
978.686	-48.63874
978.857	6.14661
979.028	-59.17246
979.2	14.57659
979.371	29.32996
979.542	-42.31821
979.713	-42.31821
979.884	-4.39031
980.055	-31.78348
980.226	-19.141
980.397	-40.21131
980.568	-2.28298
980.739	12.46906
980.91	-17.03383
981.081	-33.89048
981.252	4.03918
981.423	-4.39031
981.594	-19.141
981.765	4.03918
981.936	65.16435
982.106	16.68414
982.277	23.00695
982.448	-38.10439
982.619	31.43768
982.79	41.97663
982.96	50.4082
983.131	-42.31821
983.302	-54.95905
983.472	-54.95905
983.643	54.62413
983.814	-19.141
983.984	4.03918
984.155	4.03918
984.326	16.68414
984.496	-4.39031
984.667	75.70514
984.837	-6.49763
985.008	10.36155
985.178	4.03918
985.349	75.70514
985.519	4.03918
985.69	-6.49763
985.86	-44.42508
986.031	-33.89048
986.201	-14.92664
986.371	52.51615
986.542	-17.03383
986.712	20.89932
986.882	-35.99745
987.053	-71.81209
987.223	37.76098
987.393	12.46906
987.563	33.54542
987.734	69.38059
987.904	18.79172
988.074	14.57659
988.244	-88.66349
988.414	6.14661
988.585	-31.78348
988.755	-50.74553
988.925	-17.03383
989.095	12.46906
989.265	-46.53192
989.435	16.68414
989.605	-38.10439
989.775	-42.31821
989.945	-29.67646
990.115	-12.81942
990.285	-2.28298
990.455	-84.4508
990.625	-8.60492
990.795	8.25407
990.965	20.89932
991.134	-40.21131
991.304	-42.31821
991.474	-54.95905
991.644	-38.10439
991.814	75.70514
991.984	48.30027
992.153	-17.03383
992.323	8.25407
992.493	12.46906
992.662	-71.81209
992.832	23.00695
993.002	14.57659
993.171	-19.141
993.341	-19.141
993.511	8.25407
993.68	-29.67646
993.85	-21.24814
994.019	-8.60492
994.189	-105.51324
994.358	39.86879
994.528	14.57659
994.697	-2.28298
994.867	37.76098
995.036	-17.03383
995.206	-23.35526
995.375	23.00695
995.544	-12.81942
995.714	12.46906
995.883	-2.28298
996.052	-44.42508
996.222	23.00695
996.391	37.76098
996.56	-2.28298
996.73	58.84015
996.899	-23.35526
997.068	-4.39031
997.237	63.05626
997.406	-8.60492
997.576	88.35483
997.745	-19.141
997.914	8.25407
998.083	-38.10439
998.252	-21.24814
998.421	1.93177
998.59	20.89932
998.759	-21.24814
998.928	-8.60492
999.097	-109.72541
999.266	12.46906
999.435	8.25407
999.604	41.97663
999.773	-33.89048
999.942	12.46906
1000.111	71.48875
1000.28	-4.39031
1000.448	54.62413
1000.617	39.86879
1000.786	-17.03383
1000.955	-50.74553
1001.124	-54.95905
1001.292	-19.141
1001.461	31.43768
1001.63	6.14661
1001.798	-8.60492
1001.967	31.43768
1002.136	-63.38577
1002.304	-19.141
1002.473	79.92161
1002.642	-86.55716
1002.81	-71.81209
1002.979	-29.67646
1003.147	-12.81942
1003.316	56.73213
1003.484	14.57659
1003.653	-46.53192
1003.821	-12.81942
1003.99	18.79172
1004.158	-23.35526
1004.327	101.00532
1004.495	52.51615
1004.663	-116.04347
1004.832	-50.74553
1005	-38.10439
1005.168	-25.46235
1005.337	14.57659
1005.505	-61.27913
1005.673	-35.99745
1005.842	-52.8523
1006.01	4.03918
1006.178	-8.60492
1006.346	-80.238
1006.514	-19.141
1006.683	44.08449
1006.851	29.32996
1007.019	-54.95905
1007.187	6.14661
1007.355	23.00695
1007.523	-71.81209
1007.691	-31.78348
1007.859	-19.141
1008.027	46.19237
1008.195	-46.53192
1008.363	4.03918
1008.531	-52.8523
1008.699	-46.53192
1008.867	20.89932
1009.035	-63.38577
1009.203	-61.27913
1009.37	-8.60492
1009.538	-14.92664
1009.706	-4.39031
1009.874	-35.99745
1010.042	113.65661
1010.209	-50.74553
1010.377	-29.67646
1010.545	-46.53192
1010.713	41.97663
1010.88	4.03918
1011.048	-23.35526
1011.216	12.46906
1011.383	25.11459
1011.551	-29.67646
1011.718	-84.4508
1011.886	-31.78348
1012.054	-88.66349
1012.221	-2.28298
1012.389	10.36155
1012.556	-25.46235
1012.724	-2.28298
1012.891	-42.31821
1013.058	-54.95905
1013.226	-4.39031
1013.393	37.76098
1013.561	-40.21131
1013.728	12.46906
1013.895	-0.17561
1014.063	-25.46235
1014.23	-52.8523
1014.397	4.03918
1014.565	-4.39031
1014.732	33.54542
1014.899	-19.141
1015.066	25.11459
1015.233	-8.60492
1015.401	-67.59898
1015.568	10.36155
1015.735	-12.81942
1015.902	6.14661
1016.069	-67.59898
1016.236	-50.74553
1016.403	39.86879
1016.57	-38.10439
1016.737	12.46906
1016.904	50.4082
1017.071	-61.27913
1017.238	10.36155
1017.405	-29.67646
1017.572	16.68414
1017.739	33.54542
1017.906	-27.56942
1018.073	-12.81942
1018.24	12.46906
1018.407	-2.28298
1018.573	-14.92664
1018.74	39.86879
1018.907	-21.24814
1019.074	-21.24814
1019.241	10.36155
1019.407	-52.8523
1019.574	4.03918
1019.741	14.57659
1019.907	-63.38577
1020.074	-29.67646
1020.241	-44.42508
1020.407	-21.24814
1020.574	-31.78348
1020.74	115.76524
1020.907	4.03918
1021.073	-54.95905
1021.24	-12.81942
1021.406	6.14661
1021.573	-29.67646
1021.739	6.14661
1021.906	-33.89048
1022.072	79.92161
1022.239	-42.31821
1022.405	12.46906
1022.571	-78.13156
1022.738	-38.10439
1022.904	71.48875
1023.07	33.54542
1023.237	-19.141
1023.403	46.19237
1023.569	46.19237
1023.735	-27.56942
1023.902	-4.39031
1024.068	-38.10439
1024.234	10.36155
1024.4	-0.17561
1024.566	-38.10439
1024.732	-29.67646
1024.898	-44.42508
1025.065	-21.24814
1025.231	-50.74553
1025.397	16.68414
1025.563	4.03918
1025.729	-38.10439
1025.895	25.11459
1026.061	-29.67646
1026.227	-35.99745
1026.392	-59.17246
1026.558	8.25407
1026.724	-38.10439
1026.89	-33.89048
1027.056	-19.141
1027.222	1.93177
1027.388	-19.141
1027.553	-105.51324
1027.719	79.92161
1027.885	1.93177
1028.051	-63.38577
1028.216	-12.81942
1028.382	-8.60492
1028.548	14.57659
1028.713	4.03918
1028.879	-69.70555
1029.045	-54.95905
1029.21	-40.21131
1029.376	92.57157
1029.541	48.30027
1029.707	12.46906
1029.873	1.93177
1030.038	-97.08857
1030.204	-8.60492
1030.369	29.32996
1030.534	-44.42508
1030.7	-52.8523
1030.865	25.11459
1031.031	-8.60492
1031.196	4.03918
1031.361	-17.03383
1031.527	-46.53192
1031.692	-12.81942
1031.857	-12.81942
1032.023	-67.59898
1032.188	-38.10439
1032.353	-25.46235
1032.518	-29.67646
1032.684	54.62413
1032.849	-46.53192
1033.014	-21.24814
1033.179	-52.8523
1033.344	-78.13156
1033.509	-19.141
1033.674	-12.81942
1033.839	-2.28298
1034.004	-12.81942
1034.17	-46.53192
1034.335	-50.74553
1034.5	48.30027
1034.664	-88.66349
1034.829	-71.81209
1034.994	56.73213
1035.159	-54.95905
1035.324	-46.53192
1035.489	12.46906
1035.654	29.32996
1035.819	-73.91861
1035.984	-54.95905
1036.148	-69.70555
1036.313	16.68414
1036.478	-78.13156
1036.643	-21.24814
1036.807	-6.49763
1036.972	41.97663
1037.137	-61.27913
1037.301	-4.39031
1037.466	-27.56942
1037.631	-23.35526
1037.795	8.25407
1037.96	25.11459
1038.124	-73.91861
1038.289	-10.71218
1038.454	-6.49763
1038.618	-25.46235
1038.783	12.46906
1038.947	-31.78348
1039.111	-0.17561
1039.276	-8.60492
1039.44	31.43768
1039.605	-21.24814
1039.769	-31.78348
1039.933	-19.141
1040.098	-54.95905
1040.262	4.03918
1040.426	-4.39031
1040.591	-0.17561
1040.755	-33.89048
1040.919	48.30027
1041.083	-35.99745
1041.248	-67.59898
1041.412	8.25407
1041.576	56.73213
1041.74	-38.10439
1041.904	-44.42508
1042.068	-40.21131
1042.232	-10.71218
1042.397	25.11459
1042.561	-54.95905
1042.725	-126.57304
1042.889	-21.24814
1043.053	20.89932
1043.217	20.89932
1043.381	-54.95905
1043.544	1.93177
1043.708	1.93177
1043.872	-10.71218
1044.036	-38.10439
1044.2	8.25407
1044.364	-4.39031
1044.528	-14.92664
1044.691	48.30027
1044.855	-46.53192
1045.019	1.93177
1045.183	-4.39031
1045.346	-8.60492
1045.51	-61.27913
1045.674	-25.46235
1045.837	-4.39031
1046.001	-35.99745
1046.165	48.30027
1046.328	-4.39031
1046.492	-8.60492
1046.655	6.14661
1046.819	37.76098
1046.983	-59.17246
1047.146	18.79172
1047.31	4.03918
1047.473	-10.71218
1047.636	23.00695
1047.8	6.14661
1047.963	-12.81942
1048.127	-2.28298
1048.29	-23.35526
