Data from Scatter_Coeff_Baseline_USB4F045381__28__0028.txt Node

Date: Thu Feb 13 19:21:49 EST 2025
User: mmckonesweet
Spectrometer: USB4F04538
Trigger mode: 4
Integration Time (sec): 2.400000E-3
Scans to average: 1
Electric dark correction enabled: true
Nonlinearity correction enabled: true
Boxcar width: 0
XAxis mode: Wavelengths
Number of Pixels in Spectrum: 3648
>>>>>Begin Spectral Data<<<<<
345.52	32.3159
345.736	32.3159
345.952	32.3159
346.168	57.61047
346.384	-45.65407
346.6	7.02472
346.816	2.80986
347.032	-30.90556
347.248	11.23968
347.464	-51.97449
347.68	-22.47729
347.896	21.7775
348.112	-20.37016
348.328	38.63923
348.544	-24.5844
348.76	-14.04863
348.975	82.90833
349.191	7.02472
349.407	15.45473
349.623	-5.61958
349.839	28.10047
350.055	-58.29468
350.27	36.53143
350.486	-30.90556
350.702	97.66692
350.918	-26.69148
351.133	47.07066
351.349	70.25899
351.565	-45.65407
351.781	0.70246
351.996	-18.26301
352.212	2.80986
352.428	-45.65407
352.644	-9.83416
352.859	36.53143
353.075	36.53143
353.291	40.74705
353.506	-20.37016
353.722	-56.18797
353.938	-37.2265
354.153	25.99279
354.369	0.70246
354.584	-26.69148
354.8	15.45473
355.016	47.07066
355.231	38.63923
355.447	2.80986
355.662	51.28651
355.878	38.63923
356.093	4.91728
356.309	25.99279
356.524	49.17857
356.74	9.13219
356.955	-5.61958
357.171	-7.72688
357.386	-22.47729
357.602	28.10047
357.817	4.91728
358.033	19.66988
358.248	-106.7418
358.464	-3.51226
358.679	-22.47729
358.895	95.55848
359.11	19.66988
359.325	-39.33343
359.541	25.99279
359.756	-30.90556
359.972	-45.65407
360.187	11.23968
360.402	-1.40491
360.618	53.39447
360.833	-9.83416
361.048	99.77538
361.264	9.13219
361.479	-89.89218
361.694	61.82655
361.909	-30.90556
362.125	4.91728
362.34	59.7185
362.555	38.63923
362.77	70.25899
362.986	63.93463
363.201	44.96277
363.416	-3.51226
363.631	-68.82782
363.847	32.3159
364.062	-18.26301
364.277	2.80986
364.492	-11.94141
364.707	-35.11954
364.922	9.13219
365.138	-56.18797
365.353	38.63923
365.568	-58.29468
365.783	34.42366
365.998	21.7775
366.213	78.6918
366.428	-20.37016
366.643	-1.40491
366.858	-5.61958
367.073	-14.04863
367.288	9.13219
367.503	-16.15583
367.718	-18.26301
367.933	-11.94141
368.148	30.20817
368.363	19.66988
368.578	70.25899
368.793	-30.90556
369.008	-26.69148
369.223	11.23968
369.438	-56.18797
369.653	49.17857
369.868	38.63923
370.083	106.10089
370.298	4.91728
370.513	36.53143
370.728	-1.40491
370.943	-3.51226
371.157	-14.04863
371.372	47.07066
371.587	2.80986
371.802	23.88513
372.017	-22.47729
372.232	-1.40491
372.446	-39.33343
372.661	15.45473
372.876	-33.01256
373.091	13.34719
373.306	17.5623
373.52	-1.40491
373.735	-22.47729
373.95	21.7775
374.165	36.53143
374.379	2.80986
374.594	55.50246
374.809	-7.72688
375.023	74.47535
375.238	30.20817
375.453	-35.11954
375.667	44.96277
375.882	-30.90556
376.097	13.34719
376.311	57.61047
376.526	-22.47729
376.741	-16.15583
376.955	-7.72688
377.17	-35.11954
377.384	36.53143
377.599	61.82655
377.813	9.13219
378.028	-30.90556
378.242	70.25899
378.457	-18.26301
378.672	-56.18797
378.886	13.34719
379.101	63.93463
379.315	19.66988
379.53	28.10047
379.744	32.3159
379.958	-5.61958
380.173	7.02472
380.387	13.34719
380.602	-3.51226
380.816	13.34719
381.031	19.66988
381.245	-41.44034
381.459	32.3159
381.674	21.7775
381.888	-56.18797
382.103	42.8549
382.317	40.74705
382.531	-1.40491
382.746	9.13219
382.96	28.10047
383.174	28.10047
383.388	36.53143
383.603	38.63923
383.817	55.50246
384.031	7.02472
384.246	32.3159
384.46	-28.79853
384.674	53.39447
384.888	-30.90556
385.103	25.99279
385.317	15.45473
385.531	-18.26301
385.745	-11.94141
385.959	-98.3172
386.174	32.3159
386.388	36.53143
386.602	-14.04863
386.816	51.28651
387.03	61.82655
387.244	15.45473
387.458	-20.37016
387.672	51.28651
387.887	15.45473
388.101	7.02472
388.315	61.82655
388.529	-22.47729
388.743	57.61047
388.957	-54.08124
389.171	11.23968
389.385	2.80986
389.599	38.63923
389.813	-24.5844
390.027	-16.15583
390.241	87.12496
390.455	40.74705
390.669	30.20817
390.883	44.96277
391.097	-35.11954
391.311	-11.94141
391.525	32.3159
391.738	66.04272
391.952	9.13219
392.166	13.34719
392.38	-5.61958
392.594	-39.33343
392.808	11.23968
393.022	53.39447
393.236	-3.51226
393.449	-16.15583
393.663	30.20817
393.877	44.96277
394.091	28.10047
394.305	34.42366
394.518	19.66988
394.732	-5.61958
394.946	-5.61958
395.16	2.80986
395.373	-9.83416
395.587	15.45473
395.801	-20.37016
396.015	2.80986
396.228	-22.47729
396.442	-14.04863
396.656	-9.83416
396.869	-87.78586
397.083	-22.47729
397.297	-16.15583
397.51	19.66988
397.724	13.34719
397.938	32.3159
398.151	4.91728
398.365	36.53143
398.578	44.96277
398.792	-70.93437
399.005	-24.5844
399.219	-47.7609
399.433	70.25899
399.646	-60.40135
399.86	34.42366
400.073	17.5623
400.287	25.99279
400.5	40.74705
400.714	32.3159
400.927	2.80986
401.141	-66.72124
401.354	-5.61958
401.567	-5.61958
401.781	-3.51226
401.994	28.10047
402.208	59.7185
402.421	-9.83416
402.635	28.10047
402.848	0.70246
403.061	4.91728
403.275	-39.33343
403.488	74.47535
403.701	11.23968
403.915	44.96277
404.128	9.13219
404.341	-51.97449
404.555	-56.18797
404.768	-70.93437
404.981	-1.40491
405.195	70.25899
405.408	34.42366
405.621	-5.61958
405.834	36.53143
406.048	28.10047
406.261	4.91728
406.474	-5.61958
406.687	-16.15583
406.9	11.23968
407.114	53.39447
407.327	97.66692
407.54	-37.2265
407.753	72.36716
407.966	-28.79853
408.179	19.66988
408.392	78.6918
408.605	93.45007
408.819	44.96277
409.032	82.90833
409.245	74.47535
409.458	-14.04863
409.671	30.20817
409.884	-9.83416
410.097	-20.37016
410.31	21.7775
410.523	-14.04863
410.736	15.45473
410.949	15.45473
411.162	78.6918
411.375	-24.5844
411.588	-30.90556
411.801	25.99279
412.014	36.53143
412.227	-11.94141
412.44	4.91728
412.653	-28.79853
412.865	13.34719
413.078	49.17857
413.291	-20.37016
413.504	47.07066
413.717	-22.47729
413.93	42.8549
414.143	-1.40491
414.356	53.39447
414.568	-60.40135
414.781	-1.40491
414.994	7.02472
415.207	34.42366
415.42	-89.89218
415.632	36.53143
415.845	11.23968
416.058	11.23968
416.271	-30.90556
416.483	28.10047
416.696	-5.61958
416.909	19.66988
417.121	106.10089
417.334	23.88513
417.547	53.39447
417.759	-14.04863
417.972	40.74705
418.185	-18.26301
418.397	-26.69148
418.61	38.63923
418.823	47.07066
419.035	-51.97449
419.248	-5.61958
419.46	-35.11954
419.673	57.61047
419.885	-104.63569
420.098	-1.40491
420.311	23.88513
420.523	19.66988
420.736	21.7775
420.948	78.6918
421.161	-22.47729
421.373	61.82655
421.586	21.7775
421.798	25.99279
422.01	25.99279
422.223	-18.26301
422.435	-47.7609
422.648	40.74705
422.86	-9.83416
423.073	19.66988
423.285	38.63923
423.497	9.13219
423.71	-1.40491
423.922	30.20817
424.134	53.39447
424.347	-22.47729
424.559	28.10047
424.771	34.42366
424.984	32.3159
425.196	51.28651
425.408	-28.79853
425.621	11.23968
425.833	21.7775
426.045	44.96277
426.257	2.80986
426.47	-54.08124
426.682	23.88513
426.894	103.99236
427.106	-5.61958
427.318	-39.33343
427.531	4.91728
427.743	-3.51226
427.955	32.3159
428.167	17.5623
428.379	-35.11954
428.591	49.17857
428.804	36.53143
429.016	66.04272
429.228	34.42366
429.44	15.45473
429.652	51.28651
429.864	57.61047
430.076	17.5623
430.288	-5.61958
430.5	11.23968
430.712	23.88513
430.924	44.96277
431.136	44.96277
431.348	4.91728
431.56	-39.33343
431.772	-5.61958
431.984	-77.25387
432.196	13.34719
432.408	-1.40491
432.62	-14.04863
432.832	-1.40491
433.044	9.13219
433.256	32.3159
433.468	49.17857
433.679	40.74705
433.891	2.80986
434.103	49.17857
434.315	-3.51226
434.527	15.45473
434.739	63.93463
434.95	-18.26301
435.162	-14.04863
435.374	-73.04089
435.586	40.74705
435.798	0.70246
436.009	-94.10474
436.221	-47.7609
436.433	28.10047
436.645	85.01664
436.856	28.10047
437.068	13.34719
437.28	40.74705
437.491	74.47535
437.703	-30.90556
437.915	23.88513
438.126	-7.72688
438.338	-45.65407
438.55	9.13219
438.761	-41.44034
438.973	44.96277
439.184	44.96277
439.396	44.96277
439.608	-28.79853
439.819	47.07066
440.031	2.80986
440.242	19.66988
440.454	106.10089
440.665	80.80005
440.877	34.42366
441.088	38.63923
441.3	-39.33343
441.511	-3.51226
441.723	28.10047
441.934	7.02472
442.146	9.13219
442.357	-14.04863
442.569	-14.04863
442.78	32.3159
442.991	61.82655
443.203	66.04272
443.414	59.7185
443.626	-37.2265
443.837	40.74705
444.048	28.10047
444.26	-5.61958
444.471	36.53143
444.682	53.39447
444.894	-9.83416
445.105	-58.29468
445.316	-77.25387
445.528	-14.04863
445.739	61.82655
445.95	55.50246
446.161	23.88513
446.373	-20.37016
446.584	13.34719
446.795	-73.04089
447.006	-22.47729
447.217	11.23968
447.429	-28.79853
447.64	-35.11954
447.851	13.34719
448.062	-7.72688
448.273	-47.7609
448.484	34.42366
448.695	-30.90556
448.907	44.96277
449.118	32.3159
449.329	4.91728
449.54	76.58356
449.751	-37.2265
449.962	32.3159
450.173	-24.5844
450.384	2.80986
450.595	-26.69148
450.806	93.45007
451.017	4.91728
451.228	80.80005
451.439	13.34719
451.65	38.63923
451.861	17.5623
452.072	44.96277
452.283	28.10047
452.494	-16.15583
452.705	-1.40491
452.915	44.96277
453.126	80.80005
453.337	-56.18797
453.548	19.66988
453.759	-51.97449
453.97	66.04272
454.181	-39.33343
454.391	-22.47729
454.602	-79.36032
454.813	70.25899
455.024	68.15085
455.235	28.10047
455.445	82.90833
455.656	-75.1474
455.867	21.7775
456.078	25.99279
456.288	38.63923
456.499	38.63923
456.71	30.20817
456.921	36.53143
457.131	30.20817
457.342	-5.61958
457.553	28.10047
457.763	-16.15583
457.974	44.96277
458.184	42.8549
458.395	2.80986
458.606	-26.69148
458.816	-26.69148
459.027	28.10047
459.237	42.8549
459.448	44.96277
459.659	70.25899
459.869	28.10047
460.08	70.25899
460.29	-1.40491
460.501	-45.65407
460.711	-43.54722
460.922	53.39447
461.132	44.96277
461.343	135.62252
461.553	72.36716
461.764	28.10047
461.974	36.53143
462.184	-20.37016
462.395	11.23968
462.605	38.63923
462.816	2.80986
463.026	2.80986
463.236	0.70246
463.447	19.66988
463.657	32.3159
463.867	30.20817
464.078	-54.08124
464.288	72.36716
464.498	-18.26301
464.709	-5.61958
464.919	97.66692
465.129	2.80986
465.339	116.64384
465.55	-49.86771
465.76	11.23968
465.97	-24.5844
466.18	23.88513
466.391	87.12496
466.601	49.17857
466.811	30.20817
467.021	51.28651
467.231	17.5623
467.441	36.53143
467.651	-39.33343
467.862	-1.40491
468.072	70.25899
468.282	-30.90556
468.492	57.61047
468.702	-60.40135
468.912	19.66988
469.122	9.13219
469.332	47.07066
469.542	34.42366
469.752	7.02472
469.962	-39.33343
470.172	-7.72688
470.382	28.10047
470.592	-20.37016
470.802	13.34719
471.012	74.47535
471.222	53.39447
471.432	40.74705
471.642	-11.94141
471.852	-18.26301
472.062	-11.94141
472.272	-1.40491
472.482	95.55848
472.691	32.3159
472.901	44.96277
473.111	-3.51226
473.321	0.70246
473.531	2.80986
473.741	-43.54722
473.95	72.36716
474.16	-5.61958
474.37	-81.46674
474.58	7.02472
474.79	-33.01256
474.999	-43.54722
475.209	38.63923
475.419	19.66988
475.628	7.02472
475.838	95.55848
476.048	-41.44034
476.258	36.53143
476.467	25.99279
476.677	23.88513
476.886	-35.11954
477.096	4.91728
477.306	-43.54722
477.515	38.63923
477.725	7.02472
477.935	19.66988
478.144	-64.61464
478.354	15.45473
478.563	23.88513
478.773	36.53143
478.982	61.82655
479.192	59.7185
479.401	-5.61958
479.611	95.55848
479.82	19.66988
480.03	7.02472
480.239	23.88513
480.449	-37.2265
480.658	66.04272
480.868	11.23968
481.077	21.7775
481.287	72.36716
481.496	11.23968
481.705	40.74705
481.915	-18.26301
482.124	-3.51226
482.333	-3.51226
482.543	-22.47729
482.752	-18.26301
482.961	38.63923
483.171	70.25899
483.38	-9.83416
483.589	-11.94141
483.799	57.61047
484.008	53.39447
484.217	61.82655
484.426	-47.7609
484.636	11.23968
484.845	78.6918
485.054	-3.51226
485.263	11.23968
485.472	28.10047
485.682	11.23968
485.891	19.66988
486.1	25.99279
486.309	-35.11954
486.518	70.25899
486.727	49.17857
486.936	23.88513
487.146	32.3159
487.355	28.10047
487.564	-14.04863
487.773	53.39447
487.982	2.80986
488.191	0.70246
488.4	15.45473
488.609	-5.61958
488.818	28.10047
489.027	-7.72688
489.236	0.70246
489.445	-35.11954
489.654	-20.37016
489.863	72.36716
490.072	47.07066
490.281	4.91728
490.49	-43.54722
490.698	-14.04863
490.907	11.23968
491.116	9.13219
491.325	36.53143
491.534	7.02472
491.743	-3.51226
491.952	21.7775
492.16	-9.83416
492.369	30.20817
492.578	28.10047
492.787	-35.11954
492.996	70.25899
493.204	108.20943
493.413	11.23968
493.622	-85.67951
493.831	116.64384
494.039	-20.37016
494.248	32.3159
494.457	49.17857
494.665	13.34719
494.874	55.50246
495.083	38.63923
495.291	2.80986
495.5	49.17857
495.709	15.45473
495.917	57.61047
496.126	103.99236
496.335	21.7775
496.543	68.15085
496.752	-33.01256
496.96	9.13219
497.169	11.23968
497.377	23.88513
497.586	47.07066
497.794	44.96277
498.003	-28.79853
498.211	-11.94141
498.42	15.45473
498.628	7.02472
498.837	63.93463
499.045	11.23968
499.254	2.80986
499.462	-1.40491
499.671	-3.51226
499.879	-41.44034
500.087	23.88513
500.296	0.70246
500.504	63.93463
500.713	-1.40491
500.921	19.66988
501.129	32.3159
501.338	21.7775
501.546	-30.90556
501.754	44.96277
501.962	-24.5844
502.171	97.66692
502.379	28.10047
502.587	4.91728
502.795	49.17857
503.004	-16.15583
503.212	42.8549
503.42	42.8549
503.628	53.39447
503.837	53.39447
504.045	25.99279
504.253	11.23968
504.461	-1.40491
504.669	15.45473
504.877	9.13219
505.085	-5.61958
505.294	11.23968
505.502	53.39447
505.71	66.04272
505.918	15.45473
506.126	-1.40491
506.334	72.36716
506.542	34.42366
506.75	91.34168
506.958	-1.40491
507.166	2.80986
507.374	55.50246
507.582	-39.33343
507.79	11.23968
507.998	-47.7609
508.206	32.3159
508.414	-5.61958
508.622	-18.26301
508.83	-3.51226
509.037	7.02472
509.245	23.88513
509.453	-5.61958
509.661	47.07066
509.869	82.90833
510.077	-45.65407
510.285	19.66988
510.492	11.23968
510.7	19.66988
510.908	74.47535
511.116	-5.61958
511.324	-30.90556
511.531	47.07066
511.739	40.74705
511.947	78.6918
512.155	-9.83416
512.362	-45.65407
512.57	36.53143
512.778	40.74705
512.985	-28.79853
513.193	40.74705
513.401	32.3159
513.608	106.10089
513.816	2.80986
514.024	32.3159
514.231	15.45473
514.439	21.7775
514.646	87.12496
514.854	44.96277
515.061	4.91728
515.269	89.23331
515.477	53.39447
515.684	44.96277
515.892	2.80986
516.099	-54.08124
516.307	17.5623
516.514	57.61047
516.722	-1.40491
516.929	0.70246
517.136	7.02472
517.344	49.17857
517.551	-24.5844
517.759	38.63923
517.966	-11.94141
518.173	63.93463
518.381	19.66988
518.588	-106.7418
518.796	70.25899
519.003	2.80986
519.21	23.88513
519.418	82.90833
519.625	59.7185
519.832	44.96277
520.039	-22.47729
520.247	103.99236
520.454	47.07066
520.661	11.23968
520.868	53.39447
521.076	-3.51226
521.283	59.7185
521.49	28.10047
521.697	-11.94141
521.904	34.42366
522.112	74.47535
522.319	55.50246
522.526	53.39447
522.733	82.90833
522.94	-14.04863
523.147	36.53143
523.354	11.23968
523.561	-37.2265
523.768	47.07066
523.975	68.15085
524.183	-47.7609
524.39	19.66988
524.597	13.34719
524.804	-7.72688
525.011	47.07066
525.218	-7.72688
525.425	2.80986
525.632	-1.40491
525.838	4.91728
526.045	19.66988
526.252	21.7775
526.459	0.70246
526.666	44.96277
526.873	-1.40491
527.08	19.66988
527.287	68.15085
527.494	59.7185
527.701	25.99279
527.907	0.70246
528.114	36.53143
528.321	7.02472
528.528	-7.72688
528.735	36.53143
528.941	36.53143
529.148	61.82655
529.355	-9.83416
529.562	-54.08124
529.768	-43.54722
529.975	32.3159
530.182	-11.94141
530.388	-22.47729
530.595	7.02472
530.802	-1.40491
531.008	-26.69148
531.215	49.17857
531.422	57.61047
531.628	28.10047
531.835	49.17857
532.042	-20.37016
532.248	-3.51226
532.455	-1.40491
532.661	40.74705
532.868	87.12496
533.074	70.25899
533.281	2.80986
533.487	23.88513
533.694	53.39447
533.9	61.82655
534.107	36.53143
534.313	11.23968
534.52	23.88513
534.726	-81.46674
534.933	-18.26301
535.139	-20.37016
535.345	-9.83416
535.552	-5.61958
535.758	4.91728
535.965	61.82655
536.171	44.96277
536.377	49.17857
536.584	11.23968
536.79	34.42366
536.996	36.53143
537.203	11.23968
537.409	61.82655
537.615	72.36716
537.821	55.50246
538.028	68.15085
538.234	93.45007
538.44	30.20817
538.646	19.66988
538.853	-45.65407
539.059	11.23968
539.265	70.25899
539.471	-3.51226
539.677	-22.47729
539.883	36.53143
540.09	51.28651
540.296	91.34168
540.502	57.61047
540.708	66.04272
540.914	49.17857
541.12	76.58356
541.326	-18.26301
541.532	2.80986
541.738	15.45473
541.944	32.3159
542.15	42.8549
542.356	53.39447
542.562	89.23331
542.768	93.45007
542.974	-14.04863
543.18	7.02472
543.386	74.47535
543.592	53.39447
543.798	99.77538
544.004	93.45007
544.21	-47.7609
544.415	-3.51226
544.621	32.3159
544.827	70.25899
545.033	38.63923
545.239	-30.90556
545.445	40.74705
545.651	0.70246
545.856	15.45473
546.062	-54.08124
546.268	34.42366
546.474	-14.04863
546.679	-16.15583
546.885	28.10047
547.091	-14.04863
547.297	57.61047
547.502	-14.04863
547.708	80.80005
547.914	7.02472
548.119	72.36716
548.325	28.10047
548.531	19.66988
548.736	-26.69148
548.942	9.13219
549.147	15.45473
549.353	-1.40491
549.559	63.93463
549.764	-7.72688
549.97	135.62252
550.175	47.07066
550.381	4.91728
550.586	36.53143
550.792	25.99279
550.997	44.96277
551.203	7.02472
551.408	21.7775
551.614	25.99279
551.819	4.91728
552.025	85.01664
552.23	-30.90556
552.435	-60.40135
552.641	32.3159
552.846	44.96277
553.052	44.96277
553.257	-33.01256
553.462	78.6918
553.668	38.63923
553.873	74.47535
554.078	87.12496
554.283	78.6918
554.489	72.36716
554.694	15.45473
554.899	25.99279
555.105	95.55848
555.31	76.58356
555.515	0.70246
555.72	51.28651
555.925	63.93463
556.131	49.17857
556.336	7.02472
556.541	78.6918
556.746	17.5623
556.951	19.66988
557.156	-20.37016
557.361	-18.26301
557.567	-33.01256
557.772	49.17857
557.977	97.66692
558.182	38.63923
558.387	2.80986
558.592	78.6918
558.797	17.5623
559.002	40.74705
559.207	9.13219
559.412	-14.04863
559.617	74.47535
559.822	47.07066
560.027	23.88513
560.232	101.88386
560.437	47.07066
560.642	36.53143
560.847	106.10089
561.051	42.8549
561.256	53.39447
561.461	74.47535
561.666	28.10047
561.871	89.23331
562.076	112.42659
562.281	34.42366
562.485	19.66988
562.69	44.96277
562.895	44.96277
563.1	-16.15583
563.305	72.36716
563.509	-11.94141
563.714	89.23331
563.919	51.28651
564.123	19.66988
564.328	-35.11954
564.533	-11.94141
564.737	36.53143
564.942	9.13219
565.147	36.53143
565.351	40.74705
565.556	-14.04863
565.761	47.07066
565.965	-1.40491
566.17	30.20817
566.374	30.20817
566.579	-37.2265
566.784	13.34719
566.988	49.17857
567.193	47.07066
567.397	53.39447
567.602	125.07859
567.806	40.74705
568.011	87.12496
568.215	-33.01256
568.42	66.04272
568.624	0.70246
568.828	38.63923
569.033	-35.11954
569.237	139.84024
569.442	38.63923
569.646	44.96277
569.85	53.39447
570.055	55.50246
570.259	44.96277
570.463	61.82655
570.668	78.6918
570.872	13.34719
571.076	74.47535
571.281	-28.79853
571.485	38.63923
571.689	59.7185
571.893	63.93463
572.098	63.93463
572.302	91.34168
572.506	76.58356
572.71	28.10047
572.914	47.07066
573.119	103.99236
573.323	47.07066
573.527	95.55848
573.731	-11.94141
573.935	63.93463
574.139	15.45473
574.343	-22.47729
574.547	11.23968
574.751	82.90833
574.955	11.23968
575.159	-5.61958
575.364	9.13219
575.568	99.77538
575.772	57.61047
575.976	61.82655
576.18	28.10047
576.383	55.50246
576.587	-3.51226
576.791	131.40488
576.995	85.01664
577.199	-11.94141
577.403	9.13219
577.607	-14.04863
577.811	61.82655
578.015	95.55848
578.219	120.86117
578.422	34.42366
578.626	-28.79853
578.83	13.34719
579.034	74.47535
579.238	-5.61958
579.442	51.28651
579.645	91.34168
579.849	78.6918
580.053	106.10089
580.257	13.34719
580.46	82.90833
580.664	17.5623
580.868	68.15085
581.071	17.5623
581.275	13.34719
581.479	70.25899
581.682	53.39447
581.886	-35.11954
582.09	4.91728
582.293	34.42366
582.497	59.7185
582.7	9.13219
582.904	44.96277
583.107	11.23968
583.311	15.45473
583.515	-16.15583
583.718	-3.51226
583.922	34.42366
584.125	-14.04863
584.329	133.51369
584.532	36.53143
584.735	91.34168
584.939	-33.01256
585.142	23.88513
585.346	57.61047
585.549	70.25899
585.753	55.50246
585.956	13.34719
586.159	82.90833
586.363	4.91728
586.566	15.45473
586.769	125.07859
586.973	2.80986
587.176	25.99279
587.379	61.82655
587.582	28.10047
587.786	44.96277
587.989	38.63923
588.192	-1.40491
588.395	72.36716
588.599	49.17857
588.802	49.17857
589.005	47.07066
589.208	32.3159
589.411	74.47535
589.615	74.47535
589.818	129.2961
590.021	70.25899
590.224	55.50246
590.427	17.5623
590.63	9.13219
590.833	70.25899
591.036	80.80005
591.239	-5.61958
591.442	49.17857
591.645	87.12496
591.848	36.53143
592.051	59.7185
592.254	72.36716
592.457	7.02472
592.66	114.5352
592.863	21.7775
593.066	53.39447
593.269	70.25899
593.472	28.10047
593.675	91.34168
593.878	55.50246
594.081	25.99279
594.284	38.63923
594.486	11.23968
594.689	51.28651
594.892	32.3159
595.095	74.47535
595.298	70.25899
595.5	72.36716
595.703	95.55848
595.906	116.64384
596.109	49.17857
596.311	36.53143
596.514	127.18734
596.717	106.10089
596.92	-5.61958
597.122	19.66988
597.325	4.91728
597.528	15.45473
597.73	44.96277
597.933	93.45007
598.136	44.96277
598.338	95.55848
598.541	112.42659
598.743	36.53143
598.946	137.73137
599.148	78.6918
599.351	120.86117
599.554	97.66692
599.756	17.5623
599.959	40.74705
600.161	28.10047
600.363	59.7185
600.566	-9.83416
600.768	91.34168
600.971	44.96277
601.173	131.40488
601.376	53.39447
601.578	72.36716
601.78	44.96277
601.983	68.15085
602.185	4.91728
602.388	122.96987
602.59	103.99236
602.792	93.45007
602.995	66.04272
603.197	44.96277
603.399	87.12496
603.601	120.86117
603.804	47.07066
604.006	13.34719
604.208	61.82655
604.41	44.96277
604.613	78.6918
604.815	57.61047
605.017	85.01664
605.219	19.66988
605.421	125.07859
605.623	99.77538
605.826	78.6918
606.028	82.90833
606.23	34.42366
606.432	47.07066
606.634	36.53143
606.836	32.3159
607.038	36.53143
607.24	30.20817
607.442	61.82655
607.644	89.23331
607.846	144.05805
608.048	70.25899
608.25	17.5623
608.452	15.45473
608.654	51.28651
608.856	55.50246
609.058	146.16698
609.26	36.53143
609.462	63.93463
609.664	55.50246
609.866	38.63923
610.067	72.36716
610.269	150.38492
610.471	120.86117
610.673	99.77538
610.875	152.49392
611.077	55.50246
611.278	74.47535
611.48	53.39447
611.682	61.82655
611.884	30.20817
612.085	70.25899
612.287	55.50246
612.489	44.96277
612.69	87.12496
612.892	66.04272
613.094	152.49392
613.295	158.82104
613.497	78.6918
613.699	70.25899
613.9	34.42366
614.102	95.55848
614.304	66.04272
614.505	80.80005
614.707	87.12496
614.908	97.66692
615.11	13.34719
615.311	70.25899
615.513	120.86117
615.714	47.07066
615.916	112.42659
616.117	63.93463
616.319	103.99236
616.52	103.99236
616.722	95.55848
616.923	61.82655
617.124	47.07066
617.326	36.53143
617.527	114.5352
617.729	68.15085
617.93	97.66692
618.131	129.2961
618.333	95.55848
618.534	106.10089
618.735	188.35008
618.937	47.07066
619.138	15.45473
619.339	13.34719
619.54	141.94913
619.742	36.53143
619.943	21.7775
620.144	55.50246
620.345	103.99236
620.546	-22.47729
620.748	154.60294
620.949	78.6918
621.15	57.61047
621.351	95.55848
621.552	116.64384
621.753	146.16698
621.954	169.36666
622.155	9.13219
622.356	-3.51226
622.558	38.63923
622.759	116.64384
622.96	25.99279
623.161	87.12496
623.362	55.50246
623.563	55.50246
623.764	141.94913
623.965	78.6918
624.166	95.55848
624.366	80.80005
624.567	95.55848
624.768	99.77538
624.969	74.47535
625.17	89.23331
625.371	93.45007
625.572	116.64384
625.773	66.04272
625.973	78.6918
626.174	87.12496
626.375	74.47535
626.576	103.99236
626.777	40.74705
626.977	103.99236
627.178	66.04272
627.379	36.53143
627.58	150.38492
627.78	99.77538
627.981	78.6918
628.182	103.99236
628.382	78.6918
628.583	66.04272
628.784	70.25899
628.984	120.86117
629.185	120.86117
629.386	95.55848
629.586	129.2961
629.787	61.82655
629.987	184.1314
630.188	72.36716
630.388	190.45945
630.589	49.17857
630.79	44.96277
630.99	144.05805
631.191	165.14835
631.391	59.7185
631.591	141.94913
631.792	95.55848
631.992	70.25899
632.193	133.51369
632.393	87.12496
632.594	122.96987
632.794	95.55848
632.994	70.25899
633.195	154.60294
633.395	47.07066
633.595	87.12496
633.796	129.2961
633.996	171.47585
634.196	175.69428
634.397	146.16698
634.597	139.84024
634.797	120.86117
634.997	53.39447
635.198	99.77538
635.398	53.39447
635.598	154.60294
635.798	72.36716
635.998	114.5352
636.199	108.20943
636.399	114.5352
636.599	137.73137
636.799	125.07859
636.999	42.8549
637.199	85.01664
637.399	144.05805
637.599	78.6918
637.799	87.12496
637.999	163.03922
638.199	129.2961
638.399	125.07859
638.599	133.51369
638.799	91.34168
638.999	108.20943
639.199	158.82104
639.399	63.93463
639.599	108.20943
639.799	175.69428
639.999	91.34168
640.199	194.67826
640.399	173.58505
640.599	93.45007
640.799	152.49392
640.998	85.01664
641.198	127.18734
641.398	198.89714
641.598	68.15085
641.798	122.96987
641.997	87.12496
642.197	158.82104
642.397	207.33515
642.597	108.20943
642.796	171.47585
642.996	120.86117
643.196	160.93012
643.395	78.6918
643.595	154.60294
643.795	99.77538
643.994	82.90833
644.194	129.2961
644.394	133.51369
644.593	74.47535
644.793	131.40488
644.992	154.60294
645.192	135.62252
645.392	141.94913
645.591	95.55848
645.791	213.66387
645.99	137.73137
646.19	95.55848
646.389	190.45945
646.589	186.24073
646.788	179.9128
646.987	150.38492
647.187	156.71198
647.386	110.318
647.586	97.66692
647.785	74.47535
647.984	146.16698
648.184	103.99236
648.383	175.69428
648.582	232.6511
648.782	135.62252
648.981	72.36716
649.18	125.07859
649.38	125.07859
649.579	167.25749
649.778	59.7185
649.977	154.60294
650.177	182.02209
650.376	131.40488
650.575	95.55848
650.774	154.60294
650.973	127.18734
651.173	184.1314
651.372	146.16698
651.571	133.51369
651.77	150.38492
651.969	125.07859
652.168	141.94913
652.367	112.42659
652.566	120.86117
652.765	131.40488
652.964	106.10089
653.163	156.71198
653.362	201.00661
653.561	179.9128
653.76	152.49392
653.959	120.86117
654.158	171.47585
654.357	144.05805
654.556	222.10244
654.755	217.88312
654.954	146.16698
655.153	146.16698
655.352	188.35008
655.551	201.00661
655.749	165.14835
655.948	171.47585
656.147	125.07859
656.346	177.80353
656.545	148.27594
656.743	165.14835
656.942	139.84024
657.141	163.03922
657.34	139.84024
657.538	222.10244
657.737	125.07859
657.936	152.49392
658.135	194.67826
658.333	173.58505
658.532	175.69428
658.731	154.60294
658.929	110.318
659.128	211.55428
659.326	108.20943
659.525	177.80353
659.724	182.02209
659.922	304.39463
660.121	120.86117
660.319	133.51369
660.518	133.51369
660.716	116.64384
660.915	150.38492
661.113	154.60294
661.312	217.88312
661.51	211.55428
661.709	177.80353
661.907	165.14835
662.105	196.78769
662.304	179.9128
662.502	158.82104
662.701	234.76089
662.899	125.07859
663.097	186.24073
663.296	148.27594
663.494	331.83161
663.692	253.74986
663.891	196.78769
664.089	152.49392
664.287	125.07859
664.485	122.96987
664.684	146.16698
664.882	165.14835
665.08	232.6511
665.278	177.80353
665.476	179.9128
665.675	226.32184
665.873	281.18111
666.071	154.60294
666.269	219.99277
666.467	205.22562
666.665	188.35008
666.863	211.55428
667.061	217.88312
667.259	186.24073
667.457	188.35008
667.655	156.71198
667.853	245.31013
668.051	118.75249
668.249	97.66692
668.447	190.45945
668.645	198.89714
668.843	222.10244
669.041	148.27594
669.239	122.96987
669.437	173.58505
669.635	213.66387
669.833	217.88312
670.031	188.35008
670.229	251.6399
670.426	154.60294
670.624	184.1314
670.822	226.32184
671.02	211.55428
671.218	232.6511
671.415	201.00661
671.613	222.10244
671.811	201.00661
672.009	175.69428
672.206	167.25749
672.404	196.78769
672.602	249.52996
672.799	129.2961
672.997	247.42003
673.195	217.88312
673.392	238.98052
673.59	196.78769
673.788	241.09037
673.985	135.62252
674.183	230.54133
674.38	198.89714
674.578	243.20024
674.775	224.21213
674.973	236.87069
675.17	238.98052
675.368	217.88312
675.565	190.45945
675.763	133.51369
675.96	179.9128
676.158	207.33515
676.355	47.07066
676.553	304.39463
676.75	167.25749
676.947	272.74039
677.145	122.96987
677.342	192.56884
677.539	171.47585
677.737	131.40488
677.934	264.29997
678.131	137.73137
678.329	232.6511
678.526	230.54133
678.723	243.20024
678.92	264.29997
679.118	190.45945
679.315	188.35008
679.512	234.76089
679.709	184.1314
679.906	205.22562
680.104	274.85054
680.301	129.2961
680.498	203.11611
680.695	108.20943
680.892	234.76089
681.089	192.56884
681.286	222.10244
681.483	249.52996
681.68	209.44471
681.877	165.14835
682.075	196.78769
682.272	230.54133
682.469	268.52014
682.665	148.27594
682.862	184.1314
683.059	188.35008
683.256	215.77348
683.453	194.67826
683.65	175.69428
683.847	260.07987
684.044	150.38492
684.241	213.66387
684.438	198.89714
684.635	222.10244
684.831	167.25749
685.028	272.74039
685.225	279.07091
685.422	139.84024
685.619	249.52996
685.815	186.24073
686.012	232.6511
686.209	247.42003
686.405	308.61551
686.602	314.94696
686.799	196.78769
686.996	224.21213
687.192	264.29997
687.389	243.20024
687.586	228.43158
687.782	182.02209
687.979	209.44471
688.175	150.38492
688.372	262.18991
688.568	192.56884
688.765	201.00661
688.962	257.96985
689.158	222.10244
689.355	224.21213
689.551	243.20024
689.748	165.14835
689.944	317.05747
690.14	222.10244
690.337	283.29134
690.533	224.21213
690.73	230.54133
690.926	247.42003
691.123	234.76089
691.319	276.96072
691.515	276.96072
691.712	224.21213
691.908	283.29134
692.104	150.38492
692.301	241.09037
692.497	169.36666
692.693	217.88312
692.889	171.47585
693.086	255.85985
693.282	226.32184
693.478	203.11611
693.674	188.35008
693.87	264.29997
694.067	228.43158
694.263	234.76089
694.459	165.14835
694.655	179.9128
694.851	217.88312
695.047	165.14835
695.243	243.20024
695.439	272.74039
695.635	234.76089
695.831	230.54133
696.027	146.16698
696.224	230.54133
696.42	192.56884
696.615	268.52014
696.811	211.55428
697.007	222.10244
697.203	243.20024
697.399	317.05747
697.595	224.21213
697.791	177.80353
697.987	154.60294
698.183	230.54133
698.379	213.66387
698.575	245.31013
698.77	205.22562
698.966	207.33515
699.162	198.89714
699.358	179.9128
699.554	175.69428
699.749	234.76089
699.945	139.84024
700.141	211.55428
700.337	247.42003
700.532	342.38509
700.728	255.85985
700.924	148.27594
701.119	205.22562
701.315	264.29997
701.511	209.44471
701.706	213.66387
701.902	215.77348
702.097	217.88312
702.293	247.42003
702.489	264.29997
702.684	327.61034
702.88	270.63026
703.075	196.78769
703.271	224.21213
703.466	196.78769
703.662	262.18991
703.857	255.85985
704.053	281.18111
704.248	215.77348
704.443	247.42003
704.639	196.78769
704.834	205.22562
705.03	234.76089
705.225	289.62213
705.42	222.10244
705.616	196.78769
705.811	209.44471
706.006	264.29997
706.202	257.96985
706.397	205.22562
706.592	222.10244
706.787	274.85054
706.983	226.32184
707.178	306.50506
707.373	217.88312
707.568	264.29997
707.763	203.11611
707.959	222.10244
708.154	238.98052
708.349	357.1607
708.544	333.94227
708.739	247.42003
708.934	228.43158
709.129	179.9128
709.324	272.74039
709.519	274.85054
709.714	260.07987
709.909	291.73244
710.104	266.41005
710.299	274.85054
710.494	241.09037
710.689	257.96985
710.884	226.32184
711.079	154.60294
711.274	249.52996
711.469	234.76089
711.664	203.11611
711.859	266.41005
712.054	230.54133
712.249	224.21213
712.443	209.44471
712.638	211.55428
712.833	274.85054
713.028	276.96072
713.223	194.67826
713.417	348.71739
713.612	196.78769
713.807	346.60661
714.002	188.35008
714.196	163.03922
714.391	241.09037
714.586	274.85054
714.78	260.07987
714.975	281.18111
715.17	222.10244
715.364	234.76089
715.559	232.6511
715.754	251.6399
715.948	201.00661
716.143	226.32184
716.337	260.07987
716.532	249.52996
716.726	190.45945
716.921	238.98052
717.115	201.00661
717.31	283.29134
717.504	342.38509
717.699	287.51185
717.893	226.32184
718.088	230.54133
718.282	213.66387
718.476	222.10244
718.671	154.60294
718.865	217.88312
719.059	266.41005
719.254	226.32184
719.448	251.6399
719.642	270.63026
719.837	198.89714
720.031	279.07091
720.225	226.32184
720.419	245.31013
720.614	217.88312
720.808	255.85985
721.002	196.78769
721.196	331.83161
721.39	249.52996
721.585	234.76089
721.779	243.20024
721.973	264.29997
722.167	234.76089
722.361	317.05747
722.555	260.07987
722.749	260.07987
722.943	209.44471
723.137	249.52996
723.331	188.35008
723.525	333.94227
723.719	257.96985
723.913	266.41005
724.107	188.35008
724.301	274.85054
724.495	274.85054
724.689	295.95309
724.883	260.07987
725.077	302.28422
725.271	241.09037
725.465	228.43158
725.659	205.22562
725.853	255.85985
726.046	207.33515
726.24	257.96985
726.434	234.76089
726.628	255.85985
726.822	266.41005
727.015	291.73244
727.209	203.11611
727.403	219.99277
727.596	306.50506
727.79	266.41005
727.984	291.73244
728.177	222.10244
728.371	215.77348
728.565	272.74039
728.758	207.33515
728.952	257.96985
729.146	217.88312
729.339	274.85054
729.533	281.18111
729.726	241.09037
729.92	196.78769
730.113	279.07091
730.307	241.09037
730.5	245.31013
730.694	253.74986
730.887	222.10244
731.081	226.32184
731.274	276.96072
731.468	281.18111
731.661	274.85054
731.854	201.00661
732.048	317.05747
732.241	213.66387
732.435	317.05747
732.628	251.6399
732.821	165.14835
733.014	293.84276
733.208	238.98052
733.401	207.33515
733.594	310.72597
733.788	336.05295
733.981	306.50506
734.174	308.61551
734.367	340.27436
734.56	312.83645
734.754	344.49584
734.947	374.04814
735.14	232.6511
735.333	289.62213
735.526	327.61034
735.719	251.6399
735.912	226.32184
736.105	251.6399
736.298	247.42003
736.491	247.42003
736.684	230.54133
736.877	319.16801
737.07	329.72097
737.263	257.96985
737.456	302.28422
737.649	289.62213
737.842	241.09037
738.035	308.61551
738.228	291.73244
738.421	253.74986
738.614	264.29997
738.807	323.38914
739	186.24073
739.192	241.09037
739.385	314.94696
739.578	171.47585
739.771	281.18111
739.964	255.85985
740.156	340.27436
740.349	238.98052
740.542	207.33515
740.735	314.94696
740.927	251.6399
741.12	205.22562
741.313	238.98052
741.505	198.89714
741.698	224.21213
741.891	207.33515
742.083	230.54133
742.276	308.61551
742.468	289.62213
742.661	266.41005
742.854	289.62213
743.046	209.44471
743.239	359.27157
743.431	234.76089
743.624	281.18111
743.816	338.16365
744.009	323.38914
744.201	283.29134
744.393	289.62213
744.586	203.11611
744.778	247.42003
744.971	306.50506
745.163	247.42003
745.355	314.94696
745.548	243.20024
745.74	289.62213
745.932	205.22562
746.125	198.89714
746.317	279.07091
746.509	331.83161
746.702	293.84276
746.894	230.54133
747.086	329.72097
747.278	314.94696
747.471	302.28422
747.663	255.85985
747.855	289.62213
748.047	232.6511
748.239	247.42003
748.431	279.07091
748.623	323.38914
748.815	253.74986
749.008	291.73244
749.2	338.16365
749.392	317.05747
749.584	215.77348
749.776	245.31013
749.968	302.28422
750.16	327.61034
750.352	255.85985
750.544	310.72597
750.736	329.72097
750.928	283.29134
751.12	323.38914
751.311	247.42003
751.503	226.32184
751.695	333.94227
751.887	249.52996
752.079	329.72097
752.271	247.42003
752.463	302.28422
752.654	230.54133
752.846	281.18111
753.038	276.96072
753.23	272.74039
753.421	228.43158
753.613	251.6399
753.805	266.41005
753.997	319.16801
754.188	238.98052
754.38	266.41005
754.572	308.61551
754.763	308.61551
754.955	217.88312
755.146	281.18111
755.338	346.60661
755.53	249.52996
755.721	327.61034
755.913	272.74039
756.104	310.72597
756.296	279.07091
756.487	224.21213
756.679	293.84276
756.87	365.60428
757.062	213.66387
757.253	253.74986
757.445	302.28422
757.636	348.71739
757.827	257.96985
758.019	251.6399
758.21	285.40159
758.401	234.76089
758.593	175.69428
758.784	295.95309
758.975	243.20024
759.167	230.54133
759.358	361.38246
759.549	215.77348
759.74	338.16365
759.932	344.49584
760.123	213.66387
760.314	247.42003
760.505	293.84276
760.696	270.63026
760.888	232.6511
761.079	213.66387
761.27	262.18991
761.461	175.69428
761.652	194.67826
761.843	243.20024
762.034	310.72597
762.225	264.29997
762.416	226.32184
762.607	222.10244
762.798	357.1607
762.989	173.58505
763.18	190.45945
763.371	243.20024
763.562	213.66387
763.753	281.18111
763.944	293.84276
764.135	276.96072
764.326	222.10244
764.517	234.76089
764.708	238.98052
764.899	253.74986
765.089	201.00661
765.28	272.74039
765.471	283.29134
765.662	272.74039
765.853	268.52014
766.043	167.25749
766.234	306.50506
766.425	238.98052
766.615	230.54133
766.806	249.52996
766.997	255.85985
767.187	177.80353
767.378	192.56884
767.569	215.77348
767.759	257.96985
767.95	196.78769
768.141	232.6511
768.331	165.14835
768.522	266.41005
768.712	298.06345
768.903	276.96072
769.093	251.6399
769.284	276.96072
769.474	266.41005
769.665	260.07987
769.855	224.21213
770.046	253.74986
770.236	152.49392
770.426	211.55428
770.617	222.10244
770.807	182.02209
770.998	249.52996
771.188	291.73244
771.378	251.6399
771.569	222.10244
771.759	272.74039
771.949	171.47585
772.139	243.20024
772.33	236.87069
772.52	148.27594
772.71	194.67826
772.9	203.11611
773.09	182.02209
773.281	238.98052
773.471	295.95309
773.661	304.39463
773.851	291.73244
774.041	156.71198
774.231	213.66387
774.421	236.87069
774.611	165.14835
774.802	236.87069
774.992	207.33515
775.182	207.33515
775.372	190.45945
775.562	205.22562
775.752	154.60294
775.942	171.47585
776.131	179.9128
776.321	175.69428
776.511	165.14835
776.701	194.67826
776.891	264.29997
777.081	238.98052
777.271	329.72097
777.461	194.67826
777.651	188.35008
777.84	203.11611
778.03	207.33515
778.22	171.47585
778.41	207.33515
778.599	171.47585
778.789	281.18111
778.979	207.33515
779.169	268.52014
779.358	205.22562
779.548	207.33515
779.738	175.69428
779.927	213.66387
780.117	146.16698
780.307	156.71198
780.496	103.99236
780.686	230.54133
780.875	125.07859
781.065	188.35008
781.254	196.78769
781.444	215.77348
781.633	163.03922
781.823	234.76089
782.012	192.56884
782.202	215.77348
782.391	184.1314
782.581	156.71198
782.77	219.99277
782.96	154.60294
783.149	173.58505
783.338	163.03922
783.528	228.43158
783.717	281.18111
783.906	215.77348
784.096	141.94913
784.285	163.03922
784.474	205.22562
784.663	160.93012
784.853	226.32184
785.042	103.99236
785.231	171.47585
785.42	198.89714
785.61	207.33515
785.799	154.60294
785.988	196.78769
786.177	137.73137
786.366	146.16698
786.555	211.55428
786.744	120.86117
786.933	87.12496
787.122	241.09037
787.312	188.35008
787.501	137.73137
787.69	232.6511
787.879	171.47585
788.068	224.21213
788.257	190.45945
788.445	184.1314
788.634	196.78769
788.823	207.33515
789.012	201.00661
789.201	201.00661
789.39	226.32184
789.579	188.35008
789.768	154.60294
789.957	219.99277
790.145	167.25749
790.334	150.38492
790.523	192.56884
790.712	228.43158
790.9	175.69428
791.089	165.14835
791.278	188.35008
791.467	144.05805
791.655	154.60294
791.844	154.60294
792.033	160.93012
792.221	184.1314
792.41	122.96987
792.599	173.58505
792.787	190.45945
792.976	108.20943
793.164	173.58505
793.353	188.35008
793.541	171.47585
793.73	108.20943
793.918	169.36666
794.107	165.14835
794.295	217.88312
794.484	141.94913
794.672	196.78769
794.861	133.51369
795.049	188.35008
795.238	139.84024
795.426	167.25749
795.614	188.35008
795.803	192.56884
795.991	243.20024
796.179	97.66692
796.368	91.34168
796.556	129.2961
796.744	156.71198
796.932	131.40488
797.121	247.42003
797.309	211.55428
797.497	148.27594
797.685	156.71198
797.874	125.07859
798.062	211.55428
798.25	133.51369
798.438	211.55428
798.626	82.90833
798.814	125.07859
799.002	78.6918
799.19	179.9128
799.378	243.20024
799.566	158.82104
799.755	74.47535
799.943	190.45945
800.131	175.69428
800.318	135.62252
800.506	196.78769
800.694	154.60294
800.882	182.02209
801.07	127.18734
801.258	213.66387
801.446	171.47585
801.634	196.78769
801.822	156.71198
802.01	179.9128
802.197	154.60294
802.385	114.5352
802.573	156.71198
802.761	163.03922
802.949	163.03922
803.136	160.93012
803.324	196.78769
803.512	139.84024
803.699	217.88312
803.887	131.40488
804.075	150.38492
804.262	165.14835
804.45	167.25749
804.638	165.14835
804.825	201.00661
805.013	173.58505
805.201	230.54133
805.388	156.71198
805.576	137.73137
805.763	116.64384
805.951	196.78769
806.138	103.99236
806.326	201.00661
806.513	97.66692
806.701	146.16698
806.888	139.84024
807.075	129.2961
807.263	120.86117
807.45	169.36666
807.638	226.32184
807.825	234.76089
808.012	72.36716
808.2	82.90833
808.387	137.73137
808.574	139.84024
808.761	144.05805
808.949	224.21213
809.136	192.56884
809.323	146.16698
809.51	272.74039
809.698	222.10244
809.885	163.03922
810.072	215.77348
810.259	177.80353
810.446	137.73137
810.633	182.02209
810.82	194.67826
811.008	205.22562
811.195	226.32184
811.382	112.42659
811.569	186.24073
811.756	131.40488
811.943	205.22562
812.13	171.47585
812.317	184.1314
812.504	209.44471
812.691	163.03922
812.878	226.32184
813.064	137.73137
813.251	198.89714
813.438	203.11611
813.625	158.82104
813.812	167.25749
813.999	184.1314
814.186	255.85985
814.372	186.24073
814.559	293.84276
814.746	141.94913
814.933	207.33515
815.12	232.6511
815.306	129.2961
815.493	236.87069
815.68	148.27594
815.866	171.47585
816.053	241.09037
816.24	125.07859
816.426	169.36666
816.613	217.88312
816.799	201.00661
816.986	188.35008
817.173	243.20024
817.359	163.03922
817.546	209.44471
817.732	127.18734
817.919	190.45945
818.105	175.69428
818.292	146.16698
818.478	215.77348
818.665	190.45945
818.851	110.318
819.037	167.25749
819.224	150.38492
819.41	150.38492
819.597	184.1314
819.783	196.78769
819.969	222.10244
820.156	238.98052
820.342	165.14835
820.528	163.03922
820.714	201.00661
820.901	175.69428
821.087	205.22562
821.273	188.35008
821.459	139.84024
821.646	207.33515
821.832	158.82104
822.018	226.32184
822.204	177.80353
822.39	217.88312
822.576	243.20024
822.762	103.99236
822.948	188.35008
823.134	89.23331
823.32	205.22562
823.507	141.94913
823.693	167.25749
823.879	133.51369
824.065	224.21213
824.25	175.69428
824.436	120.86117
824.622	234.76089
824.808	215.77348
824.994	156.71198
825.18	146.16698
825.366	82.90833
825.552	207.33515
825.738	186.24073
825.923	129.2961
826.109	215.77348
826.295	129.2961
826.481	125.07859
826.667	163.03922
826.852	196.78769
827.038	118.75249
827.224	112.42659
827.409	188.35008
827.595	171.47585
827.781	163.03922
827.966	186.24073
828.152	146.16698
828.338	158.82104
828.523	148.27594
828.709	192.56884
828.894	148.27594
829.08	230.54133
829.266	158.82104
829.451	179.9128
829.637	97.66692
829.822	211.55428
830.008	160.93012
830.193	125.07859
830.378	95.55848
830.564	152.49392
830.749	133.51369
830.935	99.77538
831.12	209.44471
831.305	196.78769
831.491	146.16698
831.676	173.58505
831.861	103.99236
832.047	173.58505
832.232	167.25749
832.417	137.73137
832.602	190.45945
832.788	167.25749
832.973	125.07859
833.158	169.36666
833.343	201.00661
833.528	175.69428
833.714	188.35008
833.899	99.77538
834.084	207.33515
834.269	171.47585
834.454	184.1314
834.639	49.17857
834.824	122.96987
835.009	114.5352
835.194	182.02209
835.379	171.47585
835.564	146.16698
835.749	40.74705
835.934	167.25749
836.119	139.84024
836.304	167.25749
836.489	171.47585
836.674	89.23331
836.859	205.22562
837.044	112.42659
837.228	125.07859
837.413	179.9128
837.598	198.89714
837.783	158.82104
837.968	125.07859
838.152	129.2961
838.337	116.64384
838.522	95.55848
838.707	163.03922
838.891	108.20943
839.076	156.71198
839.261	226.32184
839.445	125.07859
839.63	188.35008
839.815	120.86117
839.999	57.61047
840.184	158.82104
840.368	137.73137
840.553	182.02209
840.737	131.40488
840.922	93.45007
841.106	101.88386
841.291	122.96987
841.475	167.25749
841.66	97.66692
841.844	122.96987
842.029	182.02209
842.213	135.62252
842.397	112.42659
842.582	129.2961
842.766	203.11611
842.951	173.58505
843.135	120.86117
843.319	198.89714
843.504	116.64384
843.688	192.56884
843.872	156.71198
844.056	112.42659
844.241	95.55848
844.425	85.01664
844.609	198.89714
844.793	78.6918
844.977	190.45945
845.161	110.318
845.346	150.38492
845.53	152.49392
845.714	150.38492
845.898	167.25749
846.082	205.22562
846.266	163.03922
846.45	108.20943
846.634	70.25899
846.818	177.80353
847.002	114.5352
847.186	53.39447
847.37	103.99236
847.554	108.20943
847.738	116.64384
847.922	120.86117
848.106	63.93463
848.29	133.51369
848.473	120.86117
848.657	95.55848
848.841	156.71198
849.025	103.99236
849.209	177.80353
849.392	91.34168
849.576	103.99236
849.76	87.12496
849.944	-22.47729
850.127	19.66988
850.311	154.60294
850.495	192.56884
850.678	154.60294
850.862	120.86117
851.046	108.20943
851.229	61.82655
851.413	163.03922
851.596	53.39447
851.78	112.42659
851.964	101.88386
852.147	63.93463
852.331	131.40488
852.514	192.56884
852.698	85.01664
852.881	70.25899
853.065	106.10089
853.248	57.61047
853.431	120.86117
853.615	137.73137
853.798	72.36716
853.982	93.45007
854.165	97.66692
854.348	135.62252
854.532	70.25899
854.715	44.96277
854.898	188.35008
855.081	146.16698
855.265	97.66692
855.448	129.2961
855.631	87.12496
855.814	139.84024
855.997	154.60294
856.181	28.10047
856.364	87.12496
856.547	44.96277
856.73	116.64384
856.913	118.75249
857.096	91.34168
857.279	59.7185
857.462	122.96987
857.645	150.38492
857.828	112.42659
858.011	118.75249
858.194	158.82104
858.377	131.40488
858.56	63.93463
858.743	114.5352
858.926	40.74705
859.109	108.20943
859.292	110.318
859.475	103.99236
859.658	99.77538
859.841	53.39447
860.023	72.36716
860.206	103.99236
860.389	99.77538
860.572	95.55848
860.755	25.99279
860.937	36.53143
861.12	114.5352
861.303	80.80005
861.486	40.74705
861.668	129.2961
861.851	154.60294
862.034	112.42659
862.216	141.94913
862.399	53.39447
862.581	120.86117
862.764	108.20943
862.947	42.8549
863.129	36.53143
863.312	116.64384
863.494	28.10047
863.677	118.75249
863.859	55.50246
864.042	108.20943
864.224	72.36716
864.406	44.96277
864.589	114.5352
864.771	129.2961
864.954	148.27594
865.136	108.20943
865.318	47.07066
865.501	21.7775
865.683	61.82655
865.865	-20.37016
866.048	106.10089
866.23	152.49392
866.412	116.64384
866.594	91.34168
866.777	118.75249
866.959	4.91728
867.141	53.39447
867.323	55.50246
867.505	78.6918
867.687	49.17857
867.869	89.23331
868.052	53.39447
868.234	133.51369
868.416	82.90833
868.598	97.66692
868.78	34.42366
868.962	21.7775
869.144	44.96277
869.326	47.07066
869.508	21.7775
869.69	76.58356
869.872	15.45473
870.054	74.47535
870.236	55.50246
870.417	141.94913
870.599	61.82655
870.781	103.99236
870.963	87.12496
871.145	122.96987
871.327	76.58356
871.508	66.04272
871.69	91.34168
871.872	42.8549
872.054	112.42659
872.235	82.90833
872.417	127.18734
872.599	80.80005
872.78	21.7775
872.962	110.318
873.144	82.90833
873.325	74.47535
873.507	137.73137
873.689	38.63923
873.87	91.34168
874.052	99.77538
874.233	99.77538
874.415	66.04272
874.596	63.93463
874.778	87.12496
874.959	146.16698
875.141	80.80005
875.322	19.66988
875.503	125.07859
875.685	42.8549
875.866	99.77538
876.048	82.90833
876.229	129.2961
876.41	129.2961
876.592	32.3159
876.773	72.36716
876.954	93.45007
877.136	120.86117
877.317	103.99236
877.498	120.86117
877.679	59.7185
877.86	78.6918
878.042	76.58356
878.223	95.55848
878.404	28.10047
878.585	28.10047
878.766	80.80005
878.947	97.66692
879.128	55.50246
879.309	47.07066
879.49	70.25899
879.672	116.64384
879.853	61.82655
880.034	95.55848
880.215	122.96987
880.396	51.28651
880.576	87.12496
880.757	103.99236
880.938	30.20817
881.119	70.25899
881.3	70.25899
881.481	160.93012
881.662	76.58356
881.843	57.61047
882.023	-39.33343
882.204	89.23331
882.385	74.47535
882.566	19.66988
882.747	141.94913
882.927	108.20943
883.108	120.86117
883.289	95.55848
883.469	108.20943
883.65	114.5352
883.831	57.61047
884.011	103.99236
884.192	156.71198
884.373	106.10089
884.553	2.80986
884.734	103.99236
884.914	133.51369
885.095	70.25899
885.275	120.86117
885.456	114.5352
885.636	131.40488
885.817	61.82655
885.997	97.66692
886.178	99.77538
886.358	114.5352
886.538	116.64384
886.719	108.20943
886.899	23.88513
887.08	95.55848
887.26	137.73137
887.44	103.99236
887.621	93.45007
887.801	95.55848
887.981	103.99236
888.161	53.39447
888.342	66.04272
888.522	87.12496
888.702	112.42659
888.882	0.70246
889.062	49.17857
889.242	72.36716
889.423	36.53143
889.603	112.42659
889.783	95.55848
889.963	-20.37016
890.143	53.39447
890.323	53.39447
890.503	108.20943
890.683	66.04272
890.863	97.66692
891.043	80.80005
891.223	99.77538
891.403	150.38492
891.583	106.10089
891.763	13.34719
891.943	40.74705
892.122	89.23331
892.302	108.20943
892.482	72.36716
892.662	74.47535
892.842	72.36716
893.022	112.42659
893.201	129.2961
893.381	66.04272
893.561	34.42366
893.741	78.6918
893.92	129.2961
894.1	57.61047
894.28	114.5352
894.459	154.60294
894.639	103.99236
894.819	28.10047
894.998	118.75249
895.178	66.04272
895.357	78.6918
895.537	70.25899
895.716	28.10047
895.896	186.24073
896.075	47.07066
896.255	49.17857
896.434	87.12496
896.614	66.04272
896.793	76.58356
896.973	32.3159
897.152	103.99236
897.331	66.04272
897.511	131.40488
897.69	89.23331
897.87	53.39447
898.049	82.90833
898.228	34.42366
898.407	78.6918
898.587	57.61047
898.766	91.34168
898.945	44.96277
899.124	70.25899
899.304	57.61047
899.483	116.64384
899.662	129.2961
899.841	146.16698
900.02	144.05805
900.199	114.5352
900.378	91.34168
900.557	150.38492
900.737	95.55848
900.916	87.12496
901.095	9.13219
901.274	28.10047
901.453	66.04272
901.632	91.34168
901.811	89.23331
901.989	40.74705
902.168	61.82655
902.347	49.17857
902.526	44.96277
902.705	66.04272
902.884	120.86117
903.063	53.39447
903.242	120.86117
903.42	44.96277
903.599	19.66988
903.778	63.93463
903.957	40.74705
904.135	74.47535
904.314	-3.51226
904.493	74.47535
904.672	11.23968
904.85	9.13219
905.029	89.23331
905.207	116.64384
905.386	114.5352
905.565	-5.61958
905.743	72.36716
905.922	80.80005
906.1	49.17857
906.279	103.99236
906.457	91.34168
906.636	53.39447
906.814	2.80986
906.993	28.10047
907.171	82.90833
907.35	32.3159
907.528	15.45473
907.707	112.42659
907.885	91.34168
908.063	42.8549
908.242	-7.72688
908.42	114.5352
908.598	49.17857
908.777	53.39447
908.955	91.34168
909.133	87.12496
909.311	-20.37016
909.49	76.58356
909.668	70.25899
909.846	70.25899
910.024	91.34168
910.202	114.5352
910.38	59.7185
910.559	-11.94141
910.737	57.61047
910.915	80.80005
911.093	125.07859
911.271	63.93463
911.449	101.88386
911.627	-1.40491
911.805	120.86117
911.983	36.53143
912.161	13.34719
912.339	70.25899
912.517	78.6918
912.695	89.23331
912.872	15.45473
913.05	97.66692
913.228	-37.2265
913.406	97.66692
913.584	13.34719
913.762	66.04272
913.939	44.96277
914.117	19.66988
914.295	78.6918
914.473	32.3159
914.65	72.36716
914.828	-14.04863
915.006	57.61047
915.184	36.53143
915.361	74.47535
915.539	70.25899
915.716	167.25749
915.894	89.23331
916.072	57.61047
916.249	108.20943
916.427	17.5623
916.604	44.96277
916.782	76.58356
916.959	-26.69148
917.137	99.77538
917.314	70.25899
917.492	74.47535
917.669	66.04272
917.847	93.45007
918.024	44.96277
918.201	66.04272
918.379	38.63923
918.556	57.61047
918.733	28.10047
918.911	61.82655
919.088	97.66692
919.265	80.80005
919.442	11.23968
919.62	95.55848
919.797	36.53143
919.974	19.66988
920.151	72.36716
920.328	66.04272
920.506	87.12496
920.683	36.53143
920.86	0.70246
921.037	19.66988
921.214	40.74705
921.391	68.15085
921.568	30.20817
921.745	4.91728
921.922	70.25899
922.099	44.96277
922.276	101.88386
922.453	49.17857
922.63	122.96987
922.807	87.12496
922.984	63.93463
923.161	25.99279
923.338	63.93463
923.514	40.74705
923.691	32.3159
923.868	28.10047
924.045	53.39447
924.222	53.39447
924.399	36.53143
924.575	-18.26301
924.752	38.63923
924.929	9.13219
925.105	19.66988
925.282	-28.79853
925.459	32.3159
925.635	80.80005
925.812	40.74705
925.989	66.04272
926.165	-11.94141
926.342	85.01664
926.518	72.36716
926.695	66.04272
926.871	17.5623
927.048	53.39447
927.224	15.45473
927.401	13.34719
927.577	55.50246
927.754	66.04272
927.93	2.80986
928.107	-9.83416
928.283	66.04272
928.459	122.96987
928.636	38.63923
928.812	11.23968
928.988	87.12496
929.165	53.39447
929.341	95.55848
929.517	61.82655
929.693	-1.40491
929.87	51.28651
930.046	61.82655
930.222	25.99279
930.398	2.80986
930.574	61.82655
930.751	93.45007
930.927	66.04272
931.103	36.53143
931.279	76.58356
931.455	47.07066
931.631	-18.26301
931.807	21.7775
931.983	47.07066
932.159	36.53143
932.335	30.20817
932.511	44.96277
932.687	40.74705
932.863	28.10047
933.039	47.07066
933.215	2.80986
933.391	125.07859
933.566	89.23331
933.742	38.63923
933.918	57.61047
934.094	-47.7609
934.27	53.39447
934.445	47.07066
934.621	-11.94141
934.797	74.47535
934.973	70.25899
935.148	120.86117
935.324	61.82655
935.5	25.99279
935.675	49.17857
935.851	-11.94141
936.027	-51.97449
936.202	15.45473
936.378	13.34719
936.553	40.74705
936.729	36.53143
936.904	19.66988
937.08	-1.40491
937.255	11.23968
937.431	4.91728
937.606	57.61047
937.782	0.70246
937.957	-14.04863
938.133	34.42366
938.308	19.66988
938.483	80.80005
938.659	-22.47729
938.834	30.20817
939.009	-18.26301
939.185	82.90833
939.36	-51.97449
939.535	28.10047
939.71	17.5623
939.886	7.02472
940.061	85.01664
940.236	-22.47729
940.411	28.10047
940.586	23.88513
940.761	2.80986
940.937	25.99279
941.112	53.39447
941.287	44.96277
941.462	-5.61958
941.637	36.53143
941.812	44.96277
941.987	-43.54722
942.162	-30.90556
942.337	-5.61958
942.512	87.12496
942.687	32.3159
942.862	19.66988
943.037	51.28651
943.212	28.10047
943.386	80.80005
943.561	78.6918
943.736	25.99279
943.911	23.88513
944.086	-7.72688
944.26	63.93463
944.435	-26.69148
944.61	-7.72688
944.785	30.20817
944.959	-26.69148
945.134	106.10089
945.309	-9.83416
945.483	49.17857
945.658	51.28651
945.833	13.34719
946.007	66.04272
946.182	11.23968
946.357	2.80986
946.531	-35.11954
946.706	47.07066
946.88	2.80986
947.055	7.02472
947.229	78.6918
947.404	30.20817
947.578	30.20817
947.752	44.96277
947.927	-39.33343
948.101	78.6918
948.276	15.45473
948.45	34.42366
948.624	93.45007
948.799	-18.26301
948.973	32.3159
949.147	38.63923
949.321	38.63923
949.496	-18.26301
949.67	32.3159
949.844	21.7775
950.018	15.45473
950.193	23.88513
950.367	112.42659
950.541	74.47535
950.715	-20.37016
950.889	19.66988
951.063	7.02472
951.237	85.01664
951.411	82.90833
951.585	-22.47729
951.759	25.99279
951.933	-51.97449
952.107	-14.04863
952.281	70.25899
952.455	19.66988
952.629	11.23968
952.803	11.23968
952.977	36.53143
953.151	28.10047
953.325	4.91728
953.499	11.23968
953.672	57.61047
953.846	78.6918
954.02	-3.51226
954.194	21.7775
954.368	15.45473
954.541	9.13219
954.715	112.42659
954.889	15.45473
955.062	-1.40491
955.236	25.99279
955.41	-3.51226
955.583	-16.15583
955.757	70.25899
955.93	68.15085
956.104	28.10047
956.278	55.50246
956.451	87.12496
956.625	32.3159
956.798	28.10047
956.972	82.90833
957.145	40.74705
957.319	59.7185
957.492	44.96277
957.665	32.3159
957.839	44.96277
958.012	32.3159
958.185	36.53143
958.359	61.82655
958.532	72.36716
958.705	59.7185
958.879	-5.61958
959.052	44.96277
959.225	0.70246
959.398	-14.04863
959.572	11.23968
959.745	21.7775
959.918	28.10047
960.091	-45.65407
960.264	66.04272
960.438	57.61047
960.611	2.80986
960.784	9.13219
960.957	61.82655
961.13	4.91728
961.303	85.01664
961.476	19.66988
961.649	11.23968
961.822	70.25899
961.995	-3.51226
962.168	68.15085
962.341	66.04272
962.514	7.02472
962.686	55.50246
962.859	49.17857
963.032	-1.40491
963.205	19.66988
963.378	-30.90556
963.551	-5.61958
963.723	42.8549
963.896	74.47535
964.069	38.63923
964.242	53.39447
964.414	15.45473
964.587	-41.44034
964.76	44.96277
964.932	40.74705
965.105	7.02472
965.278	72.36716
965.45	9.13219
965.623	76.58356
965.795	101.88386
965.968	-14.04863
966.14	-9.83416
966.313	0.70246
966.485	-35.11954
966.658	-11.94141
966.83	21.7775
967.003	76.58356
967.175	61.82655
967.348	99.77538
967.52	28.10047
967.692	-20.37016
967.865	66.04272
968.037	82.90833
968.209	-3.51226
968.382	11.23968
968.554	-1.40491
968.726	15.45473
968.898	74.47535
969.071	21.7775
969.243	-26.69148
969.415	59.7185
969.587	59.7185
969.759	59.7185
969.932	23.88513
970.104	23.88513
970.276	-43.54722
970.448	28.10047
970.62	78.6918
970.792	17.5623
970.964	66.04272
971.136	49.17857
971.308	21.7775
971.48	21.7775
971.652	11.23968
971.824	55.50246
971.996	23.88513
972.168	-30.90556
972.339	78.6918
972.511	-30.90556
972.683	36.53143
972.855	15.45473
973.027	-5.61958
973.199	32.3159
973.37	-22.47729
973.542	11.23968
973.714	23.88513
973.886	-30.90556
974.057	89.23331
974.229	17.5623
974.401	55.50246
974.572	59.7185
974.744	-43.54722
974.915	15.45473
975.087	11.23968
975.259	51.28651
975.43	-5.61958
975.602	-14.04863
975.773	28.10047
975.945	-5.61958
976.116	19.66988
976.288	25.99279
976.459	55.50246
976.63	11.23968
976.802	32.3159
976.973	-70.93437
977.145	38.63923
977.316	38.63923
977.487	19.66988
977.659	36.53143
977.83	85.01664
978.001	61.82655
978.172	23.88513
978.344	-14.04863
978.515	30.20817
978.686	74.47535
978.857	4.91728
979.028	23.88513
979.2	2.80986
979.371	-1.40491
979.542	13.34719
979.713	-5.61958
979.884	21.7775
980.055	-5.61958
980.226	47.07066
980.397	7.02472
980.568	4.91728
980.739	-5.61958
980.91	-18.26301
981.081	-22.47729
981.252	-47.7609
981.423	-11.94141
981.594	38.63923
981.765	21.7775
981.936	101.88386
982.106	40.74705
982.277	57.61047
982.448	-3.51226
982.619	-5.61958
982.79	-20.37016
982.96	57.61047
983.131	21.7775
983.302	44.96277
983.472	36.53143
983.643	-37.2265
983.814	76.58356
983.984	-30.90556
984.155	21.7775
984.326	-14.04863
984.496	72.36716
984.667	-22.47729
984.837	30.20817
985.008	23.88513
985.178	19.66988
985.349	13.34719
985.519	23.88513
985.69	11.23968
985.86	53.39447
986.031	49.17857
986.201	21.7775
986.371	61.82655
986.542	15.45473
986.712	-5.61958
986.882	49.17857
987.053	28.10047
987.223	-5.61958
987.393	44.96277
987.563	38.63923
987.734	51.28651
987.904	13.34719
988.074	4.91728
988.244	44.96277
988.414	47.07066
988.585	99.77538
988.755	23.88513
988.925	19.66988
989.095	74.47535
989.265	61.82655
989.435	2.80986
989.605	-35.11954
989.775	19.66988
989.945	36.53143
990.115	11.23968
990.285	-28.79853
990.455	82.90833
990.625	-5.61958
990.795	76.58356
990.965	21.7775
991.134	57.61047
991.304	70.25899
991.474	55.50246
991.644	-39.33343
991.814	-41.44034
991.984	44.96277
992.153	13.34719
992.323	-1.40491
992.493	55.50246
992.662	-39.33343
992.832	-54.08124
993.002	49.17857
993.171	44.96277
993.341	-45.65407
993.511	-3.51226
993.68	15.45473
993.85	49.17857
994.019	-9.83416
994.189	13.34719
994.358	-56.18797
994.528	40.74705
994.697	47.07066
994.867	97.66692
995.036	57.61047
995.206	38.63923
995.375	-49.86771
995.544	49.17857
995.714	34.42366
995.883	7.02472
996.052	-60.40135
996.222	44.96277
996.391	38.63923
996.56	-7.72688
996.73	-11.94141
996.899	9.13219
997.068	-9.83416
997.237	30.20817
997.406	49.17857
997.576	66.04272
997.745	70.25899
997.914	-66.72124
998.083	0.70246
998.252	70.25899
998.421	7.02472
998.59	21.7775
998.759	0.70246
998.928	-11.94141
999.097	7.02472
999.266	47.07066
999.435	2.80986
999.604	106.10089
999.773	-5.61958
999.942	-11.94141
1000.111	-5.61958
1000.28	-3.51226
1000.448	9.13219
1000.617	-26.69148
1000.786	49.17857
1000.955	28.10047
1001.124	-39.33343
1001.292	85.01664
1001.461	19.66988
1001.63	21.7775
1001.798	112.42659
1001.967	-20.37016
1002.136	38.63923
1002.304	-5.61958
1002.473	17.5623
1002.642	32.3159
1002.81	19.66988
1002.979	78.6918
1003.147	-20.37016
1003.316	49.17857
1003.484	23.88513
1003.653	63.93463
1003.821	53.39447
1003.99	38.63923
1004.158	-16.15583
1004.327	19.66988
1004.495	49.17857
1004.663	19.66988
1004.832	13.34719
1005	-39.33343
1005.168	2.80986
1005.337	-43.54722
1005.505	38.63923
1005.673	85.01664
1005.842	70.25899
1006.01	99.77538
1006.178	34.42366
1006.346	108.20943
1006.514	-3.51226
1006.683	2.80986
1006.851	13.34719
1007.019	63.93463
1007.187	23.88513
1007.355	-14.04863
1007.523	-3.51226
1007.691	19.66988
1007.859	-14.04863
1008.027	68.15085
1008.195	78.6918
1008.363	2.80986
1008.531	49.17857
1008.699	32.3159
1008.867	-62.50801
1009.035	-22.47729
1009.203	2.80986
1009.37	66.04272
1009.538	-47.7609
1009.706	-5.61958
1009.874	-35.11954
1010.042	36.53143
1010.209	11.23968
1010.377	23.88513
1010.545	-14.04863
1010.713	-20.37016
1010.88	-64.61464
1011.048	23.88513
1011.216	28.10047
1011.383	11.23968
1011.551	114.5352
1011.718	32.3159
1011.886	30.20817
1012.054	55.50246
1012.221	13.34719
1012.389	2.80986
1012.556	51.28651
1012.724	19.66988
1012.891	-3.51226
1013.058	21.7775
1013.226	38.63923
1013.393	-3.51226
1013.561	19.66988
1013.728	19.66988
1013.895	15.45473
1014.063	2.80986
1014.23	32.3159
1014.397	49.17857
1014.565	-1.40491
1014.732	9.13219
1014.899	-39.33343
1015.066	-5.61958
1015.233	38.63923
1015.401	-3.51226
1015.568	21.7775
1015.735	34.42366
1015.902	-1.40491
1016.069	49.17857
1016.236	-5.61958
1016.403	15.45473
1016.57	78.6918
1016.737	2.80986
1016.904	-54.08124
1017.071	-33.01256
1017.238	2.80986
1017.405	-60.40135
1017.572	2.80986
1017.739	-9.83416
1017.906	-11.94141
1018.073	23.88513
1018.24	-39.33343
1018.407	-24.5844
1018.573	49.17857
1018.74	66.04272
1018.907	32.3159
1019.074	-62.50801
1019.241	38.63923
1019.407	59.7185
1019.574	-28.79853
1019.741	-18.26301
1019.907	25.99279
1020.074	38.63923
1020.241	2.80986
1020.407	11.23968
1020.574	-20.37016
1020.74	-37.2265
1020.907	49.17857
1021.073	114.5352
1021.24	36.53143
1021.406	36.53143
1021.573	-60.40135
1021.739	53.39447
1021.906	23.88513
1022.072	72.36716
1022.239	-18.26301
1022.405	-28.79853
1022.571	-3.51226
1022.738	32.3159
1022.904	2.80986
1023.07	-11.94141
1023.237	-43.54722
1023.403	49.17857
1023.569	11.23968
1023.735	25.99279
1023.902	70.25899
1024.068	-20.37016
1024.234	17.5623
1024.4	-9.83416
1024.566	103.99236
1024.732	4.91728
1024.898	32.3159
1025.065	-28.79853
1025.231	49.17857
1025.397	-28.79853
1025.563	38.63923
1025.729	11.23968
1025.895	32.3159
1026.061	2.80986
1026.227	28.10047
1026.392	-5.61958
1026.558	-5.61958
1026.724	19.66988
1026.89	-9.83416
1027.056	15.45473
1027.222	2.80986
1027.388	-7.72688
1027.553	-28.79853
1027.719	-11.94141
1027.885	-14.04863
1028.051	19.66988
1028.216	55.50246
1028.382	-35.11954
1028.548	28.10047
1028.713	25.99279
1028.879	4.91728
1029.045	15.45473
1029.21	25.99279
1029.376	-30.90556
1029.541	53.39447
1029.707	36.53143
1029.873	57.61047
1030.038	66.04272
1030.204	-39.33343
1030.369	13.34719
1030.534	-47.7609
1030.7	44.96277
1030.865	-41.44034
1031.031	-47.7609
1031.196	38.63923
1031.361	49.17857
1031.527	89.23331
1031.692	17.5623
1031.857	78.6918
1032.023	44.96277
1032.188	13.34719
1032.353	32.3159
1032.518	74.47535
1032.684	61.82655
1032.849	-18.26301
1033.014	11.23968
1033.179	-73.04089
1033.344	-26.69148
1033.509	-16.15583
1033.674	-33.01256
1033.839	-30.90556
1034.004	0.70246
1034.17	7.02472
1034.335	-1.40491
1034.5	4.91728
1034.664	-3.51226
1034.829	4.91728
1034.994	-5.61958
1035.159	7.02472
1035.324	-9.83416
1035.489	21.7775
1035.654	36.53143
1035.819	-22.47729
1035.984	-18.26301
1036.148	32.3159
1036.313	0.70246
1036.478	-26.69148
1036.643	25.99279
1036.807	-18.26301
1036.972	21.7775
1037.137	23.88513
1037.301	23.88513
1037.466	4.91728
1037.631	-39.33343
1037.795	-7.72688
1037.96	78.6918
1038.124	23.88513
1038.289	36.53143
1038.454	28.10047
1038.618	32.3159
1038.783	47.07066
1038.947	68.15085
1039.111	30.20817
1039.276	9.13219
1039.44	53.39447
1039.605	61.82655
1039.769	19.66988
1039.933	57.61047
1040.098	-16.15583
1040.262	-5.61958
1040.426	-18.26301
1040.591	-9.83416
1040.755	53.39447
1040.919	28.10047
1041.083	28.10047
1041.248	21.7775
1041.412	-41.44034
1041.576	63.93463
1041.74	49.17857
1041.904	-41.44034
1042.068	63.93463
1042.232	17.5623
1042.397	-1.40491
1042.561	-7.72688
1042.725	59.7185
1042.889	28.10047
1043.053	19.66988
1043.217	7.02472
1043.381	59.7185
1043.544	-14.04863
1043.708	72.36716
1043.872	13.34719
1044.036	-51.97449
1044.2	78.6918
1044.364	4.91728
1044.528	95.55848
1044.691	78.6918
1044.855	7.02472
1045.019	-37.2265
1045.183	-22.47729
1045.346	36.53143
1045.51	-16.15583
1045.674	-30.90556
1045.837	80.80005
1046.001	34.42366
1046.165	11.23968
1046.328	-1.40491
1046.492	2.80986
1046.655	-1.40491
1046.819	21.7775
1046.983	-47.7609
1047.146	40.74705
1047.31	19.66988
1047.473	-9.83416
1047.636	-37.2265
1047.8	9.13219
1047.963	4.91728
1048.127	-5.61958
1048.29	-39.33343
