Data from Scatter_Coeff_Baseline_USB4F045381__7__0007.txt Node

Date: Thu Feb 13 19:16:25 EST 2025
User: mmckonesweet
Spectrometer: USB4F04538
Trigger mode: 4
Integration Time (sec): 2.400000E-3
Scans to average: 1
Electric dark correction enabled: true
Nonlinearity correction enabled: true
Boxcar width: 0
XAxis mode: Wavelengths
Number of Pixels in Spectrum: 3648
>>>>>Begin Spectral Data<<<<<
345.52	54.09713
345.736	54.09713
345.952	54.09713
346.168	37.23403
346.384	33.01848
346.6	7.72721
346.816	-59.69913
347.032	28.80304
347.248	66.74543
347.464	3.51233
347.68	35.12624
347.896	-25.98912
348.112	-34.41722
348.328	5.61975
348.544	11.94218
348.76	-40.73804
348.975	1.40492
349.191	1.40492
349.407	28.80304
349.623	-19.66778
349.839	51.98916
350.055	16.15725
350.27	37.23403
350.486	33.01848
350.702	39.34183
350.918	-44.95179
351.133	60.42118
351.349	-19.66778
351.565	-19.66778
351.781	-72.33872
351.996	70.96171
352.212	11.94218
352.428	-23.88203
352.644	-32.31023
352.859	62.52924
353.075	28.80304
353.291	-32.31023
353.506	11.94218
353.722	49.88122
353.938	9.83468
354.153	20.37242
354.369	81.50281
354.584	28.80304
354.8	-84.97739
355.016	33.01848
355.231	41.44967
355.447	-25.98912
355.662	16.15725
355.878	45.6654
356.093	-74.44523
356.309	49.88122
356.524	26.69535
356.74	79.39455
356.955	-25.98912
357.171	-49.16544
357.386	54.09713
357.602	39.34183
357.817	3.51233
358.033	-23.88203
358.248	49.88122
358.464	16.15725
358.679	26.69535
358.895	9.83468
359.11	-9.13173
359.325	45.6654
359.541	83.6111
359.756	20.37242
359.972	-28.09618
360.187	9.83468
360.402	28.80304
360.618	75.17808
360.833	-59.69913
361.048	20.37242
361.264	39.34183
361.479	-0.70246
361.694	14.04971
361.909	39.34183
362.125	3.51233
362.34	30.91075
362.555	87.82774
362.77	43.55752
362.986	26.69535
363.201	3.51233
363.416	26.69535
363.631	-84.97739
363.847	54.09713
364.062	1.40492
364.277	58.31314
364.492	43.55752
364.707	58.31314
364.922	58.31314
365.138	28.80304
365.353	79.39455
365.568	-47.05863
365.783	16.15725
365.998	64.63732
366.213	16.15725
366.428	-4.91714
366.643	79.39455
366.858	-2.80981
367.073	68.85356
367.288	45.6654
367.503	-2.80981
367.718	54.09713
367.933	62.52924
368.148	-15.45344
368.363	11.94218
368.578	-21.77492
368.793	24.58768
369.008	-21.77492
369.223	123.67278
369.438	-59.69913
369.653	-42.84492
369.868	70.96171
370.083	33.01848
370.298	-11.23899
370.513	28.80304
370.728	5.61975
370.943	45.6654
371.157	-11.23899
371.372	54.09713
371.587	87.82774
371.802	-2.80981
372.017	-0.70246
372.232	5.61975
372.446	-13.34623
372.661	16.15725
372.876	54.09713
373.091	-47.05863
373.306	-53.37899
373.52	51.98916
373.735	-74.44523
373.95	-59.69913
374.165	24.58768
374.379	54.09713
374.594	-32.31023
374.809	-13.34623
375.023	11.94218
375.238	-30.20322
375.453	33.01848
375.667	115.23808
375.882	11.94218
376.097	-13.34623
376.311	58.31314
376.526	-4.91714
376.741	-4.91714
376.955	-4.91714
377.17	18.26482
377.384	20.37242
377.599	20.37242
377.813	7.72721
378.028	14.04971
378.242	43.55752
378.457	35.12624
378.672	35.12624
378.886	60.42118
379.101	73.06989
379.315	-23.88203
379.53	-55.48573
379.744	54.09713
379.958	11.94218
380.173	-17.56062
380.387	-30.20322
380.602	-7.02445
380.816	3.51233
381.031	62.52924
381.245	-11.23899
381.459	45.6654
381.674	7.72721
381.888	66.74543
382.103	70.96171
382.317	-4.91714
382.531	14.04971
382.746	92.04447
382.96	16.15725
383.174	-11.23899
383.388	94.15287
383.603	66.74543
383.817	20.37242
384.031	-68.12563
384.246	35.12624
384.46	3.51233
384.674	5.61975
384.888	-11.23899
385.103	30.91075
385.317	58.31314
385.531	-44.95179
385.745	3.51233
385.959	85.71941
386.174	73.06989
386.388	39.34183
386.602	24.58768
386.816	-9.13173
387.03	54.09713
387.244	-7.02445
387.458	-2.80981
387.672	87.82774
387.887	28.80304
388.101	3.51233
388.315	-55.48573
388.529	-13.34623
388.743	28.80304
388.957	64.63732
389.171	37.23403
389.385	-25.98912
389.599	-0.70246
389.813	62.52924
390.027	11.94218
390.241	-2.80981
390.455	26.69535
390.669	-61.80579
390.883	5.61975
391.097	20.37242
391.311	-13.34623
391.525	-30.20322
391.738	-34.41722
391.952	11.94218
392.166	28.80304
392.38	-9.13173
392.594	-63.91243
392.808	3.51233
393.022	-47.05863
393.236	-9.13173
393.449	49.88122
393.663	7.72721
393.877	16.15725
394.091	28.80304
394.305	64.63732
394.518	3.51233
394.732	37.23403
394.946	41.44967
395.16	-9.13173
395.373	45.6654
395.587	-13.34623
395.801	-61.80579
396.015	41.44967
396.228	28.80304
396.442	18.26482
396.656	-21.77492
396.869	-28.09618
397.083	7.72721
397.297	3.51233
397.51	89.9361
397.724	-4.91714
397.938	-13.34623
398.151	81.50281
398.365	22.48004
398.578	-87.08375
398.792	24.58768
399.005	11.94218
399.219	11.94218
399.433	30.91075
399.646	-34.41722
399.86	37.23403
400.073	-0.70246
400.287	14.04971
400.5	37.23403
400.714	41.44967
400.927	-11.23899
401.141	41.44967
401.354	-91.29638
401.567	30.91075
401.781	24.58768
401.994	-42.84492
402.208	11.94218
402.421	-0.70246
402.635	-4.91714
402.848	39.34183
403.061	28.80304
403.275	28.80304
403.488	26.69535
403.701	49.88122
403.915	87.82774
404.128	-40.73804
404.341	77.2863
404.555	16.15725
404.768	49.88122
404.981	24.58768
405.195	-40.73804
405.408	66.74543
405.621	16.15725
405.834	-38.63112
406.048	3.51233
406.261	-38.63112
406.474	9.83468
406.687	33.01848
406.9	37.23403
407.114	58.31314
407.327	-68.12563
407.54	54.09713
407.753	-42.84492
407.966	14.04971
408.179	70.96171
408.392	37.23403
408.605	58.31314
408.819	3.51233
409.032	33.01848
409.245	22.48004
409.458	5.61975
409.671	-9.13173
409.884	37.23403
410.097	-13.34623
410.31	18.26482
410.523	58.31314
410.736	11.94218
410.949	7.72721
411.162	18.26482
411.375	-51.27223
411.588	64.63732
411.801	16.15725
412.014	-4.91714
412.227	-17.56062
412.44	-32.31023
412.653	24.58768
412.865	-19.66778
413.078	47.77329
413.291	-2.80981
413.504	-21.77492
413.717	28.80304
413.93	18.26482
414.143	108.91229
414.356	37.23403
414.568	33.01848
414.781	96.26129
414.994	28.80304
415.207	5.61975
415.42	-13.34623
415.632	-4.91714
415.845	45.6654
416.058	-47.05863
416.271	-4.91714
416.483	115.23808
416.696	3.51233
416.909	49.88122
417.121	3.51233
417.334	79.39455
417.547	37.23403
417.759	-19.66778
417.972	92.04447
418.185	49.88122
418.397	-19.66778
418.61	-11.23899
418.823	7.72721
419.035	79.39455
419.248	83.6111
419.46	33.01848
419.673	22.48004
419.885	-44.95179
420.098	96.26129
420.311	-9.13173
420.523	-30.20322
420.736	-4.91714
420.948	28.80304
421.161	22.48004
421.373	-30.20322
421.586	-19.66778
421.798	20.37242
422.01	22.48004
422.223	30.91075
422.435	47.77329
422.648	-7.02445
422.86	26.69535
423.073	56.20513
423.285	-80.7646
423.497	64.63732
423.71	37.23403
423.922	22.48004
424.134	22.48004
424.347	-61.80579
424.559	81.50281
424.771	14.04971
424.984	132.10782
425.196	-13.34623
425.408	-21.77492
425.621	-44.95179
425.833	60.42118
426.045	70.96171
426.257	7.72721
426.47	3.51233
426.682	-17.56062
426.894	16.15725
427.106	-19.66778
427.318	-4.91714
427.531	58.31314
427.743	-4.91714
427.955	-0.70246
428.167	54.09713
428.379	7.72721
428.591	75.17808
428.804	-21.77492
429.016	33.01848
429.228	45.6654
429.44	33.01848
429.652	73.06989
429.864	22.48004
430.076	-21.77492
430.288	11.94218
430.5	-2.80981
430.712	-21.77492
430.924	28.80304
431.136	24.58768
431.348	28.80304
431.56	138.43433
431.772	-55.48573
431.984	85.71941
432.196	73.06989
432.408	3.51233
432.62	70.96171
432.832	56.20513
433.044	39.34183
433.256	14.04971
433.468	7.72721
433.679	56.20513
433.891	14.04971
434.103	28.80304
434.315	79.39455
434.527	20.37242
434.739	20.37242
434.95	11.94218
435.162	20.37242
435.374	7.72721
435.586	81.50281
435.798	-34.41722
436.009	16.15725
436.221	51.98916
436.433	66.74543
436.645	-72.33872
436.856	30.91075
437.068	-44.95179
437.28	7.72721
437.491	64.63732
437.703	64.63732
437.915	98.36974
438.126	-21.77492
438.338	33.01848
438.55	-0.70246
438.761	62.52924
438.973	92.04447
439.184	62.52924
439.396	35.12624
439.608	-15.45344
439.819	-19.66778
440.031	-34.41722
440.242	37.23403
440.454	16.15725
440.665	3.51233
440.877	-51.27223
441.088	7.72721
441.3	56.20513
441.511	73.06989
441.723	30.91075
441.934	92.04447
442.146	9.83468
442.357	9.83468
442.569	24.58768
442.78	-0.70246
442.991	60.42118
443.203	-2.80981
443.414	20.37242
443.626	-28.09618
443.837	41.44967
444.048	24.58768
444.26	70.96171
444.471	49.88122
444.682	16.15725
444.894	24.58768
445.105	41.44967
445.316	-11.23899
445.528	-9.13173
445.739	3.51233
445.95	3.51233
446.161	20.37242
446.373	-44.95179
446.584	56.20513
446.795	75.17808
447.006	-19.66778
447.217	-32.31023
447.429	3.51233
447.64	16.15725
447.851	20.37242
448.062	-9.13173
448.273	-25.98912
448.484	-4.91714
448.695	28.80304
448.907	56.20513
449.118	5.61975
449.329	28.80304
449.54	54.09713
449.751	20.37242
449.962	-72.33872
450.173	56.20513
450.384	-21.77492
450.595	-11.23899
450.806	14.04971
451.017	56.20513
451.228	-72.33872
451.439	75.17808
451.65	3.51233
451.861	64.63732
452.072	79.39455
452.283	-13.34623
452.494	-28.09618
452.705	54.09713
452.915	24.58768
453.126	22.48004
453.337	-23.88203
453.548	26.69535
453.759	33.01848
453.97	-38.63112
454.181	3.51233
454.391	77.2863
454.602	-9.13173
454.813	1.40492
455.024	5.61975
455.235	49.88122
455.445	75.17808
455.656	-55.48573
455.867	-9.13173
456.078	11.94218
456.288	20.37242
456.499	28.80304
456.71	-49.16544
456.921	28.80304
457.131	-4.91714
457.342	26.69535
457.553	-13.34623
457.763	-19.66778
457.974	54.09713
458.184	14.04971
458.395	79.39455
458.606	33.01848
458.816	68.85356
459.027	43.55752
459.237	-38.63112
459.448	-0.70246
459.659	-13.34623
459.869	22.48004
460.08	-38.63112
460.29	7.72721
460.501	20.37242
460.711	-21.77492
460.922	7.72721
461.132	58.31314
461.343	1.40492
461.553	3.51233
461.764	56.20513
461.974	-82.87101
462.184	5.61975
462.395	64.63732
462.605	-21.77492
462.816	113.12946
463.026	1.40492
463.236	28.80304
463.447	62.52924
463.657	-4.91714
463.867	-2.80981
464.078	-76.55171
464.288	-19.66778
464.498	54.09713
464.709	16.15725
464.919	1.40492
465.129	37.23403
465.339	18.26482
465.55	22.48004
465.76	-4.91714
465.97	96.26129
466.18	51.98916
466.391	-7.02445
466.601	45.6654
466.811	41.44967
467.021	16.15725
467.231	-36.52418
467.441	16.15725
467.651	51.98916
467.862	-2.80981
468.072	11.94218
468.282	-34.41722
468.492	64.63732
468.702	22.48004
468.912	3.51233
469.122	70.96171
469.332	-4.91714
469.542	35.12624
469.752	37.23403
469.962	98.36974
470.172	-38.63112
470.382	3.51233
470.592	-9.13173
470.802	14.04971
471.012	-30.20322
471.222	5.61975
471.432	5.61975
471.642	3.51233
471.852	-9.13173
472.062	28.80304
472.272	20.37242
472.482	3.51233
472.691	18.26482
472.901	-11.23899
473.111	3.51233
473.321	-13.34623
473.531	37.23403
473.741	45.6654
473.95	1.40492
474.16	-0.70246
474.37	121.56407
474.58	-49.16544
474.79	14.04971
474.999	33.01848
475.209	-17.56062
475.419	-17.56062
475.628	-9.13173
475.838	64.63732
476.048	45.6654
476.258	18.26482
476.467	-30.20322
476.677	58.31314
476.886	47.77329
477.096	28.80304
477.306	47.77329
477.515	58.31314
477.725	-25.98912
477.935	24.58768
478.144	-7.02445
478.354	30.91075
478.563	7.72721
478.773	-36.52418
478.982	33.01848
479.192	1.40492
479.401	-0.70246
479.611	16.15725
479.82	30.91075
480.03	37.23403
480.239	-0.70246
480.449	35.12624
480.658	30.91075
480.868	-30.20322
481.077	-34.41722
481.287	28.80304
481.496	43.55752
481.705	56.20513
481.915	54.09713
482.124	24.58768
482.333	-55.48573
482.543	33.01848
482.752	-28.09618
482.961	24.58768
483.171	3.51233
483.38	104.6952
483.589	54.09713
483.799	-2.80981
484.008	37.23403
484.217	79.39455
484.426	20.37242
484.636	-42.84492
484.845	-17.56062
485.054	7.72721
485.263	3.51233
485.472	7.72721
485.682	56.20513
485.891	20.37242
486.1	3.51233
486.309	28.80304
486.518	28.80304
486.727	92.04447
486.936	22.48004
487.146	33.01848
487.355	5.61975
487.564	56.20513
487.773	64.63732
487.982	-4.91714
488.191	39.34183
488.4	7.72721
488.609	37.23403
488.818	111.02086
489.027	14.04971
489.236	-82.87101
489.445	-25.98912
489.654	37.23403
489.863	47.77329
490.072	1.40492
490.281	58.31314
490.49	-13.34623
490.698	-2.80981
490.907	49.88122
491.116	28.80304
491.325	20.37242
491.534	22.48004
491.743	26.69535
491.952	18.26482
492.16	14.04971
492.369	-9.13173
492.578	14.04971
492.787	45.6654
492.996	-47.05863
493.204	-13.34623
493.413	33.01848
493.622	16.15725
493.831	3.51233
494.039	-30.20322
494.248	-25.98912
494.457	30.91075
494.665	28.80304
494.874	125.7815
495.083	30.91075
495.291	33.01848
495.5	-30.20322
495.709	64.63732
495.917	-23.88203
496.126	64.63732
496.335	-44.95179
496.543	87.82774
496.752	33.01848
496.96	24.58768
497.169	1.40492
497.377	14.04971
497.586	73.06989
497.794	58.31314
498.003	-13.34623
498.211	79.39455
498.42	1.40492
498.628	-19.66778
498.837	7.72721
499.045	14.04971
499.254	37.23403
499.462	1.40492
499.671	-19.66778
499.879	-13.34623
500.087	49.88122
500.296	-9.13173
500.504	49.88122
500.713	64.63732
500.921	-4.91714
501.129	66.74543
501.338	11.94218
501.546	75.17808
501.754	24.58768
501.962	92.04447
502.171	9.83468
502.379	14.04971
502.587	41.44967
502.795	75.17808
503.004	33.01848
503.212	28.80304
503.42	20.37242
503.628	20.37242
503.837	70.96171
504.045	70.96171
504.253	30.91075
504.461	-19.66778
504.669	60.42118
504.877	37.23403
505.085	3.51233
505.294	-55.48573
505.502	24.58768
505.71	-11.23899
505.918	-30.20322
506.126	-25.98912
506.334	-19.66778
506.542	45.6654
506.75	113.12946
506.958	22.48004
507.166	-28.09618
507.374	-4.91714
507.582	73.06989
507.79	-11.23899
507.998	81.50281
508.206	62.52924
508.414	-13.34623
508.622	51.98916
508.83	28.80304
509.037	54.09713
509.245	16.15725
509.453	16.15725
509.661	47.77329
509.869	37.23403
510.077	62.52924
510.285	62.52924
510.492	-15.45344
510.7	41.44967
510.908	73.06989
511.116	7.72721
511.324	-0.70246
511.531	16.15725
511.739	35.12624
511.947	-7.02445
512.155	3.51233
512.362	30.91075
512.57	79.39455
512.778	79.39455
512.985	41.44967
513.193	54.09713
513.401	111.02086
513.608	-53.37899
513.816	-11.23899
514.024	54.09713
514.231	-32.31023
514.439	28.80304
514.646	3.51233
514.854	-13.34623
515.061	28.80304
515.269	-0.70246
515.477	16.15725
515.684	62.52924
515.892	62.52924
516.099	-59.69913
516.307	43.55752
516.514	20.37242
516.722	62.52924
516.929	14.04971
517.136	-38.63112
517.344	9.83468
517.551	56.20513
517.759	-4.91714
517.966	-53.37899
518.173	3.51233
518.381	81.50281
518.588	22.48004
518.796	51.98916
519.003	11.94218
519.21	-66.01904
519.418	-13.34623
519.625	56.20513
519.832	-30.20322
520.039	1.40492
520.247	54.09713
520.454	37.23403
520.661	16.15725
520.868	-0.70246
521.076	28.80304
521.283	-0.70246
521.49	-9.13173
521.697	-11.23899
521.904	51.98916
522.112	68.85356
522.319	-44.95179
522.526	-61.80579
522.733	-15.45344
522.94	-13.34623
523.147	20.37242
523.354	45.6654
523.561	-2.80981
523.768	-4.91714
523.975	-87.08375
524.183	7.72721
524.39	24.58768
524.597	56.20513
524.804	33.01848
525.011	33.01848
525.218	26.69535
525.425	28.80304
525.632	37.23403
525.838	119.45538
526.045	-11.23899
526.252	3.51233
526.459	16.15725
526.666	125.7815
526.873	37.23403
527.08	-32.31023
527.287	20.37242
527.494	79.39455
527.701	28.80304
527.907	68.85356
528.114	49.88122
528.321	24.58768
528.528	-42.84492
528.735	66.74543
528.941	66.74543
529.148	24.58768
529.355	18.26482
529.562	87.82774
529.768	37.23403
529.975	-0.70246
530.182	-21.77492
530.388	28.80304
530.595	1.40492
530.802	49.88122
531.008	-25.98912
531.215	-36.52418
531.422	11.94218
531.628	54.09713
531.835	66.74543
532.042	49.88122
532.248	-11.23899
532.455	75.17808
532.661	56.20513
532.868	60.42118
533.074	30.91075
533.281	16.15725
533.487	7.72721
533.694	43.55752
533.9	22.48004
534.107	-0.70246
534.313	-34.41722
534.52	3.51233
534.726	16.15725
534.933	11.94218
535.139	-38.63112
535.345	-9.13173
535.552	-19.66778
535.758	14.04971
535.965	85.71941
536.171	35.12624
536.377	-47.05863
536.584	14.04971
536.79	-23.88203
536.996	79.39455
537.203	43.55752
537.409	22.48004
537.615	62.52924
537.821	24.58768
538.028	5.61975
538.234	-9.13173
538.44	-25.98912
538.646	3.51233
538.853	41.44967
539.059	20.37242
539.265	7.72721
539.471	56.20513
539.677	58.31314
539.883	62.52924
540.09	7.72721
540.296	47.77329
540.502	-0.70246
540.708	22.48004
540.914	24.58768
541.12	16.15725
541.326	7.72721
541.532	7.72721
541.738	-32.31023
541.944	62.52924
542.15	62.52924
542.356	30.91075
542.562	60.42118
542.768	22.48004
542.974	-2.80981
543.18	92.04447
543.386	22.48004
543.592	35.12624
543.798	30.91075
544.004	7.72721
544.21	-72.33872
544.415	37.23403
544.621	-47.05863
544.827	58.31314
545.033	18.26482
545.239	81.50281
545.445	-32.31023
545.651	20.37242
545.856	-28.09618
546.062	113.12946
546.268	20.37242
546.474	-9.13173
546.679	62.52924
546.885	3.51233
547.091	54.09713
547.297	5.61975
547.502	-19.66778
547.708	33.01848
547.914	62.52924
548.119	56.20513
548.325	83.6111
548.531	3.51233
548.736	-4.91714
548.942	33.01848
549.147	43.55752
549.353	45.6654
549.559	30.91075
549.764	1.40492
549.97	-2.80981
550.175	7.72721
550.381	11.94218
550.586	18.26482
550.792	-78.65817
550.997	51.98916
551.203	-63.91243
551.408	56.20513
551.614	11.94218
551.819	58.31314
552.025	70.96171
552.23	-11.23899
552.435	68.85356
552.641	22.48004
552.846	-9.13173
553.052	30.91075
553.257	22.48004
553.462	79.39455
553.668	-9.13173
553.873	28.80304
554.078	28.80304
554.283	56.20513
554.489	16.15725
554.694	3.51233
554.899	-9.13173
555.105	-2.80981
555.31	3.51233
555.515	-0.70246
555.72	-34.41722
555.925	-0.70246
556.131	-30.20322
556.336	45.6654
556.541	-9.13173
556.746	-38.63112
556.951	14.04971
557.156	7.72721
557.361	-44.95179
557.567	62.52924
557.772	43.55752
557.977	7.72721
558.182	56.20513
558.387	-2.80981
558.592	37.23403
558.797	7.72721
559.002	28.80304
559.207	58.31314
559.412	26.69535
559.617	20.37242
559.822	30.91075
560.027	5.61975
560.232	-28.09618
560.437	-59.69913
560.642	56.20513
560.847	79.39455
561.051	3.51233
561.256	64.63732
561.461	-38.63112
561.666	39.34183
561.871	5.61975
562.076	-21.77492
562.281	-57.59244
562.485	49.88122
562.69	-55.48573
562.895	-66.01904
563.1	45.6654
563.305	28.80304
563.509	9.83468
563.714	-36.52418
563.919	41.44967
564.123	18.26482
564.328	16.15725
564.533	45.6654
564.737	-9.13173
564.942	56.20513
565.147	-40.73804
565.351	35.12624
565.556	-25.98912
565.761	22.48004
565.965	41.44967
566.17	33.01848
566.374	20.37242
566.579	87.82774
566.784	75.17808
566.988	-11.23899
567.193	62.52924
567.397	-34.41722
567.602	-47.05863
567.806	3.51233
568.011	-2.80981
568.215	3.51233
568.42	5.61975
568.624	64.63732
568.828	22.48004
569.033	60.42118
569.237	106.80373
569.442	-13.34623
569.646	28.80304
569.85	-7.02445
570.055	-23.88203
570.259	16.15725
570.463	64.63732
570.668	-4.91714
570.872	33.01848
571.076	49.88122
571.281	66.74543
571.485	3.51233
571.689	-89.19007
571.893	-36.52418
572.098	-51.27223
572.302	37.23403
572.506	9.83468
572.71	70.96171
572.914	-19.66778
573.119	49.88122
573.323	83.6111
573.527	54.09713
573.731	-21.77492
573.935	-80.7646
574.139	30.91075
574.343	1.40492
574.547	16.15725
574.751	49.88122
574.955	1.40492
575.159	28.80304
575.364	24.58768
575.568	83.6111
575.772	-7.02445
575.976	-21.77492
576.18	-42.84492
576.383	11.94218
576.587	3.51233
576.791	-9.13173
576.995	68.85356
577.199	20.37242
577.403	54.09713
577.607	-7.02445
577.811	11.94218
578.015	-23.88203
578.219	33.01848
578.422	-21.77492
578.626	37.23403
578.83	-32.31023
579.034	41.44967
579.238	-13.34623
579.442	51.98916
579.645	-7.02445
579.849	-30.20322
580.053	-34.41722
580.257	60.42118
580.46	26.69535
580.664	37.23403
580.868	37.23403
581.071	79.39455
581.275	33.01848
581.479	5.61975
581.682	3.51233
581.886	47.77329
582.09	-70.23219
582.293	14.04971
582.497	37.23403
582.7	33.01848
582.904	49.88122
583.107	37.23403
583.311	5.61975
583.515	41.44967
583.718	45.6654
583.922	62.52924
584.125	33.01848
584.329	11.94218
584.532	-49.16544
584.735	-2.80981
584.939	47.77329
585.142	51.98916
585.346	47.77329
585.549	39.34183
585.753	-13.34623
585.956	62.52924
586.159	-4.91714
586.363	-30.20322
586.566	58.31314
586.769	-21.77492
586.973	68.85356
587.176	54.09713
587.379	54.09713
587.582	75.17808
587.786	28.80304
587.989	66.74543
588.192	-25.98912
588.395	-0.70246
588.599	22.48004
588.802	-30.20322
589.005	26.69535
589.208	-9.13173
589.411	18.26482
589.615	58.31314
589.818	-55.48573
590.021	87.82774
590.224	24.58768
590.427	-4.91714
590.63	7.72721
590.833	62.52924
591.036	28.80304
591.239	47.77329
591.442	-15.45344
591.645	-9.13173
591.848	-2.80981
592.051	70.96171
592.254	45.6654
592.457	7.72721
592.66	-13.34623
592.863	-2.80981
593.066	-7.02445
593.269	-80.7646
593.472	11.94218
593.675	7.72721
593.878	22.48004
594.081	-4.91714
594.284	22.48004
594.486	16.15725
594.689	-47.05863
594.892	20.37242
595.095	49.88122
595.298	24.58768
595.5	-30.20322
595.703	56.20513
595.906	89.9361
596.109	3.51233
596.311	-19.66778
596.514	41.44967
596.717	134.21663
596.92	33.01848
597.122	-63.91243
597.325	14.04971
597.528	49.88122
597.73	-34.41722
597.933	75.17808
598.136	-13.34623
598.338	45.6654
598.541	-13.34623
598.743	39.34183
598.946	41.44967
599.148	5.61975
599.351	-53.37899
599.554	5.61975
599.756	51.98916
599.959	83.6111
600.161	37.23403
600.363	-21.77492
600.566	14.04971
600.768	70.96171
600.971	-38.63112
601.173	81.50281
601.376	60.42118
601.578	54.09713
601.78	-63.91243
601.983	92.04447
602.185	92.04447
602.388	-32.31023
602.59	70.96171
602.792	22.48004
602.995	-21.77492
603.197	54.09713
603.399	7.72721
603.601	39.34183
603.804	-34.41722
604.006	37.23403
604.208	37.23403
604.41	-30.20322
604.613	-40.73804
604.815	1.40492
605.017	5.61975
605.219	16.15725
605.421	30.91075
605.623	3.51233
605.826	33.01848
606.028	35.12624
606.23	37.23403
606.432	100.4782
606.634	64.63732
606.836	-7.02445
607.038	-47.05863
607.24	22.48004
607.442	11.94218
607.644	66.74543
607.846	-4.91714
608.048	43.55752
608.25	-17.56062
608.452	20.37242
608.654	47.77329
608.856	-4.91714
609.058	45.6654
609.26	26.69535
609.462	33.01848
609.664	51.98916
609.866	16.15725
610.067	-25.98912
610.269	20.37242
610.471	64.63732
610.673	5.61975
610.875	11.94218
611.077	-66.01904
611.278	70.96171
611.48	-47.05863
611.682	45.6654
611.884	14.04971
612.085	41.44967
612.287	-30.20322
612.489	26.69535
612.69	26.69535
612.892	79.39455
613.094	22.48004
613.295	-72.33872
613.497	-21.77492
613.699	35.12624
613.9	20.37242
614.102	-47.05863
614.304	-4.91714
614.505	41.44967
614.707	-17.56062
614.908	56.20513
615.11	11.94218
615.311	16.15725
615.513	-72.33872
615.714	-28.09618
615.916	43.55752
616.117	-34.41722
616.319	56.20513
616.52	16.15725
616.722	-9.13173
616.923	-4.91714
617.124	9.83468
617.326	47.77329
617.527	-21.77492
617.729	96.26129
617.93	37.23403
618.131	-15.45344
618.333	-57.59244
618.534	73.06989
618.735	5.61975
618.937	20.37242
619.138	7.72721
619.339	9.83468
619.54	56.20513
619.742	24.58768
619.943	45.6654
620.144	-9.13173
620.345	-0.70246
620.546	37.23403
620.748	47.77329
620.949	-40.73804
621.15	-13.34623
621.351	28.80304
621.552	41.44967
621.753	62.52924
621.954	33.01848
622.155	-36.52418
622.356	-30.20322
622.558	33.01848
622.759	20.37242
622.96	5.61975
623.161	62.52924
623.362	33.01848
623.563	-4.91714
623.764	16.15725
623.965	28.80304
624.166	66.74543
624.366	43.55752
624.567	45.6654
624.768	11.94218
624.969	-30.20322
625.17	43.55752
625.371	37.23403
625.572	-21.77492
625.773	58.31314
625.973	-32.31023
626.174	49.88122
626.375	3.51233
626.576	11.94218
626.777	-4.91714
626.977	16.15725
627.178	24.58768
627.379	49.88122
627.58	-9.13173
627.78	35.12624
627.981	3.51233
628.182	62.52924
628.382	87.82774
628.583	47.77329
628.784	37.23403
628.984	68.85356
629.185	-42.84492
629.386	-17.56062
629.586	11.94218
629.787	28.80304
629.987	37.23403
630.188	30.91075
630.388	-47.05863
630.589	58.31314
630.79	-30.20322
630.99	-11.23899
631.191	56.20513
631.391	54.09713
631.591	-68.12563
631.792	106.80373
631.992	49.88122
632.193	58.31314
632.393	56.20513
632.594	-13.34623
632.794	20.37242
632.994	28.80304
633.195	24.58768
633.395	-17.56062
633.595	-0.70246
633.796	66.74543
633.996	47.77329
634.196	-78.65817
634.397	28.80304
634.597	45.6654
634.797	-32.31023
634.997	45.6654
635.198	14.04971
635.398	51.98916
635.598	28.80304
635.798	16.15725
635.998	79.39455
636.199	49.88122
636.399	-19.66778
636.599	39.34183
636.799	35.12624
636.999	41.44967
637.199	18.26482
637.399	-36.52418
637.599	18.26482
637.799	3.51233
637.999	-30.20322
638.199	11.94218
638.399	41.44967
638.599	-9.13173
638.799	14.04971
638.999	43.55752
639.199	-17.56062
639.399	14.04971
639.599	79.39455
639.799	33.01848
639.999	9.83468
640.199	11.94218
640.399	-4.91714
640.599	70.96171
640.799	-38.63112
640.998	79.39455
641.198	-0.70246
641.398	28.80304
641.598	70.96171
641.798	28.80304
641.997	75.17808
642.197	22.48004
642.397	-32.31023
642.597	92.04447
642.796	115.23808
642.996	39.34183
643.196	20.37242
643.395	5.61975
643.595	-2.80981
643.795	47.77329
643.994	26.69535
644.194	37.23403
644.394	-25.98912
644.593	-36.52418
644.793	66.74543
644.992	125.7815
645.192	-7.02445
645.392	-44.95179
645.591	94.15287
645.791	-11.23899
645.99	-11.23899
646.19	-21.77492
646.389	54.09713
646.589	56.20513
646.788	60.42118
646.987	-4.91714
647.187	22.48004
647.386	-25.98912
647.586	22.48004
647.785	-13.34623
647.984	9.83468
648.184	39.34183
648.383	-4.91714
648.582	62.52924
648.782	5.61975
648.981	73.06989
649.18	-38.63112
649.38	-53.37899
649.579	49.88122
649.778	7.72721
649.977	54.09713
650.177	-15.45344
650.376	7.72721
650.575	11.94218
650.774	30.91075
650.973	79.39455
651.173	22.48004
651.372	45.6654
651.571	11.94218
651.77	37.23403
651.969	20.37242
652.168	-30.20322
652.367	-49.16544
652.566	1.40492
652.765	22.48004
652.964	-74.44523
653.163	-9.13173
653.362	-4.91714
653.561	11.94218
653.76	-4.91714
653.959	-30.20322
654.158	35.12624
654.357	20.37242
654.556	56.20513
654.755	-4.91714
654.954	26.69535
655.153	64.63732
655.352	18.26482
655.551	-2.80981
655.749	3.51233
655.948	5.61975
656.147	73.06989
656.346	45.6654
656.545	-17.56062
656.743	47.77329
656.942	70.96171
657.141	-38.63112
657.34	-4.91714
657.538	9.83468
657.737	41.44967
657.936	3.51233
658.135	49.88122
658.333	-9.13173
658.532	-11.23899
658.731	-21.77492
658.929	37.23403
659.128	-38.63112
659.326	18.26482
659.525	92.04447
659.724	9.83468
659.922	33.01848
660.121	11.94218
660.319	33.01848
660.518	7.72721
660.716	-4.91714
660.915	16.15725
661.113	-2.80981
661.312	-13.34623
661.51	28.80304
661.709	58.31314
661.907	58.31314
662.105	-9.13173
662.304	45.6654
662.502	75.17808
662.701	16.15725
662.899	20.37242
663.097	5.61975
663.296	39.34183
663.494	-53.37899
663.692	96.26129
663.891	-51.27223
664.089	-32.31023
664.287	7.72721
664.485	68.85356
664.684	16.15725
664.882	11.94218
665.08	-19.66778
665.278	-21.77492
665.476	39.34183
665.675	3.51233
665.873	45.6654
666.071	5.61975
666.269	22.48004
666.467	70.96171
666.665	26.69535
666.863	113.12946
667.061	30.91075
667.259	60.42118
667.457	37.23403
667.655	54.09713
667.853	1.40492
668.051	45.6654
668.249	14.04971
668.447	-4.91714
668.645	-44.95179
668.843	24.58768
669.041	-25.98912
669.239	11.94218
669.437	37.23403
669.635	45.6654
669.833	79.39455
670.031	45.6654
670.229	-0.70246
670.426	-57.59244
670.624	-30.20322
670.822	45.6654
671.02	-9.13173
671.218	62.52924
671.415	7.72721
671.613	18.26482
671.811	37.23403
672.009	54.09713
672.206	5.61975
672.404	39.34183
672.602	37.23403
672.799	-15.45344
672.997	102.58669
673.195	43.55752
673.392	-13.34623
673.59	49.88122
673.788	43.55752
673.985	30.91075
674.183	64.63732
674.38	58.31314
674.578	70.96171
674.775	28.80304
674.973	45.6654
675.17	54.09713
675.368	-63.91243
675.565	62.52924
675.763	9.83468
675.96	-28.09618
676.158	-57.59244
676.355	37.23403
676.553	18.26482
676.75	56.20513
676.947	41.44967
677.145	20.37242
677.342	-9.13173
677.539	18.26482
677.737	64.63732
677.934	77.2863
678.131	16.15725
678.329	7.72721
678.526	142.6521
678.723	-23.88203
678.92	121.56407
679.118	37.23403
679.315	1.40492
679.512	-9.13173
679.709	37.23403
679.906	-44.95179
680.104	-2.80981
680.301	16.15725
680.498	1.40492
680.695	-36.52418
680.892	85.71941
681.089	7.72721
681.286	41.44967
681.483	45.6654
681.68	64.63732
681.877	73.06989
682.075	11.94218
682.272	-13.34623
682.469	-9.13173
682.665	18.26482
682.862	-36.52418
683.059	70.96171
683.256	56.20513
683.453	11.94218
683.65	14.04971
683.847	47.77329
684.044	-30.20322
684.241	47.77329
684.438	100.4782
684.635	54.09713
684.831	75.17808
685.028	14.04971
685.225	-36.52418
685.422	-21.77492
685.619	47.77329
685.815	66.74543
686.012	-21.77492
686.209	100.4782
686.405	-30.20322
686.602	41.44967
686.799	7.72721
686.996	87.82774
687.192	58.31314
687.389	-2.80981
687.586	-2.80981
687.782	-13.34623
687.979	5.61975
688.175	-34.41722
688.372	70.96171
688.568	3.51233
688.765	11.94218
688.962	20.37242
689.158	20.37242
689.355	96.26129
689.551	54.09713
689.748	-36.52418
689.944	37.23403
690.14	22.48004
690.337	47.77329
690.533	28.80304
690.73	-19.66778
690.926	11.94218
691.123	64.63732
691.319	20.37242
691.515	-7.02445
691.712	35.12624
691.908	16.15725
692.104	-9.13173
692.301	14.04971
692.497	20.37242
692.693	-19.66778
692.889	30.91075
693.086	1.40492
693.282	45.6654
693.478	56.20513
693.674	-2.80981
693.87	28.80304
694.067	14.04971
694.263	54.09713
694.459	28.80304
694.655	70.96171
694.851	123.67278
695.047	18.26482
695.243	-34.41722
695.439	11.94218
695.635	-30.20322
695.831	39.34183
696.027	16.15725
696.224	-44.95179
696.42	24.58768
696.615	43.55752
696.811	5.61975
697.007	14.04971
697.203	83.6111
697.399	20.37242
697.595	16.15725
697.791	54.09713
697.987	24.58768
698.183	11.94218
698.379	-7.02445
698.575	66.74543
698.77	7.72721
698.966	-53.37899
699.162	-23.88203
699.358	75.17808
699.554	77.2863
699.749	39.34183
699.945	28.80304
700.141	26.69535
700.337	83.6111
700.532	18.26482
700.728	22.48004
700.924	-4.91714
701.119	43.55752
701.315	-30.20322
701.511	70.96171
701.706	-21.77492
701.902	54.09713
702.097	66.74543
702.293	11.94218
702.489	33.01848
702.684	33.01848
702.88	64.63732
703.075	-9.13173
703.271	-38.63112
703.466	37.23403
703.662	-70.23219
703.857	-2.80981
704.053	28.80304
704.248	54.09713
704.443	30.91075
704.639	41.44967
704.834	14.04971
705.03	83.6111
705.225	26.69535
705.42	-25.98912
705.616	-59.69913
705.811	66.74543
706.006	-53.37899
706.202	-15.45344
706.397	-40.73804
706.592	-4.91714
706.787	28.80304
706.983	24.58768
707.178	9.83468
707.373	66.74543
707.568	20.37242
707.763	56.20513
707.959	22.48004
708.154	26.69535
708.349	-0.70246
708.544	75.17808
708.739	-21.77492
708.934	45.6654
709.129	-4.91714
709.324	24.58768
709.519	54.09713
709.714	35.12624
709.909	24.58768
710.104	68.85356
710.299	49.88122
710.494	49.88122
710.689	39.34183
710.884	22.48004
711.079	39.34183
711.274	5.61975
711.469	37.23403
711.664	106.80373
711.859	68.85356
712.054	37.23403
712.249	51.98916
712.443	-11.23899
712.638	-34.41722
712.833	64.63732
713.028	-21.77492
713.223	35.12624
713.417	18.26482
713.612	-0.70246
713.807	22.48004
714.002	-15.45344
714.196	-21.77492
714.391	-21.77492
714.586	43.55752
714.78	-4.91714
714.975	5.61975
715.17	62.52924
715.364	30.91075
715.559	-28.09618
715.754	16.15725
715.948	64.63732
716.143	56.20513
716.337	49.88122
716.532	81.50281
716.726	11.94218
716.921	56.20513
717.115	54.09713
717.31	-9.13173
717.504	-0.70246
717.699	14.04971
717.893	18.26482
718.088	3.51233
718.282	3.51233
718.476	45.6654
718.671	11.94218
718.865	16.15725
719.059	54.09713
719.254	7.72721
719.448	-0.70246
719.642	66.74543
719.837	54.09713
720.031	45.6654
720.225	30.91075
720.419	96.26129
720.614	5.61975
720.808	9.83468
721.002	-25.98912
721.196	14.04971
721.39	16.15725
721.585	85.71941
721.779	-4.91714
721.973	-42.84492
722.167	5.61975
722.361	9.83468
722.555	9.83468
722.749	-23.88203
722.943	24.58768
723.137	39.34183
723.331	-0.70246
723.525	66.74543
723.719	28.80304
723.913	28.80304
724.107	87.82774
724.301	3.51233
724.495	-0.70246
724.689	-44.95179
724.883	22.48004
725.077	1.40492
725.271	47.77329
725.465	26.69535
725.659	-53.37899
725.853	-9.13173
726.046	-53.37899
726.24	-11.23899
726.434	37.23403
726.628	-23.88203
726.822	-2.80981
727.015	37.23403
727.209	-25.98912
727.403	-0.70246
727.596	20.37242
727.79	60.42118
727.984	-34.41722
728.177	-23.88203
728.371	5.61975
728.565	-30.20322
728.758	18.26482
728.952	85.71941
729.146	26.69535
729.339	-4.91714
729.533	-9.13173
729.726	-2.80981
729.92	47.77329
730.113	24.58768
730.307	-4.91714
730.5	45.6654
730.694	-2.80981
730.887	28.80304
731.081	-11.23899
731.274	-42.84492
731.468	-13.34623
731.661	-13.34623
731.854	20.37242
732.048	-19.66778
732.241	1.40492
732.435	-4.91714
732.628	43.55752
732.821	30.91075
733.014	-55.48573
733.208	14.04971
733.401	-2.80981
733.594	-38.63112
733.788	49.88122
733.981	20.37242
734.174	49.88122
734.367	7.72721
734.56	-13.34623
734.754	-61.80579
734.947	-21.77492
735.14	-15.45344
735.333	60.42118
735.526	33.01848
735.719	24.58768
735.912	-4.91714
736.105	18.26482
736.298	45.6654
736.491	-93.40265
736.684	20.37242
736.877	-13.34623
737.07	39.34183
737.263	-68.12563
737.456	9.83468
737.649	20.37242
737.842	-13.34623
738.035	54.09713
738.228	-47.05863
738.421	89.9361
738.614	-38.63112
738.807	-4.91714
739	-7.02445
739.192	37.23403
739.385	18.26482
739.578	-25.98912
739.771	62.52924
739.964	18.26482
740.156	37.23403
740.349	11.94218
740.542	1.40492
740.735	47.77329
740.927	3.51233
741.12	11.94218
741.313	49.88122
741.505	39.34183
741.698	-32.31023
741.891	24.58768
742.083	3.51233
742.276	33.01848
742.468	24.58768
742.661	24.58768
742.854	24.58768
743.046	79.39455
743.239	-36.52418
743.431	-76.55171
743.624	-0.70246
743.816	28.80304
744.009	-11.23899
744.201	-25.98912
744.393	51.98916
744.586	-11.23899
744.778	-2.80981
744.971	11.94218
745.163	-21.77492
745.355	60.42118
745.548	-0.70246
745.74	39.34183
745.932	-9.13173
746.125	-13.34623
746.317	37.23403
746.509	9.83468
746.702	-30.20322
746.894	28.80304
747.086	11.94218
747.278	5.61975
747.471	43.55752
747.663	45.6654
747.855	30.91075
748.047	-4.91714
748.239	-9.13173
748.431	87.82774
748.623	-44.95179
748.815	43.55752
749.008	24.58768
749.2	45.6654
749.392	20.37242
749.584	20.37242
749.776	-72.33872
749.968	87.82774
750.16	16.15725
750.352	54.09713
750.544	5.61975
750.736	-17.56062
750.928	-28.09618
751.12	-4.91714
751.311	100.4782
751.503	18.26482
751.695	24.58768
751.887	51.98916
752.079	-47.05863
752.271	68.85356
752.463	-9.13173
752.654	24.58768
752.846	9.83468
753.038	96.26129
753.23	47.77329
753.421	33.01848
753.613	20.37242
753.805	-59.69913
753.997	-19.66778
754.188	28.80304
754.38	-40.73804
754.572	30.91075
754.763	-21.77492
754.955	-61.80579
755.146	7.72721
755.338	45.6654
755.53	-11.23899
755.721	-47.05863
755.913	30.91075
756.104	87.82774
756.296	9.83468
756.487	16.15725
756.679	24.58768
756.87	-4.91714
757.062	30.91075
757.253	47.77329
757.445	54.09713
757.636	18.26482
757.827	1.40492
758.019	-0.70246
758.21	47.77329
758.401	28.80304
758.593	28.80304
758.784	3.51233
758.975	24.58768
759.167	37.23403
759.358	28.80304
759.549	9.83468
759.74	39.34183
759.932	-21.77492
760.123	45.6654
760.314	11.94218
760.505	11.94218
760.696	51.98916
760.888	115.23808
761.079	3.51233
761.27	30.91075
761.461	-9.13173
761.652	-11.23899
761.843	5.61975
762.034	3.51233
762.225	64.63732
762.416	30.91075
762.607	-25.98912
762.798	-21.77492
762.989	47.77329
763.18	28.80304
763.371	85.71941
763.562	37.23403
763.753	41.44967
763.944	24.58768
764.135	11.94218
764.326	96.26129
764.517	-2.80981
764.708	30.91075
764.899	41.44967
765.089	1.40492
765.28	-13.34623
765.471	-19.66778
765.662	-25.98912
765.853	-11.23899
766.043	62.52924
766.234	-13.34623
766.425	39.34183
766.615	3.51233
766.806	70.96171
766.997	-7.02445
767.187	41.44967
767.378	-19.66778
767.569	3.51233
767.759	30.91075
767.95	24.58768
768.141	54.09713
768.331	3.51233
768.522	45.6654
768.712	11.94218
768.903	3.51233
769.093	58.31314
769.284	41.44967
769.474	-34.41722
769.665	11.94218
769.855	-28.09618
770.046	-36.52418
770.236	47.77329
770.426	7.72721
770.617	20.37242
770.807	-89.19007
770.998	108.91229
771.188	-7.02445
771.378	16.15725
771.569	68.85356
771.759	-0.70246
771.949	24.58768
772.139	-21.77492
772.33	28.80304
772.52	45.6654
772.71	-2.80981
772.9	-28.09618
773.09	-63.91243
773.281	35.12624
773.471	37.23403
773.661	-4.91714
773.851	-28.09618
774.041	20.37242
774.231	39.34183
774.421	60.42118
774.611	104.6952
774.802	39.34183
774.992	54.09713
775.182	37.23403
775.372	-28.09618
775.562	70.96171
775.752	75.17808
775.942	33.01848
776.131	-9.13173
776.321	54.09713
776.511	16.15725
776.701	28.80304
776.891	-34.41722
777.081	-0.70246
777.271	14.04971
777.461	20.37242
777.651	49.88122
777.84	45.6654
778.03	-7.02445
778.22	14.04971
778.41	-21.77492
778.599	22.48004
778.789	-34.41722
778.979	-7.02445
779.169	-4.91714
779.358	30.91075
779.548	20.37242
779.738	-36.52418
779.927	-40.73804
780.117	14.04971
780.307	-21.77492
780.496	37.23403
780.686	24.58768
780.875	5.61975
781.065	58.31314
781.254	-47.05863
781.444	9.83468
781.633	14.04971
781.823	22.48004
782.012	62.52924
782.202	11.94218
782.391	49.88122
782.581	68.85356
782.77	-34.41722
782.96	28.80304
783.149	-15.45344
783.338	22.48004
783.528	-9.13173
783.717	66.74543
783.906	87.82774
784.096	-13.34623
784.285	28.80304
784.474	24.58768
784.663	7.72721
784.853	-28.09618
785.042	-4.91714
785.231	26.69535
785.42	47.77329
785.61	-59.69913
785.799	-51.27223
785.988	24.58768
786.177	20.37242
786.366	24.58768
786.555	20.37242
786.744	-0.70246
786.933	22.48004
787.122	-15.45344
787.312	11.94218
787.501	16.15725
787.69	16.15725
787.879	45.6654
788.068	58.31314
788.257	-70.23219
788.445	62.52924
788.634	41.44967
788.823	-9.13173
789.012	-42.84492
789.201	54.09713
789.39	30.91075
789.579	5.61975
789.768	47.77329
789.957	-36.52418
790.145	-11.23899
790.334	7.72721
790.523	-0.70246
790.712	20.37242
790.9	85.71941
791.089	16.15725
791.278	30.91075
791.467	-4.91714
791.655	79.39455
791.844	-0.70246
792.033	-17.56062
792.221	-19.66778
792.41	20.37242
792.599	7.72721
792.787	96.26129
792.976	33.01848
793.164	5.61975
793.353	49.88122
793.541	64.63732
793.73	37.23403
793.918	35.12624
794.107	54.09713
794.295	20.37242
794.484	-0.70246
794.672	58.31314
794.861	66.74543
795.049	-4.91714
795.238	30.91075
795.426	49.88122
795.614	11.94218
795.803	39.34183
795.991	-13.34623
796.179	-0.70246
796.368	-2.80981
796.556	-63.91243
796.744	-11.23899
796.932	92.04447
797.121	28.80304
797.309	49.88122
797.497	-9.13173
797.685	-9.13173
797.874	33.01848
798.062	-44.95179
798.25	-0.70246
798.438	16.15725
798.626	33.01848
798.814	-13.34623
799.002	64.63732
799.19	33.01848
799.378	87.82774
799.566	-42.84492
799.755	24.58768
799.943	92.04447
800.131	-55.48573
800.318	37.23403
800.506	58.31314
800.694	49.88122
800.882	-38.63112
801.07	68.85356
801.258	41.44967
801.446	83.6111
801.634	-2.80981
801.822	35.12624
802.01	16.15725
802.197	-28.09618
802.385	47.77329
802.573	-36.52418
802.761	73.06989
802.949	14.04971
803.136	33.01848
803.324	-11.23899
803.512	-21.77492
803.699	-70.23219
803.887	28.80304
804.075	11.94218
804.262	96.26129
804.45	-2.80981
804.638	41.44967
804.825	37.23403
805.013	-13.34623
805.201	16.15725
805.388	37.23403
805.576	83.6111
805.763	-63.91243
805.951	56.20513
806.138	-13.34623
806.326	58.31314
806.513	30.91075
806.701	68.85356
806.888	41.44967
807.075	-17.56062
807.263	111.02086
807.45	64.63732
807.638	92.04447
807.825	30.91075
808.012	-23.88203
808.2	-15.45344
808.387	98.36974
808.574	89.9361
808.761	22.48004
808.949	-0.70246
809.136	56.20513
809.323	3.51233
809.51	-28.09618
809.698	5.61975
809.885	64.63732
810.072	96.26129
810.259	-2.80981
810.446	3.51233
810.633	-0.70246
810.82	-19.66778
811.008	83.6111
811.195	11.94218
811.382	68.85356
811.569	-4.91714
811.756	-38.63112
811.943	5.61975
812.13	45.6654
812.317	33.01848
812.504	14.04971
812.691	-19.66778
812.878	73.06989
813.064	26.69535
813.251	56.20513
813.438	14.04971
813.625	5.61975
813.812	62.52924
813.999	16.15725
814.186	-2.80981
814.372	37.23403
814.559	3.51233
814.746	60.42118
814.933	5.61975
815.12	45.6654
815.306	7.72721
815.493	7.72721
815.68	47.77329
815.866	14.04971
816.053	37.23403
816.24	3.51233
816.426	-17.56062
816.613	33.01848
816.799	22.48004
816.986	11.94218
817.173	-17.56062
817.359	-30.20322
817.546	45.6654
817.732	22.48004
817.919	5.61975
818.105	54.09713
818.292	-9.13173
818.478	47.77329
818.665	75.17808
818.851	-4.91714
819.037	-7.02445
819.224	-23.88203
819.41	5.61975
819.597	11.94218
819.783	68.85356
819.969	108.91229
820.156	-19.66778
820.342	35.12624
820.528	47.77329
820.714	-11.23899
820.901	-13.34623
821.087	14.04971
821.273	49.88122
821.459	11.94218
821.646	9.83468
821.832	47.77329
822.018	24.58768
822.204	37.23403
822.39	87.82774
822.576	-11.23899
822.762	-38.63112
822.948	18.26482
823.134	-19.66778
823.32	45.6654
823.507	18.26482
823.693	20.37242
823.879	49.88122
824.065	39.34183
824.25	16.15725
824.436	-2.80981
824.622	-42.84492
824.808	16.15725
824.994	-13.34623
825.18	58.31314
825.366	5.61975
825.552	11.94218
825.738	70.96171
825.923	24.58768
826.109	9.83468
826.295	51.98916
826.481	45.6654
826.667	66.74543
826.852	1.40492
827.038	1.40492
827.224	-13.34623
827.409	-4.91714
827.595	60.42118
827.781	-4.91714
827.966	33.01848
828.152	45.6654
828.338	-9.13173
828.523	64.63732
828.709	22.48004
828.894	64.63732
829.08	-17.56062
829.266	-30.20322
829.451	47.77329
829.637	9.83468
829.822	-19.66778
830.008	-11.23899
830.193	11.94218
830.378	37.23403
830.564	100.4782
830.749	-47.05863
830.935	68.85356
831.12	77.2863
831.305	37.23403
831.491	66.74543
831.676	39.34183
831.861	-19.66778
832.047	-44.95179
832.232	22.48004
832.417	113.12946
832.602	-15.45344
832.788	14.04971
832.973	43.55752
833.158	5.61975
833.343	18.26482
833.528	-51.27223
833.714	16.15725
833.899	33.01848
834.084	11.94218
834.269	-53.37899
834.454	-13.34623
834.639	5.61975
834.824	64.63732
835.009	-21.77492
835.194	-4.91714
835.379	-11.23899
835.564	-23.88203
835.749	-25.98912
835.934	-17.56062
836.119	-80.7646
836.304	-30.20322
836.489	33.01848
836.674	49.88122
836.859	-30.20322
837.044	132.10782
837.228	22.48004
837.413	68.85356
837.598	54.09713
837.783	7.72721
837.968	41.44967
838.152	11.94218
838.337	-11.23899
838.522	81.50281
838.707	11.94218
838.891	5.61975
839.076	11.94218
839.261	11.94218
839.445	24.58768
839.63	37.23403
839.815	79.39455
839.999	121.56407
840.184	-0.70246
840.368	7.72721
840.553	-38.63112
840.737	-32.31023
840.922	47.77329
841.106	-19.66778
841.291	7.72721
841.475	79.39455
841.66	-42.84492
841.844	47.77329
842.029	-36.52418
842.213	28.80304
842.397	14.04971
842.582	11.94218
842.766	-63.91243
842.951	37.23403
843.135	-30.20322
843.319	87.82774
843.504	35.12624
843.688	56.20513
843.872	35.12624
844.056	79.39455
844.241	58.31314
844.425	14.04971
844.609	18.26482
844.793	58.31314
844.977	-0.70246
845.161	56.20513
845.346	-38.63112
845.53	41.44967
845.714	-21.77492
845.898	20.37242
846.082	-2.80981
846.266	62.52924
846.45	28.80304
846.634	56.20513
846.818	58.31314
847.002	5.61975
847.186	-28.09618
847.37	41.44967
847.554	39.34183
847.738	-34.41722
847.922	47.77329
848.106	41.44967
848.29	7.72721
848.473	20.37242
848.657	37.23403
848.841	7.72721
849.025	-72.33872
849.209	41.44967
849.392	-9.13173
849.576	64.63732
849.76	-55.48573
849.944	9.83468
850.127	5.61975
850.311	16.15725
850.495	11.94218
850.678	3.51233
850.862	64.63732
851.046	70.96171
851.229	-38.63112
851.413	58.31314
851.596	-17.56062
851.78	45.6654
851.964	-53.37899
852.147	54.09713
852.331	45.6654
852.514	9.83468
852.698	26.69535
852.881	85.71941
853.065	45.6654
853.248	28.80304
853.431	37.23403
853.615	24.58768
853.798	-4.91714
853.982	-17.56062
854.165	62.52924
854.348	26.69535
854.532	-21.77492
854.715	18.26482
854.898	-21.77492
855.081	60.42118
855.265	-95.5089
855.448	47.77329
855.631	7.72721
855.814	-28.09618
855.997	20.37242
856.181	-7.02445
856.364	16.15725
856.547	35.12624
856.73	-25.98912
856.913	-17.56062
857.096	43.55752
857.279	28.80304
857.462	-55.48573
857.645	70.96171
857.828	30.91075
858.011	-21.77492
858.194	-34.41722
858.377	70.96171
858.56	83.6111
858.743	43.55752
858.926	14.04971
859.109	45.6654
859.292	11.94218
859.475	-19.66778
859.658	41.44967
859.841	-55.48573
860.023	20.37242
860.206	79.39455
860.389	66.74543
860.572	62.52924
860.755	-4.91714
860.937	28.80304
861.12	-53.37899
861.303	92.04447
861.486	37.23403
861.668	68.85356
861.851	-11.23899
862.034	22.48004
862.216	-57.59244
862.399	20.37242
862.581	-38.63112
862.764	-51.27223
862.947	-38.63112
863.129	-2.80981
863.312	-0.70246
863.494	-2.80981
863.677	37.23403
863.859	3.51233
864.042	54.09713
864.224	41.44967
864.406	43.55752
864.589	16.15725
864.771	98.36974
864.954	54.09713
865.136	3.51233
865.318	-7.02445
865.501	30.91075
865.683	20.37242
865.865	-19.66778
866.048	33.01848
866.23	66.74543
866.412	3.51233
866.594	26.69535
866.777	39.34183
866.959	24.58768
867.141	11.94218
867.323	-0.70246
867.505	-30.20322
867.687	-13.34623
867.869	41.44967
868.052	5.61975
868.234	28.80304
868.416	11.94218
868.598	39.34183
868.78	45.6654
868.962	47.77329
869.144	3.51233
869.326	20.37242
869.508	-63.91243
869.69	56.20513
869.872	33.01848
870.054	1.40492
870.236	104.6952
870.417	87.82774
870.599	-11.23899
870.781	5.61975
870.963	-11.23899
871.145	-36.52418
871.327	-2.80981
871.508	56.20513
871.69	45.6654
871.872	-4.91714
872.054	-55.48573
872.235	9.83468
872.417	3.51233
872.599	11.94218
872.78	37.23403
872.962	-7.02445
873.144	58.31314
873.325	16.15725
873.507	5.61975
873.689	51.98916
873.87	1.40492
874.052	-0.70246
874.233	16.15725
874.415	20.37242
874.596	58.31314
874.778	18.26482
874.959	20.37242
875.141	3.51233
875.322	3.51233
875.503	-0.70246
875.685	20.37242
875.866	30.91075
876.048	56.20513
876.229	-53.37899
876.41	-21.77492
876.592	37.23403
876.773	-7.02445
876.954	75.17808
877.136	-84.97739
877.317	41.44967
877.498	5.61975
877.679	16.15725
877.86	62.52924
878.042	33.01848
878.223	47.77329
878.404	20.37242
878.585	47.77329
878.766	16.15725
878.947	39.34183
879.128	-38.63112
879.309	1.40492
879.49	35.12624
879.672	56.20513
879.853	1.40492
880.034	79.39455
880.215	9.83468
880.396	1.40492
880.576	41.44967
880.757	-30.20322
880.938	37.23403
881.119	-13.34623
881.3	39.34183
881.481	-72.33872
881.662	-51.27223
881.843	79.39455
882.023	-13.34623
882.204	-11.23899
882.385	20.37242
882.566	49.88122
882.747	1.40492
882.927	39.34183
883.108	35.12624
883.289	47.77329
883.469	33.01848
883.65	-55.48573
883.831	-17.56062
884.011	75.17808
884.192	49.88122
884.373	30.91075
884.553	16.15725
884.734	-32.31023
884.914	28.80304
885.095	47.77329
885.275	11.94218
885.456	89.9361
885.636	28.80304
885.817	-25.98912
885.997	3.51233
886.178	-7.02445
886.358	43.55752
886.538	58.31314
886.719	-36.52418
886.899	14.04971
887.08	18.26482
887.26	-61.80579
887.44	3.51233
887.621	-0.70246
887.801	-28.09618
887.981	28.80304
888.161	33.01848
888.342	70.96171
888.522	-30.20322
888.702	-11.23899
888.882	3.51233
889.062	20.37242
889.242	39.34183
889.423	-13.34623
889.603	22.48004
889.783	-9.13173
889.963	-44.95179
890.143	-19.66778
890.323	-7.02445
890.503	60.42118
890.683	51.98916
890.863	-21.77492
891.043	-9.13173
891.223	20.37242
891.403	70.96171
891.583	70.96171
891.763	14.04971
891.943	45.6654
892.122	58.31314
892.302	28.80304
892.482	-30.20322
892.662	-28.09618
892.842	51.98916
893.022	81.50281
893.201	-25.98912
893.381	104.6952
893.561	45.6654
893.741	-9.13173
893.92	37.23403
894.1	20.37242
894.28	45.6654
894.459	24.58768
894.639	54.09713
894.819	-13.34623
894.998	26.69535
895.178	-0.70246
895.357	45.6654
895.537	58.31314
895.716	-4.91714
895.896	-53.37899
896.075	70.96171
896.255	9.83468
896.434	60.42118
896.614	45.6654
896.793	68.85356
896.973	26.69535
897.152	-11.23899
897.331	-53.37899
897.511	-0.70246
897.69	-19.66778
897.87	45.6654
898.049	20.37242
898.228	37.23403
898.407	28.80304
898.587	-47.05863
898.766	-13.34623
898.945	-59.69913
899.124	11.94218
899.304	89.9361
899.483	14.04971
899.662	16.15725
899.841	-11.23899
900.02	1.40492
900.199	-2.80981
900.378	28.80304
900.557	-0.70246
900.737	-34.41722
900.916	66.74543
901.095	3.51233
901.274	41.44967
901.453	37.23403
901.632	-2.80981
901.811	7.72721
901.989	64.63732
902.168	79.39455
902.347	14.04971
902.526	83.6111
902.705	3.51233
902.884	-9.13173
903.063	62.52924
903.242	39.34183
903.42	-32.31023
903.599	33.01848
903.778	18.26482
903.957	24.58768
904.135	-40.73804
904.314	-4.91714
904.493	3.51233
904.672	-51.27223
904.85	45.6654
905.029	3.51233
905.207	11.94218
905.386	45.6654
905.565	-78.65817
905.743	7.72721
905.922	41.44967
906.1	28.80304
906.279	7.72721
906.457	-17.56062
906.636	58.31314
906.814	-13.34623
906.993	35.12624
907.171	54.09713
907.35	-38.63112
907.528	-28.09618
907.707	58.31314
907.885	73.06989
908.063	-9.13173
908.242	24.58768
908.42	28.80304
908.598	87.82774
908.777	106.80373
908.955	3.51233
909.133	-32.31023
909.311	-47.05863
909.49	-7.02445
909.668	-7.02445
909.846	-44.95179
910.024	1.40492
910.202	18.26482
910.38	45.6654
910.559	-38.63112
910.737	30.91075
910.915	20.37242
911.093	70.96171
911.271	100.4782
911.449	83.6111
911.627	24.58768
911.805	49.88122
911.983	49.88122
912.161	49.88122
912.339	-17.56062
912.517	7.72721
912.695	-13.34623
912.872	14.04971
913.05	5.61975
913.228	16.15725
913.406	28.80304
913.584	-2.80981
913.762	1.40492
913.939	37.23403
914.117	-61.80579
914.295	45.6654
914.473	11.94218
914.65	45.6654
914.828	16.15725
915.006	22.48004
915.184	30.91075
915.361	-28.09618
915.539	96.26129
915.716	9.83468
915.894	24.58768
916.072	37.23403
916.249	96.26129
916.427	33.01848
916.604	77.2863
916.782	129.99903
916.959	-91.29638
917.137	54.09713
917.314	11.94218
917.492	-49.16544
917.669	75.17808
917.847	58.31314
918.024	-13.34623
918.201	16.15725
918.379	-23.88203
918.556	37.23403
918.733	-63.91243
918.911	11.94218
919.088	11.94218
919.265	49.88122
919.442	3.51233
919.62	41.44967
919.797	-30.20322
919.974	39.34183
920.151	108.91229
920.328	45.6654
920.506	45.6654
920.683	41.44967
920.86	-0.70246
921.037	45.6654
921.214	26.69535
921.391	39.34183
921.568	-49.16544
921.745	89.9361
921.922	22.48004
922.099	20.37242
922.276	54.09713
922.453	37.23403
922.63	92.04447
922.807	11.94218
922.984	-13.34623
923.161	-38.63112
923.338	-11.23899
923.514	35.12624
923.691	11.94218
923.868	24.58768
924.045	37.23403
924.222	30.91075
924.399	-13.34623
924.575	35.12624
924.752	-51.27223
924.929	30.91075
925.105	-44.95179
925.282	-17.56062
925.459	-53.37899
925.635	1.40492
925.812	33.01848
925.989	1.40492
926.165	-51.27223
926.342	-34.41722
926.518	-30.20322
926.695	-17.56062
926.871	51.98916
927.048	-21.77492
927.224	-47.05863
927.401	-28.09618
927.577	3.51233
927.754	87.82774
927.93	11.94218
928.107	45.6654
928.283	75.17808
928.459	9.83468
928.636	51.98916
928.812	11.94218
928.988	-4.91714
929.165	113.12946
929.341	-34.41722
929.517	100.4782
929.693	47.77329
929.87	-25.98912
930.046	45.6654
930.222	37.23403
930.398	62.52924
930.574	33.01848
930.751	64.63732
930.927	39.34183
931.103	85.71941
931.279	79.39455
931.455	9.83468
931.631	47.77329
931.807	-9.13173
931.983	1.40492
932.159	83.6111
932.335	45.6654
932.511	-55.48573
932.687	-19.66778
932.863	11.94218
933.039	58.31314
933.215	-25.98912
933.391	-38.63112
933.566	30.91075
933.742	54.09713
933.918	45.6654
934.094	3.51233
934.27	39.34183
934.445	-19.66778
934.621	18.26482
934.797	28.80304
934.973	-15.45344
935.148	73.06989
935.324	-17.56062
935.5	45.6654
935.675	7.72721
935.851	77.2863
936.027	129.99903
936.202	-7.02445
936.378	41.44967
936.553	28.80304
936.729	-0.70246
936.904	64.63732
937.08	-44.95179
937.255	7.72721
937.431	66.74543
937.606	14.04971
937.782	45.6654
937.957	30.91075
938.133	7.72721
938.308	60.42118
938.483	-55.48573
938.659	75.17808
938.834	3.51233
939.009	11.94218
939.185	-72.33872
939.36	92.04447
939.535	51.98916
939.71	83.6111
939.886	45.6654
940.061	-40.73804
940.236	-25.98912
940.411	-7.02445
940.586	-4.91714
940.761	92.04447
940.937	41.44967
941.112	100.4782
941.287	-47.05863
941.462	-38.63112
941.637	-19.66778
941.812	3.51233
941.987	33.01848
942.162	-2.80981
942.337	66.74543
942.512	3.51233
942.687	-38.63112
942.862	-15.45344
943.037	-28.09618
943.212	33.01848
943.386	-34.41722
943.561	-11.23899
943.736	47.77329
943.911	-2.80981
944.086	62.52924
944.26	-25.98912
944.435	-30.20322
944.61	-47.05863
944.785	37.23403
944.959	3.51233
945.134	45.6654
945.309	1.40492
945.483	-36.52418
945.658	54.09713
945.833	7.72721
946.007	41.44967
946.182	60.42118
946.357	-47.05863
946.531	20.37242
946.706	47.77329
946.88	7.72721
947.055	49.88122
947.229	92.04447
947.404	83.6111
947.578	54.09713
947.752	37.23403
947.927	-17.56062
948.101	24.58768
948.276	24.58768
948.45	1.40492
948.624	7.72721
948.799	-47.05863
948.973	26.69535
949.147	45.6654
949.321	117.34672
949.496	108.91229
949.67	-25.98912
949.844	60.42118
950.018	-2.80981
950.193	-34.41722
950.367	-0.70246
950.541	28.80304
950.715	-15.45344
950.889	-17.56062
951.063	26.69535
951.237	11.94218
951.411	87.82774
951.585	94.15287
951.759	56.20513
951.933	37.23403
952.107	1.40492
952.281	92.04447
952.455	47.77329
952.629	39.34183
952.803	-4.91714
952.977	73.06989
953.151	-11.23899
953.325	77.2863
953.499	-4.91714
953.672	-17.56062
953.846	64.63732
954.02	-28.09618
954.194	41.44967
954.368	11.94218
954.541	3.51233
954.715	37.23403
954.889	41.44967
955.062	70.96171
955.236	26.69535
955.41	-0.70246
955.583	-11.23899
955.757	108.91229
955.93	28.80304
956.104	49.88122
956.278	87.82774
956.451	60.42118
956.625	22.48004
956.798	7.72721
956.972	24.58768
957.145	-11.23899
957.319	-4.91714
957.492	37.23403
957.665	51.98916
957.839	-0.70246
958.012	-21.77492
958.185	81.50281
958.359	66.74543
958.532	28.80304
958.705	54.09713
958.879	-63.91243
959.052	33.01848
959.225	-4.91714
959.398	-21.77492
959.572	-47.05863
959.745	3.51233
959.918	14.04971
960.091	30.91075
960.264	3.51233
960.438	28.80304
960.611	-13.34623
960.784	16.15725
960.957	20.37242
961.13	54.09713
961.303	28.80304
961.476	24.58768
961.649	89.9361
961.822	81.50281
961.995	-19.66778
962.168	81.50281
962.341	37.23403
962.514	28.80304
962.686	14.04971
962.859	28.80304
963.032	20.37242
963.205	41.44967
963.378	49.88122
963.551	98.36974
963.723	22.48004
963.896	-9.13173
964.069	-25.98912
964.242	11.94218
964.414	45.6654
964.587	-0.70246
964.76	5.61975
964.932	62.52924
965.105	45.6654
965.278	39.34183
965.45	22.48004
965.623	58.31314
965.795	28.80304
965.968	5.61975
966.14	22.48004
966.313	60.42118
966.485	16.15725
966.658	-19.66778
966.83	28.80304
967.003	58.31314
967.175	89.9361
967.348	5.61975
967.52	-7.02445
967.692	73.06989
967.865	-59.69913
968.037	-4.91714
968.209	-2.80981
968.382	39.34183
968.554	58.31314
968.726	45.6654
968.898	39.34183
969.071	-21.77492
969.243	24.58768
969.415	54.09713
969.587	49.88122
969.759	-2.80981
969.932	45.6654
970.104	9.83468
970.276	45.6654
970.448	-11.23899
970.62	-11.23899
970.792	70.96171
970.964	-2.80981
971.136	-0.70246
971.308	45.6654
971.48	-2.80981
971.652	49.88122
971.824	-44.95179
971.996	-59.69913
972.168	-11.23899
972.339	-28.09618
972.511	37.23403
972.683	28.80304
972.855	-2.80981
973.027	-19.66778
973.199	1.40492
973.37	33.01848
973.542	9.83468
973.714	-17.56062
973.886	14.04971
974.057	62.52924
974.229	-57.59244
974.401	5.61975
974.572	20.37242
974.744	60.42118
974.915	-0.70246
975.087	16.15725
975.259	14.04971
975.43	37.23403
975.602	-53.37899
975.773	66.74543
975.945	-21.77492
976.116	-11.23899
976.288	62.52924
976.459	3.51233
976.63	30.91075
976.802	96.26129
976.973	-21.77492
977.145	3.51233
977.316	20.37242
977.487	136.32547
977.659	-53.37899
977.83	22.48004
978.001	35.12624
978.172	9.83468
978.344	-19.66778
978.515	54.09713
978.686	-19.66778
978.857	49.88122
979.028	-9.13173
979.2	-47.05863
979.371	11.94218
979.542	41.44967
979.713	-28.09618
979.884	54.09713
980.055	81.50281
980.226	-2.80981
980.397	22.48004
980.568	43.55752
980.739	-4.91714
980.91	77.2863
981.081	-4.91714
981.252	11.94218
981.423	37.23403
981.594	-4.91714
981.765	81.50281
981.936	96.26129
982.106	54.09713
982.277	-44.95179
982.448	33.01848
982.619	106.80373
982.79	3.51233
982.96	30.91075
983.131	41.44967
983.302	66.74543
983.472	-49.16544
983.643	-32.31023
983.814	9.83468
983.984	3.51233
984.155	-19.66778
984.326	-34.41722
984.496	-13.34623
984.667	-80.7646
984.837	18.26482
985.008	-42.84492
985.178	-0.70246
985.349	-89.19007
985.519	7.72721
985.69	56.20513
985.86	5.61975
986.031	11.94218
986.201	-21.77492
986.371	-9.13173
986.542	-34.41722
986.712	3.51233
986.882	3.51233
987.053	64.63732
987.223	37.23403
987.393	7.72721
987.563	89.9361
987.734	-57.59244
987.904	-7.02445
988.074	49.88122
988.244	3.51233
988.414	24.58768
988.585	54.09713
988.755	-30.20322
988.925	14.04971
989.095	64.63732
989.265	-25.98912
989.435	45.6654
989.605	37.23403
989.775	73.06989
989.945	73.06989
990.115	58.31314
990.285	3.51233
990.455	75.17808
990.625	-13.34623
990.795	11.94218
990.965	33.01848
991.134	-13.34623
991.304	1.40492
991.474	58.31314
991.644	-21.77492
991.814	7.72721
991.984	47.77329
992.153	79.39455
992.323	24.58768
992.493	-30.20322
992.662	-9.13173
992.832	-21.77492
993.002	94.15287
993.171	-19.66778
993.341	45.6654
993.511	-0.70246
993.68	98.36974
993.85	24.58768
994.019	39.34183
994.189	18.26482
994.358	20.37242
994.528	37.23403
994.697	22.48004
994.867	37.23403
995.036	35.12624
995.206	60.42118
995.375	11.94218
995.544	22.48004
995.714	20.37242
995.883	79.39455
996.052	-4.91714
996.222	28.80304
996.391	81.50281
996.56	5.61975
996.73	54.09713
996.899	-25.98912
997.068	51.98916
997.237	-34.41722
997.406	-40.73804
997.576	115.23808
997.745	-0.70246
997.914	45.6654
998.083	-47.05863
998.252	-17.56062
998.421	-11.23899
998.59	47.77329
998.759	11.94218
998.928	37.23403
999.097	33.01848
999.266	-42.84492
999.435	14.04971
999.604	18.26482
999.773	30.91075
999.942	30.91075
1000.111	-57.59244
1000.28	68.85356
1000.448	-0.70246
1000.617	7.72721
1000.786	58.31314
1000.955	-13.34623
1001.124	58.31314
1001.292	-11.23899
1001.461	28.80304
1001.63	20.37242
1001.798	-25.98912
1001.967	18.26482
1002.136	37.23403
1002.304	5.61975
1002.473	37.23403
1002.642	11.94218
1002.81	-19.66778
1002.979	83.6111
1003.147	9.83468
1003.316	1.40492
1003.484	-9.13173
1003.653	20.37242
1003.821	-19.66778
1003.99	49.88122
1004.158	22.48004
1004.327	70.96171
1004.495	-30.20322
1004.663	16.15725
1004.832	51.98916
1005	28.80304
1005.168	3.51233
1005.337	30.91075
1005.505	24.58768
1005.673	81.50281
1005.842	3.51233
1006.01	104.6952
1006.178	51.98916
1006.346	-25.98912
1006.514	83.6111
1006.683	-34.41722
1006.851	-13.34623
1007.019	22.48004
1007.187	51.98916
1007.355	-9.13173
1007.523	18.26482
1007.691	-13.34623
1007.859	43.55752
1008.027	24.58768
1008.195	56.20513
1008.363	11.94218
1008.531	-28.09618
1008.699	79.39455
1008.867	47.77329
1009.035	-2.80981
1009.203	-34.41722
1009.37	28.80304
1009.538	28.80304
1009.706	-17.56062
1009.874	28.80304
1010.042	-23.88203
1010.209	41.44967
1010.377	5.61975
1010.545	-21.77492
1010.713	-36.52418
1010.88	28.80304
1011.048	106.80373
1011.216	18.26482
1011.383	-76.55171
1011.551	83.6111
1011.718	45.6654
1011.886	28.80304
1012.054	28.80304
1012.221	37.23403
1012.389	45.6654
1012.556	-36.52418
1012.724	41.44967
1012.891	14.04971
1013.058	45.6654
1013.226	-38.63112
1013.393	43.55752
1013.561	-0.70246
1013.728	-32.31023
1013.895	28.80304
1014.063	75.17808
1014.23	28.80304
1014.397	20.37242
1014.565	66.74543
1014.732	-15.45344
1014.899	-42.84492
1015.066	49.88122
1015.233	-38.63112
1015.401	11.94218
1015.568	33.01848
1015.735	62.52924
1015.902	64.63732
1016.069	3.51233
1016.236	-7.02445
1016.403	-42.84492
1016.57	28.80304
1016.737	-25.98912
1016.904	28.80304
1017.071	-38.63112
1017.238	14.04971
1017.405	92.04447
1017.572	11.94218
1017.739	-11.23899
1017.906	-2.80981
1018.073	22.48004
1018.24	45.6654
1018.407	-7.02445
1018.573	51.98916
1018.74	7.72721
1018.907	24.58768
1019.074	33.01848
1019.241	62.52924
1019.407	89.9361
1019.574	28.80304
1019.741	-0.70246
1019.907	28.80304
1020.074	5.61975
1020.241	49.88122
1020.407	20.37242
1020.574	-36.52418
1020.74	70.96171
1020.907	14.04971
1021.073	3.51233
1021.24	35.12624
1021.406	16.15725
1021.573	28.80304
1021.739	-2.80981
1021.906	7.72721
1022.072	83.6111
1022.239	-25.98912
1022.405	-17.56062
1022.571	18.26482
1022.738	39.34183
1022.904	-15.45344
1023.07	1.40492
1023.237	56.20513
1023.403	-13.34623
1023.569	-2.80981
1023.735	14.04971
1023.902	-34.41722
1024.068	75.17808
1024.234	87.82774
1024.4	37.23403
1024.566	-19.66778
1024.732	45.6654
1024.898	9.83468
1025.065	24.58768
1025.231	28.80304
1025.397	-4.91714
1025.563	16.15725
1025.729	3.51233
1025.895	-11.23899
1026.061	81.50281
1026.227	83.6111
1026.392	14.04971
1026.558	24.58768
1026.724	41.44967
1026.89	62.52924
1027.056	45.6654
1027.222	22.48004
1027.388	47.77329
1027.553	-17.56062
1027.719	-25.98912
1027.885	28.80304
1028.051	81.50281
1028.216	41.44967
1028.382	3.51233
1028.548	56.20513
1028.713	-4.91714
1028.879	16.15725
1029.045	94.15287
1029.21	-30.20322
1029.376	115.23808
1029.541	24.58768
1029.707	11.94218
1029.873	51.98916
1030.038	62.52924
1030.204	-4.91714
1030.369	-4.91714
1030.534	9.83468
1030.7	33.01848
1030.865	47.77329
1031.031	-2.80981
1031.196	-36.52418
1031.361	9.83468
1031.527	11.94218
1031.692	-32.31023
1031.857	115.23808
1032.023	-19.66778
1032.188	11.94218
1032.353	-55.48573
1032.518	60.42118
1032.684	45.6654
1032.849	7.72721
1033.014	92.04447
1033.179	-4.91714
1033.344	75.17808
1033.509	58.31314
1033.674	-30.20322
1033.839	51.98916
1034.004	39.34183
1034.17	9.83468
1034.335	45.6654
1034.5	-4.91714
1034.664	18.26482
1034.829	49.88122
1034.994	79.39455
1035.159	45.6654
1035.324	-7.02445
1035.489	28.80304
1035.654	-47.05863
1035.819	-17.56062
1035.984	3.51233
1036.148	66.74543
1036.313	45.6654
1036.478	96.26129
1036.643	-72.33872
1036.807	64.63732
1036.972	14.04971
1037.137	73.06989
1037.301	75.17808
1037.466	-4.91714
1037.631	75.17808
1037.795	62.52924
1037.96	-40.73804
1038.124	9.83468
1038.289	14.04971
1038.454	-0.70246
1038.618	-11.23899
1038.783	47.77329
1038.947	96.26129
1039.111	-21.77492
1039.276	16.15725
1039.44	-25.98912
1039.605	41.44967
1039.769	14.04971
1039.933	-34.41722
1040.098	28.80304
1040.262	54.09713
1040.426	43.55752
1040.591	56.20513
1040.755	73.06989
1040.919	-17.56062
1041.083	-0.70246
1041.248	-25.98912
1041.412	3.51233
1041.576	14.04971
1041.74	79.39455
1041.904	49.88122
1042.068	60.42118
1042.232	-19.66778
1042.397	7.72721
1042.561	79.39455
1042.725	-72.33872
1042.889	18.26482
1043.053	-0.70246
1043.217	64.63732
1043.381	11.94218
1043.544	70.96171
1043.708	56.20513
1043.872	54.09713
1044.036	41.44967
1044.2	26.69535
1044.364	58.31314
1044.528	11.94218
1044.691	-0.70246
1044.855	51.98916
1045.019	24.58768
1045.183	96.26129
1045.346	-49.16544
1045.51	54.09713
1045.674	-7.02445
1045.837	3.51233
1046.001	-21.77492
1046.165	37.23403
1046.328	11.94218
1046.492	28.80304
1046.655	79.39455
1046.819	-51.27223
1046.983	-30.20322
1047.146	9.83468
1047.31	-42.84492
1047.473	81.50281
1047.636	-36.52418
1047.8	5.61975
1047.963	-89.19007
1048.127	24.58768
1048.29	87.82774
