Data from Scatter_Coeff_Baseline_USB4F045381__29__0029.txt Node

Date: Thu Feb 13 19:21:53 EST 2025
User: mmckonesweet
Spectrometer: USB4F04538
Trigger mode: 4
Integration Time (sec): 2.400000E-3
Scans to average: 1
Electric dark correction enabled: true
Nonlinearity correction enabled: true
Boxcar width: 0
XAxis mode: Wavelengths
Number of Pixels in Spectrum: 3648
>>>>>Begin Spectral Data<<<<<
345.52	-30.02763
345.736	-30.02763
345.952	-30.02763
346.168	-61.63024
346.384	-6.84884
346.6	-13.17063
346.816	73.24557
347.032	35.30189
347.248	-15.27784
347.464	-38.45555
347.68	-48.98987
347.896	7.90283
348.112	18.44046
348.328	3.68794
348.544	-55.31017
348.76	26.87099
348.975	5.79537
349.191	3.68794
349.407	-2.6342
349.623	22.65567
349.839	-53.20343
350.055	-21.59933
350.27	-25.81353
350.486	-27.92059
350.702	26.87099
350.918	-89.01455
351.133	16.33288
351.349	14.22533
351.565	12.11781
351.781	10.01031
351.996	-59.52357
352.212	-38.45555
352.428	18.44046
352.644	-13.17063
352.859	62.70491
353.075	-13.17063
353.291	50.05688
353.506	-11.06339
353.722	-70.05664
353.938	-89.01455
354.153	47.94895
354.369	-19.49219
354.584	45.84105
354.8	-57.41689
355.016	-0.52684
355.231	-36.3486
355.447	7.90283
355.662	-44.77622
355.878	-44.77622
356.093	5.79537
356.309	-30.02763
356.524	-2.6342
356.74	-46.88306
356.955	52.16483
357.171	-42.66935
357.386	-15.27784
357.602	-15.27784
357.817	22.65567
358.033	39.51749
358.248	-59.52357
358.464	14.22533
358.679	-6.84884
358.895	-40.56246
359.11	-21.59933
359.325	-23.70644
359.541	-48.98987
359.756	-38.45555
359.972	-51.09666
360.187	-44.77622
360.402	18.44046
360.618	-78.48264
360.833	14.22533
361.048	41.62532
361.264	-6.84884
361.479	45.84105
361.694	-48.98987
361.909	-82.69548
362.125	-80.58907
362.34	-93.22713
362.555	35.30189
362.77	-116.39447
362.986	54.2728
363.201	-2.6342
363.416	-74.26969
363.631	3.68794
363.847	-23.70644
364.062	-17.38502
364.277	33.19413
364.492	-6.84884
364.707	10.01031
364.922	-6.84884
365.138	-25.81353
365.353	18.44046
365.568	-67.95008
365.783	5.79537
365.998	3.68794
366.213	-78.48264
366.428	-53.20343
366.643	1.58054
366.858	-6.84884
367.073	-0.52684
367.288	-40.56246
367.503	-76.37618
367.718	-86.90822
367.933	-44.77622
368.148	-13.17063
368.363	26.87099
368.578	14.22533
368.793	-40.56246
369.008	24.76332
369.223	-4.74153
369.438	-11.06339
369.653	-30.02763
369.868	-13.17063
370.083	-57.41689
370.298	-19.49219
370.513	-55.31017
370.728	-15.27784
370.943	-72.16318
371.157	5.79537
371.372	52.16483
371.587	-11.06339
371.802	-36.3486
372.017	62.70491
372.232	-13.17063
372.446	-30.02763
372.661	1.58054
372.876	45.84105
373.091	45.84105
373.306	35.30189
373.52	-6.84884
373.735	-15.27784
373.95	-15.27784
374.165	-78.48264
374.379	52.16483
374.594	-30.02763
374.809	-63.73688
375.023	-57.41689
375.238	20.54805
375.453	1.58054
375.667	3.68794
375.882	12.11781
376.097	-6.84884
376.311	3.68794
376.526	47.94895
376.741	-74.26969
376.955	-55.31017
377.17	-63.73688
377.384	-19.49219
377.599	-8.95613
377.813	-6.84884
378.028	3.68794
378.242	10.01031
378.457	-55.31017
378.672	-34.24164
378.886	-23.70644
379.101	5.79537
379.315	-95.33338
379.53	-42.66935
379.744	-63.73688
379.958	-32.13465
380.173	-55.31017
380.387	-103.75813
380.602	-23.70644
380.816	-40.56246
381.031	-15.27784
381.245	33.19413
381.459	1.58054
381.674	-57.41689
381.888	-13.17063
382.103	-53.20343
382.317	-46.88306
382.531	39.51749
382.746	-6.84884
382.96	-4.74153
383.174	26.87099
383.388	-48.98987
383.603	-57.41689
383.817	37.40968
384.031	10.01031
384.246	26.87099
384.46	-32.13465
384.674	10.01031
384.888	-63.73688
385.103	37.40968
385.317	-25.81353
385.531	-48.98987
385.745	-19.49219
385.959	35.30189
386.174	-40.56246
386.388	-11.06339
386.602	-0.52684
386.816	10.01031
387.03	5.79537
387.244	7.90283
387.458	22.65567
387.672	-11.06339
387.887	-42.66935
388.101	-32.13465
388.315	22.65567
388.529	-19.49219
388.743	-38.45555
388.957	-32.13465
389.171	-19.49219
389.385	-72.16318
389.599	-15.27784
389.813	-2.6342
390.027	-38.45555
390.241	47.94895
390.455	-46.88306
390.669	-55.31017
390.883	-30.02763
391.097	52.16483
391.311	43.73317
391.525	-2.6342
391.738	-48.98987
391.952	-82.69548
392.166	-55.31017
392.38	-17.38502
392.594	-6.84884
392.808	12.11781
393.022	-38.45555
393.236	39.51749
393.449	35.30189
393.663	-42.66935
393.877	-30.02763
394.091	-32.13465
394.305	52.16483
394.518	-57.41689
394.732	-34.24164
394.946	-55.31017
395.16	-82.69548
395.373	-17.38502
395.587	5.79537
395.801	43.73317
396.015	1.58054
396.228	-4.74153
396.442	-23.70644
396.656	-40.56246
396.869	-6.84884
397.083	-0.52684
397.297	-30.02763
397.51	1.58054
397.724	-19.49219
397.938	-70.05664
398.151	-61.63024
398.365	3.68794
398.578	-74.26969
398.792	-19.49219
399.005	-23.70644
399.219	26.87099
399.433	26.87099
399.646	18.44046
399.86	16.33288
400.073	10.01031
400.287	-53.20343
400.5	-15.27784
400.714	14.22533
400.927	35.30189
401.141	3.68794
401.354	-2.6342
401.567	-93.22713
401.781	-48.98987
401.994	-48.98987
402.208	-13.17063
402.421	-4.74153
402.635	22.65567
402.848	-23.70644
403.061	-40.56246
403.275	-55.31017
403.488	-38.45555
403.701	1.58054
403.915	62.70491
404.128	-25.81353
404.341	35.30189
404.555	-27.92059
404.768	10.01031
404.981	12.11781
405.195	-19.49219
405.408	-48.98987
405.621	-36.3486
405.834	-15.27784
406.048	-48.98987
406.261	-38.45555
406.474	12.11781
406.687	35.30189
406.9	1.58054
407.114	-42.66935
407.327	-40.56246
407.54	18.44046
407.753	-32.13465
407.966	-23.70644
408.179	56.38079
408.392	10.01031
408.605	-40.56246
408.819	-17.38502
409.032	26.87099
409.245	-76.37618
409.458	-15.27784
409.671	-25.81353
409.884	-42.66935
410.097	-36.3486
410.31	14.22533
410.523	1.58054
410.736	-74.26969
410.949	-0.52684
411.162	35.30189
411.375	43.73317
411.588	-23.70644
411.801	16.33288
412.014	39.51749
412.227	-15.27784
412.44	-0.52684
412.653	-2.6342
412.865	-13.17063
413.078	1.58054
413.291	-32.13465
413.504	-53.20343
413.717	22.65567
413.93	-19.49219
414.143	39.51749
414.356	-55.31017
414.568	-30.02763
414.781	-2.6342
414.994	-2.6342
415.207	-13.17063
415.42	52.16483
415.632	-59.52357
415.845	22.65567
416.058	-32.13465
416.271	-44.77622
416.483	69.02924
416.696	-61.63024
416.909	58.48881
417.121	20.54805
417.334	-4.74153
417.547	-11.06339
417.759	14.22533
417.972	26.87099
418.185	-74.26969
418.397	-17.38502
418.61	31.08639
418.823	-55.31017
419.035	-11.06339
419.248	-4.74153
419.46	18.44046
419.673	14.22533
419.885	-4.74153
420.098	22.65567
420.311	14.22533
420.523	60.59685
420.736	-0.52684
420.948	22.65567
421.161	20.54805
421.373	-30.02763
421.586	-80.58907
421.798	-23.70644
422.01	-65.84349
422.223	22.65567
422.435	62.70491
422.648	-25.81353
422.86	75.35377
423.073	-6.84884
423.285	-44.77622
423.497	-27.92059
423.71	12.11781
423.922	54.2728
424.134	-44.77622
424.347	-51.09666
424.559	45.84105
424.771	26.87099
424.984	-27.92059
425.196	14.22533
425.408	10.01031
425.621	-36.3486
425.833	-21.59933
426.045	14.22533
426.257	26.87099
426.47	1.58054
426.682	39.51749
426.894	18.44046
427.106	60.59685
427.318	-32.13465
427.531	-63.73688
427.743	-48.98987
427.955	-8.95613
428.167	-44.77622
428.379	-57.41689
428.591	1.58054
428.804	-70.05664
429.016	-57.41689
429.228	-61.63024
429.44	18.44046
429.652	18.44046
429.864	-15.27784
430.076	-0.52684
430.288	39.51749
430.5	98.54544
430.712	39.51749
430.924	-44.77622
431.136	-15.27784
431.348	3.68794
431.56	1.58054
431.772	-46.88306
431.984	-30.02763
432.196	7.90283
432.408	-30.02763
432.62	-40.56246
432.832	10.01031
433.044	-82.69548
433.256	-46.88306
433.468	16.33288
433.679	-36.3486
433.891	20.54805
434.103	-72.16318
434.315	-15.27784
434.527	-40.56246
434.739	-70.05664
434.95	-30.02763
435.162	-11.06339
435.374	-11.06339
435.586	-2.6342
435.798	-30.02763
436.009	-42.66935
436.221	-8.95613
436.433	-38.45555
436.645	-21.59933
436.856	-19.49219
437.068	-30.02763
437.28	20.54805
437.491	-76.37618
437.703	-36.3486
437.915	-36.3486
438.126	-76.37618
438.338	18.44046
438.55	-2.6342
438.761	-36.3486
438.973	-124.81816
439.184	18.44046
439.396	69.02924
439.608	3.68794
439.819	-65.84349
440.031	1.58054
440.242	-25.81353
440.454	-67.95008
440.665	24.76332
440.877	-25.81353
441.088	52.16483
441.3	-72.16318
441.511	-32.13465
441.723	10.01031
441.934	18.44046
442.146	-93.22713
442.357	-44.77622
442.569	-95.33338
442.78	33.19413
442.991	16.33288
443.203	-6.84884
443.414	-70.05664
443.626	-23.70644
443.837	24.76332
444.048	1.58054
444.26	10.01031
444.471	-61.63024
444.682	1.58054
444.894	-46.88306
445.105	-74.26969
445.316	-124.81816
445.528	-2.6342
445.739	-30.02763
445.95	-15.27784
446.161	39.51749
446.373	-6.84884
446.584	-30.02763
446.795	43.73317
447.006	-6.84884
447.217	39.51749
447.429	-27.92059
447.64	14.22533
447.851	18.44046
448.062	-25.81353
448.273	37.40968
448.484	-15.27784
448.695	-32.13465
448.907	1.58054
449.118	45.84105
449.329	14.22533
449.54	1.58054
449.751	-0.52684
449.962	-23.70644
450.173	37.40968
450.384	26.87099
450.595	33.19413
450.806	-15.27784
451.017	14.22533
451.228	-6.84884
451.439	-11.06339
451.65	7.90283
451.861	64.813
452.072	10.01031
452.283	52.16483
452.494	14.22533
452.705	-34.24164
452.915	-78.48264
453.126	18.44046
453.337	-46.88306
453.548	-27.92059
453.759	26.87099
453.97	1.58054
454.181	54.2728
454.391	-44.77622
454.602	3.68794
454.813	-65.84349
455.024	-38.45555
455.235	18.44046
455.445	50.05688
455.656	-8.95613
455.867	-23.70644
456.078	31.08639
456.288	-57.41689
456.499	-19.49219
456.71	-40.56246
456.921	1.58054
457.131	-23.70644
457.342	-4.74153
457.553	5.79537
457.763	3.68794
457.974	1.58054
458.184	-15.27784
458.395	12.11781
458.606	26.87099
458.816	-40.56246
459.027	-44.77622
459.237	22.65567
459.448	-86.90822
459.659	-30.02763
459.869	18.44046
460.08	-4.74153
460.29	7.90283
460.501	35.30189
460.711	-27.92059
460.922	3.68794
461.132	5.79537
461.343	-23.70644
461.553	-19.49219
461.764	-42.66935
461.974	-78.48264
462.184	-25.81353
462.395	22.65567
462.605	-36.3486
462.816	-55.31017
463.026	20.54805
463.236	33.19413
463.447	-6.84884
463.657	-4.74153
463.867	20.54805
464.078	1.58054
464.288	-6.84884
464.498	-48.98987
464.709	-53.20343
464.919	-48.98987
465.129	-114.28848
465.339	-6.84884
465.55	18.44046
465.76	-30.02763
465.97	-6.84884
466.18	-61.63024
466.391	-23.70644
466.601	-40.56246
466.811	-11.06339
467.021	10.01031
467.231	10.01031
467.441	20.54805
467.651	-23.70644
467.862	26.87099
468.072	7.90283
468.282	60.59685
468.492	60.59685
468.702	-32.13465
468.912	-48.98987
469.122	-6.84884
469.332	-11.06339
469.542	-55.31017
469.752	-15.27784
469.962	26.87099
470.172	-15.27784
470.382	-6.84884
470.592	14.22533
470.802	39.51749
471.012	39.51749
471.222	-27.92059
471.432	64.813
471.642	-61.63024
471.852	-19.49219
472.062	3.68794
472.272	-2.6342
472.482	1.58054
472.691	-27.92059
472.901	-15.27784
473.111	14.22533
473.321	1.58054
473.531	7.90283
473.741	-2.6342
473.95	-44.77622
474.16	58.48881
474.37	83.78679
474.58	7.90283
474.79	-11.06339
474.999	-27.92059
475.209	-27.92059
475.419	-32.13465
475.628	-95.33338
475.838	-2.6342
476.048	-44.77622
476.258	-42.66935
476.467	41.62532
476.677	31.08639
476.886	-11.06339
477.096	-55.31017
477.306	22.65567
477.515	45.84105
477.725	-51.09666
477.935	22.65567
478.144	-23.70644
478.354	-46.88306
478.563	-55.31017
478.773	-36.3486
478.982	1.58054
479.192	-23.70644
479.401	-53.20343
479.611	-13.17063
479.82	-15.27784
480.03	-63.73688
480.239	-6.84884
480.449	35.30189
480.658	1.58054
480.868	-4.74153
481.077	-23.70644
481.287	77.46199
481.496	52.16483
481.705	10.01031
481.915	-6.84884
482.124	-4.74153
482.333	-27.92059
482.543	10.01031
482.752	-65.84349
482.961	-42.66935
483.171	-42.66935
483.38	-23.70644
483.589	-95.33338
483.799	-40.56246
484.008	-23.70644
484.217	26.87099
484.426	-82.69548
484.636	-57.41689
484.845	14.22533
485.054	26.87099
485.263	-38.45555
485.472	62.70491
485.682	18.44046
485.891	-11.06339
486.1	-65.84349
486.309	-84.80186
486.518	-86.90822
486.727	-40.56246
486.936	-38.45555
487.146	-0.52684
487.355	-23.70644
487.564	-34.24164
487.773	-32.13465
487.982	-57.41689
488.191	47.94895
488.4	35.30189
488.609	28.97868
488.818	-0.52684
489.027	-67.95008
489.236	14.22533
489.445	5.79537
489.654	88.00344
489.863	54.2728
490.072	-8.95613
490.281	-15.27784
490.49	18.44046
490.698	28.97868
490.907	12.11781
491.116	5.79537
491.325	-40.56246
491.534	31.08639
491.743	37.40968
491.952	-21.59933
492.16	1.58054
492.369	-46.88306
492.578	10.01031
492.787	-13.17063
492.996	18.44046
493.204	-32.13465
493.413	-11.06339
493.622	3.68794
493.831	16.33288
494.039	-11.06339
494.248	-23.70644
494.457	-21.59933
494.665	-32.13465
494.874	26.87099
495.083	5.79537
495.291	-25.81353
495.5	60.59685
495.709	-32.13465
495.917	-46.88306
496.126	-59.52357
496.335	79.57023
496.543	26.87099
496.752	18.44046
496.96	31.08639
497.169	-19.49219
497.377	3.68794
497.586	24.76332
497.794	-95.33338
498.003	-36.3486
498.211	-15.27784
498.42	45.84105
498.628	1.58054
498.837	-8.95613
499.045	-44.77622
499.254	-21.59933
499.462	-15.27784
499.671	-15.27784
499.879	20.54805
500.087	-65.84349
500.296	18.44046
500.504	5.79537
500.713	-38.45555
500.921	-11.06339
501.129	37.40968
501.338	-57.41689
501.546	-13.17063
501.754	5.79537
501.962	-59.52357
502.171	-13.17063
502.379	-30.02763
502.587	77.46199
502.795	-4.74153
503.004	3.68794
503.212	-74.26969
503.42	14.22533
503.628	-48.98987
503.837	60.59685
504.045	43.73317
504.253	14.22533
504.461	-4.74153
504.669	-32.13465
504.877	-53.20343
505.085	-82.69548
505.294	-61.63024
505.502	5.79537
505.71	-8.95613
505.918	-4.74153
506.126	-42.66935
506.334	54.2728
506.542	-6.84884
506.75	-61.63024
506.958	62.70491
507.166	45.84105
507.374	-32.13465
507.582	1.58054
507.79	-30.02763
507.998	-19.49219
508.206	-36.3486
508.414	-21.59933
508.622	-23.70644
508.83	28.97868
509.037	-70.05664
509.245	-36.3486
509.453	22.65567
509.661	-36.3486
509.869	-38.45555
510.077	-67.95008
510.285	20.54805
510.492	69.02924
510.7	5.79537
510.908	-15.27784
511.116	16.33288
511.324	-23.70644
511.531	-53.20343
511.739	-13.17063
511.947	26.87099
512.155	-19.49219
512.362	14.22533
512.57	-27.92059
512.778	14.22533
512.985	-57.41689
513.193	43.73317
513.401	10.01031
513.608	-65.84349
513.816	-82.69548
514.024	-82.69548
514.231	-55.31017
514.439	5.79537
514.646	-32.13465
514.854	-40.56246
515.061	-6.84884
515.269	14.22533
515.477	-25.81353
515.684	14.22533
515.892	24.76332
516.099	-57.41689
516.307	-48.98987
516.514	-34.24164
516.722	14.22533
516.929	-6.84884
517.136	-27.92059
517.344	1.58054
517.551	-8.95613
517.759	-15.27784
517.966	-46.88306
518.173	58.48881
518.381	-42.66935
518.588	-61.63024
518.796	-6.84884
519.003	-4.74153
519.21	90.11179
519.418	-107.97035
519.625	-15.27784
519.832	-53.20343
520.039	-4.74153
520.247	-23.70644
520.454	14.22533
520.661	10.01031
520.868	-40.56246
521.076	60.59685
521.283	-32.13465
521.49	18.44046
521.697	-6.84884
521.904	-21.59933
522.112	3.68794
522.319	3.68794
522.526	16.33288
522.733	10.01031
522.94	-32.13465
523.147	-6.84884
523.354	-4.74153
523.561	39.51749
523.768	-6.84884
523.975	-55.31017
524.183	1.58054
524.39	24.76332
524.597	22.65567
524.804	31.08639
525.011	-44.77622
525.218	-57.41689
525.425	7.90283
525.632	-13.17063
525.838	-8.95613
526.045	20.54805
526.252	22.65567
526.459	10.01031
526.666	-55.31017
526.873	1.58054
527.08	-27.92059
527.287	22.65567
527.494	-59.52357
527.701	-21.59933
527.907	20.54805
528.114	12.11781
528.321	31.08639
528.528	66.92111
528.735	-61.63024
528.941	-23.70644
529.148	5.79537
529.355	45.84105
529.562	81.6785
529.768	-38.45555
529.975	43.73317
530.182	37.40968
530.388	-4.74153
530.595	20.54805
530.802	3.68794
531.008	5.79537
531.215	18.44046
531.422	-23.70644
531.628	-11.06339
531.835	-23.70644
532.042	47.94895
532.248	-30.02763
532.455	-0.52684
532.661	-72.16318
532.868	60.59685
533.074	-25.81353
533.281	-19.49219
533.487	-21.59933
533.694	62.70491
533.9	-57.41689
534.107	54.2728
534.313	28.97868
534.52	35.30189
534.726	-86.90822
534.933	14.22533
535.139	-30.02763
535.345	22.65567
535.552	-48.98987
535.758	-4.74153
535.965	52.16483
536.171	-6.84884
536.377	22.65567
536.584	-0.52684
536.79	-65.84349
536.996	3.68794
537.203	-36.3486
537.409	-13.17063
537.615	-23.70644
537.821	92.22017
538.028	-105.86425
538.234	-34.24164
538.44	22.65567
538.646	-6.84884
538.853	7.90283
539.059	43.73317
539.265	64.813
539.471	5.79537
539.677	-13.17063
539.883	-4.74153
540.09	-11.06339
540.296	-44.77622
540.502	-40.56246
540.708	-78.48264
540.914	-38.45555
541.12	10.01031
541.326	-53.20343
541.532	37.40968
541.738	-30.02763
541.944	-11.06339
542.15	-97.43961
542.356	5.79537
542.562	-61.63024
542.768	-23.70644
542.974	35.30189
543.18	-8.95613
543.386	-23.70644
543.592	-4.74153
543.798	31.08639
544.004	22.65567
544.21	60.59685
544.415	1.58054
544.621	56.38079
544.827	43.73317
545.033	3.68794
545.239	-23.70644
545.445	-2.6342
545.651	-21.59933
545.856	10.01031
546.062	31.08639
546.268	24.76332
546.474	43.73317
546.679	-4.74153
546.885	-17.38502
547.091	-51.09666
547.297	-46.88306
547.502	-11.06339
547.708	31.08639
547.914	-78.48264
548.119	10.01031
548.325	-40.56246
548.531	-17.38502
548.736	-91.12085
548.942	-23.70644
549.147	-53.20343
549.353	-4.74153
549.559	-65.84349
549.764	-21.59933
549.97	-78.48264
550.175	58.48881
550.381	10.01031
550.586	-36.3486
550.792	-57.41689
550.997	28.97868
551.203	-27.92059
551.408	5.79537
551.614	-53.20343
551.819	5.79537
552.025	-0.52684
552.23	26.87099
552.435	39.51749
552.641	60.59685
552.846	-51.09666
553.052	5.79537
553.257	35.30189
553.462	73.24557
553.668	-38.45555
553.873	14.22533
554.078	-15.27784
554.283	1.58054
554.489	-8.95613
554.694	-23.70644
554.899	-32.13465
555.105	26.87099
555.31	79.57023
555.515	-19.49219
555.72	20.54805
555.925	-4.74153
556.131	33.19413
556.336	-6.84884
556.541	-25.81353
556.746	-8.95613
556.951	3.68794
557.156	-4.74153
557.361	18.44046
557.567	10.01031
557.772	-38.45555
557.977	-6.84884
558.182	43.73317
558.387	-23.70644
558.592	132.28355
558.797	64.813
559.002	69.02924
559.207	-74.26969
559.412	31.08639
559.617	20.54805
559.822	-11.06339
560.027	35.30189
560.232	18.44046
560.437	-27.92059
560.642	45.84105
560.847	14.22533
561.051	18.44046
561.256	60.59685
561.461	64.813
561.666	22.65567
561.871	83.78679
562.076	58.48881
562.281	-40.56246
562.485	-11.06339
562.69	102.7624
562.895	1.58054
563.1	31.08639
563.305	47.94895
563.509	-46.88306
563.714	10.01031
563.919	18.44046
564.123	54.2728
564.328	14.22533
564.533	54.2728
564.737	-40.56246
564.942	18.44046
565.147	69.02924
565.351	14.22533
565.556	-6.84884
565.761	37.40968
565.965	-30.02763
566.17	1.58054
566.374	28.97868
566.579	3.68794
566.784	-30.02763
566.988	-53.20343
567.193	28.97868
567.397	60.59685
567.602	-82.69548
567.806	-65.84349
568.011	-46.88306
568.215	43.73317
568.42	-6.84884
568.624	62.70491
568.828	28.97868
569.033	69.02924
569.237	54.2728
569.442	24.76332
569.646	31.08639
569.85	-21.59933
570.055	-8.95613
570.259	-34.24164
570.463	-11.06339
570.668	-19.49219
570.872	-23.70644
571.076	-6.84884
571.281	-57.41689
571.485	-48.98987
571.689	92.22017
571.893	12.11781
572.098	39.51749
572.302	-23.70644
572.506	26.87099
572.71	10.01031
572.914	60.59685
573.119	-19.49219
573.323	-65.84349
573.527	35.30189
573.731	56.38079
573.935	37.40968
574.139	10.01031
574.343	28.97868
574.547	-4.74153
574.751	71.13739
574.955	-6.84884
575.159	-8.95613
575.364	-19.49219
575.568	28.97868
575.772	5.79537
575.976	52.16483
576.18	-38.45555
576.383	3.68794
576.587	10.01031
576.791	1.58054
576.995	14.22533
577.199	-19.49219
577.403	69.02924
577.607	73.24557
577.811	77.46199
578.015	-17.38502
578.219	12.11781
578.422	3.68794
578.626	26.87099
578.83	35.30189
579.034	35.30189
579.238	43.73317
579.442	-11.06339
579.645	-8.95613
579.849	-11.06339
580.053	-15.27784
580.257	3.68794
580.46	31.08639
580.664	35.30189
580.868	-6.84884
581.071	-17.38502
581.275	-15.27784
581.479	-15.27784
581.682	-46.88306
581.886	71.13739
582.09	3.68794
582.293	3.68794
582.497	1.58054
582.7	-6.84884
582.904	-0.52684
583.107	-2.6342
583.311	7.90283
583.515	-82.69548
583.718	-13.17063
583.922	88.00344
584.125	-46.88306
584.329	47.94895
584.532	-36.3486
584.735	14.22533
584.939	-15.27784
585.142	-6.84884
585.346	37.40968
585.549	10.01031
585.753	24.76332
585.956	96.437
586.159	77.46199
586.363	-0.52684
586.566	28.97868
586.769	66.92111
586.973	77.46199
587.176	60.59685
587.379	52.16483
587.582	26.87099
587.786	52.16483
587.989	1.58054
588.192	-25.81353
588.395	-48.98987
588.599	56.38079
588.802	37.40968
589.005	64.813
589.208	1.58054
589.411	69.02924
589.615	58.48881
589.818	18.44046
590.021	47.94895
590.224	26.87099
590.427	7.90283
590.63	-6.84884
590.833	60.59685
591.036	56.38079
591.239	60.59685
591.442	52.16483
591.645	-30.02763
591.848	35.30189
592.051	14.22533
592.254	41.62532
592.457	20.54805
592.66	-0.52684
592.863	56.38079
593.066	-99.54581
593.269	-25.81353
593.472	73.24557
593.675	-2.6342
593.878	7.90283
594.081	54.2728
594.284	69.02924
594.486	-55.31017
594.689	12.11781
594.892	62.70491
595.095	14.22533
595.298	7.90283
595.5	-40.56246
595.703	1.58054
595.906	18.44046
596.109	62.70491
596.311	54.2728
596.514	24.76332
596.717	-19.49219
596.92	-23.70644
597.122	60.59685
597.325	-21.59933
597.528	-23.70644
597.73	7.90283
597.933	18.44046
598.136	54.2728
598.338	43.73317
598.541	-2.6342
598.743	24.76332
598.946	45.84105
599.148	31.08639
599.351	79.57023
599.554	-40.56246
599.756	96.437
599.959	10.01031
600.161	77.46199
600.363	26.87099
600.566	71.13739
600.768	22.65567
600.971	24.76332
601.173	35.30189
601.376	128.06598
601.578	43.73317
601.78	31.08639
601.983	41.62532
602.185	43.73317
602.388	96.437
602.59	-30.02763
602.792	18.44046
602.995	24.76332
603.197	24.76332
603.399	43.73317
603.601	41.62532
603.804	26.87099
604.006	56.38079
604.208	31.08639
604.41	60.59685
604.613	10.01031
604.815	85.8951
605.017	37.40968
605.219	90.11179
605.421	41.62532
605.623	81.6785
605.826	12.11781
606.028	35.30189
606.23	-13.17063
606.432	88.00344
606.634	18.44046
606.836	43.73317
607.038	117.52244
607.24	20.54805
607.442	-19.49219
607.644	73.24557
607.846	-11.06339
608.048	52.16483
608.25	94.32857
608.452	1.58054
608.654	-105.86425
608.856	-19.49219
609.058	28.97868
609.26	73.24557
609.462	-36.3486
609.664	69.02924
609.866	-4.74153
610.067	26.87099
610.269	130.17476
610.471	20.54805
610.673	33.19413
610.875	-15.27784
611.077	58.48881
611.278	37.40968
611.48	94.32857
611.682	81.6785
611.884	69.02924
612.085	62.70491
612.287	62.70491
612.489	98.54544
612.69	54.2728
612.892	39.51749
613.094	26.87099
613.295	64.813
613.497	10.01031
613.699	96.437
613.9	111.19658
614.102	77.46199
614.304	14.22533
614.505	115.4138
614.707	20.54805
614.908	35.30189
615.11	104.87091
615.311	28.97868
615.513	71.13739
615.714	24.76332
615.916	-11.06339
616.117	66.92111
616.319	60.59685
616.52	85.8951
616.722	88.00344
616.923	83.78679
617.124	56.38079
617.326	73.24557
617.527	22.65567
617.729	64.813
617.93	45.84105
618.131	79.57023
618.333	3.68794
618.534	43.73317
618.735	52.16483
618.937	28.97868
619.138	104.87091
619.339	14.22533
619.54	10.01031
619.742	111.19658
619.943	45.84105
620.144	1.58054
620.345	77.46199
620.546	73.24557
620.748	83.78679
620.949	1.58054
621.15	41.62532
621.351	102.7624
621.552	10.01031
621.753	92.22017
621.954	37.40968
622.155	33.19413
622.356	170.24549
622.558	81.6785
622.759	73.24557
622.96	88.00344
623.161	7.90283
623.362	43.73317
623.563	-6.84884
623.764	69.02924
623.965	85.8951
624.166	92.22017
624.366	100.65391
624.567	64.813
624.768	90.11179
624.969	5.79537
625.17	85.8951
625.371	-8.95613
625.572	37.40968
625.773	69.02924
625.973	79.57023
626.174	88.00344
626.375	52.16483
626.576	64.813
626.777	37.40968
626.977	35.30189
627.178	81.6785
627.379	45.84105
627.58	69.02924
627.78	60.59685
627.981	50.05688
628.182	45.84105
628.382	81.6785
628.583	106.97945
628.784	123.8485
628.984	130.17476
629.185	58.48881
629.386	100.65391
629.586	168.13631
629.787	77.46199
629.987	-8.95613
630.188	119.63111
630.388	12.11781
630.589	75.35377
630.79	64.813
630.99	54.2728
631.191	142.82785
631.391	60.59685
631.591	69.02924
631.792	31.08639
631.992	88.00344
632.193	85.8951
632.393	77.46199
632.594	64.813
632.794	113.30518
632.994	100.65391
633.195	102.7624
633.395	94.32857
633.595	100.65391
633.796	56.38079
633.996	90.11179
634.196	111.19658
634.397	96.437
634.597	56.38079
634.797	62.70491
634.997	52.16483
635.198	43.73317
635.398	79.57023
635.598	96.437
635.798	47.94895
635.998	102.7624
636.199	81.6785
636.399	109.088
636.599	147.04571
636.799	-15.27784
636.999	119.63111
637.199	62.70491
637.399	39.51749
637.599	104.87091
637.799	88.00344
637.999	128.06598
638.199	52.16483
638.399	104.87091
638.599	85.8951
638.799	123.8485
638.999	-30.02763
639.199	77.46199
639.399	35.30189
639.599	102.7624
639.799	-4.74153
639.999	64.813
640.199	81.6785
640.399	136.50121
640.599	77.46199
640.799	125.95723
640.998	121.73979
641.198	33.19413
641.398	79.57023
641.598	98.54544
641.798	90.11179
641.997	54.2728
642.197	128.06598
642.397	111.19658
642.597	136.50121
642.796	123.8485
642.996	77.46199
643.196	100.65391
643.395	132.28355
643.595	180.79167
643.795	111.19658
643.994	102.7624
644.194	117.52244
644.394	140.71894
644.593	88.00344
644.793	50.05688
644.992	134.39237
645.192	69.02924
645.392	62.70491
645.591	102.7624
645.791	203.99507
645.99	153.37267
646.19	98.54544
646.389	90.11179
646.589	136.50121
646.788	174.4639
646.987	88.00344
647.187	52.16483
647.386	85.8951
647.586	119.63111
647.785	111.19658
647.984	90.11179
648.184	100.65391
648.383	-6.84884
648.582	113.30518
648.782	153.37267
648.981	121.73979
649.18	128.06598
649.38	166.02716
649.579	98.54544
649.778	123.8485
649.977	153.37267
650.177	128.06598
650.376	90.11179
650.575	54.2728
650.774	106.97945
650.973	35.30189
651.173	102.7624
651.372	130.17476
651.571	77.46199
651.77	73.24557
651.969	113.30518
652.168	157.59075
652.367	128.06598
652.566	140.71894
652.765	176.57313
652.964	151.26366
653.163	102.7624
653.362	157.59075
653.561	140.71894
653.76	111.19658
653.959	163.91802
654.158	189.22898
654.357	132.28355
654.556	102.7624
654.755	132.28355
654.954	132.28355
655.153	75.35377
655.352	88.00344
655.551	178.68239
655.749	106.97945
655.948	111.19658
656.147	170.24549
656.346	119.63111
656.545	208.21413
656.743	119.63111
656.942	153.37267
657.141	111.19658
657.34	153.37267
657.538	88.00344
657.737	218.76214
657.936	106.97945
658.135	197.66663
658.333	258.84902
658.532	60.59685
658.731	212.43327
658.929	149.15468
659.128	140.71894
659.326	85.8951
659.525	64.813
659.724	119.63111
659.922	153.37267
660.121	92.22017
660.319	231.42039
660.518	180.79167
660.716	130.17476
660.915	115.4138
661.113	64.813
661.312	191.33836
661.51	191.33836
661.709	203.99507
661.907	128.06598
662.105	140.71894
662.304	90.11179
662.502	128.06598
662.701	144.93677
662.899	147.04571
663.097	161.80891
663.296	102.7624
663.494	263.0691
663.692	195.55718
663.891	203.99507
664.089	109.088
664.287	187.11962
664.485	130.17476
664.684	153.37267
664.882	246.18925
665.08	90.11179
665.278	115.4138
665.476	178.68239
665.675	153.37267
665.873	81.6785
666.071	197.66663
666.269	153.37267
666.467	149.15468
666.665	123.8485
666.863	134.39237
667.061	210.32369
667.259	178.68239
667.457	149.15468
667.655	189.22898
667.853	182.90097
668.051	161.80891
668.249	191.33836
668.447	252.51905
668.645	178.68239
668.843	142.82785
669.041	155.4817
669.239	229.31064
669.437	208.21413
669.635	187.11962
669.833	163.91802
670.031	132.28355
670.229	79.57023
670.426	136.50121
670.624	144.93677
670.822	178.68239
671.02	235.63997
671.218	203.99507
671.415	185.01029
671.613	128.06598
671.811	172.35468
672.009	128.06598
672.206	151.26366
672.404	199.77609
672.602	231.42039
672.799	187.11962
672.997	235.63997
673.195	222.98148
673.392	187.11962
673.59	125.95723
673.788	130.17476
673.985	132.28355
674.183	106.97945
674.38	229.31064
674.578	172.35468
674.775	104.87091
674.973	208.21413
675.17	128.06598
675.368	168.13631
675.565	185.01029
675.763	64.813
675.96	134.39237
676.158	138.61006
676.355	197.66663
676.553	208.21413
676.75	193.44776
676.947	191.33836
677.145	237.74979
677.342	113.30518
677.539	161.80891
677.737	170.24549
677.934	123.8485
678.131	144.93677
678.329	125.95723
678.526	102.7624
678.723	132.28355
678.92	231.42039
679.118	144.93677
679.315	212.43327
679.512	166.02716
679.709	157.59075
679.906	163.91802
680.104	239.85962
680.301	140.71894
680.498	136.50121
680.695	166.02716
680.892	210.32369
681.089	231.42039
681.286	123.8485
681.483	199.77609
681.68	166.02716
681.877	170.24549
682.075	199.77609
682.272	195.55718
682.469	233.53017
682.665	229.31064
682.862	178.68239
683.059	136.50121
683.256	216.6525
683.453	155.4817
683.65	263.0691
683.847	203.99507
684.044	191.33836
684.241	128.06598
684.438	174.4639
684.635	172.35468
684.831	241.96948
685.028	267.28925
685.225	163.91802
685.422	153.37267
685.619	256.73901
685.815	212.43327
686.012	250.4091
686.209	166.02716
686.405	210.32369
686.602	239.85962
686.799	161.80891
686.996	220.8718
687.192	185.01029
687.389	235.63997
687.586	241.96948
687.782	136.50121
687.979	159.69982
688.175	288.39113
688.372	147.04571
688.568	182.90097
688.765	182.90097
688.962	250.4091
689.158	225.09118
689.355	225.09118
689.551	212.43327
689.748	203.99507
689.944	229.31064
690.14	222.98148
690.337	263.0691
690.533	187.11962
690.73	153.37267
690.926	170.24549
691.123	216.6525
691.319	229.31064
691.515	128.06598
691.712	85.8951
691.908	170.24549
692.104	203.99507
692.301	208.21413
692.497	182.90097
692.693	161.80891
692.889	144.93677
693.086	212.43327
693.282	174.4639
693.478	231.42039
693.674	149.15468
693.87	231.42039
694.067	189.22898
694.263	166.02716
694.459	256.73901
694.655	296.83241
694.851	125.95723
695.047	185.01029
695.243	244.07936
695.439	197.66663
695.635	201.88557
695.831	134.39237
696.027	182.90097
696.224	222.98148
696.42	220.8718
696.615	218.76214
696.811	201.88557
697.007	144.93677
697.203	241.96948
697.399	241.96948
697.595	193.44776
697.791	136.50121
697.987	142.82785
698.183	292.61173
698.379	239.85962
698.575	231.42039
698.77	161.80891
698.966	250.4091
699.162	147.04571
699.358	218.76214
699.554	229.31064
699.749	241.96948
699.945	203.99507
700.141	212.43327
700.337	195.55718
700.532	197.66663
700.728	172.35468
700.924	193.44776
701.119	197.66663
701.315	144.93677
701.511	208.21413
701.706	248.29916
701.902	246.18925
702.097	155.4817
702.293	265.17916
702.489	121.73979
702.684	161.80891
702.88	220.8718
703.075	187.11962
703.271	292.61173
703.466	201.88557
703.662	180.79167
703.857	214.54287
704.053	195.55718
704.248	187.11962
704.443	220.8718
704.639	265.17916
704.834	157.59075
705.03	130.17476
705.225	271.50948
705.42	180.79167
705.616	275.72978
705.811	144.93677
706.006	222.98148
706.202	111.19658
706.397	227.2009
706.592	237.74979
706.787	288.39113
706.983	197.66663
707.178	237.74979
707.373	233.53017
707.568	229.31064
707.763	149.15468
707.959	231.42039
708.154	246.18925
708.349	246.18925
708.544	191.33836
708.739	208.21413
708.934	254.62902
709.129	248.29916
709.324	258.84902
709.519	233.53017
709.714	178.68239
709.909	248.29916
710.104	208.21413
710.299	269.39935
710.494	170.24549
710.689	256.73901
710.884	258.84902
711.079	182.90097
711.274	170.24549
711.469	214.54287
711.664	199.77609
711.859	136.50121
712.054	216.6525
712.249	233.53017
712.443	301.05315
712.638	237.74979
712.833	119.63111
713.028	222.98148
713.223	144.93677
713.417	222.98148
713.612	241.96948
713.807	220.8718
714.002	208.21413
714.196	197.66663
714.391	229.31064
714.586	225.09118
714.78	182.90097
714.975	244.07936
715.17	241.96948
715.364	210.32369
715.559	237.74979
715.754	225.09118
715.948	134.39237
716.143	254.62902
716.337	140.71894
716.532	237.74979
716.726	203.99507
716.921	94.32857
717.115	147.04571
717.31	182.90097
717.504	220.8718
717.699	128.06598
717.893	161.80891
718.088	305.27397
718.282	206.10459
718.476	153.37267
718.671	138.61006
718.865	206.10459
719.059	206.10459
719.254	231.42039
719.448	195.55718
719.642	222.98148
719.837	220.8718
720.031	208.21413
720.225	233.53017
720.419	254.62902
720.614	273.61962
720.808	161.80891
721.002	155.4817
721.196	195.55718
721.39	130.17476
721.585	235.63997
721.779	288.39113
721.973	339.04311
722.167	210.32369
722.361	208.21413
722.555	206.10459
722.749	227.2009
722.943	166.02716
723.137	229.31064
723.331	254.62902
723.525	218.76214
723.719	174.4639
723.913	218.76214
724.107	106.97945
724.301	271.50948
724.495	140.71894
724.689	155.4817
724.883	271.50948
725.077	273.61962
725.271	237.74979
725.465	191.33836
725.659	172.35468
725.853	178.68239
726.046	212.43327
726.24	157.59075
726.434	212.43327
726.628	273.61962
726.822	216.6525
727.015	174.4639
727.209	189.22898
727.403	227.2009
727.596	201.88557
727.79	229.31064
727.984	237.74979
728.177	244.07936
728.371	178.68239
728.565	229.31064
728.758	172.35468
728.952	288.39113
729.146	212.43327
729.339	142.82785
729.533	248.29916
729.726	212.43327
729.92	288.39113
730.113	222.98148
730.307	172.35468
730.5	220.8718
730.694	265.17916
730.887	182.90097
731.081	199.77609
731.274	298.94277
731.468	269.39935
731.661	187.11962
731.854	166.02716
732.048	203.99507
732.241	155.4817
732.435	260.95905
732.628	301.05315
732.821	267.28925
733.014	248.29916
733.208	277.83996
733.401	189.22898
733.594	212.43327
733.788	246.18925
733.981	273.61962
734.174	328.48976
734.367	212.43327
734.56	248.29916
734.754	313.71583
734.947	258.84902
735.14	317.93686
735.333	258.84902
735.526	258.84902
735.719	157.59075
735.912	279.95016
736.105	225.09118
736.298	322.15797
736.491	193.44776
736.684	256.73901
736.877	214.54287
737.07	391.8163
737.263	248.29916
737.456	275.72978
737.649	235.63997
737.842	189.22898
738.035	254.62902
738.228	256.73901
738.421	254.62902
738.614	225.09118
738.807	208.21413
739	256.73901
739.192	159.69982
739.385	195.55718
739.578	277.83996
739.771	284.17061
739.964	271.50948
740.156	187.11962
740.349	149.15468
740.542	275.72978
740.735	273.61962
740.927	203.99507
741.12	166.02716
741.313	187.11962
741.505	142.82785
741.698	225.09118
741.891	260.95905
742.083	195.55718
742.276	288.39113
742.468	273.61962
742.661	279.95016
742.854	279.95016
743.046	286.28086
743.239	254.62902
743.431	233.53017
743.624	309.49486
743.816	195.55718
744.009	231.42039
744.201	279.95016
744.393	250.4091
744.586	279.95016
744.778	301.05315
744.971	220.8718
745.163	254.62902
745.355	256.73901
745.548	290.50142
745.74	282.06037
745.932	239.85962
746.125	288.39113
746.317	233.53017
746.509	229.31064
746.702	225.09118
746.894	256.73901
747.086	263.0691
747.278	212.43327
747.471	201.88557
747.663	195.55718
747.855	244.07936
748.047	241.96948
748.239	271.50948
748.431	265.17916
748.623	256.73901
748.815	153.37267
749.008	174.4639
749.2	216.6525
749.392	265.17916
749.584	315.82634
749.776	206.10459
749.968	298.94277
750.16	322.15797
750.352	254.62902
750.544	185.01029
750.736	263.0691
750.928	301.05315
751.12	237.74979
751.311	176.57313
751.503	273.61962
751.695	296.83241
751.887	296.83241
752.079	305.27397
752.271	298.94277
752.463	355.92937
752.654	322.15797
752.846	239.85962
753.038	303.16355
753.23	231.42039
753.421	241.96948
753.613	191.33836
753.805	279.95016
753.997	313.71583
754.188	189.22898
754.38	256.73901
754.572	256.73901
754.763	170.24549
754.955	193.44776
755.146	208.21413
755.338	273.61962
755.53	195.55718
755.721	203.99507
755.913	263.0691
756.104	210.32369
756.296	195.55718
756.487	237.74979
756.679	263.0691
756.87	250.4091
757.062	290.50142
757.253	286.28086
757.445	187.11962
757.636	263.0691
757.827	273.61962
758.019	237.74979
758.21	208.21413
758.401	227.2009
758.593	263.0691
758.784	237.74979
758.975	225.09118
759.167	220.8718
759.358	322.15797
759.549	231.42039
759.74	286.28086
759.932	220.8718
760.123	254.62902
760.314	233.53017
760.505	222.98148
760.696	220.8718
760.888	246.18925
761.079	241.96948
761.27	250.4091
761.461	220.8718
761.652	197.66663
761.843	235.63997
762.034	229.31064
762.225	210.32369
762.416	187.11962
762.607	235.63997
762.798	246.18925
762.989	203.99507
763.18	252.51905
763.371	191.33836
763.562	222.98148
763.753	218.76214
763.944	273.61962
764.135	212.43327
764.326	220.8718
764.517	237.74979
764.708	197.66663
764.899	220.8718
765.089	275.72978
765.28	246.18925
765.471	324.26855
765.662	258.84902
765.853	241.96948
766.043	201.88557
766.234	263.0691
766.425	185.01029
766.615	203.99507
766.806	195.55718
766.997	254.62902
767.187	199.77609
767.378	176.57313
767.569	233.53017
767.759	231.42039
767.95	176.57313
768.141	254.62902
768.331	212.43327
768.522	166.02716
768.712	239.85962
768.903	163.91802
769.093	233.53017
769.284	258.84902
769.474	174.4639
769.665	180.79167
769.855	182.90097
770.046	235.63997
770.236	279.95016
770.426	140.71894
770.617	121.73979
770.807	237.74979
770.998	288.39113
771.188	187.11962
771.378	199.77609
771.569	311.60534
771.759	191.33836
771.949	153.37267
772.139	178.68239
772.33	119.63111
772.52	176.57313
772.71	193.44776
772.9	254.62902
773.09	294.72206
773.281	201.88557
773.471	222.98148
773.661	252.51905
773.851	109.088
774.041	170.24549
774.231	123.8485
774.421	197.66663
774.611	199.77609
774.802	195.55718
774.992	172.35468
775.182	214.54287
775.372	170.24549
775.562	182.90097
775.752	203.99507
775.942	265.17916
776.131	159.69982
776.321	191.33836
776.511	237.74979
776.701	153.37267
776.891	256.73901
777.081	172.35468
777.271	161.80891
777.461	102.7624
777.651	208.21413
777.84	197.66663
778.03	212.43327
778.22	197.66663
778.41	231.42039
778.599	136.50121
778.789	149.15468
778.979	130.17476
779.169	73.24557
779.358	191.33836
779.548	130.17476
779.738	174.4639
779.927	166.02716
780.117	170.24549
780.307	191.33836
780.496	96.437
780.686	225.09118
780.875	182.90097
781.065	170.24549
781.254	166.02716
781.444	178.68239
781.633	233.53017
781.823	195.55718
782.012	109.088
782.202	106.97945
782.391	229.31064
782.581	231.42039
782.77	90.11179
782.96	225.09118
783.149	166.02716
783.338	155.4817
783.528	187.11962
783.717	121.73979
783.906	185.01029
784.096	208.21413
784.285	254.62902
784.474	136.50121
784.663	203.99507
784.853	222.98148
785.042	172.35468
785.231	197.66663
785.42	121.73979
785.61	140.71894
785.799	180.79167
785.988	216.6525
786.177	199.77609
786.366	178.68239
786.555	136.50121
786.744	178.68239
786.933	134.39237
787.122	144.93677
787.312	106.97945
787.501	157.59075
787.69	212.43327
787.879	123.8485
788.068	159.69982
788.257	161.80891
788.445	83.78679
788.634	172.35468
788.823	94.32857
789.012	208.21413
789.201	149.15468
789.39	85.8951
789.579	187.11962
789.768	155.4817
789.957	132.28355
790.145	166.02716
790.334	149.15468
790.523	142.82785
790.712	130.17476
790.9	111.19658
791.089	115.4138
791.278	113.30518
791.467	128.06598
791.655	75.35377
791.844	125.95723
792.033	144.93677
792.221	64.813
792.41	153.37267
792.599	92.22017
792.787	98.54544
792.976	166.02716
793.164	111.19658
793.353	109.088
793.541	132.28355
793.73	153.37267
793.918	153.37267
794.107	115.4138
794.295	79.57023
794.484	231.42039
794.672	144.93677
794.861	85.8951
795.049	140.71894
795.238	111.19658
795.426	142.82785
795.614	132.28355
795.803	113.30518
795.991	136.50121
796.179	212.43327
796.368	130.17476
796.556	216.6525
796.744	109.088
796.932	199.77609
797.121	81.6785
797.309	187.11962
797.497	64.813
797.685	96.437
797.874	170.24549
798.062	178.68239
798.25	60.59685
798.438	138.61006
798.626	147.04571
798.814	157.59075
799.002	111.19658
799.19	170.24549
799.378	174.4639
799.566	155.4817
799.755	104.87091
799.943	136.50121
800.131	119.63111
800.318	104.87091
800.506	136.50121
800.694	203.99507
800.882	121.73979
801.07	35.30189
801.258	153.37267
801.446	195.55718
801.634	144.93677
801.822	189.22898
802.01	138.61006
802.197	174.4639
802.385	189.22898
802.573	163.91802
802.761	90.11179
802.949	182.90097
803.136	60.59685
803.324	79.57023
803.512	69.02924
803.699	136.50121
803.887	178.68239
804.075	216.6525
804.262	199.77609
804.45	130.17476
804.638	172.35468
804.825	180.79167
805.013	106.97945
805.201	203.99507
805.388	75.35377
805.576	155.4817
805.763	98.54544
805.951	180.79167
806.138	168.13631
806.326	98.54544
806.513	163.91802
806.701	115.4138
806.888	172.35468
807.075	115.4138
807.263	90.11179
807.45	166.02716
807.638	199.77609
807.825	189.22898
808.012	3.68794
808.2	106.97945
808.387	172.35468
808.574	195.55718
808.761	117.52244
808.949	117.52244
809.136	100.65391
809.323	85.8951
809.51	218.76214
809.698	136.50121
809.885	151.26366
810.072	189.22898
810.259	113.30518
810.446	161.80891
810.633	130.17476
810.82	214.54287
811.008	149.15468
811.195	147.04571
811.382	69.02924
811.569	155.4817
811.756	225.09118
811.943	144.93677
812.13	166.02716
812.317	130.17476
812.504	144.93677
812.691	170.24549
812.878	174.4639
813.064	151.26366
813.251	149.15468
813.438	182.90097
813.625	246.18925
813.812	153.37267
813.999	138.61006
814.186	178.68239
814.372	100.65391
814.559	115.4138
814.746	153.37267
814.933	208.21413
815.12	157.59075
815.306	128.06598
815.493	115.4138
815.68	144.93677
815.866	180.79167
816.053	176.57313
816.24	170.24549
816.426	123.8485
816.613	157.59075
816.799	151.26366
816.986	60.59685
817.173	149.15468
817.359	85.8951
817.546	237.74979
817.732	134.39237
817.919	153.37267
818.105	149.15468
818.292	218.76214
818.478	153.37267
818.665	90.11179
818.851	147.04571
819.037	166.02716
819.224	161.80891
819.41	163.91802
819.597	144.93677
819.783	191.33836
819.969	214.54287
820.156	153.37267
820.342	109.088
820.528	144.93677
820.714	157.59075
820.901	191.33836
821.087	94.32857
821.273	96.437
821.459	102.7624
821.646	125.95723
821.832	140.71894
822.018	172.35468
822.204	149.15468
822.39	201.88557
822.576	119.63111
822.762	155.4817
822.948	178.68239
823.134	69.02924
823.32	85.8951
823.507	100.65391
823.693	102.7624
823.879	56.38079
824.065	94.32857
824.25	136.50121
824.436	73.24557
824.622	117.52244
824.808	180.79167
824.994	130.17476
825.18	83.78679
825.366	218.76214
825.552	138.61006
825.738	172.35468
825.923	157.59075
826.109	197.66663
826.295	43.73317
826.481	140.71894
826.667	94.32857
826.852	153.37267
827.038	109.088
827.224	212.43327
827.409	161.80891
827.595	111.19658
827.781	71.13739
827.966	104.87091
828.152	136.50121
828.338	187.11962
828.523	155.4817
828.709	166.02716
828.894	136.50121
829.08	94.32857
829.266	94.32857
829.451	100.65391
829.637	147.04571
829.822	161.80891
830.008	123.8485
830.193	168.13631
830.378	113.30518
830.564	111.19658
830.749	106.97945
830.935	140.71894
831.12	64.813
831.305	125.95723
831.491	178.68239
831.676	151.26366
831.861	203.99507
832.047	161.80891
832.232	153.37267
832.417	136.50121
832.602	174.4639
832.788	132.28355
832.973	170.24549
833.158	117.52244
833.343	134.39237
833.528	153.37267
833.714	102.7624
833.899	100.65391
834.084	119.63111
834.269	161.80891
834.454	149.15468
834.639	136.50121
834.824	168.13631
835.009	132.28355
835.194	155.4817
835.379	119.63111
835.564	189.22898
835.749	128.06598
835.934	128.06598
836.119	102.7624
836.304	85.8951
836.489	170.24549
836.674	58.48881
836.859	163.91802
837.044	69.02924
837.228	185.01029
837.413	106.97945
837.598	216.6525
837.783	132.28355
837.968	144.93677
838.152	174.4639
838.337	85.8951
838.522	75.35377
838.707	163.91802
838.891	85.8951
839.076	144.93677
839.261	123.8485
839.445	147.04571
839.63	163.91802
839.815	85.8951
839.999	111.19658
840.184	121.73979
840.368	96.437
840.553	174.4639
840.737	136.50121
840.922	123.8485
841.106	180.79167
841.291	73.24557
841.475	94.32857
841.66	128.06598
841.844	79.57023
842.029	153.37267
842.213	119.63111
842.397	182.90097
842.582	128.06598
842.766	81.6785
842.951	79.57023
843.135	64.813
843.319	64.813
843.504	115.4138
843.688	45.84105
843.872	77.46199
844.056	111.19658
844.241	16.33288
844.425	69.02924
844.609	123.8485
844.793	119.63111
844.977	81.6785
845.161	85.8951
845.346	1.58054
845.53	100.65391
845.714	52.16483
845.898	106.97945
846.082	79.57023
846.266	174.4639
846.45	138.61006
846.634	123.8485
846.818	115.4138
847.002	119.63111
847.186	123.8485
847.37	31.08639
847.554	54.2728
847.738	69.02924
847.922	45.84105
848.106	1.58054
848.29	73.24557
848.473	90.11179
848.657	52.16483
848.841	102.7624
849.025	66.92111
849.209	56.38079
849.392	102.7624
849.576	79.57023
849.76	111.19658
849.944	35.30189
850.127	130.17476
850.311	71.13739
850.495	85.8951
850.678	128.06598
850.862	111.19658
851.046	52.16483
851.229	140.71894
851.413	115.4138
851.596	22.65567
851.78	104.87091
851.964	85.8951
852.147	104.87091
852.331	111.19658
852.514	26.87099
852.698	111.19658
852.881	43.73317
853.065	58.48881
853.248	125.95723
853.431	109.088
853.615	77.46199
853.798	62.70491
853.982	31.08639
854.165	79.57023
854.348	81.6785
854.532	62.70491
854.715	79.57023
854.898	35.30189
855.081	39.51749
855.265	94.32857
855.448	104.87091
855.631	88.00344
855.814	47.94895
855.997	58.48881
856.181	128.06598
856.364	47.94895
856.547	66.92111
856.73	12.11781
856.913	88.00344
857.096	102.7624
857.279	113.30518
857.462	54.2728
857.645	81.6785
857.828	88.00344
858.011	71.13739
858.194	159.69982
858.377	73.24557
858.56	96.437
858.743	92.22017
858.926	20.54805
859.109	28.97868
859.292	69.02924
859.475	56.38079
859.658	43.73317
859.841	157.59075
860.023	123.8485
860.206	58.48881
860.389	81.6785
860.572	117.52244
860.755	106.97945
860.937	35.30189
861.12	102.7624
861.303	98.54544
861.486	119.63111
861.668	79.57023
861.851	64.813
862.034	79.57023
862.216	52.16483
862.399	117.52244
862.581	62.70491
862.764	54.2728
862.947	88.00344
863.129	140.71894
863.312	52.16483
863.494	50.05688
863.677	69.02924
863.859	111.19658
864.042	45.84105
864.224	77.46199
864.406	115.4138
864.589	-23.70644
864.771	66.92111
864.954	56.38079
865.136	60.59685
865.318	39.51749
865.501	85.8951
865.683	132.28355
865.865	56.38079
866.048	100.65391
866.23	94.32857
866.412	153.37267
866.594	104.87091
866.777	69.02924
866.959	109.088
867.141	14.22533
867.323	104.87091
867.505	18.44046
867.687	96.437
867.869	20.54805
868.052	79.57023
868.234	43.73317
868.416	1.58054
868.598	75.35377
868.78	106.97945
868.962	104.87091
869.144	41.62532
869.326	62.70491
869.508	92.22017
869.69	39.51749
869.872	18.44046
870.054	28.97868
870.236	100.65391
870.417	90.11179
870.599	-13.17063
870.781	77.46199
870.963	56.38079
871.145	12.11781
871.327	41.62532
871.508	151.26366
871.69	73.24557
871.872	-2.6342
872.054	73.24557
872.235	52.16483
872.417	56.38079
872.599	-27.92059
872.78	52.16483
872.962	64.813
873.144	3.68794
873.325	60.59685
873.507	85.8951
873.689	58.48881
873.87	-36.3486
874.052	52.16483
874.233	-57.41689
874.415	121.73979
874.596	81.6785
874.778	7.90283
874.959	69.02924
875.141	104.87091
875.322	43.73317
875.503	-6.84884
875.685	96.437
875.866	-65.84349
876.048	43.73317
876.229	31.08639
876.41	28.97868
876.592	111.19658
876.773	54.2728
876.954	140.71894
877.136	3.68794
877.317	69.02924
877.498	18.44046
877.679	64.813
877.86	96.437
878.042	3.68794
878.223	94.32857
878.404	35.30189
878.585	58.48881
878.766	47.94895
878.947	45.84105
879.128	62.70491
879.309	45.84105
879.49	3.68794
879.672	54.2728
879.853	18.44046
880.034	79.57023
880.215	64.813
880.396	111.19658
880.576	88.00344
880.757	45.84105
880.938	35.30189
881.119	60.59685
881.3	58.48881
881.481	43.73317
881.662	-21.59933
881.843	18.44046
882.023	66.92111
882.204	41.62532
882.385	64.813
882.566	28.97868
882.747	39.51749
882.927	33.19413
883.108	90.11179
883.289	56.38079
883.469	83.78679
883.65	111.19658
883.831	75.35377
884.011	33.19413
884.192	119.63111
884.373	45.84105
884.553	43.73317
884.734	71.13739
884.914	12.11781
885.095	28.97868
885.275	98.54544
885.456	14.22533
885.636	26.87099
885.817	14.22533
885.997	100.65391
886.178	58.48881
886.358	43.73317
886.538	47.94895
886.719	102.7624
886.899	56.38079
887.08	73.24557
887.26	73.24557
887.44	92.22017
887.621	56.38079
887.801	10.01031
887.981	109.088
888.161	94.32857
888.342	81.6785
888.522	24.76332
888.702	37.40968
888.882	58.48881
889.062	71.13739
889.242	64.813
889.423	-61.63024
889.603	54.2728
889.783	88.00344
889.963	111.19658
890.143	-8.95613
890.323	35.30189
890.503	98.54544
890.683	119.63111
890.863	138.61006
891.043	24.76332
891.223	43.73317
891.403	77.46199
891.583	-8.95613
891.763	98.54544
891.943	28.97868
892.122	37.40968
892.302	98.54544
892.482	94.32857
892.662	90.11179
892.842	-13.17063
893.022	60.59685
893.201	119.63111
893.381	123.8485
893.561	26.87099
893.741	123.8485
893.92	37.40968
894.1	52.16483
894.28	94.32857
894.459	71.13739
894.639	56.38079
894.819	90.11179
894.998	10.01031
895.178	83.78679
895.357	62.70491
895.537	73.24557
895.716	102.7624
895.896	43.73317
896.075	102.7624
896.255	85.8951
896.434	28.97868
896.614	26.87099
896.793	62.70491
896.973	56.38079
897.152	-23.70644
897.331	-6.84884
897.511	-46.88306
897.69	83.78679
897.87	10.01031
898.049	43.73317
898.228	28.97868
898.407	31.08639
898.587	-6.84884
898.766	1.58054
898.945	104.87091
899.124	37.40968
899.304	45.84105
899.483	90.11179
899.662	-4.74153
899.841	123.8485
900.02	104.87091
900.199	64.813
900.378	94.32857
900.557	31.08639
900.737	-8.95613
900.916	56.38079
901.095	60.59685
901.274	94.32857
901.453	71.13739
901.632	26.87099
901.811	47.94895
901.989	71.13739
902.168	31.08639
902.347	62.70491
902.526	-15.27784
902.705	7.90283
902.884	1.58054
903.063	-23.70644
903.242	33.19413
903.42	43.73317
903.599	85.8951
903.778	3.68794
903.957	-19.49219
904.135	71.13739
904.314	79.57023
904.493	31.08639
904.672	18.44046
904.85	24.76332
905.029	-13.17063
905.207	-19.49219
905.386	64.813
905.565	-4.74153
905.743	39.51749
905.922	64.813
906.1	18.44046
906.279	75.35377
906.457	33.19413
906.636	96.437
906.814	90.11179
906.993	43.73317
907.171	1.58054
907.35	81.6785
907.528	-65.84349
907.707	43.73317
907.885	33.19413
908.063	3.68794
908.242	-13.17063
908.42	18.44046
908.598	5.79537
908.777	43.73317
908.955	-4.74153
909.133	62.70491
909.311	64.813
909.49	14.22533
909.668	104.87091
909.846	52.16483
910.024	-32.13465
910.202	-11.06339
910.38	-23.70644
910.559	39.51749
910.737	-36.3486
910.915	33.19413
911.093	79.57023
911.271	39.51749
911.449	43.73317
911.627	69.02924
911.805	26.87099
911.983	50.05688
912.161	83.78679
912.339	14.22533
912.517	96.437
912.695	132.28355
912.872	35.30189
913.05	-23.70644
913.228	24.76332
913.406	10.01031
913.584	88.00344
913.762	7.90283
913.939	26.87099
914.117	85.8951
914.295	62.70491
914.473	28.97868
914.65	35.30189
914.828	43.73317
915.006	12.11781
915.184	62.70491
915.361	-4.74153
915.539	66.92111
915.716	102.7624
915.894	-44.77622
916.072	37.40968
916.249	69.02924
916.427	22.65567
916.604	31.08639
916.782	75.35377
916.959	-42.66935
917.137	50.05688
917.314	45.84105
917.492	-15.27784
917.669	10.01031
917.847	18.44046
918.024	7.90283
918.201	7.90283
918.379	54.2728
918.556	-13.17063
918.733	60.59685
918.911	45.84105
919.088	-38.45555
919.265	60.59685
919.442	94.32857
919.62	69.02924
919.797	43.73317
919.974	20.54805
920.151	10.01031
920.328	81.6785
920.506	56.38079
920.683	7.90283
920.86	20.54805
921.037	43.73317
921.214	113.30518
921.391	47.94895
921.568	52.16483
921.745	94.32857
921.922	31.08639
922.099	18.44046
922.276	3.68794
922.453	45.84105
922.63	66.92111
922.807	-15.27784
922.984	28.97868
923.161	41.62532
923.338	10.01031
923.514	1.58054
923.691	33.19413
923.868	-53.20343
924.045	5.79537
924.222	64.813
924.399	20.54805
924.575	26.87099
924.752	-2.6342
924.929	10.01031
925.105	-25.81353
925.282	64.813
925.459	26.87099
925.635	-32.13465
925.812	-67.95008
925.989	52.16483
926.165	-27.92059
926.342	64.813
926.518	73.24557
926.695	24.76332
926.871	39.51749
927.048	35.30189
927.224	26.87099
927.401	-6.84884
927.577	5.79537
927.754	20.54805
927.93	45.84105
928.107	52.16483
928.283	64.813
928.459	45.84105
928.636	24.76332
928.812	10.01031
928.988	-15.27784
929.165	31.08639
929.341	-42.66935
929.517	1.58054
929.693	-17.38502
929.87	26.87099
930.046	62.70491
930.222	5.79537
930.398	10.01031
930.574	-19.49219
930.751	-6.84884
930.927	26.87099
931.103	-42.66935
931.279	18.44046
931.455	18.44046
931.631	43.73317
931.807	-67.95008
931.983	10.01031
932.159	-44.77622
932.335	-21.59933
932.511	-17.38502
932.687	-2.6342
932.863	12.11781
933.039	1.58054
933.215	-4.74153
933.391	37.40968
933.566	22.65567
933.742	60.59685
933.918	3.68794
934.094	39.51749
934.27	33.19413
934.445	1.58054
934.621	-13.17063
934.797	-36.3486
934.973	18.44046
935.148	54.2728
935.324	37.40968
935.5	-4.74153
935.675	-42.66935
935.851	-42.66935
936.027	24.76332
936.202	7.90283
936.378	-23.70644
936.553	71.13739
936.729	-44.77622
936.904	-74.26969
937.08	35.30189
937.255	-36.3486
937.431	22.65567
937.606	14.22533
937.782	-40.56246
937.957	71.13739
938.133	-48.98987
938.308	1.58054
938.483	-86.90822
938.659	-8.95613
938.834	1.58054
939.009	12.11781
939.185	-13.17063
939.36	73.24557
939.535	-23.70644
939.71	37.40968
939.886	20.54805
940.061	94.32857
940.236	10.01031
940.411	-19.49219
940.586	-6.84884
940.761	138.61006
940.937	18.44046
941.112	-6.84884
941.287	-0.52684
941.462	35.30189
941.637	10.01031
941.812	66.92111
941.987	-65.84349
942.162	-25.81353
942.337	31.08639
942.512	39.51749
942.687	14.22533
942.862	-46.88306
943.037	-78.48264
943.212	-4.74153
943.386	-23.70644
943.561	10.01031
943.736	-8.95613
943.911	-32.13465
944.086	-21.59933
944.26	35.30189
944.435	-84.80186
944.61	-6.84884
944.785	7.90283
944.959	22.65567
945.134	-13.17063
945.309	-6.84884
945.483	3.68794
945.658	52.16483
945.833	-4.74153
946.007	-25.81353
946.182	31.08639
946.357	37.40968
946.531	47.94895
946.706	-40.56246
946.88	-6.84884
947.055	18.44046
947.229	-27.92059
947.404	79.57023
947.578	35.30189
947.752	90.11179
947.927	-8.95613
948.101	1.58054
948.276	-78.48264
948.45	39.51749
948.624	-23.70644
948.799	18.44046
948.973	1.58054
949.147	43.73317
949.321	1.58054
949.496	-65.84349
949.67	96.437
949.844	43.73317
950.018	-48.98987
950.193	35.30189
950.367	-84.80186
950.541	-23.70644
950.715	-27.92059
950.889	-23.70644
951.063	-23.70644
951.237	-27.92059
951.411	35.30189
951.585	28.97868
951.759	-25.81353
951.933	-15.27784
952.107	47.94895
952.281	-82.69548
952.455	-51.09666
952.629	12.11781
952.803	10.01031
952.977	1.58054
953.151	-4.74153
953.325	52.16483
953.499	-15.27784
953.672	69.02924
953.846	26.87099
954.02	14.22533
954.194	26.87099
954.368	-4.74153
954.541	31.08639
954.715	14.22533
954.889	20.54805
955.062	-23.70644
955.236	12.11781
955.41	-15.27784
955.583	37.40968
955.757	-23.70644
955.93	-27.92059
956.104	-13.17063
956.278	-0.52684
956.451	-91.12085
956.625	81.6785
956.798	-82.69548
956.972	-2.6342
957.145	-15.27784
957.319	-40.56246
957.492	85.8951
957.665	-15.27784
957.839	58.48881
958.012	-6.84884
958.185	-13.17063
958.359	-2.6342
958.532	-61.63024
958.705	3.68794
958.879	-65.84349
959.052	18.44046
959.225	-2.6342
959.398	10.01031
959.572	1.58054
959.745	28.97868
959.918	26.87099
960.091	-15.27784
960.264	41.62532
960.438	-91.12085
960.611	69.02924
960.784	-30.02763
960.957	-23.70644
961.13	-2.6342
961.303	3.68794
961.476	1.58054
961.649	47.94895
961.822	-30.02763
961.995	18.44046
962.168	26.87099
962.341	-21.59933
962.514	-11.06339
962.686	10.01031
962.859	-23.70644
963.032	39.51749
963.205	52.16483
963.378	12.11781
963.551	-38.45555
963.723	54.2728
963.896	3.68794
964.069	60.59685
964.242	73.24557
964.414	-2.6342
964.587	-32.13465
964.76	43.73317
964.932	12.11781
965.105	-19.49219
965.278	-48.98987
965.45	-65.84349
965.623	18.44046
965.795	-15.27784
965.968	-32.13465
966.14	35.30189
966.313	1.58054
966.485	14.22533
966.658	-61.63024
966.83	-30.02763
967.003	-23.70644
967.175	-2.6342
967.348	26.87099
967.52	14.22533
967.692	-6.84884
967.865	37.40968
968.037	-32.13465
968.209	62.70491
968.382	-51.09666
968.554	-23.70644
968.726	35.30189
968.898	5.79537
969.071	28.97868
969.243	-61.63024
969.415	-23.70644
969.587	10.01031
969.759	22.65567
969.932	-70.05664
970.104	-55.31017
970.276	43.73317
970.448	22.65567
970.62	3.68794
970.792	-19.49219
970.964	-57.41689
971.136	-89.01455
971.308	50.05688
971.48	-25.81353
971.652	18.44046
971.824	-11.06339
971.996	5.79537
972.168	-23.70644
972.339	31.08639
972.511	-40.56246
972.683	-15.27784
972.855	-6.84884
973.027	85.8951
973.199	39.51749
973.37	-27.92059
973.542	52.16483
973.714	-6.84884
973.886	60.59685
974.057	7.90283
974.229	5.79537
974.401	52.16483
974.572	-72.16318
974.744	-32.13465
974.915	10.01031
975.087	20.54805
975.259	1.58054
975.43	-8.95613
975.602	-2.6342
975.773	14.22533
975.945	-25.81353
976.116	7.90283
976.288	-27.92059
976.459	-36.3486
976.63	-13.17063
976.802	-6.84884
976.973	35.30189
977.145	-57.41689
977.316	28.97868
977.487	-48.98987
977.659	81.6785
977.83	35.30189
978.001	-38.45555
978.172	16.33288
978.344	35.30189
978.515	-30.02763
978.686	56.38079
978.857	26.87099
979.028	-38.45555
979.2	-19.49219
979.371	12.11781
979.542	-4.74153
979.713	22.65567
979.884	-21.59933
980.055	-6.84884
980.226	-13.17063
980.397	18.44046
980.568	3.68794
980.739	-38.45555
980.91	71.13739
981.081	-6.84884
981.252	-11.06339
981.423	52.16483
981.594	-21.59933
981.765	-32.13465
981.936	-19.49219
982.106	58.48881
982.277	1.58054
982.448	-70.05664
982.619	1.58054
982.79	1.58054
982.96	10.01031
983.131	-27.92059
983.302	-55.31017
983.472	-23.70644
983.643	-70.05664
983.814	7.90283
983.984	-57.41689
984.155	-44.77622
984.326	-55.31017
984.496	-23.70644
984.667	16.33288
984.837	-48.98987
985.008	10.01031
985.178	94.32857
985.349	3.68794
985.519	35.30189
985.69	-82.69548
985.86	77.46199
986.031	-15.27784
986.201	28.97868
986.371	69.02924
986.542	16.33288
986.712	-13.17063
986.882	26.87099
987.053	-6.84884
987.223	69.02924
987.393	-53.20343
987.563	-57.41689
987.734	31.08639
987.904	-15.27784
988.074	-27.92059
988.244	-25.81353
988.414	-11.06339
988.585	-65.84349
988.755	-15.27784
988.925	5.79537
989.095	-80.58907
989.265	31.08639
989.435	31.08639
989.605	-38.45555
989.775	-2.6342
989.945	28.97868
990.115	-21.59933
990.285	1.58054
990.455	-40.56246
990.625	14.22533
990.795	-4.74153
990.965	-55.31017
991.134	-25.81353
991.304	43.73317
991.474	-48.98987
991.644	-2.6342
991.814	37.40968
991.984	62.70491
992.153	60.59685
992.323	-78.48264
992.493	35.30189
992.662	-30.02763
992.832	12.11781
993.002	3.68794
993.171	-122.71228
993.341	-59.52357
993.511	-51.09666
993.68	-21.59933
993.85	-21.59933
994.019	28.97868
994.189	-51.09666
994.358	-36.3486
994.528	-15.27784
994.697	-23.70644
994.867	14.22533
995.036	-65.84349
995.206	-17.38502
995.375	-2.6342
995.544	-44.77622
995.714	39.51749
995.883	3.68794
996.052	3.68794
996.222	50.05688
996.391	-2.6342
996.56	47.94895
996.73	-11.06339
996.899	-11.06339
997.068	-21.59933
997.237	-8.95613
997.406	31.08639
997.576	20.54805
997.745	-23.70644
997.914	18.44046
998.083	20.54805
998.252	3.68794
998.421	-91.12085
998.59	35.30189
998.759	-48.98987
998.928	24.76332
999.097	64.813
999.266	14.22533
999.435	-21.59933
999.604	7.90283
999.773	-11.06339
999.942	43.73317
1000.111	-38.45555
1000.28	-46.88306
1000.448	1.58054
1000.617	-46.88306
1000.786	3.68794
1000.955	-4.74153
1001.124	18.44046
1001.292	47.94895
1001.461	22.65567
1001.63	26.87099
1001.798	3.68794
1001.967	26.87099
1002.136	22.65567
1002.304	-32.13465
1002.473	-48.98987
1002.642	58.48881
1002.81	43.73317
1002.979	-27.92059
1003.147	-80.58907
1003.316	-38.45555
1003.484	5.79537
1003.653	-27.92059
1003.821	12.11781
1003.99	-6.84884
1004.158	10.01031
1004.327	-32.13465
1004.495	-95.33338
1004.663	-42.66935
1004.832	1.58054
1005	18.44046
1005.168	-63.73688
1005.337	-4.74153
1005.505	31.08639
1005.673	1.58054
1005.842	-15.27784
1006.01	-65.84349
1006.178	-2.6342
1006.346	-21.59933
1006.514	-48.98987
1006.683	-27.92059
1006.851	-32.13465
1007.019	-67.95008
1007.187	-11.06339
1007.355	-19.49219
1007.523	-40.56246
1007.691	-2.6342
1007.859	-57.41689
1008.027	-40.56246
1008.195	-44.77622
1008.363	-80.58907
1008.531	-2.6342
1008.699	-21.59933
1008.867	-25.81353
1009.035	-15.27784
1009.203	14.22533
1009.37	31.08639
1009.538	39.51749
1009.706	12.11781
1009.874	-40.56246
1010.042	-13.17063
1010.209	-8.95613
1010.377	66.92111
1010.545	-40.56246
1010.713	1.58054
1010.88	-116.39447
1011.048	-21.59933
1011.216	-2.6342
1011.383	-30.02763
1011.551	-6.84884
1011.718	-61.63024
1011.886	-0.52684
1012.054	-25.81353
1012.221	-48.98987
1012.389	-23.70644
1012.556	-6.84884
1012.724	-30.02763
1012.891	10.01031
1013.058	18.44046
1013.226	-61.63024
1013.393	-19.49219
1013.561	52.16483
1013.728	12.11781
1013.895	-23.70644
1014.063	-55.31017
1014.23	-44.77622
1014.397	43.73317
1014.565	-6.84884
1014.732	-48.98987
1014.899	-55.31017
1015.066	-53.20343
1015.233	-32.13465
1015.401	-21.59933
1015.568	-13.17063
1015.735	45.84105
1015.902	54.2728
1016.069	-74.26969
1016.236	-27.92059
1016.403	-2.6342
1016.57	-72.16318
1016.737	-57.41689
1016.904	-46.88306
1017.071	3.68794
1017.238	10.01031
1017.405	3.68794
1017.572	-23.70644
1017.739	-19.49219
1017.906	52.16483
1018.073	37.40968
1018.24	-48.98987
1018.407	10.01031
1018.573	-11.06339
1018.74	39.51749
1018.907	-6.84884
1019.074	39.51749
1019.241	43.73317
1019.407	7.90283
1019.574	-95.33338
1019.741	26.87099
1019.907	-13.17063
1020.074	18.44046
1020.241	-36.3486
1020.407	-6.84884
1020.574	-38.45555
1020.74	-61.63024
1020.907	-32.13465
1021.073	-19.49219
1021.24	56.38079
1021.406	-38.45555
1021.573	1.58054
1021.739	-30.02763
1021.906	-30.02763
1022.072	16.33288
1022.239	-32.13465
1022.405	26.87099
1022.571	26.87099
1022.738	37.40968
1022.904	-19.49219
1023.07	-51.09666
1023.237	-59.52357
1023.403	12.11781
1023.569	-19.49219
1023.735	-40.56246
1023.902	-2.6342
1024.068	56.38079
1024.234	26.87099
1024.4	-44.77622
1024.566	-13.17063
1024.732	10.01031
1024.898	1.58054
1025.065	18.44046
1025.231	-27.92059
1025.397	-23.70644
1025.563	18.44046
1025.729	-59.52357
1025.895	-11.06339
1026.061	-38.45555
1026.227	-32.13465
1026.392	22.65567
1026.558	39.51749
1026.724	-32.13465
1026.89	-55.31017
1027.056	-23.70644
1027.222	-61.63024
1027.388	-53.20343
1027.553	-15.27784
1027.719	3.68794
1027.885	39.51749
1028.051	10.01031
1028.216	-80.58907
1028.382	-40.56246
1028.548	-34.24164
1028.713	7.90283
1028.879	-4.74153
1029.045	-13.17063
1029.21	-116.39447
1029.376	-40.56246
1029.541	18.44046
1029.707	-30.02763
1029.873	22.65567
1030.038	-19.49219
1030.204	-15.27784
1030.369	18.44046
1030.534	-21.59933
1030.7	22.65567
1030.865	-42.66935
1031.031	28.97868
1031.196	-32.13465
1031.361	-53.20343
1031.527	-48.98987
1031.692	16.33288
1031.857	64.813
1032.023	12.11781
1032.188	-30.02763
1032.353	-6.84884
1032.518	-19.49219
1032.684	39.51749
1032.849	-6.84884
1033.014	-65.84349
1033.179	-36.3486
1033.344	-32.13465
1033.509	-53.20343
1033.674	26.87099
1033.839	10.01031
1034.004	-27.92059
1034.17	45.84105
1034.335	62.70491
1034.5	-19.49219
1034.664	18.44046
1034.829	-34.24164
1034.994	20.54805
1035.159	-61.63024
1035.324	-2.6342
1035.489	-11.06339
1035.654	-21.59933
1035.819	-48.98987
1035.984	10.01031
1036.148	43.73317
1036.313	-27.92059
1036.478	-40.56246
1036.643	-61.63024
1036.807	-53.20343
1036.972	31.08639
1037.137	-74.26969
1037.301	77.46199
1037.466	16.33288
1037.631	-78.48264
1037.795	-63.73688
1037.96	-38.45555
1038.124	3.68794
1038.289	10.01031
1038.454	-13.17063
1038.618	73.24557
1038.783	-0.52684
1038.947	-36.3486
1039.111	10.01031
1039.276	1.58054
1039.44	-38.45555
1039.605	-8.95613
1039.769	-80.58907
1039.933	-48.98987
1040.098	-57.41689
1040.262	-17.38502
1040.426	-65.84349
1040.591	-84.80186
1040.755	-65.84349
1040.919	-11.06339
1041.083	-34.24164
1041.248	-57.41689
1041.412	1.58054
1041.576	-13.17063
1041.74	-2.6342
1041.904	-30.02763
1042.068	-82.69548
1042.232	18.44046
1042.397	-4.74153
1042.561	-82.69548
1042.725	-4.74153
1042.889	-36.3486
1043.053	35.30189
1043.217	-42.66935
1043.381	5.79537
1043.544	-8.95613
1043.708	1.58054
1043.872	1.58054
1044.036	3.68794
1044.2	5.79537
1044.364	5.79537
1044.528	28.97868
1044.691	10.01031
1044.855	-2.6342
1045.019	-19.49219
1045.183	-23.70644
1045.346	-70.05664
1045.51	-11.06339
1045.674	52.16483
1045.837	7.90283
1046.001	-36.3486
1046.165	-34.24164
1046.328	3.68794
1046.492	52.16483
1046.655	-11.06339
1046.819	-15.27784
1046.983	45.84105
1047.146	-40.56246
1047.31	-36.3486
1047.473	26.87099
1047.636	22.65567
1047.8	-63.73688
1047.963	26.87099
1048.127	-38.45555
1048.29	-99.54581
