Data from Scatter_Coeff_Baseline_USB4F045381__51__0051.txt Node

Date: Thu Feb 13 19:33:08 EST 2025
User: mmckonesweet
Spectrometer: USB4F04538
Trigger mode: 4
Integration Time (sec): 2.400000E-3
Scans to average: 1
Electric dark correction enabled: true
Nonlinearity correction enabled: true
Boxcar width: 0
XAxis mode: Wavelengths
Number of Pixels in Spectrum: 3648
>>>>>Begin Spectral Data<<<<<
345.52	-5.79519
345.736	-5.79519
345.952	-5.79519
346.168	-54.2568
346.384	-81.64228
346.6	74.29967
346.816	-41.61591
347.032	-31.08114
347.248	19.49425
347.464	-3.68787
347.68	44.78711
347.896	11.06405
348.112	-28.97412
348.328	-22.65289
348.544	-37.40208
348.76	34.24801
348.975	-18.43861
349.191	-16.33143
349.407	-1.58052
349.623	-1.58052
349.839	-18.43861
350.055	-26.86706
350.27	15.2791
350.486	-18.43861
350.702	11.06405
350.918	36.35578
351.133	-81.64228
351.349	51.11085
351.565	4.74166
351.781	-56.36353
351.996	44.78711
352.212	-20.54576
352.428	44.78711
352.644	-5.79519
352.859	-35.29512
353.075	-20.54576
353.291	57.4348
353.506	-37.40208
353.722	-45.82964
353.938	70.08331
354.153	-1.58052
354.369	-7.90249
354.584	-5.79519
354.8	-92.17399
355.016	36.35578
355.231	-5.79519
355.447	-5.79519
355.662	-31.08114
355.878	-60.57691
356.093	-43.72279
356.309	-5.79519
356.524	-47.93647
356.74	-71.10991
356.955	-5.79519
357.171	36.35578
357.386	-56.36353
357.602	-35.29512
357.817	23.70949
358.033	8.95656
358.248	-35.29512
358.464	-47.93647
358.679	-12.11701
358.895	-31.08114
359.11	2.63424
359.325	-45.82964
359.541	32.14026
359.756	-37.40208
359.972	-3.68787
360.187	27.92483
360.402	-52.15005
360.618	32.14026
360.833	-3.68787
361.048	6.8491
361.264	67.97517
361.479	6.8491
361.694	21.60186
361.909	-22.65289
362.125	42.67924
362.34	84.84094
362.555	-12.11701
362.77	27.92483
362.986	-56.36353
363.201	-43.72279
363.416	99.59967
363.631	-31.08114
363.847	15.2791
364.062	11.06405
364.277	-39.50901
364.492	53.21881
364.707	25.81715
364.922	-14.22423
365.138	-60.57691
365.353	-5.79519
365.568	-18.43861
365.783	-12.11701
365.998	-5.79519
366.213	-5.79519
366.428	-56.36353
366.643	21.60186
366.858	-20.54576
367.073	-37.40208
367.288	-18.43861
367.503	46.895
367.718	-24.75999
367.933	-1.58052
368.148	-56.36353
368.363	-5.79519
368.578	4.74166
368.793	2.63424
369.008	6.8491
369.223	-28.97412
369.438	-26.86706
369.653	-1.58052
369.868	-26.86706
370.083	-3.68787
370.298	-35.29512
370.513	-26.86706
370.728	-43.72279
370.943	65.86705
371.157	17.38667
371.372	-73.21644
371.587	76.40788
371.802	36.35578
372.017	8.95656
372.232	30.03253
372.446	25.81715
372.661	6.8491
372.876	-10.00976
373.091	40.5714
373.306	15.2791
373.52	55.32679
373.735	36.35578
373.95	36.35578
374.165	-31.08114
374.379	6.8491
374.594	11.06405
374.809	13.17157
375.023	-7.90249
375.238	40.5714
375.453	-5.79519
375.667	-54.2568
375.882	-37.40208
376.097	8.95656
376.311	-43.72279
376.526	-37.40208
376.741	17.38667
376.955	-12.11701
377.17	-45.82964
377.384	21.60186
377.599	11.06405
377.813	19.49425
378.028	38.46358
378.242	13.17157
378.457	-31.08114
378.672	-20.54576
378.886	-64.79019
379.101	11.06405
379.315	-26.86706
379.53	-3.68787
379.744	-47.93647
379.958	32.14026
380.173	74.29967
380.387	36.35578
380.602	13.17157
380.816	-43.72279
381.031	2.63424
381.245	-16.33143
381.459	32.14026
381.674	-56.36353
381.888	-60.57691
382.103	6.8491
382.317	-62.68356
382.531	-3.68787
382.746	19.49425
382.96	-18.43861
383.174	-69.00336
383.388	4.74166
383.603	11.06405
383.817	15.2791
384.031	-43.72279
384.246	19.49425
384.46	-24.75999
384.674	27.92483
384.888	27.92483
385.103	-39.50901
385.317	6.8491
385.531	21.60186
385.745	-35.29512
385.959	-47.93647
386.174	-20.54576
386.388	-18.43861
386.602	-39.50901
386.816	38.46358
387.03	0.52684
387.244	19.49425
387.458	-22.65289
387.672	-10.00976
387.887	-1.58052
388.101	-10.00976
388.315	-85.85504
388.529	13.17157
388.743	-58.47023
388.957	27.92483
389.171	8.95656
389.385	19.49425
389.599	-22.65289
389.813	38.46358
390.027	2.63424
390.241	-52.15005
390.455	-31.08114
390.669	-45.82964
390.883	-12.11701
391.097	6.8491
391.311	27.92483
391.525	46.895
391.738	23.70949
391.952	-3.68787
392.166	-18.43861
392.38	36.35578
392.594	36.35578
392.808	11.06405
393.022	-1.58052
393.236	6.8491
393.449	23.70949
393.663	27.92483
393.877	27.92483
394.091	46.895
394.305	4.74166
394.518	40.5714
394.732	-33.18815
394.946	-24.75999
395.16	15.2791
395.373	36.35578
395.587	21.60186
395.801	53.21881
396.015	-12.11701
396.228	-20.54576
396.442	-1.58052
396.656	2.63424
396.869	4.74166
397.083	8.95656
397.297	19.49425
397.51	65.86705
397.724	-37.40208
397.938	61.65088
398.151	15.2791
398.365	-5.79519
398.578	63.75895
398.792	61.65088
399.005	55.32679
399.219	36.35578
399.433	-20.54576
399.646	17.38667
399.86	44.78711
400.073	-60.57691
400.287	-64.79019
400.5	-47.93647
400.714	-75.32294
400.927	-1.58052
401.141	-33.18815
401.354	-14.22423
401.567	44.78711
401.781	19.49425
401.994	15.2791
402.208	6.8491
402.421	-26.86706
402.635	-20.54576
402.848	6.8491
403.061	21.60186
403.275	-26.86706
403.488	2.63424
403.701	42.67924
403.915	15.2791
404.128	6.8491
404.341	6.8491
404.555	46.895
404.768	27.92483
404.981	6.8491
405.195	-47.93647
405.408	-16.33143
405.621	55.32679
405.834	-22.65289
406.048	53.21881
406.261	6.8491
406.474	95.38278
406.687	-7.90249
406.9	-64.79019
407.114	61.65088
407.327	-14.22423
407.54	42.67924
407.753	-12.11701
407.966	30.03253
408.179	65.86705
408.392	-62.68356
408.605	15.2791
408.819	4.74166
409.032	-5.79519
409.245	65.86705
409.458	-10.00976
409.671	19.49425
409.884	-66.89679
410.097	-41.61591
410.31	-5.79519
410.523	44.78711
410.736	46.895
410.949	65.86705
411.162	-37.40208
411.375	-16.33143
411.588	11.06405
411.801	2.63424
412.014	42.67924
412.227	2.63424
412.44	21.60186
412.653	25.81715
412.865	15.2791
413.078	-5.79519
413.291	-14.22423
413.504	74.29967
413.717	63.75895
413.93	51.11085
414.143	25.81715
414.356	105.92518
414.568	63.75895
414.781	-14.22423
414.994	32.14026
415.207	-52.15005
415.42	4.74166
415.632	-26.86706
415.845	-31.08114
416.058	-26.86706
416.271	6.8491
416.483	-3.68787
416.696	91.16598
416.909	-18.43861
417.121	34.24801
417.334	-35.29512
417.547	-1.58052
417.759	-79.53586
417.972	-18.43861
418.185	61.65088
418.397	36.35578
418.61	55.32679
418.823	2.63424
419.035	21.60186
419.248	-60.57691
419.46	38.46358
419.673	-37.40208
419.885	-26.86706
420.098	19.49425
420.311	-31.08114
420.523	63.75895
420.736	38.46358
420.948	2.63424
421.161	-14.22423
421.373	11.06405
421.586	-20.54576
421.798	-16.33143
422.01	36.35578
422.223	-37.40208
422.435	2.63424
422.648	27.92483
422.86	61.65088
423.073	61.65088
423.285	19.49425
423.497	21.60186
423.71	46.895
423.922	32.14026
424.134	13.17157
424.347	-22.65289
424.559	42.67924
424.771	-28.97412
424.984	-10.00976
425.196	2.63424
425.408	38.46358
425.621	-5.79519
425.833	-12.11701
426.045	27.92483
426.257	27.92483
426.47	23.70949
426.682	15.2791
426.894	51.11085
427.106	32.14026
427.318	49.00291
427.531	13.17157
427.743	40.5714
427.955	36.35578
428.167	6.8491
428.379	63.75895
428.591	34.24801
428.804	4.74166
429.016	105.92518
429.228	120.68545
429.44	63.75895
429.652	-22.65289
429.864	-43.72279
430.076	72.19148
430.288	-20.54576
430.5	-45.82964
430.712	6.8491
430.924	23.70949
431.136	30.03253
431.348	13.17157
431.56	-1.58052
431.772	-14.22423
431.984	-60.57691
432.196	-73.21644
432.408	21.60186
432.62	46.895
432.832	-3.68787
433.044	78.51611
433.256	59.54283
433.468	44.78711
433.679	86.94927
433.891	53.21881
434.103	2.63424
434.315	8.95656
434.527	0.52684
434.739	-18.43861
434.95	0.52684
435.162	-3.68787
435.374	-64.79019
435.586	34.24801
435.798	11.06405
436.009	-31.08114
436.221	-14.22423
436.433	23.70949
436.645	120.68545
436.856	59.54283
437.068	76.40788
437.28	86.94927
437.491	-5.79519
437.703	36.35578
437.915	51.11085
438.126	-31.08114
438.338	17.38667
438.55	25.81715
438.761	120.68545
438.973	-10.00976
439.184	-20.54576
439.396	-24.75999
439.608	82.73264
439.819	23.70949
440.031	91.16598
440.242	74.29967
440.454	59.54283
440.665	19.49425
440.877	38.46358
441.088	49.00291
441.3	61.65088
441.511	95.38278
441.723	51.11085
441.934	27.92483
442.146	63.75895
442.357	38.46358
442.569	112.25088
442.78	139.6645
442.991	36.35578
443.203	57.4348
443.414	-39.50901
443.626	-7.90249
443.837	19.49425
444.048	-5.79519
444.26	23.70949
444.471	21.60186
444.682	19.49425
444.894	23.70949
445.105	25.81715
445.316	44.78711
445.528	21.60186
445.739	70.08331
445.95	112.25088
446.161	40.5714
446.373	46.895
446.584	-7.90249
446.795	46.895
447.006	-14.22423
447.217	65.86705
447.429	61.65088
447.64	6.8491
447.851	40.5714
448.062	38.46358
448.273	86.94927
448.484	95.38278
448.695	21.60186
448.907	36.35578
449.118	55.32679
449.329	15.2791
449.54	21.60186
449.751	40.5714
449.962	61.65088
450.173	89.05761
450.384	-5.79519
450.595	74.29967
450.806	72.19148
451.017	2.63424
451.228	76.40788
451.439	116.46812
451.65	78.51611
451.861	101.70815
452.072	44.78711
452.283	95.38278
452.494	67.97517
452.705	93.27437
452.915	55.32679
453.126	19.49425
453.337	27.92483
453.548	103.81665
453.759	78.51611
453.97	17.38667
454.181	154.42718
454.391	78.51611
454.602	70.08331
454.813	44.78711
455.024	70.08331
455.235	53.21881
455.445	49.00291
455.656	133.33796
455.867	13.17157
456.078	76.40788
456.288	99.59967
456.499	40.5714
456.71	82.73264
456.921	46.895
457.131	116.46812
457.342	86.94927
457.553	72.19148
457.763	141.77339
457.974	124.90287
458.184	59.54283
458.395	57.4348
458.606	120.68545
458.816	162.86346
459.027	82.73264
459.237	101.70815
459.448	158.64528
459.659	103.81665
459.869	63.75895
460.08	36.35578
460.29	181.84631
460.501	122.79415
460.711	131.22915
460.922	131.22915
461.132	51.11085
461.343	65.86705
461.553	112.25088
461.764	65.86705
461.974	70.08331
462.184	120.68545
462.395	217.70731
462.605	234.58507
462.816	93.27437
463.026	164.97259
463.236	217.70731
463.447	145.99124
463.657	91.16598
463.867	205.04983
464.078	198.72135
464.288	238.8047
464.498	230.36551
464.709	211.37848
464.919	188.1743
465.129	167.08173
465.339	148.10019
465.55	243.02442
465.76	228.25576
465.97	145.99124
466.18	205.04983
466.391	270.45441
466.601	299.99796
466.811	240.91455
467.021	272.56455
467.231	213.48807
467.441	245.1343
467.651	295.77723
467.862	243.02442
468.072	325.32385
468.282	306.32919
468.492	215.59768
468.702	378.09425
468.912	373.87222
469.122	365.42837
469.332	312.66058
469.542	281.00526
469.752	363.31745
469.962	337.98775
470.172	481.5541
470.382	356.9848
470.592	485.77775
470.802	483.66592
471.012	454.1019
471.222	411.87285
471.432	534.35382
471.642	477.33052
471.852	432.98659
472.062	589.27478
472.272	642.09171
472.482	610.4006
472.691	658.99475
472.901	559.70082
473.111	570.26265
473.321	663.22063
473.531	690.68998
473.741	673.78553
473.95	783.67688
474.16	661.10768
474.37	830.17761
474.58	800.58571
474.79	825.95009
474.999	796.35845
475.209	872.4548
475.419	849.20191
475.628	929.53424
475.838	891.48064
476.048	973.93315
476.258	1037.36528
476.467	1100.80262
476.677	1128.29355
476.886	1198.08145
477.096	1128.29355
477.306	1259.41335
477.515	1263.64323
477.725	1312.28747
477.935	1223.45986
478.144	1250.95363
478.354	1077.54171
478.563	1515.33103
478.773	1324.97745
478.982	1625.3114
479.192	1591.47174
479.401	1587.24175
479.611	1676.06981
479.82	1583.01175
480.03	1657.03557
480.239	1845.2509
480.449	1743.74511
480.658	1938.28829
480.868	1813.5314
481.077	1921.37318
481.287	1836.79247
481.496	2094.73394
481.705	2111.64469
481.915	2039.77074
482.124	2082.05056
482.333	2177.16916
482.543	2303.96753
482.752	2301.85449
482.961	2259.59177
483.171	2344.11341
483.38	2466.64135
483.589	2411.71939
483.799	2447.63073
484.008	2715.80442
484.217	2428.61923
484.426	2675.6965
484.636	2449.74306
484.845	2850.86939
485.054	2663.02988
485.263	2783.34387
485.472	2753.79704
485.682	2939.47464
485.891	2861.41896
486.1	2819.21857
486.309	2979.54948
486.518	2983.76757
486.727	2985.8766
486.936	3162.9793
487.146	3053.35729
487.355	3230.41728
487.564	3087.09171
487.773	3424.20497
487.982	3304.15801
488.191	3390.51332
488.4	3478.94416
488.609	3592.59394
488.818	3577.8646
489.027	3723.01347
489.236	3601.0103
489.445	3815.52439
489.654	3670.43375
489.863	3870.17203
490.072	3773.47866
490.281	3880.67966
490.49	3895.38949
490.698	3939.51306
490.907	4029.83341
491.116	4025.6333
491.325	3966.82319
491.534	4034.03344
491.743	4021.43312
491.952	4216.65391
492.16	4417.97942
492.369	4273.29675
492.578	4424.26763
492.787	4376.05303
492.996	4227.1445
493.204	4365.57008
493.413	4428.45965
493.622	4593.97427
493.831	4516.47194
494.039	4696.56547
494.248	4487.13883
494.457	4704.93788
494.665	4617.00963
494.874	4884.85701
495.083	4771.90415
495.291	4815.83816
495.5	4633.76092
495.709	4989.3835
495.917	4832.57228
496.126	5029.08848
496.335	5118.91629
496.543	5237.92413
496.752	5024.9094
496.96	5231.66245
497.169	5396.48319
497.377	5235.83693
497.586	5346.42653
497.794	5329.73798
498.003	5281.75003
498.211	5504.89287
498.42	5315.13426
498.628	5808.93332
498.837	5486.13421
499.045	5636.15008
499.254	5413.16574
499.462	5571.57489
499.671	5446.52633
499.879	5454.86554
500.087	5563.24095
500.296	5777.71947
500.504	5611.15592
500.713	5802.69098
500.921	5729.84792
501.129	5752.74457
501.338	5761.06991
501.546	6118.70275
501.754	5835.98103
501.962	5996.10494
502.171	6002.34071
502.379	6110.39362
502.587	6021.04673
502.795	6247.44619
503.004	6070.92013
503.212	6309.70905
503.42	6120.77997
503.628	6465.27428
503.837	6318.00917
504.045	6332.53349
504.253	6318.00917
504.461	6432.09802
504.669	6224.61119
504.877	6537.82661
505.085	6475.64064
505.294	6709.7661
505.502	6568.91178
505.71	6807.05925
505.918	6585.48841
506.126	6792.57198
506.334	6498.44458
506.542	6792.57198
506.75	6388.54515
506.958	6881.54757
507.166	6662.13611
507.374	6933.25826
507.582	6786.36281
507.79	6904.30202
507.998	7073.83999
508.206	7051.10587
508.414	6945.66672
508.622	7059.37313
508.83	6889.82223
509.037	7292.77617
509.245	6939.46259
509.453	7303.09721
509.661	7187.47005
509.869	7451.65967
510.077	6902.23355
510.285	7261.80974
510.492	7181.27378
510.7	7369.13893
510.908	7195.73143
511.116	7214.31824
511.324	7251.48649
511.531	7404.21449
511.739	7538.26917
511.947	7567.13058
512.155	7447.53445
512.362	7542.39249
512.57	7538.26917
512.778	7727.85342
512.985	7560.94634
513.193	7633.08378
513.401	7715.49469
513.608	7649.56867
513.816	7699.01522
514.024	7707.25512
514.231	7544.45411
514.439	7787.5766
514.646	7896.68054
514.854	8106.49179
515.061	7937.83674
515.269	7849.34071
515.477	7933.72149
515.684	8026.29483
515.892	7909.02827
516.099	8155.82855
516.307	8077.70667
516.514	8178.43739
516.722	8044.80455
516.929	8184.60302
517.136	8223.64784
517.344	8233.92161
517.551	7962.52652
517.759	8418.7656
517.966	8408.50062
518.173	8509.07677
518.381	8537.80441
518.588	8472.13577
518.796	8431.08294
519.003	8708.04266
519.21	8412.60667
519.418	8554.21853
519.625	8324.30952
519.832	8539.85624
520.039	8340.73962
520.247	8714.19345
520.454	8599.35116
520.661	8857.66527
520.868	8699.84134
521.076	9013.33499
521.283	8718.29388
521.49	8822.83029
521.697	8843.32208
521.904	8980.57091
522.112	8927.31966
522.319	8843.32208
522.526	8744.94493
522.733	9244.60516
522.94	8933.46465
523.147	9125.92748
523.354	9113.64721
523.561	9626.85997
523.768	9242.55947
523.975	9326.41884
524.183	9248.69648
524.39	9218.00995
524.597	9160.71825
524.804	9420.47188
525.011	9447.04584
525.218	9639.11558
525.425	9371.40506
525.632	9438.86953
525.838	9336.64368
526.045	9477.7047
526.252	9367.31573
526.459	9506.31637
526.666	9492.01093
526.873	9777.97372
527.08	9824.92454
527.287	9933.08559
527.494	9710.59552
527.701	10059.56166
527.907	9782.05671
528.114	9967.77003
528.321	9859.62223
528.528	9973.89038
528.735	9912.68101
528.941	10108.50542
529.148	10157.4411
529.355	10084.03456
529.562	10063.64062
529.768	10285.85951
529.975	9953.48871
530.182	10016.72918
530.388	10204.3303
530.595	10234.9063
530.802	10214.52264
531.008	10214.52264
531.215	10018.76896
531.422	10312.35185
531.628	10312.35185
531.835	10275.66954
532.042	10344.95471
532.248	10471.25902
532.455	10259.36489
532.661	10721.68599
532.868	10475.33252
533.074	10640.26686
533.281	10436.63217
533.487	10978.03256
533.694	10648.40965
533.9	10967.86355
534.107	10796.98155
534.313	10959.72814
534.52	10957.69426
534.726	11134.60059
534.933	10784.77256
535.139	11067.50793
535.345	10809.19011
535.552	10921.08246
535.758	10866.15785
535.965	11217.94198
536.171	11071.57449
536.377	11319.5542
536.584	11061.40802
536.79	11303.29796
536.996	11508.48653
537.203	11345.96921
537.409	11124.43579
537.615	11419.10972
537.821	11211.84443
538.028	11264.68678
538.234	11268.75129
538.44	11244.36363
538.646	11305.33002
538.853	11616.12065
539.059	11307.36208
539.265	11486.14407
539.471	11443.48707
539.677	11622.21238
539.883	11721.699
540.09	11804.92664
540.296	11656.73058
540.502	11823.19418
540.708	11792.74789
540.914	11892.19873
541.12	11731.8495
541.326	12028.15053
541.532	11873.93376
541.738	12113.35594
541.944	11977.42647
542.15	12024.09279
542.356	12166.09541
542.562	12310.08941
542.768	12153.92521
542.974	12172.1804
543.18	12164.06706
543.386	12271.55935
543.592	12129.58401
543.798	12543.24512
544.004	12141.75475
544.21	12478.37579
544.415	12482.43031
544.621	12547.29923
544.827	12401.33478
545.033	12636.48349
545.239	12500.67536
545.445	12849.26313
545.651	12618.24222
545.856	12689.17774
546.062	12449.99337
546.268	12660.80441
546.474	12506.75693
546.679	12689.17774
546.885	12425.66456
547.091	12865.47236
547.297	12636.48349
547.502	12920.176
547.708	12869.52462
547.914	13017.41752
548.119	12863.44623
548.325	12865.47236
548.531	12826.97486
548.736	12980.95333
548.942	12833.05354
549.147	13074.13641
549.353	12950.56524
549.559	13193.63896
549.764	13266.548
549.97	13061.98268
550.175	12938.40969
550.381	13535.8599
550.586	13140.97882
550.792	13367.80134
550.997	13497.39097
551.203	13491.3168
551.408	13059.95705
551.614	13738.30735
551.819	13525.73663
552.025	13430.5733
552.23	13282.74924
552.435	13616.84292
552.641	13527.76129
552.846	13730.21008
553.052	13622.91642
553.257	13855.71234
553.462	13711.99104
553.668	13861.78475
553.873	13616.84292
554.078	13742.35596
554.283	13693.77174
554.489	13835.4708
554.694	14050.01752
554.899	13811.18058
555.105	14043.94583
555.31	14256.44314
555.515	13880.00181
555.72	14343.45959
555.925	14171.44699
556.131	14122.87615
556.336	13922.50745
556.541	14533.67127
556.746	14167.39947
556.951	14021.68279
557.156	13981.20379
557.361	14242.27735
557.567	14017.63494
557.772	14390.00197
557.977	14021.68279
558.182	14244.30104
558.387	14367.74268
558.592	14545.81202
558.797	14266.5615
559.002	14493.20175
559.207	14549.85893
559.412	14685.42772
559.617	14612.58539
559.822	14790.6423
560.027	14157.28062
560.232	14450.70818
560.437	14450.70818
560.642	14612.58539
560.847	14784.57229
561.051	14653.05351
561.256	14379.88413
561.461	14798.73565
561.666	14752.19877
561.871	14612.58539
562.076	14578.18715
562.281	14912.04134
562.485	14474.9903
562.69	15041.53175
562.895	14309.05813
563.1	14725.89514
563.305	14351.55398
563.509	14926.20443
563.714	15061.76451
563.919	15211.48662
564.123	14790.6423
564.328	15177.09101
564.533	14580.21058
564.737	14744.10536
564.942	14897.87823
565.147	15084.02053
565.351	14984.87987
565.556	15102.22998
565.761	15029.39208
565.965	15185.18409
566.17	14794.68898
566.374	15100.20671
566.579	15235.76588
566.784	15164.95139
566.988	15597.93732
567.193	15452.25758
567.397	15253.97534
567.602	15512.95707
567.806	15001.06614
568.011	15458.32751
568.215	15589.8439
568.42	15308.60382
568.624	15533.19035
568.828	15411.79152
569.033	15015.22912
569.237	15648.52142
569.442	15349.06948
569.646	15541.28368
569.85	15535.21368
570.055	15654.59155
570.259	15539.26035
570.463	16037.02888
570.668	15672.80198
570.872	15858.9576
571.076	15848.84021
571.281	15962.15674
571.485	16075.4775
571.689	16008.69866
571.893	15964.18029
572.098	15972.27449
572.302	15672.80198
572.506	15982.39227
572.71	15826.58206
572.914	16265.70544
573.119	16055.24132
573.323	15832.65245
573.527	15986.43939
573.731	16113.92667
573.935	16051.1941
574.139	16059.28854
574.343	15769.92555
574.547	16089.64292
574.751	16190.82673
574.955	16352.72973
575.159	16296.06237
575.364	16468.09297
575.568	16229.27767
575.772	16239.39644
575.976	16045.12328
576.18	16087.61928
576.383	16368.92068
576.587	16502.50083
576.791	16437.7336
576.995	16763.61641
577.199	16595.60751
577.403	16664.4285
577.607	16538.93333
577.811	16781.83522
578.015	16771.71363
578.219	16777.78657
578.422	16322.37203
578.626	16559.17392
578.83	16445.82938
579.034	16656.33178
579.238	16627.99354
579.442	16627.99354
579.645	16702.88845
579.849	16713.00962
580.053	16611.80045
580.257	16751.47064
580.46	16953.91175
580.664	16838.51723
580.868	17093.61135
581.071	17034.89545
581.275	17087.53718
581.479	17253.57358
581.682	17261.67341
581.886	17010.59989
582.09	16986.30471
582.293	17040.9694
582.497	17192.82631
582.7	17271.79827
582.904	17245.47379
583.107	17431.78102
583.311	17194.85118
583.515	17346.72454
583.718	17269.77329
583.922	17395.32758
584.125	17253.57358
584.329	17413.55417
584.532	17373.05097
584.735	17518.86833
584.939	17316.34853
585.142	17565.45233
585.346	17287.9982
585.549	17557.35064
585.753	17395.32758
585.956	17707.24029
586.159	17350.77473
586.363	18043.54667
586.566	17820.68241
586.769	17605.96154
586.973	17834.86343
587.176	17974.65681
587.379	17840.94106
587.582	18029.36313
587.786	17674.83019
587.989	17982.76129
588.192	17745.72839
588.395	18069.888
588.599	18118.51975
588.802	18077.99315
589.005	18136.7572
589.208	18045.57291
589.411	18021.25833
589.615	17924.00512
589.818	17820.68241
590.021	18033.41555
590.224	17934.13528
590.427	18649.55581
590.63	18234.02857
590.833	18388.05906
591.036	18037.46799
591.239	18329.28171
591.442	17796.37249
591.645	18262.40099
591.848	18769.17667
592.051	18525.89432
592.254	18396.16652
592.457	18386.0322
592.66	18377.9248
592.863	18467.10947
593.066	18355.62978
593.269	18491.43385
593.472	18304.96098
593.675	18763.09393
593.878	18225.9223
594.081	18582.65518
594.284	18619.14591
594.486	18909.08975
594.689	18896.92264
594.892	18694.1586
595.095	18907.06189
595.298	19213.3148
595.5	18696.18605
595.703	19375.60579
595.906	19172.74617
596.109	19046.99379
596.311	19095.67027
596.514	19034.82504
596.717	19075.38812
596.92	19369.5194
597.122	19365.46183
597.325	19120.0094
597.528	19239.6853
597.73	19458.79017
597.933	19168.6894
598.136	19653.59071
598.338	19142.32077
598.541	19422.26934
598.743	19225.48571
598.946	19442.55852
599.148	19387.77868
599.351	19539.95239
599.554	19661.70824
599.756	19491.25426
599.959	19635.32653
600.161	19207.22941
600.363	19420.24044
600.566	19294.457
600.768	19564.30236
600.971	19562.27317
601.173	19556.18564
601.376	19886.99629
601.578	19714.47378
601.78	19702.29687
601.983	19468.93508
602.185	19594.74066
602.388	19702.29687
602.59	19775.36062
602.792	19395.89402
602.995	19777.39024
603.197	19464.8771
603.399	19889.02615
603.601	19546.03983
603.804	20008.79516
604.006	20071.73051
604.208	19647.50262
604.41	20033.15675
604.613	19850.45958
604.815	19718.53278
605.017	19897.14562
605.219	19836.25123
605.421	20000.67476
605.623	19773.33099
605.826	20057.51894
606.028	19848.4298
606.23	19801.74608
606.432	19641.41455
606.634	20025.03615
606.836	20075.79099
607.038	20179.33901
607.24	19895.11574
607.442	20000.67476
607.644	19694.17901
607.846	19931.65412
608.048	19712.44428
608.25	20108.27547
608.452	20065.63981
608.654	20195.58283
608.856	19972.25391
609.058	20130.60917
609.26	19899.17549
609.462	19964.13381
609.664	20183.39994
609.866	20071.73051
610.067	20183.39994
610.269	20069.70027
610.471	19943.83388
610.673	20376.31347
610.875	19710.41479
611.077	20309.2971
611.278	20071.73051
611.48	20398.65327
611.682	20278.83663
611.884	20544.88996
612.085	20069.70027
612.287	20433.17942
612.489	20307.26638
612.69	20053.45854
612.892	20498.1731
613.094	20358.03582
613.295	20181.36948
613.497	20439.2724
613.699	20516.45335
613.9	20565.20232
614.102	20380.37521
614.304	20425.05551
614.505	20232.13241
614.707	20420.99358
614.908	20380.37521
615.11	20756.15894
615.311	20664.73895
615.513	20410.83883
615.714	20465.67573
615.916	20591.60903
616.117	20297.1128
616.319	20416.93167
616.52	20104.21485
616.722	20538.79633
616.923	20563.17107
617.124	20699.2744
617.326	20526.60919
617.527	20416.93167
617.729	20358.03582
617.93	20536.76513
618.131	20400.68419
618.333	20307.26638
618.534	20228.07128
618.735	20550.98362
618.937	20394.59145
619.138	20427.08648
619.339	20272.74465
619.54	20274.77531
619.742	20358.03582
619.943	20528.64037
620.144	20309.2971
620.345	20557.07733
620.546	20288.99002
620.748	20890.25679
620.949	20743.96912
621.15	20693.17982
621.351	20420.99358
621.552	20737.87427
621.753	20500.20422
621.954	20965.44072
622.155	20534.73393
622.356	20985.76166
622.558	20774.44395
622.759	20786.63414
622.96	20847.58734
623.161	20615.98507
623.362	20640.36171
623.563	21056.88821
623.764	20857.74656
623.965	20746.00075
624.166	20683.02228
624.366	20908.54425
624.567	20721.62151
624.768	20837.42821
624.969	20455.52052
625.17	20573.32739
625.371	20459.58259
625.572	20603.79697
625.773	20439.2724
625.973	21040.63027
626.174	20508.32875
626.375	21123.95497
626.576	20874.00154
626.777	20999.98657
626.977	20632.23609
627.178	20817.11027
627.379	20979.66534
627.58	21008.11518
627.78	20839.46003
627.981	20786.63414
628.182	20880.09723
628.382	20668.80188
628.583	21264.19979
628.784	20912.60818
628.984	20553.01486
629.185	21357.70702
629.386	20943.08815
629.586	21252.00382
629.787	20760.22225
629.987	21308.91957
630.188	21113.79306
630.388	21365.83848
630.589	20764.28557
630.79	20687.08528
630.99	20815.0785
631.191	20705.36902
631.391	21243.87325
631.591	20898.38451
631.792	20632.23609
631.992	21142.24668
632.193	21294.69034
632.393	20939.0241
632.594	20888.22487
632.794	20867.9059
632.994	20611.92235
633.195	21239.808
633.395	20890.25679
633.595	20900.41645
633.796	21207.28652
633.996	21436.99154
634.196	21628.11243
634.397	21735.88742
634.597	21489.85126
634.797	21534.58082
634.997	21252.00382
635.198	21587.44549
635.398	21067.04955
635.598	21729.78665
635.798	21351.60846
635.998	21245.90589
636.199	21319.08343
636.399	21182.89609
636.599	21382.10161
636.799	21475.61953
636.999	21333.31301
637.199	21567.11261
637.399	21497.98377
637.599	21556.94631
637.799	21695.21632
637.999	21870.11305
638.199	21837.57195
638.399	21634.21261
638.599	21402.43087
638.799	21548.81335
638.999	21495.95063
639.199	21459.35494
639.399	21654.54679
639.599	21518.3153
639.799	21292.65761
639.999	21579.31229
640.199	21733.85383
640.399	21870.11305
640.599	20936.99208
640.799	21996.21904
640.998	21798.93069
641.198	21522.38166
641.398	21477.65263
641.598	21927.06232
641.798	22022.66247
641.997	21880.28234
642.197	21376.00291
642.397	21892.48562
642.597	21713.51812
642.796	22099.96233
642.996	21603.71208
643.196	21912.82472
643.395	21756.22355
643.595	22224.06026
643.795	21800.96441
643.994	22073.51703
644.194	21914.85865
644.394	21941.30011
644.593	21896.55341
644.793	22045.03819
644.992	21595.57875
645.192	21857.91002
645.392	21971.81028
645.591	22303.40879
645.791	22248.47459
645.99	22386.83249
646.19	22045.03819
646.389	22419.38974
646.589	21935.19818
646.788	22232.19831
646.987	21807.06558
647.187	21790.79586
647.386	21884.35008
647.586	22441.77339
647.785	22010.45773
647.984	21984.01459
648.184	22114.20237
648.383	21731.82024
648.582	21528.48122
648.782	22360.38041
648.981	21908.75687
649.18	22295.27022
649.38	22236.26736
649.579	22480.43708
649.778	22260.68196
649.977	22313.58208
650.177	22248.47459
650.376	22150.82046
650.575	22101.99661
650.774	22333.92894
650.973	22020.62834
651.173	22346.13723
651.372	22114.20237
651.571	22317.65142
651.77	22230.16379
651.969	22077.5855
652.168	22384.79769
652.367	22510.96196
652.566	22635.10475
652.765	22435.66871
652.964	22488.57697
653.163	22236.26736
653.362	22427.5292
653.561	22537.41751
653.76	22407.18066
653.959	22256.61282
654.158	22409.2155
654.357	22633.06952
654.556	22547.59289
654.755	22494.68192
654.954	22179.30203
655.153	22590.33042
655.352	22551.66306
655.551	22260.68196
655.749	22608.64698
655.948	22610.68218
656.147	22659.52783
656.346	22580.15467
656.545	22854.93053
656.743	22639.17523
656.942	22685.98674
657.141	22848.82371
657.34	22358.34566
657.538	22987.25237
657.737	22753.15431
657.936	23158.27383
658.135	22681.9161
658.333	22620.85819
658.532	22730.7647
658.731	22663.59839
658.929	22694.12806
659.128	22779.6153
659.326	22525.20718
659.525	22775.54434
659.724	22230.16379
659.922	22323.75547
660.121	22215.92226
660.319	22586.26011
660.518	22433.63383
660.716	22392.9369
660.915	22321.72078
661.113	22775.54434
661.312	22551.66306
661.51	22806.07687
661.709	22907.85755
661.907	22905.82185
662.105	22498.75191
662.304	22895.64342
662.502	22374.62376
662.701	22757.22519
662.899	22319.6861
663.097	22346.13723
663.296	22519.10207
663.494	22881.39375
663.692	22401.07617
663.891	22663.59839
664.089	22325.79015
664.287	22641.21047
664.485	22525.20718
664.684	22574.04927
664.882	22887.50073
665.08	22993.35987
665.278	22480.43708
665.476	22895.64342
665.675	22692.09272
665.873	22702.26944
666.071	22519.10207
666.269	22977.07326
666.467	22742.97716
666.665	22964.85844
666.863	22724.65851
667.061	22742.97716
667.259	22610.68218
667.457	22755.18975
667.655	22441.77339
667.853	22529.27728
668.051	22596.43591
668.249	22677.84547
668.447	22405.14583
668.645	22704.30479
668.843	22816.25455
669.041	22854.93053
669.239	22950.60797
669.437	22659.52783
669.635	22494.68192
669.833	22781.65078
670.031	22677.84547
670.229	22531.31233
670.426	22916.00037
670.624	22995.39572
670.822	22730.7647
671.02	23217.32234
671.218	22956.71529
671.415	23030.00554
671.613	22586.26011
671.811	22380.72811
672.009	22405.14583
672.206	22948.5722
672.404	22358.34566
672.602	22468.22735
672.799	22565.90878
672.997	22879.3581
673.195	22620.85819
673.392	22453.98283
673.59	22488.57697
673.788	22712.44624
673.985	22504.85692
674.183	22745.01258
674.38	22677.84547
674.578	22372.58898
674.775	21796.89698
674.973	21790.79586
675.17	22458.05268
675.368	22297.30486
675.565	22311.54741
675.763	22382.7629
675.96	22519.10207
676.158	22378.69332
676.355	22588.29526
676.553	22903.78616
676.75	21977.91242
676.947	22360.38041
677.145	22421.4246
677.342	22626.96384
677.539	22445.84319
677.737	22610.68218
677.934	21963.67415
678.131	22211.85329
678.329	21807.06558
678.526	22152.85483
678.723	22311.54741
678.92	22217.95676
679.118	22303.40879
679.315	22753.15431
679.512	22344.10251
679.709	22360.38041
679.906	22301.37414
680.104	22918.03608
680.301	22447.87809
680.498	22313.58208
680.695	22012.49185
680.892	22207.78433
681.089	22101.99661
681.286	22335.96365
681.483	22167.09555
681.68	22653.42201
681.877	22071.4828
682.075	22036.90151
682.272	22016.56009
682.469	22401.07617
682.665	21894.51951
682.862	21918.92653
683.059	21607.77876
683.256	21689.11579
683.453	21784.69479
683.65	22026.73075
683.847	21878.24847
684.044	21857.91002
684.241	21774.5264
684.438	21963.67415
684.635	21922.99442
684.831	22156.92359
685.028	21725.7195
685.225	22195.57754
685.422	21721.65236
685.619	21796.89698
685.815	21536.61402
686.012	21880.28234
686.209	21197.12377
686.405	21892.48562
686.602	21577.279
686.799	21619.97892
686.996	21764.35811
687.192	21874.18075
687.389	21504.08319
687.586	21735.88742
687.782	21652.51335
687.979	21638.27941
688.175	21304.85406
688.372	21762.32446
688.568	21638.27941
688.765	21678.94832
688.962	21843.67333
689.158	21910.79079
689.355	21607.77876
689.551	21634.21261
689.748	21615.91218
689.944	21721.65236
690.14	21561.01282
690.337	21561.01282
690.533	21520.34848
690.73	21587.44549
690.926	21770.45907
691.123	21750.12267
691.319	21563.04608
691.515	21656.58023
691.712	21186.96112
691.908	21182.89609
692.104	21036.56583
692.301	21402.43087
692.497	21146.31155
692.693	21449.1897
692.889	21284.52672
693.086	20928.86405
693.282	21294.69034
693.478	21465.45413
693.674	21434.95853
693.87	21685.04879
694.067	21613.87882
694.263	21502.05004
694.459	21125.98737
694.655	21241.84062
694.851	21168.66861
695.047	21186.96112
695.243	20609.891
695.439	20886.19295
695.635	20723.65309
695.831	21317.05065
696.027	20735.84266
696.224	21016.24385
696.42	20886.19295
696.615	21264.19979
696.811	20961.37658
697.007	20880.09723
697.203	20538.79633
697.399	20798.82448
697.595	20611.92235
697.791	20567.23358
697.987	20439.2724
698.183	21125.98737
698.379	20880.09723
698.575	20985.76166
698.77	20855.71471
698.966	21223.54713
699.162	20563.17107
699.358	20876.03343
699.554	20485.98646
699.749	20880.09723
699.945	20349.91254
700.141	20865.87402
700.337	20701.30594
700.532	20583.48381
700.728	20892.28871
700.924	20729.74786
701.119	21022.3404
701.315	20691.14831
701.511	20286.95933
701.706	20849.61917
701.902	20550.98362
702.097	20376.31347
702.293	20701.30594
702.489	20648.48739
702.684	20892.28871
702.88	20985.76166
703.075	20518.48451
703.271	20528.64037
703.466	20630.2047
703.662	20886.19295
703.857	21032.5014
704.053	20802.88796
704.248	20366.15918
704.443	20739.90589
704.639	20636.29889
704.834	20741.9375
705.03	20729.74786
705.225	20748.03238
705.42	20790.69757
705.616	20613.95371
705.811	20569.26485
706.006	20488.01756
706.202	20427.08648
706.397	20431.14844
706.592	20492.07976
706.787	20579.42123
706.983	20187.46089
707.178	20764.28557
707.373	20626.14193
707.568	20351.94335
707.763	20215.88799
707.959	20666.77041
708.154	20516.45335
708.349	20577.38995
708.544	20512.39104
708.739	20284.92865
708.934	20100.15425
709.129	19903.23526
709.324	19974.28394
709.519	20396.62236
709.714	19826.10253
709.909	20364.12833
710.104	19903.23526
710.299	20016.91562
710.494	20431.14844
710.689	20209.7964
710.884	20453.48949
711.079	20264.62207
711.274	20000.67476
711.469	20126.54846
711.664	19826.10253
711.859	20167.15632
712.054	19629.23854
712.249	20073.76075
712.443	19990.52436
712.638	20102.18454
712.833	19746.94629
713.028	20394.59145
713.223	19637.35587
713.417	20012.85538
713.612	20343.82011
713.807	20307.26638
714.002	19809.86483
714.196	19970.22388
714.391	20079.85149
714.586	20102.18454
714.78	19789.56809
714.975	19964.13381
715.17	19858.57873
715.364	20177.30855
715.559	20016.91562
715.754	19858.57873
715.948	19834.22148
716.143	19968.19385
716.337	19947.89383
716.532	20094.06337
716.726	20098.12395
716.921	19982.40412
717.115	19923.53436
717.31	20154.97379
717.504	20362.09749
717.699	20254.46893
717.893	19472.99308
718.088	19753.035
718.282	20018.94575
718.476	20016.91562
718.671	19996.61459
718.865	19964.13381
719.059	19744.91673
719.254	19580.53601
719.448	19367.49061
719.642	19481.10912
719.837	19326.91572
720.031	19949.92381
720.225	18994.26357
720.419	19322.85832
720.614	18900.97833
720.808	18939.50816
721.002	19148.40578
721.196	19566.33155
721.39	19247.79943
721.585	19282.28525
721.779	19347.20296
721.973	19578.50678
722.167	18874.61665
722.361	18898.95048
722.555	19000.34769
722.749	19071.33174
722.943	18803.64625
723.137	18935.45232
723.331	18690.10372
723.525	18939.50816
723.719	18978.03944
723.913	19272.14224
724.107	18986.15147
724.301	19087.55737
724.495	18929.36859
724.689	18969.92747
724.883	18592.79137
725.077	18694.1586
725.271	18846.2279
725.465	18846.2279
725.659	18982.09545
725.853	19051.05008
726.046	18641.44642
726.24	18726.59819
726.434	18963.84354
726.628	18994.26357
726.822	18842.17243
727.015	19184.91659
727.209	18832.03382
727.403	19136.2358
727.596	18619.14591
727.79	18909.08975
727.984	18783.36989
728.177	18992.23554
728.371	19075.38812
728.565	18817.83994
728.758	19075.38812
728.952	19038.88127
729.146	18568.46468
729.339	18994.26357
729.533	18844.20017
729.726	18860.42218
729.92	18552.2472
730.113	18613.06403
730.307	18625.22782
730.5	18819.86763
730.694	18945.59195
730.887	18815.81226
731.081	19103.78325
731.274	18990.20752
731.468	19028.74071
731.661	19016.57218
731.854	18690.10372
732.048	19030.76882
732.241	18448.86655
732.435	18550.22003
732.628	18754.98365
732.821	18736.73576
733.014	18677.93919
733.208	18339.41551
733.401	18493.4609
733.594	18390.08592
733.788	18211.73647
733.981	18359.68339
734.174	18232.002
734.367	18556.30155
734.56	18217.81609
734.754	18130.67802
734.947	18335.36198
735.14	18665.77479
735.333	18935.45232
735.526	18586.70964
735.719	18631.30977
735.912	18448.86655
736.105	18525.89432
736.298	18761.06635
736.491	18377.9248
736.684	18521.84009
736.877	18317.12128
737.07	18236.05515
737.263	18339.41551
737.456	18497.51503
737.649	18511.70458
737.842	18408.32784
738.035	18621.17321
738.228	18163.10069
738.421	18055.70413
738.614	18369.81747
738.807	18069.888
739	18177.28591
739.192	18454.94749
739.385	18704.29586
739.578	18511.70458
739.771	18294.8275
739.964	18130.67802
740.156	17944.26553
740.349	17723.44566
740.542	17889.56321
740.735	18047.59914
740.927	17919.95307
741.12	17547.22361
741.313	17810.55322
741.505	18124.59887
741.698	17980.73516
741.891	18011.1274
742.083	18290.77413
742.276	18627.25513
742.468	18566.43748
742.661	18311.04111
742.854	18564.41029
743.046	18422.51622
743.239	18432.65089
743.431	18444.81261
743.624	18005.04889
743.816	18015.17976
744.009	17798.3983
744.201	17770.0373
744.393	17656.59988
744.586	17531.02052
744.778	17482.41247
744.971	17502.6656
745.163	17599.88507
745.355	17844.99283
745.548	17642.42094
745.74	17460.13439
745.932	17885.51129
746.125	17859.17413
746.317	18039.49421
746.509	17547.22361
746.702	17634.31876
746.894	17498.61495
747.086	17494.56431
747.278	17903.74505
747.471	17778.14037
747.663	17832.83756
747.855	17620.14007
748.047	17500.64027
748.239	17830.81169
748.431	17447.98287
748.623	17709.26595
748.815	17383.17665
749.008	17628.24216
749.2	17559.37606
749.392	17828.78583
749.584	17587.73223
749.776	17664.70221
749.968	17498.61495
750.16	17648.49761
750.352	17180.67718
750.544	17500.64027
750.736	17219.14981
750.928	17601.91056
751.12	17419.62976
751.311	17253.57358
751.503	17709.26595
751.695	17753.83131
751.887	17634.31876
752.079	17761.93427
752.271	17237.37405
752.463	17506.71626
752.654	17152.32959
752.846	17302.17329
753.038	17395.32758
753.23	17520.89369
753.421	17290.0232
753.613	17324.44873
753.805	17294.07322
753.997	17105.75975
754.188	17423.68017
754.38	17249.52368
754.572	17073.36422
754.763	17318.37358
754.955	16978.20641
755.146	17409.5038
755.338	17061.21608
755.53	17089.5619
755.721	17162.45366
755.913	16949.86268
756.104	16895.20121
756.296	17456.08387
756.487	16984.28013
756.679	16879.00559
756.87	16662.40432
757.062	16917.47047
757.253	16994.40306
757.445	16810.17598
757.636	16785.88387
757.827	16773.73794
758.019	16393.20733
758.21	16540.95738
758.401	16204.99279
758.593	16330.46738
758.784	16538.93333
758.975	16510.59688
759.167	16654.30761
759.358	16793.9812
759.549	16731.22789
759.74	16498.45281
759.932	16555.12578
760.123	16356.77745
760.314	16188.80302
760.505	16109.87936
760.696	16423.56604
760.888	16117.97398
761.079	16190.82673
761.27	16338.56275
761.461	16484.28483
761.652	16399.27904
761.843	16057.26493
762.034	16340.5866
762.225	16419.51819
762.416	16336.5389
762.607	16176.66075
762.798	16109.87936
762.989	16207.01652
763.18	16150.35272
763.371	16119.99764
763.562	16071.43025
763.753	15798.2537
763.944	16142.258
764.135	15933.82724
764.326	16037.02888
764.517	16111.90302
764.708	16217.1352
764.899	15947.99196
765.089	16174.63705
765.28	16103.80841
765.471	15913.59203
765.662	15763.85526
765.853	15836.69938
766.043	15561.51706
766.234	15836.69938
766.425	15664.70845
766.615	15691.01248
766.806	15705.17626
766.997	15980.36871
767.187	15531.16702
767.378	15624.24099
767.569	15399.65174
767.759	15753.73813
767.95	15612.10081
768.141	15624.24099
768.331	15432.02453
768.522	15622.21762
768.712	15235.76588
768.903	15355.13934
769.093	14810.87564
769.284	14970.71686
769.474	14798.73565
769.665	15241.8357
769.855	15300.5107
770.046	15510.93375
770.236	15648.52142
770.426	15296.46414
770.617	15324.79007
770.807	15039.50847
770.998	15035.46191
771.188	15185.18409
771.378	15183.16082
771.569	15606.03074
771.759	15148.76522
771.949	15225.64952
772.139	15088.06707
772.33	14541.76511
772.52	14889.78501
772.71	15009.15927
772.9	14867.52861
773.09	14786.59563
773.281	14960.60042
773.471	14956.55384
773.661	14986.90316
773.851	15102.22998
774.041	15106.27653
774.231	14984.87987
774.421	14687.4511
774.611	14653.05351
774.802	14661.14709
774.992	14669.24065
775.182	14742.08201
775.372	14509.38962
775.562	14434.51999
775.752	14742.08201
775.942	14331.31795
776.131	14307.0345
776.321	13999.41946
776.511	14305.01086
776.701	14220.01664
776.891	14244.30104
777.081	14426.42586
777.271	14292.86903
777.461	14031.80239
777.651	13940.72379
777.84	13859.76061
778.03	14033.8263
778.22	13770.69593
778.41	14175.49451
778.599	14236.20627
778.789	13922.50745
778.979	14041.92193
779.169	14199.77943
779.358	14116.80471
779.548	14264.53783
779.738	14076.32792
779.927	13689.72298
780.117	13675.55219
780.307	13776.7687
780.496	13570.27837
780.686	13882.02592
780.875	13882.02592
781.065	13790.9384
781.254	13821.30155
781.444	13760.57458
781.633	13695.79612
781.823	13736.28303
782.012	13724.13709
782.202	13714.01539
782.391	13649.23459
782.581	13576.35211
782.77	13211.86676
782.96	13962.98792
783.149	13325.27621
783.338	13669.47894
783.528	13671.50336
783.717	13653.28348
783.906	13610.76939
784.096	13408.29981
784.285	13292.87488
784.474	13307.05059
784.663	13033.62331
784.853	13311.10076
785.042	13092.36667
785.231	13236.16992
785.42	13078.18761
785.61	13189.58829
785.799	13070.08519
785.988	13248.32127
786.177	13066.03394
786.366	13143.00426
786.555	13033.62331
786.744	13183.51225
786.933	13068.05957
787.122	13094.39223
787.312	13106.54549
787.501	13246.29606
787.69	13066.03394
787.879	13211.86676
788.068	12788.47536
788.257	13029.57189
788.445	12839.13218
788.634	13300.97531
788.823	13045.77745
789.012	13009.31451
789.201	12772.26444
789.39	13023.49473
789.579	12782.39631
789.768	12719.57644
789.957	12756.05316
790.145	12731.73556
790.334	12208.68899
790.523	12218.82984
790.712	12344.56152
790.9	12547.29923
791.089	12336.45061
791.278	12814.81734
791.467	12543.24512
791.655	12741.86799
791.844	12510.81127
792.033	12531.08262
792.221	12338.47835
792.41	12539.19098
792.599	11902.34565
792.787	12218.82984
792.976	12415.52727
793.164	12391.19709
793.353	12579.73126
793.541	12539.19098
793.73	12433.77427
793.918	12677.01788
794.107	12208.68899
794.295	12393.22464
794.484	12411.47231
794.672	12350.64463
794.861	12155.9536
795.049	12036.26592
795.238	12024.09279
795.426	12255.3354
795.614	11898.28691
795.803	12060.61135
795.991	11851.60899
796.179	11817.10508
796.368	12060.61135
796.556	11784.62855
796.744	11786.6584
796.932	11965.25196
797.121	11737.93969
797.309	12084.95565
797.497	12024.09279
797.685	12024.09279
797.874	11735.90963
798.062	11955.10631
798.25	11475.98802
798.438	11804.92664
798.626	11711.54829
798.814	11942.93126
799.002	11400.82579
799.19	11821.16449
799.378	11997.71669
799.566	12018.00612
799.755	11628.30401
799.943	11871.90428
800.131	11985.54266
800.318	11877.9927
800.506	11886.11049
800.694	11924.66814
800.882	11833.34252
801.07	11776.50908
801.258	11713.57845
801.446	11936.84363
801.634	11806.9564
801.822	11581.59934
802.01	11362.22377
802.197	11656.73058
802.385	11473.95679
802.573	11343.93735
802.761	11345.96921
802.949	11325.65012
803.136	11199.64904
803.324	11800.86709
803.512	11490.20642
803.699	11291.10535
803.887	11167.12617
804.075	11506.45545
804.262	11545.04445
804.45	11561.29144
804.638	11260.62223
804.825	11782.5987
805.013	11386.60441
805.201	12060.61135
805.388	11447.54982
805.576	11679.06451
805.763	11626.27348
805.951	11776.50908
806.138	12097.12739
806.326	11967.28106
806.513	11581.59934
806.701	11583.63008
806.888	11567.38391
807.075	11837.40179
807.263	11648.60889
807.45	11804.92664
807.638	11508.48653
807.825	11813.04563
808.012	11599.87566
808.2	11514.57973
808.387	11313.45818
808.574	11313.45818
808.761	11451.61254
808.949	11741.99977
809.136	11630.33454
809.323	11748.08983
809.51	11642.51752
809.698	11620.18181
809.885	11291.10535
810.072	11453.64388
810.259	11278.91238
810.446	11337.8417
810.633	11632.36506
810.82	11573.47629
811.008	11343.93735
811.195	11782.5987
811.382	11315.4902
811.569	11368.31906
811.756	11459.73785
811.943	11591.75295
812.13	11628.30401
812.317	11784.62855
812.504	11423.17271
812.691	11744.0298
812.878	11778.53896
813.064	11784.62855
813.251	11654.70017
813.438	11699.36714
813.625	11382.54107
813.812	11756.20979
813.999	11599.87566
814.186	11835.37216
814.372	11758.23976
814.559	11772.44929
814.746	11808.98615
814.933	11707.48794
815.12	11851.60899
815.306	11727.78932
815.493	11475.98802
815.68	11677.0342
815.866	11605.9676
816.053	11701.39735
816.24	11677.0342
816.426	11806.9564
816.613	11892.19873
816.799	11589.72224
816.986	11398.7942
817.173	11518.64182
817.359	11228.10436
817.546	11646.57844
817.732	11358.16019
817.919	11942.93126
818.105	11573.47629
818.292	11723.72912
818.478	11488.17525
818.665	11823.19418
818.851	11465.83174
819.037	11640.48705
819.224	11307.36208
819.41	11545.04445
819.597	11236.23408
819.783	11504.42435
819.969	11356.12839
820.156	11134.60059
820.342	11299.2338
820.528	11264.68678
820.714	11352.06475
820.901	11276.88018
821.087	10937.35482
821.273	11256.55764
821.459	10947.52468
821.646	11274.84797
821.832	11262.65451
822.018	11372.38254
822.204	11098.00605
822.39	11390.66771
822.576	11319.5542
822.762	11236.23408
822.948	11193.55121
823.134	11266.71904
823.32	11083.7739
823.507	11307.36208
823.693	10973.96499
823.879	10931.25277
824.065	10935.32082
824.25	11169.15893
824.436	10737.96749
824.622	10957.69426
824.808	10813.25954
824.994	10866.15785
825.18	10711.50966
825.366	11037.00736
825.552	10593.442
825.738	10994.30241
825.923	10687.08523
826.109	10998.36976
826.295	10668.76577
826.481	10978.03256
826.667	10548.64685
826.852	10762.38831
827.038	10868.19225
827.224	10524.21056
827.409	10900.74099
827.595	10845.81328
827.781	10444.78
827.966	10591.40599
828.152	10617.87318
828.338	10642.30258
828.523	10666.73021
828.709	10805.12064
828.894	10226.753
829.08	10711.50966
829.266	10501.80904
829.451	10768.49325
829.637	10564.93669
829.822	10636.1954
830.008	10332.72904
830.193	10678.94337
830.378	10420.33589
830.564	10434.59518
830.749	10393.85265
830.935	10587.33393
831.12	10112.5837
831.305	10135.01324
831.491	9963.68972
831.676	10357.17991
831.861	9745.30757
832.047	10408.11313
832.232	10263.44114
832.417	10389.77811
832.602	10169.67377
832.788	10251.21225
832.973	10230.82968
833.158	10094.23099
833.343	9657.49794
833.528	10296.04914
833.714	9947.36793
833.899	10102.38789
834.084	9814.71851
834.269	10061.60115
834.454	9757.55783
834.639	9955.52894
834.824	9714.67952
835.009	10061.60115
835.194	9714.67952
835.379	9686.09024
835.564	9209.82623
835.749	9749.39105
835.934	9751.43277
836.119	9655.45552
836.304	9099.31944
836.489	9236.42232
836.674	9263.01557
836.859	9451.13389
837.044	9498.14193
837.228	9765.72437
837.413	9759.59949
837.598	9784.09819
837.783	9357.09213
837.968	9632.98784
838.152	9355.04736
838.337	9502.22918
838.522	9172.99616
838.707	9575.78887
838.891	9177.08866
839.076	9522.66449
839.261	9463.39768
839.445	9369.3604
839.63	9121.83413
839.815	9127.97414
839.999	9348.91295
840.184	9383.67265
840.368	8982.6188
840.553	9144.34674
840.737	9289.60598
840.922	9455.22189
841.106	9334.59875
841.291	9355.04736
841.475	9265.06108
841.66	9346.86811
841.844	9103.41317
842.029	9031.76281
842.213	8955.9949
842.397	8943.70594
842.582	8880.20277
842.766	9091.13176
842.951	8880.20277
843.135	8990.81017
843.319	9166.85728
843.504	8878.154
843.688	8802.33669
843.872	8660.88106
844.056	8775.69229
844.241	8843.32208
844.425	8603.45368
844.609	8515.23301
844.793	8718.29388
844.977	8710.09294
845.161	8324.30952
845.346	8595.24857
845.53	8738.79496
845.714	8820.78101
845.898	8439.29412
846.082	8669.08378
846.266	8533.70069
846.45	8878.154
846.634	8841.27299
846.818	8568.5799
847.002	8824.87955
847.186	8685.48833
847.37	8303.77015
847.554	8541.90805
847.738	8209.26374
847.922	8439.29412
848.106	8336.63221
848.29	8342.79329
848.473	8365.38242
848.657	8026.29483
848.841	8223.64784
849.025	8289.39142
849.209	8120.88287
849.392	8238.03097
849.576	8221.59303
849.76	8090.04363
849.944	8194.87866
850.127	8482.39778
850.311	8227.75741
850.495	8293.49973
850.678	8040.69142
850.862	8264.73994
851.046	8404.39449
851.229	8357.16847
851.413	8026.29483
851.596	8240.08563
851.78	7874.04111
851.964	8124.99443
852.147	7972.81306
852.331	7876.09935
852.514	7921.37525
852.698	8030.40824
852.881	8001.61265
853.065	8225.70263
853.248	7927.54846
853.431	7923.43301
853.615	7847.2822
853.798	7878.15756
853.982	7703.13521
854.165	7742.27097
854.348	7595.98779
854.532	7793.75385
854.715	7459.90983
854.898	7670.17288
855.081	7622.78003
855.265	7513.52748
855.448	7408.34061
855.631	7649.56867
855.814	7558.88489
855.997	7731.97282
856.181	7437.22104
856.364	7373.26579
856.547	7457.84732
856.73	7523.83689
856.913	7139.96022
857.096	7449.59707
857.279	7530.02228
857.462	7499.09339
857.645	7468.15965
857.828	7362.94847
858.011	7206.05766
858.194	7272.13243
858.377	7298.96886
858.56	7379.45592
858.743	7173.01178
858.926	7298.96886
859.109	7226.70846
859.292	7224.64348
859.475	6829.8227
859.658	7080.03973
859.841	6645.56631
860.023	6827.75341
860.206	6736.68203
860.389	7158.55242
860.572	6525.39109
860.755	7042.83824
860.937	7046.9721
861.12	6999.42733
861.303	7075.90659
861.486	7020.10043
861.668	6709.7661
861.851	6877.4101
862.034	6674.5625
862.216	6807.05925
862.399	6740.8226
862.581	6662.13611
862.764	6533.68153
862.947	6604.13535
863.129	6432.09802
863.312	6631.06652
863.494	6602.06356
863.677	6709.7661
863.859	6400.98988
864.042	6695.27131
864.224	6446.61337
864.406	6519.17301
864.589	6203.84964
864.771	6423.80303
864.954	6318.00917
865.136	6297.25816
865.318	6392.69349
865.501	6307.63396
865.683	6081.30871
865.865	6195.54436
866.048	6181.00923
866.23	6253.67342
866.412	6183.08574
866.594	6257.82479
866.777	6106.23892
866.959	5989.86896
867.141	6006.49776
867.323	6102.08412
867.505	5931.65629
867.687	6154.01235
867.869	5958.6859
868.052	6245.37039
868.234	6056.37512
868.416	6114.54823
868.598	5829.7396
868.78	6160.24275
868.962	5956.60684
869.144	6396.84173
869.326	5896.30385
869.508	6147.78174
869.69	5927.49753
869.872	6135.31988
870.054	6021.04673
870.236	6127.0115
870.417	5823.49797
870.599	6234.99108
870.781	5873.42512
870.963	6133.24282
871.145	5912.94114
871.327	6245.37039
871.508	5727.76626
871.69	5906.70234
871.872	5623.65342
872.054	6222.53514
872.235	5719.43941
872.417	5860.94461
872.599	5734.01116
872.78	5998.18355
872.962	5804.77178
873.144	5989.86896
873.325	5835.98103
873.507	5904.62269
873.689	5704.8665
873.87	5958.6859
874.052	5490.30296
874.233	6012.73318
874.415	5502.80867
874.596	5858.86444
874.778	5619.48768
874.959	5571.57489
875.141	5669.47034
875.322	5665.30564
875.503	5504.89287
875.685	5796.44842
875.866	5496.55592
876.048	5679.88168
876.229	5481.96536
876.41	5727.76626
876.592	5477.79641
876.773	6027.28164
876.954	5481.96536
877.136	5790.20565
877.317	5381.88473
877.498	5800.61015
877.679	5452.78077
877.86	5606.98989
878.042	5323.47938
878.223	5615.32185
878.404	5554.90664
878.585	5761.06991
878.766	5671.55265
878.947	6062.60884
879.128	5606.98989
879.309	5794.36752
879.49	5736.09274
879.672	5781.88162
879.853	5752.74457
880.034	5881.74499
880.215	5779.80056
880.396	5767.31367
880.576	5777.71947
880.757	5715.27584
880.938	5634.06736
881.119	5885.90478
881.3	5677.79946
881.481	5869.26504
881.662	5571.57489
881.843	5856.78425
882.023	5554.90664
882.204	5831.8201
882.385	5579.90844
882.566	5994.02631
882.747	5584.07508
882.927	5798.52929
883.108	5827.65908
883.289	5981.554
883.469	5709.0303
883.65	5962.84395
883.831	5734.01116
884.011	5937.89424
884.192	5694.45657
884.373	5848.46324
884.553	5821.41737
884.734	6002.34071
884.914	5648.64588
885.095	5954.52776
885.275	5665.30564
885.456	5902.54301
885.636	5802.69098
885.817	6064.68669
885.997	5727.76626
886.178	6045.98512
886.358	5577.82509
886.538	5806.85256
886.719	5531.98535
886.899	5860.94461
887.08	5644.48071
887.26	5706.94841
887.44	5719.43941
887.621	5871.34509
887.801	5469.45824
887.981	5935.81495
888.161	5831.8201
888.342	5650.72843
888.522	5527.81753
888.702	5989.86896
888.882	5538.23689
889.062	5654.89347
889.242	5477.79641
889.423	5794.36752
889.603	5667.388
889.783	5738.1743
889.963	5694.45657
890.143	5802.69098
890.323	5613.23889
890.503	5788.12468
890.683	5713.19402
890.863	5665.30564
891.043	5731.92955
891.223	5694.45657
891.403	5634.06736
891.583	5838.06146
891.763	5898.3836
891.943	6018.96838
892.122	5638.23277
892.302	5702.78456
892.482	5748.58175
892.662	5802.69098
892.842	5565.32447
893.022	5908.78196
893.201	5869.26504
893.381	5804.77178
893.561	5692.37451
893.741	5679.88168
893.92	5559.07385
894.1	5790.20565
894.28	5586.15836
894.459	5544.48823
894.639	5361.02779
894.819	5329.73798
894.998	5338.08244
895.178	5540.3207
895.357	5615.32185
895.537	5596.57442
895.716	5477.79641
895.896	5565.32447
896.075	5523.64963
896.255	5415.25095
896.434	5118.91629
896.614	5319.30687
896.793	4976.84336
896.973	5256.70792
897.152	4845.12192
897.331	5121.0048
897.511	5206.61362
897.69	5258.79489
897.87	5225.40056
898.049	5231.66245
898.228	4997.74314
898.407	5248.35981
898.587	4799.10258
898.766	5244.18561
898.945	5068.78512
899.124	5143.97686
899.304	4820.02183
899.483	5118.91629
899.662	4861.85349
899.841	5052.07176
900.02	4817.93
900.199	5227.48788
900.378	4993.56337
900.557	4905.7669
900.737	4859.76212
900.916	5026.99896
901.095	4955.94128
901.274	5039.53578
901.453	4734.23847
901.632	4757.25726
901.811	4591.88001
901.989	4759.34974
902.168	4457.80139
902.347	4830.4806
902.526	4499.71069
902.705	4570.93622
902.884	4518.567
903.063	4646.32344
903.242	4294.27162
903.42	4531.13687
903.599	4216.65391
903.778	4407.49864
903.957	4204.0645
904.135	4365.57008
904.314	4019.33299
904.493	4225.04642
904.672	4008.83205
904.85	4193.57275
905.029	3840.74805
905.207	3962.62186
905.386	3676.74395
905.565	3838.64618
905.743	3704.08615
905.922	3807.11587
906.1	3596.80216
906.279	3914.30068
906.457	3756.65817
906.636	4059.23185
906.814	3668.33031
906.993	3563.13434
907.171	3457.89206
907.35	3735.63082
907.528	3299.94482
907.707	3550.50769
907.885	3333.64847
908.063	3550.50769
908.242	3221.98846
908.42	3325.22297
908.598	3120.82208
908.777	3255.70214
908.955	3053.35729
909.133	3302.05142
909.311	3196.7004
909.49	3337.86111
909.668	3181.94793
909.846	3302.05142
910.024	3103.9574
910.202	3314.6907
910.38	3367.34769
910.559	3411.57113
910.737	3348.39243
910.915	3619.946
911.093	3525.25239
911.271	3622.04988
911.449	3346.2862
911.627	3723.01347
911.805	3344.17995
911.983	3558.92553
912.161	3516.83337
912.339	3516.83337
912.517	3280.98459
912.695	3441.04908
912.872	3006.96599
913.05	3407.35971
913.228	3335.7548
913.406	3403.14822
913.584	3224.09569
913.762	3462.10262
913.939	3280.98459
914.117	3470.52353
914.295	3308.37114
914.473	3327.32937
914.65	3245.16708
914.828	3483.15436
915.006	3188.27051
915.184	3434.73267
915.361	3091.30822
915.539	3186.163
915.716	3002.74824
915.894	3200.91524
916.072	3057.57431
916.249	3181.94793
916.427	3047.03165
916.604	3390.51332
916.782	2994.31254
916.959	3238.84584
917.137	2973.22223
917.314	3188.27051
917.492	3173.51759
917.669	3318.90366
917.847	3179.84037
918.024	3415.78248
918.201	3243.06001
918.379	3221.98846
918.556	2867.74853
918.733	3226.2029
918.911	2985.8766
919.088	3021.72767
919.265	2779.12305
919.442	2943.69329
919.62	2844.53948
919.797	2958.45813
919.974	2422.28187
920.151	2774.90219
920.328	2568.01597
920.506	2701.02836
920.683	2603.91303
920.86	2787.56462
921.037	2682.02964
921.214	2644.0291
921.391	2622.91594
921.568	2939.47464
921.745	2445.51838
921.922	2639.80657
922.099	2443.40603
922.276	2838.20944
922.453	2557.45736
922.63	2694.69557
922.807	2555.3456
922.984	2768.57078
923.161	2525.77976
923.338	2905.72326
923.514	2388.48102
923.691	2464.52911
923.868	2420.16939
924.045	2576.46265
924.222	2439.18128
924.399	2510.99599
924.575	2208.87172
924.752	2532.11549
924.929	2210.98516
925.105	2534.22737
925.282	2342.00056
925.459	2464.52911
925.635	2291.28916
925.812	2327.21031
925.989	1986.91712
926.165	2101.07553
926.342	1934.05954
926.518	2063.02499
926.695	2149.69209
926.871	2172.94201
927.048	2056.68301
927.224	2403.26922
927.401	1866.39664
927.577	2217.32542
927.754	1745.85991
927.93	1967.88883
928.107	1934.05954
928.283	2050.34096
928.459	1853.70926
928.636	2058.79701
928.812	1872.74027
928.988	1946.7457
929.165	1680.29961
929.341	2126.4412
929.517	1769.12244
929.693	2020.74392
929.87	1608.39164
930.046	1703.56329
930.222	1648.57585
930.398	1578.78175
930.574	1686.64428
930.751	1743.74511
930.927	1625.3114
931.103	1908.68661
931.279	1635.88618
931.455	1627.42636
931.631	1447.64947
931.807	1728.94142
931.983	1439.18926
932.159	1574.55174
932.335	1430.72906
932.511	1437.07421
932.687	1462.45484
932.863	1496.29563
933.039	1168.47394
933.215	1399.00334
933.391	1223.45986
933.566	1352.4726
933.742	1244.60887
933.918	1396.8883
934.094	1075.42711
934.27	1200.1963
934.445	978.16178
934.621	1238.26414
934.797	988.73347
934.973	1134.63772
935.148	897.82273
935.324	950.67619
935.5	815.38144
935.675	935.87675
935.851	732.95422
936.027	834.40517
936.202	800.58571
936.378	800.58571
936.553	620.96399
936.729	661.10768
936.904	568.15026
937.08	631.5277
937.255	458.32515
937.431	673.78553
937.606	509.00883
937.782	517.45693
937.957	403.4278
938.133	445.65559
938.308	428.76371
938.483	392.87187
938.659	394.98302
938.834	424.5409
939.009	340.09847
939.185	403.4278
939.36	399.20538
939.535	335.87706
939.71	302.10835
939.886	162.86346
940.061	283.11549
940.236	274.6747
940.411	281.00526
940.586	297.88759
940.761	234.58507
940.937	217.70731
941.112	224.03632
941.287	310.5501
941.462	171.30008
941.637	264.12413
941.812	148.10019
941.987	240.91455
942.162	137.55563
942.337	177.62776
942.512	112.25088
942.687	167.08173
942.862	230.36551
943.037	209.26891
943.212	141.77339
943.386	177.62776
943.561	188.1743
943.736	78.51611
943.911	112.25088
944.086	209.26891
944.26	207.15936
944.435	141.77339
944.61	137.55563
944.785	171.30008
944.959	133.33796
945.134	139.6645
945.309	240.91455
945.483	108.03372
945.658	167.08173
945.833	205.04983
946.007	171.30008
946.182	198.72135
946.357	124.90287
946.531	158.64528
946.706	154.42718
946.88	124.90287
947.055	139.6645
947.229	145.99124
947.404	127.01161
947.578	194.50247
947.752	145.99124
947.927	129.12037
948.101	181.84631
948.276	133.33796
948.45	179.73703
948.624	93.27437
948.799	99.59967
948.973	164.97259
949.147	49.00291
949.321	179.73703
949.496	224.03632
949.67	120.68545
949.844	230.36551
950.018	188.1743
950.193	97.49122
950.367	156.53622
950.541	124.90287
950.715	186.06495
950.889	179.73703
951.063	259.90403
951.237	171.30008
951.411	253.57403
951.585	139.6645
951.759	209.26891
951.933	219.81696
952.107	221.92663
952.281	162.86346
952.455	196.6119
952.629	131.22915
952.803	145.99124
952.977	249.35413
953.151	154.42718
953.325	175.51851
953.499	221.92663
953.672	198.72135
953.846	164.97259
954.02	186.06495
954.194	186.06495
954.368	129.12037
954.541	175.51851
954.715	135.44678
954.889	164.97259
955.062	164.97259
955.236	205.04983
955.41	181.84631
955.583	221.92663
955.757	190.28367
955.93	213.48807
956.104	228.25576
956.278	230.36551
956.451	196.6119
956.625	141.77339
956.798	234.58507
956.972	238.8047
957.145	114.35949
957.319	257.79401
957.492	181.84631
957.665	226.14603
957.839	167.08173
958.012	158.64528
958.185	173.40929
958.359	181.84631
958.532	264.12413
958.705	240.91455
958.879	205.04983
959.052	175.51851
959.225	122.79415
959.398	173.40929
959.572	219.81696
959.745	135.44678
959.918	164.97259
960.091	190.28367
960.264	167.08173
960.438	215.59768
960.611	175.51851
960.784	192.39306
960.957	152.31817
961.13	150.20917
961.303	181.84631
961.476	196.6119
961.649	196.6119
961.822	238.8047
961.995	249.35413
962.168	175.51851
962.341	175.51851
962.514	232.47528
962.686	190.28367
962.859	226.14603
963.032	129.12037
963.205	247.24421
963.378	200.83082
963.551	158.64528
963.723	179.73703
963.896	238.8047
964.069	167.08173
964.242	89.05761
964.414	137.55563
964.587	213.48807
964.76	145.99124
964.932	200.83082
965.105	141.77339
965.278	150.20917
965.45	105.92518
965.623	179.73703
965.795	154.42718
965.968	179.73703
966.14	226.14603
966.313	129.12037
966.485	124.90287
966.658	139.6645
966.83	122.79415
967.003	152.31817
967.175	156.53622
967.348	164.97259
967.52	150.20917
967.692	74.29967
967.865	167.08173
968.037	112.25088
968.209	139.6645
968.382	200.83082
968.554	156.53622
968.726	167.08173
968.898	158.64528
969.071	120.68545
969.243	171.30008
969.415	137.55563
969.587	91.16598
969.759	158.64528
969.932	131.22915
970.104	112.25088
970.276	173.40929
970.448	131.22915
970.62	162.86346
970.792	89.05761
970.964	46.895
971.136	63.75895
971.308	91.16598
971.48	181.84631
971.652	164.97259
971.824	215.59768
971.996	99.59967
972.168	145.99124
972.339	240.91455
972.511	158.64528
972.683	76.40788
972.855	78.51611
973.027	129.12037
973.199	205.04983
973.37	156.53622
973.542	61.65088
973.714	99.59967
973.886	154.42718
974.057	114.35949
974.229	70.08331
974.401	137.55563
974.572	145.99124
974.744	63.75895
974.915	154.42718
975.087	78.51611
975.259	148.10019
975.43	124.90287
975.602	84.84094
975.773	154.42718
975.945	129.12037
976.116	86.94927
976.288	82.73264
976.459	46.895
976.63	103.81665
976.802	89.05761
976.973	40.5714
977.145	57.4348
977.316	40.5714
977.487	127.01161
977.659	44.78711
977.83	80.62436
978.001	53.21881
978.172	44.78711
978.344	110.14229
978.515	93.27437
978.686	11.06405
978.857	89.05761
979.028	93.27437
979.2	78.51611
979.371	91.16598
979.542	72.19148
979.713	129.12037
979.884	95.38278
980.055	36.35578
980.226	89.05761
980.397	86.94927
980.568	78.51611
980.739	133.33796
980.91	30.03253
981.081	-35.29512
981.252	46.895
981.423	99.59967
981.594	30.03253
981.765	-12.11701
981.936	131.22915
982.106	36.35578
982.277	120.68545
982.448	137.55563
982.619	49.00291
982.79	27.92483
982.96	95.38278
983.131	55.32679
983.302	89.05761
983.472	108.03372
983.643	8.95656
983.814	46.895
983.984	44.78711
984.155	86.94927
984.326	61.65088
984.496	99.59967
984.667	36.35578
984.837	55.32679
985.008	86.94927
985.178	40.5714
985.349	53.21881
985.519	57.4348
985.69	70.08331
985.86	0.52684
986.031	46.895
986.201	135.44678
986.371	120.68545
986.542	53.21881
986.712	6.8491
986.882	143.8823
987.053	93.27437
987.223	61.65088
987.393	78.51611
987.563	21.60186
987.734	78.51611
987.904	86.94927
988.074	34.24801
988.244	-39.50901
988.414	38.46358
988.585	25.81715
988.755	110.14229
988.925	76.40788
989.095	-26.86706
989.265	53.21881
989.435	84.84094
989.605	57.4348
989.775	51.11085
989.945	-35.29512
990.115	49.00291
990.285	11.06405
990.455	67.97517
990.625	124.90287
990.795	44.78711
990.965	-3.68787
991.134	80.62436
991.304	-14.22423
991.474	19.49425
991.644	67.97517
991.814	53.21881
991.984	11.06405
992.153	-3.68787
992.323	11.06405
992.493	86.94927
992.662	57.4348
992.832	-14.22423
993.002	6.8491
993.171	11.06405
993.341	-7.90249
993.511	70.08331
993.68	21.60186
993.85	34.24801
994.019	44.78711
994.189	19.49425
994.358	40.5714
994.528	-37.40208
994.697	-10.00976
994.867	21.60186
995.036	-7.90249
995.206	36.35578
995.375	55.32679
995.544	51.11085
995.714	23.70949
995.883	27.92483
996.052	27.92483
996.222	-16.33143
996.391	67.97517
996.56	8.95656
996.73	-45.82964
996.899	57.4348
997.068	86.94927
997.237	40.5714
997.406	32.14026
997.576	-28.97412
997.745	-18.43861
997.914	8.95656
998.083	-12.11701
998.252	15.2791
998.421	34.24801
998.59	122.79415
998.759	11.06405
998.928	-16.33143
999.097	21.60186
999.266	-5.79519
999.435	34.24801
999.604	72.19148
999.773	57.4348
999.942	61.65088
1000.111	21.60186
1000.28	53.21881
1000.448	61.65088
1000.617	11.06405
1000.786	-18.43861
1000.955	-22.65289
1001.124	-1.58052
1001.292	-26.86706
1001.461	-1.58052
1001.63	40.5714
1001.798	19.49425
1001.967	30.03253
1002.136	13.17157
1002.304	32.14026
1002.473	-12.11701
1002.642	38.46358
1002.81	21.60186
1002.979	36.35578
1003.147	8.95656
1003.316	97.49122
1003.484	-7.90249
1003.653	15.2791
1003.821	65.86705
1003.99	6.8491
1004.158	44.78711
1004.327	61.65088
1004.495	15.2791
1004.663	-47.93647
1004.832	27.92483
1005	46.895
1005.168	13.17157
1005.337	57.4348
1005.505	-14.22423
1005.673	11.06405
1005.842	15.2791
1006.01	86.94927
1006.178	-18.43861
1006.346	70.08331
1006.514	38.46358
1006.683	74.29967
1006.851	38.46358
1007.019	-45.82964
1007.187	-3.68787
1007.355	53.21881
1007.523	-39.50901
1007.691	-22.65289
1007.859	40.5714
1008.027	-20.54576
1008.195	-39.50901
1008.363	32.14026
1008.531	11.06405
1008.699	61.65088
1008.867	19.49425
1009.035	11.06405
1009.203	-39.50901
1009.37	65.86705
1009.538	-41.61591
1009.706	38.46358
1009.874	2.63424
1010.042	70.08331
1010.209	-5.79519
1010.377	-39.50901
1010.545	13.17157
1010.713	44.78711
1010.88	21.60186
1011.048	82.73264
1011.216	-20.54576
1011.383	49.00291
1011.551	0.52684
1011.718	49.00291
1011.886	82.73264
1012.054	80.62436
1012.221	8.95656
1012.389	27.92483
1012.556	-18.43861
1012.724	72.19148
1012.891	4.74166
1013.058	-1.58052
1013.226	6.8491
1013.393	4.74166
1013.561	13.17157
1013.728	-3.68787
1013.895	44.78711
1014.063	-64.79019
1014.23	-5.79519
1014.397	-31.08114
1014.565	-5.79519
1014.732	19.49425
1014.899	-1.58052
1015.066	6.8491
1015.233	11.06405
1015.401	42.67924
1015.568	78.51611
1015.735	-5.79519
1015.902	57.4348
1016.069	-24.75999
1016.236	4.74166
1016.403	13.17157
1016.57	-3.68787
1016.737	21.60186
1016.904	32.14026
1017.071	17.38667
1017.238	-31.08114
1017.405	30.03253
1017.572	-22.65289
1017.739	-22.65289
1017.906	-37.40208
1018.073	-22.65289
1018.24	23.70949
1018.407	-12.11701
1018.573	40.5714
1018.74	-14.22423
1018.907	2.63424
1019.074	51.11085
1019.241	44.78711
1019.407	-5.79519
1019.574	32.14026
1019.741	0.52684
1019.907	44.78711
1020.074	19.49425
1020.241	19.49425
1020.407	-50.04327
1020.574	6.8491
1020.74	89.05761
1020.907	6.8491
1021.073	-14.22423
1021.24	40.5714
1021.406	15.2791
1021.573	23.70949
1021.739	-14.22423
1021.906	-12.11701
1022.072	-14.22423
1022.239	-28.97412
1022.405	32.14026
1022.571	-3.68787
1022.738	19.49425
1022.904	-64.79019
1023.07	-81.64228
1023.237	27.92483
1023.403	0.52684
1023.569	42.67924
1023.735	-5.79519
1023.902	34.24801
1024.068	23.70949
1024.234	-28.97412
1024.4	-87.96139
1024.566	25.81715
1024.732	38.46358
1024.898	19.49425
1025.065	49.00291
1025.231	-3.68787
1025.397	8.95656
1025.563	6.8491
1025.729	-5.79519
1025.895	17.38667
1026.061	49.00291
1026.227	17.38667
1026.392	-3.68787
1026.558	-81.64228
1026.724	23.70949
1026.89	32.14026
1027.056	8.95656
1027.222	2.63424
1027.388	-62.68356
1027.553	11.06405
1027.719	-39.50901
1027.885	-28.97412
1028.051	36.35578
1028.216	0.52684
1028.382	27.92483
1028.548	23.70949
1028.713	-79.53586
1028.879	4.74166
1029.045	36.35578
1029.21	6.8491
1029.376	40.5714
1029.541	15.2791
1029.707	-14.22423
1029.873	-43.72279
1030.038	-1.58052
1030.204	-31.08114
1030.369	-26.86706
1030.534	13.17157
1030.7	-28.97412
1030.865	44.78711
1031.031	2.63424
1031.196	-12.11701
1031.361	53.21881
1031.527	-31.08114
1031.692	32.14026
1031.857	-3.68787
1032.023	-20.54576
1032.188	32.14026
1032.353	19.49425
1032.518	-24.75999
1032.684	-14.22423
1032.849	19.49425
1033.014	32.14026
1033.179	-20.54576
1033.344	13.17157
1033.509	-22.65289
1033.674	27.92483
1033.839	27.92483
1034.004	34.24801
1034.17	-5.79519
1034.335	-14.22423
1034.5	51.11085
1034.664	-5.79519
1034.829	11.06405
1034.994	-14.22423
1035.159	-52.15005
1035.324	15.2791
1035.489	-10.00976
1035.654	11.06405
1035.819	0.52684
1035.984	-75.32294
1036.148	-3.68787
1036.313	-18.43861
1036.478	-104.8112
1036.643	-22.65289
1036.807	-12.11701
1036.972	4.74166
1037.137	-43.72279
1037.301	-130.08275
1037.466	103.81665
1037.631	15.2791
1037.795	61.65088
1037.96	17.38667
1038.124	34.24801
1038.289	8.95656
1038.454	-35.29512
1038.618	-16.33143
1038.783	-20.54576
1038.947	-14.22423
1039.111	-31.08114
1039.276	89.05761
1039.44	-3.68787
1039.605	8.95656
1039.769	-56.36353
1039.933	-14.22423
1040.098	23.70949
1040.262	-28.97412
1040.426	-22.65289
1040.591	19.49425
1040.755	-50.04327
1040.919	148.10019
1041.083	2.63424
1041.248	30.03253
1041.412	-28.97412
1041.576	15.2791
1041.74	57.4348
1041.904	40.5714
1042.068	-50.04327
1042.232	49.00291
1042.397	-47.93647
1042.561	53.21881
1042.725	-37.40208
1042.889	46.895
1043.053	13.17157
1043.217	40.5714
1043.381	27.92483
1043.544	44.78711
1043.708	53.21881
1043.872	-22.65289
1044.036	-47.93647
1044.2	84.84094
1044.364	2.63424
1044.528	11.06405
1044.691	-10.00976
1044.855	-3.68787
1045.019	11.06405
1045.183	21.60186
1045.346	2.63424
1045.51	-14.22423
1045.674	30.03253
1045.837	38.46358
1046.001	55.32679
1046.165	-10.00976
1046.328	-1.58052
1046.492	42.67924
1046.655	57.4348
1046.819	36.35578
1046.983	-3.68787
1047.146	2.63424
1047.31	-18.43861
1047.473	11.06405
1047.636	11.06405
1047.8	17.38667
1047.963	-18.43861
1048.127	19.49425
1048.29	-37.40208
