Data from Scatter_Coeff_Baseline_USB4F045381__1__0001.txt Node

Date: Thu Feb 13 19:12:30 EST 2025
User: mmckonesweet
Spectrometer: USB4F04538
Trigger mode: 4
Integration Time (sec): 2.400000E-3
Scans to average: 1
Electric dark correction enabled: true
Nonlinearity correction enabled: true
Boxcar width: 0
XAxis mode: Wavelengths
Number of Pixels in Spectrum: 3648
>>>>>Begin Spectral Data<<<<<
345.52	20.37242
345.736	20.37242
345.952	20.37242
346.168	54.09713
346.384	9.83468
346.6	-32.31023
346.816	-0.70246
347.032	-15.45344
347.248	-19.66778
347.464	-78.65817
347.68	77.2863
347.896	-25.98912
348.112	22.48004
348.328	20.37242
348.544	47.77329
348.76	-47.05863
348.975	51.98916
349.191	-0.70246
349.407	-4.91714
349.623	77.2863
349.839	1.40492
350.055	26.69535
350.27	-11.23899
350.486	20.37242
350.702	-4.91714
350.918	-36.52418
351.133	-13.34623
351.349	-4.91714
351.565	14.04971
351.781	-2.80981
351.996	60.42118
352.212	26.69535
352.428	18.26482
352.644	-4.91714
352.859	37.23403
353.075	45.6654
353.291	18.26482
353.506	11.94218
353.722	41.44967
353.938	-11.23899
354.153	30.91075
354.369	-47.05863
354.584	47.77329
354.8	30.91075
355.016	35.12624
355.231	11.94218
355.447	26.69535
355.662	5.61975
355.878	9.83468
356.093	-19.66778
356.309	51.98916
356.524	77.2863
356.74	49.88122
356.955	43.55752
357.171	51.98916
357.386	-13.34623
357.602	136.32547
357.817	-15.45344
358.033	-0.70246
358.248	26.69535
358.464	26.69535
358.679	-23.88203
358.895	7.72721
359.11	1.40492
359.325	64.63732
359.541	-40.73804
359.756	9.83468
359.972	20.37242
360.187	89.9361
360.402	14.04971
360.618	43.55752
360.833	26.69535
361.048	5.61975
361.264	-7.02445
361.479	70.96171
361.694	-19.66778
361.909	51.98916
362.125	-15.45344
362.34	51.98916
362.555	18.26482
362.77	24.58768
362.986	1.40492
363.201	18.26482
363.416	18.26482
363.631	43.55752
363.847	-32.31023
364.062	-15.45344
364.277	39.34183
364.492	24.58768
364.707	-2.80981
364.922	-0.70246
365.138	-11.23899
365.353	-19.66778
365.568	35.12624
365.783	56.20513
365.998	-25.98912
366.213	30.91075
366.428	75.17808
366.643	54.09713
366.858	43.55752
367.073	-47.05863
367.288	9.83468
367.503	64.63732
367.718	-7.02445
367.933	-19.66778
368.148	1.40492
368.363	92.04447
368.578	28.80304
368.793	37.23403
369.008	60.42118
369.223	83.6111
369.438	60.42118
369.653	24.58768
369.868	20.37242
370.083	106.80373
370.298	47.77329
370.513	24.58768
370.728	60.42118
370.943	18.26482
371.157	35.12624
371.372	85.71941
371.587	-49.16544
371.802	-28.09618
372.017	62.52924
372.232	47.77329
372.446	41.44967
372.661	47.77329
372.876	37.23403
373.091	22.48004
373.306	20.37242
373.52	62.52924
373.735	37.23403
373.95	18.26482
374.165	9.83468
374.379	54.09713
374.594	-15.45344
374.809	64.63732
375.023	-15.45344
375.238	35.12624
375.453	9.83468
375.667	18.26482
375.882	56.20513
376.097	51.98916
376.311	54.09713
376.526	-15.45344
376.741	16.15725
376.955	18.26482
377.17	56.20513
377.384	14.04971
377.599	-15.45344
377.813	14.04971
378.028	35.12624
378.242	45.6654
378.457	5.61975
378.672	37.23403
378.886	22.48004
379.101	18.26482
379.315	11.94218
379.53	37.23403
379.744	-51.27223
379.958	-32.31023
380.173	20.37242
380.387	18.26482
380.602	39.34183
380.816	35.12624
381.031	-4.91714
381.245	68.85356
381.459	-15.45344
381.674	-19.66778
381.888	-15.45344
382.103	5.61975
382.317	-13.34623
382.531	-38.63112
382.746	54.09713
382.96	-0.70246
383.174	18.26482
383.388	-49.16544
383.603	-44.95179
383.817	3.51233
384.031	-40.73804
384.246	1.40492
384.46	51.98916
384.674	28.80304
384.888	51.98916
385.103	18.26482
385.317	24.58768
385.531	37.23403
385.745	66.74543
385.959	-0.70246
386.174	18.26482
386.388	62.52924
386.602	37.23403
386.816	-19.66778
387.03	-57.59244
387.244	47.77329
387.458	28.80304
387.672	14.04971
387.887	24.58768
388.101	58.31314
388.315	26.69535
388.529	41.44967
388.743	37.23403
388.957	3.51233
389.171	77.2863
389.385	37.23403
389.599	11.94218
389.813	43.55752
390.027	37.23403
390.241	39.34183
390.455	26.69535
390.669	43.55752
390.883	54.09713
391.097	68.85356
391.311	41.44967
391.525	39.34183
391.738	30.91075
391.952	66.74543
392.166	62.52924
392.38	58.31314
392.594	64.63732
392.808	5.61975
393.022	7.72721
393.236	28.80304
393.449	30.91075
393.663	113.12946
393.877	30.91075
394.091	-21.77492
394.305	43.55752
394.518	87.82774
394.732	117.34672
394.946	58.31314
395.16	-4.91714
395.373	94.15287
395.587	33.01848
395.801	51.98916
396.015	18.26482
396.228	1.40492
396.442	98.36974
396.656	41.44967
396.869	96.26129
397.083	18.26482
397.297	-19.66778
397.51	3.51233
397.724	39.34183
397.938	77.2863
398.151	7.72721
398.365	79.39455
398.578	45.6654
398.792	111.02086
399.005	22.48004
399.219	54.09713
399.433	51.98916
399.646	39.34183
399.86	58.31314
400.073	51.98916
400.287	49.88122
400.5	33.01848
400.714	20.37242
400.927	26.69535
401.141	79.39455
401.354	1.40492
401.567	28.80304
401.781	87.82774
401.994	37.23403
402.208	45.6654
402.421	45.6654
402.635	43.55752
402.848	58.31314
403.061	35.12624
403.275	73.06989
403.488	9.83468
403.701	51.98916
403.915	14.04971
404.128	81.50281
404.341	62.52924
404.555	62.52924
404.768	26.69535
404.981	43.55752
405.195	121.56407
405.408	22.48004
405.621	64.63732
405.834	5.61975
406.048	26.69535
406.261	26.69535
406.474	35.12624
406.687	51.98916
406.9	70.96171
407.114	68.85356
407.327	43.55752
407.54	39.34183
407.753	3.51233
407.966	68.85356
408.179	22.48004
408.392	35.12624
408.605	108.91229
408.819	18.26482
409.032	20.37242
409.245	49.88122
409.458	102.58669
409.671	33.01848
409.884	26.69535
410.097	100.4782
410.31	79.39455
410.523	111.02086
410.736	102.58669
410.949	14.04971
411.162	20.37242
411.375	35.12624
411.588	68.85356
411.801	113.12946
412.014	-2.80981
412.227	26.69535
412.44	56.20513
412.653	35.12624
412.865	58.31314
413.078	64.63732
413.291	121.56407
413.504	39.34183
413.717	140.5432
413.93	26.69535
414.143	87.82774
414.356	33.01848
414.568	94.15287
414.781	-7.02445
414.994	117.34672
415.207	39.34183
415.42	24.58768
415.632	102.58669
415.845	100.4782
416.058	85.71941
416.271	102.58669
416.483	77.2863
416.696	136.32547
416.909	28.80304
417.121	43.55752
417.334	125.7815
417.547	100.4782
417.759	106.80373
417.972	77.2863
418.185	68.85356
418.397	121.56407
418.61	28.80304
418.823	136.32547
419.035	62.52924
419.248	132.10782
419.46	68.85356
419.673	47.77329
419.885	186.94385
420.098	119.45538
420.311	161.63315
420.523	62.52924
420.736	140.5432
420.948	170.06972
421.161	43.55752
421.373	142.6521
421.586	184.83451
421.798	138.43433
422.01	132.10782
422.223	113.12946
422.435	195.3814
422.648	134.21663
422.86	102.58669
423.073	132.10782
423.285	153.19692
423.497	157.41499
423.71	170.06972
423.922	121.56407
424.134	178.50662
424.347	180.61589
424.559	235.46415
424.771	214.36707
424.984	193.27198
425.196	191.16258
425.408	136.32547
425.621	186.94385
425.833	193.27198
426.045	140.5432
426.257	203.81928
426.47	214.36707
426.682	182.72519
426.894	163.74226
427.106	153.19692
427.318	239.6838
427.531	186.94385
427.743	172.17891
427.955	199.6003
428.167	153.19692
428.379	189.0532
428.591	163.74226
428.804	205.9288
429.016	203.81928
429.228	229.13482
429.44	267.11341
429.652	246.01343
429.864	184.83451
430.076	300.87729
430.288	214.36707
430.5	216.47669
430.712	256.56318
430.924	186.94385
431.136	248.12334
431.348	305.0981
431.56	258.67319
431.772	170.06972
431.984	222.80567
432.196	178.50662
432.408	349.42099
432.62	250.23327
432.832	298.76691
433.044	372.64081
433.256	265.00332
433.468	313.53995
433.679	324.09267
433.891	372.64081
434.103	254.45319
434.315	307.20854
434.527	370.52983
434.739	397.97385
434.95	328.31388
435.162	374.75181
435.374	372.64081
435.586	381.08489
435.798	448.64696
436.009	343.08867
436.221	309.31899
436.433	425.42065
436.645	305.0981
436.856	391.64037
437.068	440.20081
437.28	461.31665
437.491	376.86282
437.703	410.64126
437.915	448.64696
438.126	385.30703
438.338	495.10517
438.55	533.12172
438.761	457.09336
438.973	592.26753
439.184	467.65171
439.396	541.57047
439.608	444.42385
439.819	524.6732
440.031	457.09336
440.242	476.09866
440.454	514.11286
440.665	486.65768
440.877	647.19775
441.088	594.38007
441.3	571.14282
441.511	526.78531
441.723	533.12172
441.934	588.04248
442.146	524.6732
442.357	583.81748
442.569	539.45826
442.78	579.59254
442.991	642.97205
443.203	516.2249
443.414	691.57044
443.626	626.06974
443.837	795.1255
444.048	704.24928
444.26	721.15502
444.471	613.39353
444.682	613.39353
444.894	579.59254
445.105	731.72145
445.316	905.04575
445.528	695.79667
445.739	740.1748
445.95	788.78469
446.161	685.23117
446.373	788.78469
446.584	822.60332
446.795	807.80738
447.006	841.62734
447.217	710.58885
447.429	812.03474
447.64	790.89829
447.851	784.55754
448.062	883.90545
448.273	847.96884
448.484	886.01945
448.695	790.89829
448.907	816.26215
449.118	778.21687
449.329	744.40153
449.54	854.31041
449.751	847.96884
449.962	864.87988
450.173	866.9938
450.384	938.87185
450.595	1044.58984
450.806	1105.91306
451.017	938.87185
451.228	1040.36082
451.439	945.21445
451.65	1084.76663
451.861	983.27141
452.072	1006.52951
452.283	1097.45443
452.494	1177.81432
452.705	1048.81888
452.915	1196.84779
453.126	1209.53692
453.337	1182.04396
453.548	1192.6181
453.759	1397.76956
453.97	1133.40413
454.181	1363.92898
454.391	1313.16871
454.602	1562.74293
454.813	1327.9737
455.024	1471.79631
455.235	1347.0088
455.445	1404.1147
455.656	1380.84924
455.867	1450.64579
456.078	1311.05372
456.288	1340.66375
456.499	1592.35299
456.71	1501.40699
456.921	1446.41569
457.131	1710.78906
457.342	1509.86717
457.553	1533.13258
457.763	1573.31798
457.974	1848.24658
458.184	1657.91679
458.395	1915.91093
458.606	1634.65246
458.816	1968.76978
459.027	1970.88406
459.237	1810.18317
459.448	1911.68206
459.659	1805.95381
459.869	2042.76566
460.08	1945.51234
460.29	2209.75232
460.501	2046.99374
460.711	2110.41163
460.922	2114.63926
461.132	2277.37779
461.343	2190.73104
461.553	2211.86576
461.764	2351.33225
461.974	2421.04959
462.184	2347.1066
462.395	2463.29696
462.605	2704.01881
462.816	2342.88092
463.026	2528.77164
463.236	2509.76398
463.447	2592.12369
463.657	2642.79754
463.867	2872.84726
464.078	2820.0978
464.288	2811.65707
464.498	3041.58445
464.709	2986.75535
464.919	3001.51805
465.129	3037.36719
465.339	3220.75923
465.55	3214.43741
465.76	2986.75535
465.97	3161.7498
466.18	3117.48436
466.391	3435.60996
466.601	3338.73874
466.811	3564.01117
467.021	3465.08506
467.231	3690.24018
467.441	3361.90697
467.651	3780.66203
467.862	3650.27502
468.072	4011.80737
468.282	3900.46765
468.492	3803.78741
468.702	3978.2014
468.912	4219.62629
469.122	4097.89862
469.332	4137.78272
469.542	4158.77131
469.752	4374.83005
469.962	4571.80892
470.172	4483.82112
470.382	4575.99784
470.592	4433.5249
470.802	4640.91468
471.012	4716.27494
471.222	4969.35371
471.432	4850.1764
471.642	4770.68362
471.852	5226.27028
472.062	5209.57095
472.272	5338.95163
472.482	5384.83927
472.691	5736.96006
472.901	5316.00356
473.111	5609.94084
473.321	5826.44543
473.531	5886.77139
473.741	5630.76968
473.95	6123.72267
474.16	5732.79689
474.37	6210.94343
474.58	6094.63987
474.79	6298.12283
474.999	6291.8971
475.209	6225.4762
475.419	6437.1094
475.628	6793.43435
475.838	6594.63946
476.048	6764.45659
476.258	7047.83331
476.467	7171.80688
476.677	7260.60539
476.886	7563.8667
477.096	7277.12154
477.306	7250.28208
477.515	7372.06213
477.725	7543.2515
477.935	7594.78549
478.144	7739.00995
478.354	7699.87356
478.563	8031.2652
478.773	7798.72984
478.982	8158.74043
479.192	8152.57405
479.401	8503.77543
479.611	8483.25292
479.82	8610.46197
480.03	8749.89895
480.239	8856.47003
480.449	8751.94886
480.658	9227.04582
480.868	9282.27685
481.077	9151.33887
481.287	9298.63927
481.496	9300.68449
481.705	9605.24107
481.915	9682.85674
482.124	9404.96915
482.333	9623.62576
482.543	9760.45017
482.752	9850.26788
482.961	9993.10062
483.171	10317.27646
483.38	10033.89692
483.589	10396.73875
483.799	10525.05908
484.008	10616.68559
484.217	10702.18109
484.426	10834.45372
484.636	11045.98834
484.845	11180.16952
485.054	10946.33821
485.263	11143.57928
485.472	11007.35166
485.682	11328.52872
485.891	11547.92157
486.1	11517.45704
486.309	11793.59365
486.518	11923.4844
486.727	11702.24327
486.936	11734.72543
487.146	11759.08558
487.355	12209.53407
487.564	11962.03919
487.773	12428.53676
487.982	12584.62971
488.191	12515.71024
488.4	12728.52692
488.609	12570.441
488.818	12586.65664
489.027	12758.92394
489.236	12892.65583
489.445	13234.98854
489.654	13085.10837
489.863	13358.52022
490.072	13186.38149
490.281	13534.67886
490.49	13583.26939
490.698	13417.24301
490.907	13348.39525
491.116	13809.99979
491.325	13975.97518
491.534	14004.31068
491.743	14075.14733
491.952	13941.56713
492.16	14263.35736
492.369	14356.44432
492.578	14283.59398
492.787	14315.97218
492.996	14372.63299
493.204	14405.01002
493.413	14700.43443
493.622	14999.8859
493.831	14611.40507
494.039	14835.99859
494.248	14702.4578
494.457	15056.53771
494.665	15275.05113
494.874	15151.63152
495.083	15088.9101
495.291	15574.50018
495.5	15529.98675
495.709	15625.08406
495.917	15590.68697
496.126	15770.76865
496.335	15861.8242
496.543	15948.8351
496.752	15669.59829
496.96	15920.50571
497.169	16141.07752
497.377	16122.8645
497.586	16351.54914
497.794	16173.45656
498.003	16090.4861
498.211	16766.48417
498.42	16404.17015
498.628	16728.02281
498.837	16766.48417
499.045	16746.24124
499.254	16653.12684
499.462	16924.3875
499.671	17136.97487
499.879	17074.20785
500.087	17381.99532
500.296	17086.35609
500.504	17047.88698
500.713	17116.72715
500.921	17434.65008
501.129	17317.1923
501.338	16906.1671
501.546	17497.43351
501.754	17300.99203
501.962	17689.85351
502.171	17586.55071
502.379	17853.94054
502.587	17904.58921
502.795	17973.47491
503.004	17515.66152
503.212	17937.00551
503.42	18070.73229
503.628	17675.67419
503.837	17833.68167
504.045	18084.91634
504.253	17987.65777
504.461	18579.44541
504.669	18421.33385
504.877	18575.39097
505.085	18930.21355
505.294	18765.96633
505.502	18370.66198
505.71	19003.22076
505.918	18632.15448
506.126	18903.85112
506.334	18946.43692
506.542	18905.87897
506.75	18918.04619
506.958	19088.40246
507.166	19240.53052
507.374	19147.22258
507.582	18997.13662
507.79	19289.21637
507.998	19051.89514
508.206	19356.16329
508.414	19445.43286
508.622	19358.19205
508.83	19333.84715
509.037	19609.79106
509.245	19408.91252
509.453	19605.7325
509.661	19475.8675
509.869	19863.48408
510.077	19847.24577
510.285	20086.78822
510.492	20218.76458
510.7	20182.2155
510.908	19877.69283
511.116	19932.49993
511.324	19784.32483
511.531	20295.92822
511.739	20080.69743
511.947	20105.06081
512.155	20141.60701
512.362	20576.20503
512.57	20377.15966
512.778	20653.39669
512.985	20945.96686
513.193	20635.11391
513.401	20746.84726
513.608	20748.87889
513.816	20742.78401
514.024	21076.02549
514.231	20675.74276
514.439	20960.1912
514.646	21088.21935
514.854	21411.40976
515.061	21037.41259
515.269	21202.03575
515.477	21122.76941
515.684	21114.63988
515.892	21384.98156
516.099	21399.21205
516.307	21169.51548
516.514	21592.35933
516.722	21681.82909
516.929	21389.0474
517.136	21557.7935
517.344	21352.45548
517.551	21340.25846
517.759	21531.36158
517.966	22088.60434
518.173	21824.18294
518.381	21726.56682
518.588	21927.9098
518.796	21787.57585
519.003	22267.63344
519.21	22155.73687
519.418	22367.3325
519.625	22332.74203
519.832	22438.55147
520.039	22410.06335
520.247	22290.01409
520.454	22324.60325
520.661	22729.57738
520.868	22432.44681
521.076	22481.28498
521.283	22788.60538
521.49	23134.68913
521.697	22469.07525
521.904	22458.90056
522.112	22772.3215
522.319	23061.39273
522.526	22851.70748
522.733	23405.51507
522.94	23395.33262
523.147	23205.95359
523.354	23322.02134
523.561	23592.88594
523.768	23460.50163
523.975	23507.34382
524.183	23216.13456
524.39	23319.98497
524.597	23721.20915
524.804	23511.41713
525.011	23959.55478
525.218	23973.81602
525.425	23509.38048
525.632	23800.65326
525.838	24041.04948
526.045	24077.72356
526.252	24238.6926
526.459	24381.33746
526.666	24214.24051
526.873	24617.74841
527.08	24426.17136
527.287	24878.65447
527.494	24385.41322
527.701	25274.16289
527.907	24623.86294
528.114	24597.36681
528.321	25000.96758
528.528	25033.5858
528.735	24931.65579
528.941	25119.2114
529.148	24864.38515
529.355	24674.8182
529.562	24837.8853
529.768	25496.41745
529.975	25164.06448
530.182	25268.04614
530.388	25223.19062
530.595	25296.59111
530.802	25357.76031
531.008	25451.55674
531.215	25814.54825
531.422	25486.22175
531.628	25524.96568
531.835	25443.40036
532.042	25433.20492
532.248	25853.29814
532.455	25820.66661
532.661	26202.07669
532.868	26042.97827
533.074	25987.90823
533.281	26116.40699
533.487	26567.22569
533.694	26536.62464
533.9	26797.76468
534.107	26385.66465
534.313	26499.90384
534.52	26387.70459
534.726	26406.06413
534.933	26348.94598
535.139	26577.42612
535.345	26506.02394
535.552	27003.83752
535.758	27285.42525
535.965	26956.90877
536.171	27032.40321
536.377	27287.46583
536.584	27154.83065
536.79	27160.95215
536.996	27485.40852
537.203	27391.5373
537.409	26907.94043
537.615	27371.13086
537.821	27324.19655
538.028	27771.11958
538.234	27518.06
538.44	27716.01633
538.646	27622.13871
538.853	27550.7118
539.059	27734.38398
539.265	27991.54111
539.471	27891.53338
539.677	28013.9922
539.883	27646.62828
540.09	28095.63368
540.296	28142.57833
540.502	28354.85709
540.708	27991.54111
540.914	28414.05229
541.12	28254.83967
541.326	28414.05229
541.532	28534.48669
541.738	28424.25845
541.944	28324.23923
542.15	28961.13967
542.356	28859.06543
542.562	28644.71801
542.768	28763.11802
542.974	28703.91757
543.18	28383.43397
543.386	29048.92559
543.592	29200.00352
543.798	29067.29962
544.004	28963.18118
544.21	29393.96328
544.415	29316.37824
544.621	29422.54762
544.827	29412.3389
545.033	29812.54062
545.239	29344.96203
545.445	29888.09358
545.651	29653.27172
545.856	29396.00501
546.062	29494.00939
546.268	29757.40832
546.474	29122.42225
546.679	29291.87802
546.885	29361.29571
547.091	29647.14613
547.297	29126.50543
547.502	29583.84888
547.708	29663.48107
547.914	30192.36306
548.119	29930.97567
548.325	29992.23666
548.531	29514.42727
548.736	30278.13495
548.942	30057.58284
549.147	29832.96019
549.353	30194.40522
549.559	29939.14375
549.764	29908.51356
549.97	29906.47156
550.175	30615.11682
550.381	30884.72763
550.586	30627.37136
550.792	30956.21935
550.997	30805.06745
551.203	30684.55981
551.408	31234.03257
551.614	30704.9845
551.819	30762.17436
552.025	31103.29353
552.23	30921.49459
552.435	31050.18254
552.641	31491.44373
552.846	31368.86382
553.052	31493.48678
553.257	31405.63718
553.462	31873.52394
553.668	31379.07859
553.873	31587.46884
554.078	31589.51197
554.283	31783.6171
554.489	31736.62176
554.694	31773.40064
554.899	31440.36806
555.105	31415.85209
555.31	32088.08919
555.515	32049.2615
555.72	32081.95845
555.925	32253.62597
556.131	32114.65592
556.336	31930.73926
556.541	32286.32621
556.746	32261.80098
556.951	32253.62597
557.156	32126.9176
557.361	32351.72833
557.567	32727.8352
557.772	32161.65943
557.977	31910.30505
558.182	32513.19945
558.387	32286.32621
558.592	32425.30838
558.797	32394.64968
559.002	32382.38634
559.207	32292.45757
559.412	32545.90418
559.617	32517.28751
559.822	32780.9872
560.027	32537.72794
560.232	32578.6095
560.437	32619.49199
560.642	32881.16286
560.847	33079.48812
561.051	33373.95682
561.256	32439.61595
561.461	33108.11446
561.666	33106.0697
561.871	33547.80372
562.076	33106.0697
562.281	33367.82144
562.485	32445.74779
562.69	32948.63156
562.895	33144.92055
563.1	32971.12175
563.305	33468.03594
563.509	33891.47451
563.714	33496.66999
563.919	33746.22136
564.123	33290.10899
564.328	33210.35582
564.533	33778.95299
564.737	32936.36431
564.942	32932.27525
565.147	33770.77
565.351	33484.39818
565.556	33187.86212
565.761	33443.49294
565.965	33609.16679
566.17	33639.84939
566.374	33586.66667
566.579	34073.577
566.784	33856.69404
566.988	33803.50227
567.193	34120.64179
567.397	33995.82195
567.602	34055.16086
567.806	33508.94191
568.011	34100.1786
568.215	34476.76179
568.42	34143.15173
568.624	34116.54912
568.828	34212.73072
569.033	34386.69738
569.237	34550.45664
569.442	34251.61498
569.646	33844.41881
569.85	34362.13569
570.055	34638.48802
570.259	34313.01399
570.463	34489.0439
570.668	34390.79105
570.872	33920.118
571.076	34478.8088
571.281	34538.1738
571.485	34665.10368
571.689	34792.04981
571.893	34288.45397
572.098	34673.29326
572.302	35209.8647
572.506	35414.74802
572.71	34429.6817
572.914	35308.20253
573.119	35084.9097
573.323	35224.20493
573.527	34890.34216
573.731	35381.96335
573.935	35650.42651
574.139	35265.17834
574.343	35039.84827
574.547	35654.52588
574.751	35496.71538
574.955	35324.59327
575.159	35394.25745
575.364	35543.85033
575.568	35560.24574
575.772	35892.32644
575.976	35584.83948
576.18	35625.83074
576.383	35601.23573
576.587	35892.32644
576.791	35386.06137
576.995	35802.11754
577.199	36023.55887
577.403	35910.7796
577.607	36134.30459
577.811	36540.52266
578.015	36103.54018
578.219	36265.58113
578.422	35713.96914
578.626	36206.09341
578.83	36206.09341
579.034	35988.69797
579.238	36199.9398
579.442	36238.9136
579.645	35810.3179
579.849	36335.33186
580.053	36641.08938
580.257	36390.72721
580.46	36050.21832
580.664	36706.77405
580.868	36398.93431
581.071	36719.09068
581.275	36669.82559
581.479	36667.77296
581.682	37117.45996
581.886	37035.30063
582.09	37226.33865
582.293	37006.54753
582.497	36548.73161
582.7	36829.95112
582.904	37156.48962
583.107	37084.59487
583.311	37082.54086
583.515	37384.55736
583.718	36727.30189
583.922	37300.3056
584.125	37629.16462
584.329	37487.32039
584.532	37370.17203
584.735	37314.68917
584.939	37337.29264
585.142	37238.66582
585.346	37366.062
585.549	37353.7321
585.753	37425.66031
585.956	37452.37885
586.159	37477.04324
586.363	37834.80185
586.566	37960.27982
586.769	37464.71091
586.973	37142.10997
587.176	37777.21544
587.379	37536.65337
587.582	38085.78826
587.786	37697.01619
587.989	38338.95769
588.192	38256.61202
588.395	38308.07645
588.599	37894.45155
588.802	38351.31073
589.005	38170.16381
589.208	38474.85842
589.411	38509.86935
589.615	37820.40466
589.818	38394.54884
590.021	38254.55356
590.224	38497.51226
590.427	38005.54162
590.63	38139.29307
590.833	37762.81982
591.036	37824.5181
591.239	38192.80356
591.442	38067.26868
591.645	38124.88737
591.848	38102.25067
592.051	38724.11019
592.254	38909.59058
592.457	39091.02251
592.66	39173.51601
592.863	39148.76634
593.066	38946.6957
593.269	38633.45794
593.472	38664.36014
593.675	38687.02305
593.878	39111.64444
594.081	39076.58773
594.284	39419.02636
594.486	39546.99502
594.689	39340.61294
594.892	38936.38842
595.095	39705.97807
595.298	39518.09549
595.5	38996.17394
595.703	39976.59671
595.906	39966.26445
596.109	39588.2835
596.311	39941.46809
596.514	39625.44662
596.717	39767.936
596.92	40088.20214
597.122	39483.00586
597.325	39528.41652
597.528	39538.73781
597.73	39945.60071
597.933	39210.64312
598.136	39728.6949
598.338	39701.84787
598.541	40218.44807
598.743	40131.61269
598.946	39986.92924
599.148	39856.75867
599.351	39912.54093
599.554	40195.70362
599.756	40228.78689
599.959	40559.77438
600.161	40605.30746
600.363	40559.77438
600.566	40266.0089
600.768	40385.97063
600.971	40026.19528
601.173	39920.80562
601.376	40234.99031
601.578	40203.97418
601.78	40580.47056
601.983	40038.59589
602.185	40278.41702
602.388	40810.27425
602.59	40787.49464
602.792	40394.24522
602.995	40744.01013
603.197	40241.19383
603.399	40474.93177
603.601	40594.95855
603.804	40712.95286
604.006	41515.07048
604.208	41365.70472
604.41	40878.62145
604.613	40990.48952
604.815	40474.93177
605.017	40895.19236
605.219	40872.40755
605.421	40400.45128
605.623	40719.16411
605.826	41220.54778
606.028	40394.24522
606.23	40572.19195
606.432	40303.23445
606.634	41104.4642
606.836	41077.52153
607.038	41121.0453
607.24	40888.97818
607.442	40975.98619
607.644	40864.12251
607.846	40996.70541
608.048	40830.9842
608.25	41232.98751
608.452	41434.15625
608.654	41216.40129
608.856	41253.72135
609.058	41011.20955
609.26	41172.8661
609.462	41556.57212
609.664	41259.94173
609.866	41023.64213
610.067	41216.40129
610.269	40891.04957
610.471	41019.49789
610.673	41320.07765
610.875	41409.26326
611.077	41065.08712
611.278	40830.9842
611.48	41307.63491
611.682	41438.30525
611.884	41486.02222
612.085	40845.48185
612.287	41427.93284
612.489	40984.27374
612.69	41318.00383
612.892	41456.97634
613.094	41154.20976
613.295	40895.19236
613.497	40913.83552
613.699	41050.58084
613.9	41454.90173
614.102	41434.15625
614.304	41415.48635
614.505	41019.49789
614.707	41706.01853
614.908	40905.54956
615.11	41450.75254
615.311	41691.48623
615.513	41475.64842
615.714	41577.32477
615.916	42036.27322
616.117	41224.69431
616.319	41469.42429
616.52	41210.18166
616.722	41427.93284
616.923	41506.77073
617.124	41423.78396
617.326	41092.02888
617.527	41421.70954
617.729	41293.11892
617.93	41527.52046
618.131	41423.78396
618.333	40071.66604
618.534	40572.19195
618.735	41087.88386
618.937	41150.06404
619.138	41011.20955
619.339	40812.34519
619.54	41075.4491
619.742	40922.12168
619.943	41158.35553
620.144	41262.01521
620.345	41336.66864
620.546	41631.28738
620.748	41643.74147
620.949	41311.78244
621.15	41789.07187
621.351	41421.70954
621.552	41992.63658
621.753	41241.2809
621.954	41961.47094
622.155	41583.55081
622.356	41585.62617
622.558	41826.45234
622.759	41593.92777
622.96	41334.59472
623.161	41405.1146
623.362	41181.15812
623.563	41988.48099
623.764	41336.66864
623.965	41625.06051
624.166	41133.48162
624.366	41253.72135
624.567	41434.15625
624.768	41967.70384
624.969	41060.94241
625.17	41438.30525
625.371	41036.07514
625.572	41326.29918
625.773	41658.27179
625.973	41801.53158
626.174	41791.14846
626.375	41791.14846
626.576	41440.37976
626.777	41544.12112
626.977	41421.70954
627.178	41901.22535
627.379	41706.01853
627.58	42152.66479
627.78	41780.76565
627.981	41612.60708
628.182	42267.01664
628.382	42119.40601
628.583	41921.9985
628.784	42185.92681
628.984	41581.47545
629.185	42059.13272
629.386	41751.69542
629.586	42096.54248
629.787	42034.19516
629.987	42352.28585
630.188	41946.92794
630.388	41695.63825
630.589	41228.84088
630.79	41573.17414
630.99	41654.12021
631.191	42364.76608
631.391	42106.9348
631.591	42163.05882
631.792	42196.32186
631.992	42227.50892
632.193	41674.87862
632.393	41805.68492
632.594	41710.17073
632.794	41415.48635
632.994	41668.65097
633.195	41467.3496
633.395	41579.4001
633.595	41104.4642
633.796	41407.18893
633.996	41784.91874
634.196	41670.72684
634.397	42753.96637
634.597	41998.87004
634.797	42695.66145
634.997	42196.32186
635.198	42175.53208
635.398	42414.69161
635.598	41878.37633
635.798	41892.91644
635.998	41982.24772
636.199	41770.38315
636.399	42173.45317
636.599	41853.45184
636.799	42127.7204
636.999	42071.60219
637.199	42502.07915
637.399	42200.47997
637.599	42558.26889
637.799	41639.59006
637.999	41967.70384
638.199	42416.77201
638.399	41984.32546
638.599	41486.02222
638.799	42533.29451
638.999	42061.21094
639.199	42250.38125
639.399	42163.05882
639.599	42616.54972
639.799	42368.92626
639.999	42683.16888
640.199	42079.91541
640.399	42281.57327
640.599	40392.17656
640.799	42691.49721
640.998	42683.16888
641.198	42597.81549
641.398	42229.58816
641.598	43108.18195
641.798	42443.81827
641.997	42616.54972
642.197	42597.81549
642.397	43185.32668
642.597	42837.27693
642.796	42816.44732
642.996	42595.73397
643.196	42660.26704
643.395	42343.96596
643.595	42591.57098
643.795	42000.94789
643.994	42901.85708
644.194	42472.94744
644.394	42897.69023
644.593	42958.11463
644.793	42666.51284
644.992	42728.97729
645.192	42881.02339
645.392	42379.32693
645.591	42406.37018
645.791	42489.59382
645.99	43076.91225
646.19	42545.78147
646.389	42806.03301
646.589	42803.95019
646.788	42291.97126
646.987	42140.19236
647.187	42766.46162
647.386	42052.89816
647.586	42747.71892
647.785	42891.44007
647.984	42968.53375
648.184	42918.52498
648.383	42256.61942
648.582	42217.11291
648.782	42799.78458
648.981	42450.06002
649.18	42524.97013
649.38	42543.70028
649.579	43120.69067
649.778	43373.05243
649.977	43778.07699
650.177	43304.20705
650.376	43293.77721
650.575	42539.53793
650.774	43131.11496
650.973	42797.7018
651.173	42701.90792
651.372	42531.21339
651.571	43168.64519
651.77	43471.13022
651.969	43245.80424
652.168	42814.36443
652.367	42458.38254
652.566	43135.28478
652.765	43329.24004
652.964	43771.80984
653.163	43208.26512
653.362	43316.7233
653.561	43191.58246
653.76	43206.17974
653.959	43087.33515
654.158	43608.90681
654.357	43124.86035
654.556	42710.23672
654.755	43291.69128
654.954	42947.69584
655.153	42739.38918
655.352	43087.33515
655.551	42439.65716
655.749	43033.13969
655.948	42937.27738
656.147	43202.00902
656.346	43567.15011
656.545	43272.91853
656.743	43229.11966
656.942	43398.09074
657.141	43406.43727
657.34	43306.29306
657.538	43782.25516
657.737	43592.20348
657.936	44231.72765
658.135	43884.63738
658.333	44020.50118
658.532	43667.37531
658.731	43087.33515
658.929	43243.71862
659.128	43151.96456
659.326	43204.09438
659.525	43500.35064
659.724	43437.73869
659.922	43709.14504
660.121	43162.38985
660.319	43058.15187
660.518	42985.20503
660.716	43189.49719
660.915	43160.30477
661.113	43448.17317
661.312	42429.25462
661.51	42814.36443
661.709	42985.20503
661.907	42914.35792
662.105	42956.03084
662.304	43058.15187
662.502	43218.69222
662.701	43623.52294
662.899	42860.19102
663.097	43066.48968
663.296	43418.95748
663.494	43890.90674
663.692	43492.00168
663.891	43083.16595
664.089	43164.47495
664.287	43479.47864
664.485	43006.04533
664.684	43615.17079
664.882	43222.86316
665.08	43389.74442
665.278	43775.98793
665.476	44072.7719
665.675	43855.38197
665.873	43502.43791
666.071	43325.06774
666.269	43780.16607
666.467	43585.93996
666.665	44133.41669
666.863	42764.37904
667.061	43293.77721
667.259	43129.03008
667.457	43104.01248
667.655	42604.06012
667.853	42335.64627
668.051	42703.9901
668.249	42751.88388
668.447	42547.86267
668.645	42447.97942
668.843	42833.1109
669.041	42962.28224
669.239	43156.13464
669.437	43364.70675
669.635	42987.289
669.833	42958.11463
670.031	42499.99823
670.229	42560.35018
670.426	42296.13054
670.624	42210.87547
670.822	41774.53611
671.02	42319.0075
671.218	42412.61124
671.415	42947.69584
671.613	42574.91952
671.811	42999.7931
672.009	42960.19843
672.206	42889.35671
672.404	42728.97729
672.602	42314.84794
672.799	42985.20503
672.997	43583.85214
673.195	42981.03713
673.392	42597.81549
673.59	42683.16888
673.788	41872.14504
673.985	41635.4387
674.183	42385.56749
674.38	42277.41417
674.578	42169.29539
674.775	41718.47527
674.973	41849.29794
675.17	42136.03499
675.368	42133.95632
675.565	42535.37564
675.763	42685.25094
675.96	41838.91339
676.158	42487.51298
676.355	41971.85917
676.553	43099.84307
676.75	41676.95452
676.947	41818.14522
677.145	41558.64733
677.342	41982.24772
677.539	41971.85917
677.737	42366.84616
677.934	42404.28985
678.131	42188.0058
678.329	42356.44588
678.526	42314.84794
678.723	42679.00479
678.92	42514.56494
679.118	41953.16057
679.315	41625.06051
679.512	41946.92794
679.709	42791.45352
679.906	41645.81719
680.104	41996.79221
680.301	41241.2809
680.498	41357.40846
680.695	41407.18893
680.892	41002.9214
681.089	41398.8917
681.286	41668.65097
681.483	40940.76619
681.68	41247.50107
681.877	41299.33999
682.075	41479.7979
682.272	41355.33442
682.469	41961.47094
682.665	41411.33761
682.862	41318.00383
683.059	41311.78244
683.256	40541.14878
683.453	40899.33521
683.65	40731.58692
683.847	41467.3496
684.044	40779.21148
684.241	41004.99342
684.438	41376.07532
684.635	40808.20332
684.831	40789.56545
685.028	40307.37084
685.225	40282.55315
685.422	39945.60071
685.619	39842.29785
685.815	39629.57606
686.012	39976.59671
686.209	39538.73781
686.405	40181.23057
686.602	40038.59589
686.799	39945.60071
686.996	39875.35191
687.192	39689.45752
687.389	39243.64765
687.586	40108.87324
687.782	39991.06233
687.979	39838.16628
688.175	39807.18085
688.372	39809.24647
688.568	39852.62695
688.765	40303.23445
688.962	39672.93764
689.158	40336.32681
689.355	39900.14421
689.551	40168.82551
689.748	40630.14598
689.944	40508.03884
690.14	40330.12178
690.337	40654.98614
690.533	40592.8888
690.73	40361.14793
690.926	40636.35587
691.123	39918.73943
691.319	40437.68972
691.515	40294.9618
691.712	39792.72178
691.908	39416.96266
692.104	39681.1975
692.301	39167.32846
692.497	39008.54435
692.693	39008.54435
692.889	39119.89348
693.086	39192.07917
693.282	39363.31009
693.478	39544.9307
693.674	39282.84377
693.87	39258.08791
694.067	39301.41159
694.263	39346.80295
694.459	39266.33971
694.655	39555.25239
694.851	38845.69442
695.047	39212.70583
695.243	39200.32972
695.439	38707.62665
695.635	38934.32699
695.831	39181.7662
696.027	38540.76348
696.224	38994.11224
696.42	39371.5639
696.615	39394.26268
696.811	39295.22223
697.007	39299.34846
697.203	39573.83207
697.399	39392.1991
697.595	39014.72969
697.791	38810.65838
697.987	38804.47583
698.183	39301.41159
698.379	38425.43556
698.575	39256.02499
698.77	39146.70393
698.966	38293.66587
699.162	38211.32775
699.358	38919.89725
699.554	38728.23116
699.749	38866.3051
699.945	38260.72898
700.141	38143.40905
700.337	38534.5845
700.532	38371.89983
700.728	38116.65573
700.924	37703.18493
701.119	37487.32039
701.315	37129.78483
701.511	37324.96336
701.706	37970.56624
701.902	37470.87704
702.097	38443.96854
702.293	38684.96274
702.489	37877.99578
702.684	37651.78086
702.88	37908.85077
703.075	38133.11914
703.271	37639.44461
703.466	37818.34795
703.662	37766.93281
703.857	37668.22963
704.053	37483.20951
704.248	37583.93495
704.443	37824.5181
704.639	38028.17401
704.834	38040.51937
705.03	38089.90381
705.225	37843.02899
705.42	38091.9616
705.616	38722.04971
705.811	37789.55486
706.006	37618.88482
706.202	37867.71119
706.397	37131.83901
706.592	37738.14251
706.787	37999.36932
706.983	37542.8203
707.178	37742.25531
707.373	37448.26822
707.568	37111.29761
707.763	36922.34987
707.959	37783.38511
708.154	38137.23508
708.349	37585.99076
708.544	37308.52474
708.739	36979.84945
708.934	37296.19608
709.129	37431.82602
709.324	37199.63068
709.519	37458.54484
709.714	37121.56822
709.909	36854.58944
710.104	36323.02239
710.299	37010.65503
710.494	36651.35217
710.689	36489.21905
710.884	35857.47172
711.079	36602.09228
711.274	36470.75073
711.469	37201.6851
711.664	37012.70879
711.859	37250.99325
712.054	36992.17149
712.249	36708.8268
712.443	36323.02239
712.638	36316.86774
712.833	36187.63273
713.028	37189.35871
713.223	36684.19418
713.417	37068.163
713.612	36524.10507
713.807	36421.50436
714.002	36318.91929
714.196	36310.71315
714.391	36058.42143
714.586	36528.20943
714.78	36138.40662
714.975	36509.74002
715.17	36087.13303
715.364	36988.06412
715.559	36474.85476
715.754	35718.06884
715.948	36335.33186
716.143	36269.68392
716.337	35529.50462
716.532	36563.09751
716.726	36304.55861
716.921	36719.09068
717.115	36269.68392
717.31	36214.29831
717.504	35918.98115
717.699	35951.78824
717.893	35800.06746
718.088	35099.2479
718.282	35117.68307
718.476	35459.82906
718.671	35470.07509
718.865	35541.80093
719.059	35185.28198
719.254	35357.37569
719.448	35718.06884
719.642	35966.14181
719.837	35086.958
720.031	35404.50267
720.225	34964.06817
720.419	34994.78907
720.614	35129.9734
720.808	34800.24045
721.002	34673.29326
721.196	34562.73963
721.39	34667.15107
721.585	34828.90825
721.779	34771.57351
721.973	34323.24749
722.167	33967.17665
722.361	34693.7675
722.555	34755.19278
722.749	34337.57456
722.943	34474.71478
723.137	33956.94635
723.331	34179.98713
723.525	34372.36966
723.719	34401.02529
723.913	34675.34066
724.107	34466.52681
724.301	34298.68724
724.495	34188.17294
724.689	34503.37321
724.883	33752.35848
725.077	34747.00252
725.271	34587.30605
725.465	34787.95451
725.659	34673.29326
725.853	34759.28793
726.046	34613.92035
726.24	33879.19894
726.434	33944.67011
726.628	35037.80007
726.822	34632.34605
727.015	34769.5259
727.209	34231.14941
727.403	34431.72862
727.596	34435.82246
727.79	34120.64179
727.984	34208.63772
728.177	34122.68813
728.371	34063.34577
728.565	34169.75495
728.758	34157.47646
728.952	34654.86681
729.146	34527.93821
729.339	34308.92061
729.533	34028.56029
729.726	33555.9853
729.92	34227.05634
730.113	34704.00478
730.307	34925.15649
730.5	33680.76065
730.694	34055.16086
730.887	33817.8229
731.081	34413.30652
731.274	34378.51008
731.468	33850.55641
731.661	33627.57626
731.854	33603.03035
732.048	34433.77554
732.241	34128.82717
732.435	34079.71577
732.628	33850.55641
732.821	34059.25331
733.014	34241.38215
733.208	33956.94635
733.401	33752.35848
733.594	33136.74134
733.788	33277.83899
733.981	33457.80964
734.174	33513.03257
734.367	33605.07583
734.56	33883.29078
734.754	33811.68547
734.947	33967.17665
735.14	33742.12997
735.333	33539.6222
735.526	33519.16859
735.719	33461.90015
735.912	33703.26239
736.105	33858.73992
736.298	33502.80593
736.491	33335.09989
736.684	33155.14462
736.877	33568.25776
737.07	33600.98488
737.263	33868.96939
737.456	33390.31795
737.649	33521.21394
737.842	33157.18944
738.035	33124.47261
738.228	32631.75692
738.421	32997.70149
738.614	33470.08121
738.807	33302.3791
739	33257.38922
739.192	32962.94346
739.385	32922.05264
739.578	32807.56382
739.771	33061.08575
739.964	32783.03154
740.156	33496.66999
740.349	33570.30318
740.542	33416.90519
740.735	33108.11446
740.927	33095.84596
741.12	32355.81604
741.313	33353.50567
741.505	33128.56218
741.698	33042.6836
741.891	33163.32393
742.083	33279.88398
742.276	33046.77295
742.468	33386.22765
742.661	33574.39404
742.854	33582.57578
743.046	33508.94191
743.239	33142.87574
743.431	33349.41548
743.624	33304.42412
743.816	33263.52412
744.009	33668.48713
744.201	32987.47846
744.393	32533.63984
744.586	32531.59579
744.778	32225.01371
744.971	32419.1766
745.163	32545.90418
745.355	32668.55223
745.548	32545.90418
745.74	32783.03154
745.932	32758.49961
746.125	32519.33154
746.317	32413.04484
746.509	32173.92139
746.702	31922.56555
746.894	32069.69704
747.086	31920.52213
747.278	31834.70009
747.471	32108.5251
747.663	32118.74314
747.855	32505.02336
748.047	32505.02336
748.239	32785.07588
748.431	32494.8033
748.623	32206.62032
748.815	31795.87692
749.008	31726.4055
749.2	31528.21887
749.392	31673.2817
749.584	30927.62246
749.776	31938.913
749.968	31889.87102
750.16	31720.27577
750.352	31703.9299
750.544	31074.69518
750.736	31693.71379
750.928	31832.65675
751.12	31328.00514
751.311	31072.65245
751.503	31023.62742
751.695	30798.93983
751.887	30745.83429
752.079	30749.9193
752.271	30592.6503
752.463	30758.08934
752.654	30631.45621
752.846	30627.37136
753.038	30392.50077
753.23	30629.41379
753.421	30339.40188
753.613	30231.16437
753.805	30637.58351
753.997	30729.49431
754.188	30439.47356
754.38	30676.38997
754.572	30847.96113
754.763	31056.31068
754.955	30741.74929
755.146	31013.41397
755.338	30674.34751
755.53	30790.76968
755.721	30639.62594
755.913	30723.36684
756.104	30725.40933
756.296	30613.07441
756.487	30615.11682
756.679	30245.4597
756.87	29585.89071
757.062	30020.82547
757.253	30349.61314
757.445	30341.44413
757.636	29998.36282
757.827	30241.37531
758.019	29920.76561
758.21	30171.94149
758.401	29961.60604
758.593	30116.80383
758.784	30065.75119
758.975	30043.28826
759.167	29477.67515
759.358	30165.81504
759.549	29661.43919
759.74	30047.37242
759.932	29914.63958
760.123	30139.26722
760.314	30014.69928
760.505	29677.7742
760.696	29618.56014
760.888	29330.67011
761.079	29144.87983
761.27	28948.89062
761.461	29316.37824
761.652	29361.29571
761.843	29432.75637
762.034	29616.5183
762.225	29099.96479
762.416	29228.58647
762.607	28683.50383
762.798	28695.75206
762.989	28471.20714
763.18	28848.85815
763.371	28848.85815
763.562	28734.53839
763.753	28238.51054
763.944	28646.75936
764.135	28444.67085
764.326	28801.905
764.517	28214.01698
764.708	28322.19805
764.899	27693.5671
765.089	28052.77168
765.28	28209.93474
765.471	28246.67509
765.662	27860.91932
765.853	27836.42826
766.043	27936.43447
766.234	27916.02481
766.425	27287.46583
766.615	27603.77165
766.806	27554.7933
766.997	27297.66877
767.187	27434.39122
767.378	27681.32213
767.569	27301.74995
767.759	27350.72456
767.95	27881.32866
768.141	27693.5671
768.331	27824.18279
768.522	27183.39775
768.712	27409.9032
768.903	27446.6353
769.093	26885.49688
769.284	27179.31672
769.474	27122.18285
769.665	27114.02096
769.855	27214.00565
770.046	27620.09792
770.236	27752.75174
770.426	27701.73044
770.617	27332.35899
770.807	27185.43827
770.998	27289.50641
771.188	27220.12727
771.378	26771.24152
771.569	27279.3035
771.759	26663.11125
771.949	26691.67355
772.139	26881.41625
772.33	26206.15627
772.52	26610.06776
772.71	26628.42885
772.9	26722.27635
773.09	26422.38384
773.281	26620.26835
773.471	26185.75842
773.661	26077.65266
773.851	26038.89896
774.041	26063.37491
774.231	25775.79903
774.421	26071.53361
774.611	26340.78635
774.802	26336.70654
774.992	26408.10409
775.182	26214.31546
775.372	25665.67343
775.562	25681.98798
775.752	26142.92348
775.942	25906.32541
776.131	25567.78878
776.321	25514.76984
776.511	25471.94785
776.701	25529.04403
776.891	25041.74045
777.081	25023.39255
777.271	25268.04614
777.461	25524.96568
777.651	25123.28891
777.84	25021.3539
778.03	25127.36643
778.22	24833.80844
778.41	25035.62446
778.599	25058.04986
778.789	24695.20074
778.979	24638.13026
779.169	24607.55758
779.358	24336.50482
779.548	24756.34982
779.738	24625.90112
779.927	25198.72441
780.117	25282.31858
780.307	25162.02568
780.496	24784.8868
780.686	25188.53025
780.875	24464.89257
781.065	24481.19651
781.254	24534.18545
781.444	24391.52687
781.633	24409.86798
781.823	24615.71024
782.012	23814.91293
782.202	23953.44286
782.391	23588.81239
782.581	23981.96537
782.77	23949.36826
782.96	24106.24847
783.149	23603.06989
783.338	23914.73463
783.528	23562.33456
783.717	24100.13594
783.906	23967.70404
784.096	23749.72703
784.285	23835.28414
784.474	23470.68457
784.663	23690.65493
784.853	23328.13046
785.042	23344.42157
785.231	23425.88019
785.42	23440.13597
785.61	23586.77561
785.799	23407.55157
785.988	23574.55503
786.177	23014.56673
786.366	23389.22319
786.555	23334.2396
786.744	23057.32084
786.933	23112.29256
787.122	23230.38804
787.312	23344.42157
787.501	23334.2396
787.69	23379.04087
787.879	23425.88019
788.068	22802.85395
788.257	22652.23477
788.445	22613.56537
788.634	22578.96751
788.823	22271.70261
789.012	22721.43582
789.201	22825.24491
789.39	22572.86211
789.579	22086.57008
789.768	22159.80564
789.957	22375.47158
790.145	22302.22191
790.334	22855.7787
790.523	22524.02008
790.712	22798.78292
790.9	22788.60538
791.089	22642.05849
791.278	22631.8823
791.467	22115.05
791.655	22391.74993
791.844	22265.59885
792.033	21903.50258
792.221	21791.64324
792.41	22346.98504
792.599	21779.44111
792.787	22355.12398
792.976	21834.3518
793.164	21962.48764
793.353	22176.08086
793.541	22102.84423
793.73	22192.35633
793.918	22306.29121
794.107	21962.48764
794.295	22100.80995
794.484	21868.92663
794.672	21299.60279
794.861	21145.12596
795.049	21287.4064
795.238	21256.91607
795.426	21470.3674
795.614	21283.34097
795.803	21506.96348
795.991	21417.50867
796.179	21358.55404
796.368	21112.60751
796.556	21380.91575
796.744	21063.83178
796.932	21021.15496
797.121	20880.94385
797.309	20795.60757
797.497	20580.2676
797.685	20641.20813
797.874	20529.48669
798.062	20466.522
798.25	20401.5304
798.438	20726.53117
798.626	20694.02629
798.814	20631.05112
799.002	20350.75871
799.19	20328.41999
799.378	20454.33575
799.566	20726.53117
799.755	20429.9637
799.943	20503.08165
800.131	20344.66628
800.318	20718.40485
800.506	21008.96191
800.694	20828.11577
800.882	20598.54936
801.07	20596.51804
801.258	20295.92822
801.446	21004.8976
801.634	20539.64267
801.822	20458.39781
802.01	20799.67104
802.197	20807.79802
802.385	20842.33844
802.573	20864.68876
802.761	20817.95685
802.949	20927.67871
803.136	20336.5431
803.324	20651.36525
803.512	20397.46857
803.699	20466.522
803.887	20781.38557
804.075	20761.06877
804.262	20679.80574
804.45	20759.03712
804.638	20582.29889
804.825	20854.52946
805.013	20738.72078
805.201	20602.61203
805.388	20356.85117
805.576	20326.38923
805.763	20590.42409
805.951	20070.5462
806.138	19916.26047
806.326	20293.89752
806.513	19861.45428
806.701	19914.23056
806.888	19843.18623
807.075	20679.80574
807.263	20267.49881
807.45	20720.43643
807.638	20381.22141
807.825	20419.80886
808.012	20044.1535
808.2	20608.70605
808.387	20490.89495
808.574	20618.86283
808.761	20547.76752
808.949	20856.56132
809.136	20364.97452
809.323	20494.95717
809.51	20415.74695
809.698	20304.05107
809.885	20218.76458
810.072	20785.44898
810.259	20316.23545
810.446	19934.52988
810.633	19883.78236
810.82	19796.50276
811.008	19670.67142
811.195	20574.17375
811.382	20440.11865
811.569	20578.23631
811.756	20466.522
811.943	20893.13535
812.13	20964.25534
812.317	21114.63988
812.504	20757.00546
812.691	21242.68755
812.878	20992.70475
813.064	20964.25534
813.251	20742.78401
813.438	20899.23115
813.625	20505.11279
813.812	20931.74272
813.999	20868.75251
814.186	20730.59436
814.372	20570.11121
814.559	20891.10342
814.746	20446.21166
814.933	20196.42887
815.12	20393.40676
815.306	20444.18065
815.493	20584.33018
815.68	20450.2737
815.866	20109.12143
816.053	20127.39444
816.24	19601.67396
816.426	20143.6374
816.613	20109.12143
816.799	20322.32771
816.986	20082.72769
817.173	20023.8519
817.359	19934.52988
817.546	20308.11251
817.732	20046.18368
817.919	20086.78822
818.105	19952.79963
818.292	19808.68084
818.478	19950.76964
818.665	20405.59225
818.851	20460.42885
819.037	20748.87889
819.224	20251.2538
819.41	20172.06322
819.597	19835.06721
819.783	20212.67297
819.969	20040.09315
820.156	20023.8519
820.342	20064.45551
820.528	20080.69743
820.714	19869.57352
820.901	19954.82962
821.087	19794.47309
821.273	20241.1008
821.459	19859.42448
821.646	19971.06972
821.832	19772.14705
822.018	19660.52443
822.204	19524.56488
822.39	19550.94362
822.576	19062.03593
822.762	19173.59133
822.948	19011.33299
823.134	19189.8186
823.32	19035.67008
823.507	19837.09696
823.693	19518.47757
823.879	19362.24959
824.065	19589.49844
824.25	19666.61261
824.436	19398.76822
824.622	19721.40792
824.808	19189.8186
824.994	18944.40899
825.18	18640.26381
825.366	18895.73974
825.552	18705.14064
825.738	19128.96769
825.923	18849.10054
826.109	18751.77335
826.295	18695.00337
826.481	18903.85112
826.667	18824.76788
826.852	18857.21155
827.038	19120.85451
827.224	19191.84703
827.409	18978.88444
827.595	18826.79558
827.781	18761.91117
827.966	18820.7125
828.152	18654.45527
828.338	18453.76509
828.523	18382.82301
828.709	18538.90175
828.894	18565.25495
829.08	18439.5763
829.266	18472.00809
829.451	18549.03752
829.637	18378.76932
829.822	18319.99248
830.008	18214.60739
830.193	18200.4217
830.378	18165.9715
830.564	18099.10058
830.749	18153.81285
830.935	18289.5919
831.12	18011.97164
831.305	18388.90358
831.491	18074.78486
831.676	18157.86572
831.861	17821.52652
832.047	18048.44341
832.232	17876.22569
832.417	18251.08571
832.602	17949.16185
832.788	18044.39094
832.973	18070.73229
833.158	17764.80409
833.343	17922.82327
833.528	17857.99235
833.714	17335.41783
833.899	17080.28196
834.084	17712.13564
834.269	17831.6558
834.454	17596.67806
834.639	17961.31832
834.824	17548.06752
835.009	17495.40819
835.194	17390.09592
835.379	17495.40819
835.564	16922.363
835.749	17179.49601
835.934	17333.39276
836.119	17262.51714
836.304	17292.89196
836.489	17728.34107
836.674	17373.89477
836.859	17588.57618
837.044	17483.25634
837.228	17369.84451
837.413	17104.57865
837.598	17801.2682
837.783	17039.78835
837.968	17347.56833
838.152	16975.00084
838.337	17171.39665
838.522	16960.82894
838.707	17199.74462
838.891	16926.412
839.076	17309.09214
839.261	16598.475
839.445	16855.55596
839.63	16748.26552
839.815	16847.45832
839.999	16333.33448
840.184	16521.56034
840.368	16165.36176
840.553	16300.95324
840.737	16185.5988
840.922	16092.50974
841.106	16392.02672
841.291	16410.24189
841.475	16444.64875
841.66	16078.34431
841.844	16023.70689
842.029	16098.58066
842.213	15871.94163
842.397	15902.2941
842.582	15544.15007
842.766	16019.65972
842.951	15740.41728
843.135	15855.75376
843.319	15932.64684
843.504	15813.26096
843.688	16013.58897
843.872	16011.56539
844.056	16056.08449
844.241	16039.89565
844.425	15584.61692
844.609	15740.41728
844.793	15619.01397
844.977	16072.27343
845.161	15699.94914
845.346	15861.8242
845.53	15942.76449
845.714	15902.2941
845.898	15440.96079
846.082	15364.07552
846.266	15380.26185
846.45	15677.69183
846.634	15489.52026
846.818	15554.26676
847.002	15064.63082
847.186	15307.42357
847.37	14785.41535
847.554	14793.5087
847.738	14761.13523
847.922	15139.4919
848.106	14927.04747
848.29	14556.77238
848.473	14898.72127
848.657	14651.8732
848.841	14566.88961
849.025	14720.66812
849.209	14704.48117
849.392	14577.00681
849.576	14589.14741
849.76	14631.63919
849.944	14904.79118
850.127	15220.42273
850.311	14898.72127
850.495	14680.20065
850.678	14664.01356
850.862	15054.51444
851.046	14617.47531
851.229	14941.21054
851.413	14825.88198
851.596	14659.96678
851.78	14577.00681
851.964	14653.8966
852.147	14143.9574
852.331	14346.32635
852.514	14235.02579
852.698	14279.54667
852.881	13486.08625
853.065	13842.38669
853.248	14006.33462
853.431	14115.62415
853.615	14394.89224
853.798	14105.50503
853.982	13876.79698
854.165	13710.81017
854.348	13755.34519
854.532	14168.2427
854.715	13899.06203
854.898	13858.57987
855.081	13585.29395
855.265	13795.83029
855.448	13530.62955
855.631	13838.33837
855.814	13846.435
855.997	13741.17512
856.181	13569.09736
856.364	13619.71097
856.547	13565.04818
856.73	13536.7035
856.913	13421.29274
857.096	13613.63745
857.279	13396.99415
857.462	13538.72815
857.645	13384.84464
857.828	13737.1265
858.011	13315.99469
858.194	13554.92516
858.377	13315.99469
858.56	13599.46579
858.743	13372.69499
858.926	13131.69546
859.109	13099.28731
859.292	13315.99469
859.475	13072.9548
859.658	13008.13281
859.841	13301.8191
860.023	13591.36762
860.206	13162.077
860.389	13352.44525
860.572	13249.16511
860.755	13121.56804
860.937	13010.15858
861.12	13042.57012
861.303	12694.07539
861.486	12862.26431
861.668	12538.00851
861.851	12781.21427
862.034	12517.73739
862.216	12610.97936
862.399	12270.37637
862.581	12426.50932
862.764	12049.2841
862.947	12026.96703
863.129	12016.82259
863.312	12100.00123
863.494	12367.71079
863.677	12077.68629
863.859	12041.16891
864.042	11901.16185
864.224	12006.67795
864.406	12104.05839
864.589	11917.39653
864.771	11945.80595
864.954	11720.51476
865.136	11740.81558
865.318	11757.05561
865.501	11738.78554
865.683	11612.90555
865.865	11551.98334
866.048	11608.84432
866.23	11718.48463
866.412	11681.94077
866.594	11850.42508
866.777	11803.74261
866.959	11606.8137
867.141	11151.71074
867.323	11407.76701
867.505	11190.33287
867.687	11493.0839
867.869	11210.65878
868.052	11424.01916
868.234	11312.27284
868.416	11381.35592
868.598	11188.30022
868.78	11346.81582
868.962	11125.28287
869.144	11224.8863
869.326	11163.90762
869.508	11346.81582
869.69	11151.71074
869.872	11192.36551
870.054	11462.61553
870.236	11361.03856
870.417	11308.20876
870.599	11074.45494
870.781	10940.23631
870.963	11109.01866
871.145	11052.08851
871.327	11224.8863
871.508	10972.77861
871.69	11312.27284
871.872	11237.08091
872.054	11523.55012
872.235	10883.28031
872.417	10982.94749
872.599	10867.00552
872.78	11214.72384
872.962	11019.55315
873.144	10795.79458
873.325	10844.62648
873.507	10909.72528
873.689	10974.81241
873.87	11039.88808
874.052	10948.37215
874.233	11137.48057
874.415	10828.34993
874.596	11243.17808
874.778	10962.60945
874.959	10995.14977
875.141	11084.62107
875.322	11259.43673
875.503	10812.07263
875.685	11137.48057
875.866	10771.3761
876.048	10655.3648
876.229	10771.3761
876.41	10751.02606
876.592	10669.61392
876.773	10852.76447
876.954	10708.28709
877.136	10956.50782
877.317	10842.59195
877.498	10875.14301
877.679	10677.756
877.86	10974.81241
878.042	10826.3153
878.223	11098.85319
878.404	10478.21789
878.585	10746.95591
878.766	10201.10265
878.947	10836.48829
879.128	10775.44596
879.309	10753.06112
879.49	10824.28067
879.672	11208.62624
879.853	10895.48592
880.034	11326.49677
880.215	11062.25523
880.396	11141.54639
880.576	10962.60945
880.757	11035.82118
880.938	11045.98834
881.119	11163.90762
881.3	10871.07429
881.481	10871.07429
881.662	10689.96876
881.843	10925.99815
882.023	10626.86476
882.204	10427.29586
882.385	10254.09967
882.566	10433.40693
882.747	10378.40308
882.927	10834.45372
883.108	11013.45245
883.289	11064.28854
883.469	10816.14202
883.65	10923.96408
883.831	10604.47018
884.011	10871.07429
884.192	10838.52286
884.373	11039.88808
884.553	10677.756
884.734	10938.20232
884.914	10533.20468
885.095	10573.9297
885.275	10451.73944
885.456	10708.28709
885.636	10675.7205
885.817	11043.95493
885.997	10938.20232
886.178	11078.52142
886.358	11041.92151
886.538	11096.82006
886.719	10954.47392
886.899	11192.36551
887.08	11373.2291
887.26	11367.13387
887.44	11117.15085
887.621	11184.23489
887.801	11060.22191
887.981	11100.8863
888.161	10883.28031
888.342	10921.93
888.522	10667.57836
888.702	11304.14465
888.882	10803.9337
889.062	10911.75943
889.242	10980.91373
889.423	11119.18387
889.603	10840.55741
889.783	11009.38527
889.963	10950.40609
890.143	11031.75424
890.323	10907.69112
890.503	11139.51349
890.683	10980.91373
890.863	10989.04868
891.043	10791.72495
891.223	11174.07139
891.403	11009.38527
891.583	11549.95246
891.763	11005.31804
891.943	11251.30749
892.122	11194.39814
892.302	11584.47622
892.482	10848.6955
892.662	11192.36551
892.842	11102.91941
893.022	11182.20221
893.201	11172.03865
893.381	11285.85564
893.561	10946.33821
893.741	11015.48603
893.92	10744.92081
894.1	10738.81546
894.28	10645.18649
894.459	10901.58857
894.639	10895.48592
894.819	11153.74358
894.998	10950.40609
895.178	11210.65878
895.357	10887.34889
895.537	10881.246
895.716	10832.41913
895.896	11007.35166
896.075	11153.74358
896.255	11320.40086
896.434	10854.79894
896.614	11149.67789
896.793	10614.64972
896.973	10716.42825
897.152	10404.8876
897.331	10557.6403
897.511	10535.24106
897.69	10685.89789
897.87	10606.50612
898.049	10773.41104
898.228	10700.14573
898.407	10632.97212
898.587	10679.79149
898.766	10647.22218
898.945	10531.1683
899.124	10514.87678
899.304	10402.85041
899.483	10543.38641
899.662	10303.01186
899.841	10490.43798
900.02	10139.94072
900.199	10148.09636
900.378	9897.20656
900.557	10237.79387
900.737	9986.98068
900.916	10068.56928
901.095	9635.88151
901.274	10103.23756
901.453	9658.34895
901.632	10054.29293
901.811	9870.67697
901.989	9850.26788
902.168	9660.39135
902.347	9688.98334
902.526	9580.72617
902.705	9778.82434
902.884	9909.45015
903.063	9707.36232
903.242	9846.18589
903.42	9952.29857
903.599	10184.79402
903.778	10084.88427
903.957	9954.33881
904.135	9844.14487
904.314	9507.16786
904.493	9766.57503
904.672	9486.73134
904.85	9560.29537
905.029	9243.41185
905.207	9257.73124
905.386	9145.19945
905.565	9196.35661
905.743	8969.13656
905.922	9359.98886
906.1	9079.70267
906.279	9198.40268
906.457	9272.04981
906.636	9666.51846
906.814	9243.41185
906.993	9010.09291
907.171	9151.33887
907.35	9005.99759
907.528	8883.10517
907.707	9102.21917
907.885	9008.04526
908.063	8893.34865
908.242	8768.34746
908.42	8723.24848
908.598	8630.97279
908.777	8954.80017
908.955	8932.2698
909.133	9100.1723
909.311	8507.87971
909.49	8844.17587
909.668	8470.9385
909.846	8840.07767
910.024	8466.83354
910.202	8579.69224
910.38	8643.27838
910.559	8723.24848
910.737	8639.17659
910.915	8585.84652
911.093	8339.54163
911.271	8433.9911
911.449	8041.54833
911.627	8226.55879
911.805	8092.95642
911.983	8347.75626
912.161	7975.72748
912.339	7837.84714
912.517	7798.72984
912.695	7983.95623
912.872	7751.36723
913.05	7928.40584
913.228	7747.24822
913.406	7895.48003
913.584	7796.67082
913.762	7844.02287
913.939	7693.69343
914.117	7839.90573
914.295	7765.78311
914.473	7911.94359
914.65	7648.36669
914.828	7607.15166
915.006	7611.27355
915.184	7763.72376
915.361	7592.72439
915.539	7701.93356
915.716	7237.89338
915.894	7648.36669
916.072	7508.20073
916.249	7403.01102
916.427	6971.34276
916.604	7557.68237
916.782	7204.85296
916.959	7386.50556
917.137	7196.59197
917.314	7111.89635
917.492	7082.96732
917.669	7211.04847
917.847	7051.96706
918.024	7252.34678
918.201	6710.62885
918.379	6785.15545
918.556	6586.35174
918.733	6636.07253
918.911	6774.8063
919.088	7089.16676
919.265	6774.8063
919.442	7155.2817
919.62	6536.61764
919.797	6731.33366
919.974	6542.83513
920.151	6832.75415
920.328	6499.30832
920.506	6656.78561
920.683	6437.1094
920.86	6374.88955
921.037	6302.2732
921.214	6366.59199
921.391	5992.81376
921.568	6300.19803
921.745	6161.10807
921.922	6435.03574
922.099	6073.86362
922.276	6366.59199
922.453	6266.99207
922.63	6323.02365
922.807	6188.1039
922.984	6227.55222
923.161	5911.72806
923.338	6219.24801
923.514	5917.96669
923.691	5930.44333
923.868	5703.65204
924.045	5841.00869
924.222	5645.34846
924.399	5799.39632
924.575	5639.10055
924.752	5826.44543
924.929	5564.10909
925.105	5601.60864
925.282	5445.31016
925.459	5643.26585
925.635	5645.34846
925.812	5464.07297
925.989	5301.39876
926.165	5528.68584
926.342	5126.05193
926.518	5326.43485
926.695	5336.86556
926.871	5380.66814
927.048	5169.90406
927.224	5209.57095
927.401	4944.26995
927.577	4960.99283
927.754	4578.09226
927.93	4946.36039
928.107	4825.07697
928.283	5353.55348
928.459	4789.51383
928.636	5029.95911
928.812	4774.86827
928.988	4998.61391
929.165	4653.47675
929.341	4958.90255
929.517	4666.038
929.693	4839.71871
929.87	4282.56092
930.046	4446.10014
930.222	4462.8659
930.398	4494.2979
930.574	4234.31276
930.751	4444.00432
930.927	4165.06748
931.103	4397.89078
931.279	4179.7578
931.455	4332.89472
931.631	3961.39645
931.807	4320.31243
931.983	4074.80438
932.159	4246.90032
932.335	3652.37862
932.511	3978.2014
932.687	3643.9641
932.863	4003.40637
933.039	3578.74137
933.215	3734.40416
933.391	3427.18786
933.566	3597.67886
933.742	3568.21989
933.918	3679.7237
934.094	3557.69795
934.27	3536.65268
934.445	3265.00777
934.621	3309.24887
934.797	3130.13236
934.973	3227.0809
935.148	2817.98764
935.324	3159.64209
935.5	2900.27347
935.675	3090.07841
935.851	2849.63858
936.027	2923.47836
936.202	2697.68607
936.378	2798.99557
936.553	2564.67244
936.729	2693.46418
936.904	2378.79799
937.08	2220.3194
937.255	2000.48327
937.431	2114.63926
937.606	1964.54121
937.782	2199.18503
937.957	1721.36328
938.133	1977.22685
938.308	1725.59295
938.483	1738.28187
938.659	1448.53074
938.834	1421.03508
939.009	1311.05372
939.185	1382.96428
939.36	1391.42444
939.535	1330.0887
939.71	1148.20733
939.886	1270.86929
940.061	1063.6207
940.236	1234.91554
940.411	1137.63359
940.586	1141.86307
940.761	936.75766
940.937	1105.91306
941.112	947.32867
941.287	1034.01733
941.462	769.7628
941.637	957.89985
941.812	786.67111
941.987	917.73031
942.162	761.30888
942.337	845.85499
942.512	712.70206
942.687	866.9938
942.862	727.49485
943.037	714.81528
943.212	678.89201
943.386	845.85499
943.561	695.79667
943.736	733.83477
943.911	685.23117
944.086	744.40153
944.26	668.32696
944.435	729.60814
944.61	685.23117
944.785	674.66595
944.959	628.18249
945.134	797.23912
945.309	585.92998
945.483	714.81528
945.658	642.97205
945.833	697.90981
946.007	642.97205
946.182	630.29525
946.357	626.06974
946.531	803.58005
946.706	617.61889
946.88	710.58885
947.055	588.04248
947.229	588.04248
947.404	533.12172
947.578	752.85512
947.752	602.83037
947.927	668.32696
948.101	638.7464
948.276	687.34425
948.45	560.58096
948.624	710.58885
948.799	659.87514
948.973	702.13611
949.147	647.19775
949.321	714.81528
949.496	653.53639
949.67	740.1748
949.844	638.7464
950.018	689.45734
950.193	516.2249
950.367	748.6283
950.541	655.64929
950.715	786.67111
950.889	594.38007
951.063	757.08198
951.237	604.94298
951.411	807.80738
951.585	710.58885
951.759	681.00505
951.933	761.30888
952.107	820.48959
952.281	778.21687
952.455	615.5062
952.629	661.98807
952.803	854.31041
952.977	790.89829
953.151	902.93169
953.325	805.69371
953.499	771.8763
953.672	795.1255
953.846	735.9481
954.02	661.98807
954.194	754.96854
954.368	651.4235
954.541	767.6493
954.715	735.9481
954.889	888.13345
955.062	689.45734
955.236	850.08269
955.41	757.08198
955.583	841.62734
955.757	761.30888
955.93	822.60332
956.104	780.33042
956.278	759.19542
956.451	672.55294
956.625	837.39972
956.798	738.06144
956.972	826.83082
957.145	583.81748
957.319	938.87185
957.492	788.78469
957.665	900.81763
957.839	793.01189
958.012	759.19542
958.185	678.89201
958.359	710.58885
958.532	666.21399
958.705	879.67749
958.879	799.35276
959.052	790.89829
959.225	712.70206
959.398	803.58005
959.572	632.40802
959.745	752.85512
959.918	550.01944
960.091	702.13611
960.264	754.96854
960.438	757.08198
960.611	672.55294
960.784	839.51352
960.957	632.40802
961.13	754.96854
961.303	678.89201
961.476	816.26215
961.649	653.53639
961.822	661.98807
961.995	727.49485
962.168	761.30888
962.341	583.81748
962.514	769.7628
962.686	632.40802
962.859	714.81528
963.032	585.92998
963.205	738.06144
963.378	592.26753
963.551	683.11811
963.723	672.55294
963.896	752.85512
964.069	634.5208
964.242	687.34425
964.414	592.26753
964.587	628.18249
964.76	450.75854
964.932	579.59254
965.105	476.09866
965.278	575.36765
965.45	581.70501
965.623	611.28088
965.795	507.77683
965.968	588.04248
966.14	526.78531
966.313	706.36246
966.485	457.09336
966.658	647.19775
966.83	571.14282
967.003	636.6336
967.175	520.44902
967.348	666.21399
967.52	442.31232
967.692	518.33696
967.865	461.31665
968.037	596.49263
968.209	526.78531
968.382	579.59254
968.554	604.94298
968.726	676.77897
968.898	478.21043
969.071	516.2249
969.243	465.54001
969.415	512.00084
969.587	364.197
969.759	486.65768
969.932	533.12172
970.104	497.21707
970.276	492.99327
970.448	488.76953
970.62	499.329
970.792	562.6933
970.964	482.43403
971.136	501.44093
971.308	431.75491
971.48	326.20327
971.652	433.86636
971.824	450.75854
971.996	404.30748
972.168	492.99327
972.339	433.86636
972.511	454.98174
972.683	444.42385
972.855	442.31232
973.027	393.75151
973.199	391.64037
973.37	385.30703
973.542	381.08489
973.714	416.97519
973.886	524.6732
974.057	366.30793
974.229	442.31232
974.401	381.08489
974.572	425.42065
974.744	355.75346
974.915	347.3102
975.087	319.87153
975.259	370.52983
975.43	393.75151
975.602	442.31232
975.773	347.3102
975.945	408.52999
976.116	359.9752
976.288	309.31899
976.459	254.45319
976.63	347.3102
976.802	286.10501
976.973	307.20854
977.145	222.80567
977.316	347.3102
977.487	273.44377
977.659	243.90353
977.83	296.65654
978.001	307.20854
978.172	229.13482
978.344	262.89326
978.515	366.30793
978.686	279.77431
978.857	267.11341
979.028	281.88452
979.2	262.89326
979.371	290.32557
979.542	237.57397
979.713	292.43587
979.884	265.00332
980.055	241.79366
980.226	248.12334
980.397	239.6838
980.568	248.12334
980.739	271.33363
980.91	222.80567
981.081	334.64583
981.252	182.72519
981.423	214.36707
981.594	161.63315
981.765	254.45319
981.936	220.69599
982.106	148.97893
982.277	210.14789
982.448	178.50662
982.619	208.03833
982.79	138.43433
982.96	87.82774
983.131	182.72519
983.302	195.3814
983.472	210.14789
983.643	189.0532
983.814	248.12334
983.984	132.10782
984.155	161.63315
984.326	94.15287
984.496	174.28813
984.667	205.9288
984.837	132.10782
985.008	170.06972
985.178	144.76102
985.349	205.9288
985.519	222.80567
985.69	176.39736
985.86	170.06972
986.031	127.89025
986.201	163.74226
986.371	125.7815
986.542	189.0532
986.712	157.41499
986.882	167.96055
987.053	127.89025
987.223	119.45538
987.393	108.91229
987.563	132.10782
987.734	132.10782
987.904	144.76102
988.074	77.2863
988.244	60.42118
988.414	102.58669
988.585	119.45538
988.755	129.99903
988.925	189.0532
989.095	153.19692
989.265	224.91537
989.435	136.32547
989.605	180.61589
989.775	121.56407
989.945	178.50662
990.115	144.76102
990.285	199.6003
990.455	142.6521
990.625	106.80373
990.795	178.50662
990.965	142.6521
991.134	79.39455
991.304	113.12946
991.474	83.6111
991.644	89.9361
991.814	138.43433
991.984	123.67278
992.153	123.67278
992.323	104.6952
992.493	155.30595
992.662	119.45538
992.832	94.15287
993.002	106.80373
993.171	43.55752
993.341	136.32547
993.511	77.2863
993.68	111.02086
993.85	102.58669
994.019	100.4782
994.189	136.32547
994.358	208.03833
994.528	56.20513
994.697	41.44967
994.867	47.77329
995.036	35.12624
995.206	26.69535
995.375	73.06989
995.544	62.52924
995.714	119.45538
995.883	79.39455
996.052	119.45538
996.222	85.71941
996.391	39.34183
996.56	111.02086
996.73	89.9361
996.899	62.52924
997.068	87.82774
997.237	170.06972
997.406	45.6654
997.576	62.52924
997.745	9.83468
997.914	102.58669
998.083	24.58768
998.252	73.06989
998.421	119.45538
998.59	104.6952
998.759	89.9361
998.928	56.20513
999.097	43.55752
999.266	68.85356
999.435	127.89025
999.604	77.2863
999.773	39.34183
999.942	51.98916
1000.111	81.50281
1000.28	73.06989
1000.448	56.20513
1000.617	56.20513
1000.786	104.6952
1000.955	-2.80981
1001.124	129.99903
1001.292	115.23808
1001.461	81.50281
1001.63	35.12624
1001.798	129.99903
1001.967	60.42118
1002.136	79.39455
1002.304	37.23403
1002.473	79.39455
1002.642	64.63732
1002.81	51.98916
1002.979	129.99903
1003.147	77.2863
1003.316	43.55752
1003.484	81.50281
1003.653	26.69535
1003.821	64.63732
1003.99	96.26129
1004.158	79.39455
1004.327	54.09713
1004.495	56.20513
1004.663	62.52924
1004.832	-19.66778
1005	89.9361
1005.168	-7.02445
1005.337	11.94218
1005.505	132.10782
1005.673	123.67278
1005.842	54.09713
1006.01	20.37242
1006.178	-57.59244
1006.346	-13.34623
1006.514	106.80373
1006.683	77.2863
1006.851	37.23403
1007.019	56.20513
1007.187	41.44967
1007.355	132.10782
1007.523	45.6654
1007.691	37.23403
1007.859	79.39455
1008.027	-2.80981
1008.195	-21.77492
1008.363	41.44967
1008.531	96.26129
1008.699	87.82774
1008.867	73.06989
1009.035	89.9361
1009.203	-11.23899
1009.37	89.9361
1009.538	37.23403
1009.706	70.96171
1009.874	1.40492
1010.042	-44.95179
1010.209	60.42118
1010.377	77.2863
1010.545	73.06989
1010.713	51.98916
1010.88	-32.31023
1011.048	81.50281
1011.216	7.72721
1011.383	81.50281
1011.551	43.55752
1011.718	49.88122
1011.886	49.88122
1012.054	68.85356
1012.221	28.80304
1012.389	43.55752
1012.556	-49.16544
1012.724	-4.91714
1012.891	87.82774
1013.058	92.04447
1013.226	-0.70246
1013.393	62.52924
1013.561	-11.23899
1013.728	-15.45344
1013.895	35.12624
1014.063	62.52924
1014.23	85.71941
1014.397	41.44967
1014.565	30.91075
1014.732	51.98916
1014.899	-30.20322
1015.066	35.12624
1015.233	30.91075
1015.401	163.74226
1015.568	18.26482
1015.735	37.23403
1015.902	66.74543
1016.069	39.34183
1016.236	28.80304
1016.403	30.91075
1016.57	68.85356
1016.737	26.69535
1016.904	83.6111
1017.071	35.12624
1017.238	11.94218
1017.405	98.36974
1017.572	30.91075
1017.739	79.39455
1017.906	1.40492
1018.073	-21.77492
1018.24	45.6654
1018.407	56.20513
1018.573	30.91075
1018.74	51.98916
1018.907	51.98916
1019.074	81.50281
1019.241	7.72721
1019.407	60.42118
1019.574	73.06989
1019.741	70.96171
1019.907	18.26482
1020.074	54.09713
1020.241	26.69535
1020.407	77.2863
1020.574	47.77329
1020.74	-36.52418
1020.907	3.51233
1021.073	56.20513
1021.24	41.44967
1021.406	68.85356
1021.573	-7.02445
1021.739	-28.09618
1021.906	41.44967
1022.072	26.69535
1022.239	60.42118
1022.405	64.63732
1022.571	1.40492
1022.738	9.83468
1022.904	5.61975
1023.07	-55.48573
1023.237	35.12624
1023.403	37.23403
1023.569	22.48004
1023.735	-0.70246
1023.902	45.6654
1024.068	70.96171
1024.234	-4.91714
1024.4	5.61975
1024.566	73.06989
1024.732	64.63732
1024.898	-17.56062
1025.065	60.42118
1025.231	79.39455
1025.397	7.72721
1025.563	37.23403
1025.729	28.80304
1025.895	7.72721
1026.061	35.12624
1026.227	79.39455
1026.392	77.2863
1026.558	35.12624
1026.724	22.48004
1026.89	-17.56062
1027.056	51.98916
1027.222	22.48004
1027.388	-13.34623
1027.553	35.12624
1027.719	68.85356
1027.885	24.58768
1028.051	60.42118
1028.216	73.06989
1028.382	-17.56062
1028.548	39.34183
1028.713	-38.63112
1028.879	70.96171
1029.045	-7.02445
1029.21	18.26482
1029.376	3.51233
1029.541	-15.45344
1029.707	5.61975
1029.873	3.51233
1030.038	-0.70246
1030.204	-0.70246
1030.369	26.69535
1030.534	18.26482
1030.7	-11.23899
1030.865	77.2863
1031.031	37.23403
1031.196	35.12624
1031.361	58.31314
1031.527	37.23403
1031.692	43.55752
1031.857	35.12624
1032.023	22.48004
1032.188	20.37242
1032.353	79.39455
1032.518	43.55752
1032.684	-19.66778
1032.849	35.12624
1033.014	18.26482
1033.179	16.15725
1033.344	3.51233
1033.509	1.40492
1033.674	1.40492
1033.839	26.69535
1034.004	28.80304
1034.17	79.39455
1034.335	-30.20322
1034.5	73.06989
1034.664	-30.20322
1034.829	-11.23899
1034.994	30.91075
1035.159	35.12624
1035.324	-2.80981
1035.489	-2.80981
1035.654	-49.16544
1035.819	26.69535
1035.984	30.91075
1036.148	96.26129
1036.313	35.12624
1036.478	-28.09618
1036.643	56.20513
1036.807	-57.59244
1036.972	26.69535
1037.137	-9.13173
1037.301	30.91075
1037.466	20.37242
1037.631	22.48004
1037.795	85.71941
1037.96	98.36974
1038.124	37.23403
1038.289	70.96171
1038.454	-13.34623
1038.618	70.96171
1038.783	-25.98912
1038.947	9.83468
1039.111	28.80304
1039.276	43.55752
1039.44	-0.70246
1039.605	20.37242
1039.769	39.34183
1039.933	28.80304
1040.098	18.26482
1040.262	39.34183
1040.426	-9.13173
1040.591	-23.88203
1040.755	62.52924
1040.919	56.20513
1041.083	43.55752
1041.248	123.67278
1041.412	47.77329
1041.576	-38.63112
1041.74	-4.91714
1041.904	11.94218
1042.068	60.42118
1042.232	33.01848
1042.397	9.83468
1042.561	-4.91714
1042.725	-2.80981
1042.889	-28.09618
1043.053	-7.02445
1043.217	77.2863
1043.381	20.37242
1043.544	47.77329
1043.708	70.96171
1043.872	18.26482
1044.036	41.44967
1044.2	-15.45344
1044.364	9.83468
1044.528	-32.31023
1044.691	85.71941
1044.855	43.55752
1045.019	60.42118
1045.183	5.61975
1045.346	26.69535
1045.51	81.50281
1045.674	1.40492
1045.837	77.2863
1046.001	-15.45344
1046.165	22.48004
1046.328	11.94218
1046.492	20.37242
1046.655	9.83468
1046.819	98.36974
1046.983	-15.45344
1047.146	-44.95179
1047.31	26.69535
1047.473	-7.02445
1047.636	1.40492
1047.8	-7.02445
1047.963	39.34183
1048.127	41.44967
1048.29	68.85356
