Data from Scatter_Coeff_Baseline_USB4F045381__8__0008.txt Node

Date: Thu Feb 13 19:16:33 EST 2025
User: mmckonesweet
Spectrometer: USB4F04538
Trigger mode: 4
Integration Time (sec): 2.400000E-3
Scans to average: 1
Electric dark correction enabled: true
Nonlinearity correction enabled: true
Boxcar width: 0
XAxis mode: Wavelengths
Number of Pixels in Spectrum: 3648
>>>>>Begin Spectral Data<<<<<
345.52	0.17561
345.736	0.17561
345.952	0.17561
346.168	6.49786
346.384	-50.3944
346.6	-14.57544
346.816	19.14299
347.032	6.49786
347.248	97.13981
347.464	0.17561
347.68	-35.64629
347.896	-84.09974
348.112	71.84011
348.328	0.17561
348.544	-1.93175
348.76	-29.32529
348.975	-29.32529
349.191	46.54368
349.407	29.68125
349.623	-92.52504
349.839	42.32793
350.055	12.82031
350.27	-35.64629
350.486	42.32793
350.702	0.17561
350.918	-16.68263
351.133	-10.36097
351.349	-100.94993
351.565	-75.67402
351.781	101.35674
351.996	-136.75099
352.212	-79.88693
352.428	10.7128
352.644	33.89672
352.859	-4.03909
353.075	19.14299
353.291	-37.75323
353.506	10.7128
353.722	4.39042
353.938	-81.99334
354.153	50.75953
354.369	23.35822
354.584	46.54368
354.8	23.35822
355.016	-29.32529
355.231	-29.32529
355.447	6.49786
355.662	2.283
355.878	6.49786
356.093	-46.18078
356.309	27.57355
356.524	25.46587
356.74	8.60532
356.955	52.86748
357.171	38.11228
357.386	-14.57544
357.602	12.82031
357.817	31.78897
358.033	-33.53931
358.248	-92.52504
358.464	0.17561
358.679	-50.3944
358.895	-58.82135
359.11	21.25059
359.325	-10.36097
359.541	-33.53931
359.756	-12.46822
359.972	-12.46822
360.187	-69.35446
360.402	29.68125
360.618	-52.50118
360.833	-41.96706
361.048	-37.75323
361.264	-52.50118
361.479	-107.26832
361.694	23.35822
361.909	33.89672
362.125	46.54368
362.34	-69.35446
362.555	33.89672
362.77	50.75953
362.986	4.39042
363.201	19.14299
363.416	-16.68263
363.631	-33.53931
363.847	12.82031
364.062	-29.32529
364.277	-25.11117
364.492	-35.64629
364.707	-18.7898
364.922	31.78897
365.138	4.39042
365.353	4.39042
365.568	-54.60793
365.783	6.49786
365.998	-25.11117
366.213	-52.50118
366.428	33.89672
366.643	-4.03909
366.858	63.4076
367.073	-12.46822
367.288	-16.68263
367.503	31.78897
367.718	-52.50118
367.933	-4.03909
368.148	0.17561
368.363	0.17561
368.578	25.46587
368.793	-16.68263
369.008	-52.50118
369.223	33.89672
369.438	-63.03467
369.653	-12.46822
369.868	38.11228
370.083	-46.18078
370.298	-16.68263
370.513	-12.46822
370.728	-33.53931
370.943	-18.7898
371.157	-77.78048
371.372	-12.46822
371.587	-29.32529
371.802	-33.53931
372.017	-35.64629
372.232	-29.32529
372.446	-14.57544
372.661	-35.64629
372.876	29.68125
373.091	-23.00407
373.306	-27.21824
373.52	-46.18078
373.735	19.14299
373.95	46.54368
374.165	17.0354
374.379	14.92785
374.594	-35.64629
374.809	-33.53931
375.023	6.49786
375.238	-35.64629
375.453	-4.03909
375.667	0.17561
375.882	14.92785
376.097	-46.18078
376.311	38.11228
376.526	4.39042
376.741	21.25059
376.955	14.92785
377.17	-100.94993
377.384	46.54368
377.599	50.75953
377.813	-54.60793
378.028	-27.21824
378.242	46.54368
378.457	21.25059
378.672	-63.03467
378.886	0.17561
379.101	-33.53931
379.315	8.60532
379.53	-1.93175
379.744	-46.18078
379.958	-12.46822
380.173	25.46587
380.387	12.82031
380.602	-10.36097
380.816	12.82031
381.031	-14.57544
381.245	-41.96706
381.459	2.283
381.674	-54.60793
381.888	14.92785
382.103	-33.53931
382.317	-52.50118
382.531	33.89672
382.746	42.32793
382.96	8.60532
383.174	-18.7898
383.388	12.82031
383.603	12.82031
383.817	-46.18078
384.031	-50.3944
384.246	4.39042
384.46	19.14299
384.674	17.0354
384.888	29.68125
385.103	-109.3744
385.317	-16.68263
385.531	-12.46822
385.745	-29.32529
385.959	29.68125
386.174	25.46587
386.388	6.49786
386.602	31.78897
386.816	-27.21824
387.03	-50.3944
387.244	-6.14641
387.458	-52.50118
387.672	-20.89695
387.887	23.35822
388.101	-37.75323
388.315	21.25059
388.529	25.46587
388.743	-18.7898
388.957	-4.03909
389.171	-56.71465
389.385	-20.89695
389.599	29.68125
389.813	-107.26832
390.027	80.27299
390.241	48.65159
390.455	-8.2537
390.669	-12.46822
390.883	50.75953
391.097	-16.68263
391.311	14.92785
391.525	-84.09974
391.738	-29.32529
391.952	-46.18078
392.166	23.35822
392.38	71.84011
392.594	-71.461
392.808	46.54368
393.022	17.0354
393.236	48.65159
393.449	-4.03909
393.663	-48.28761
393.877	-46.18078
394.091	12.82031
394.305	-8.2537
394.518	-35.64629
394.732	-29.32529
394.946	21.25059
395.16	-18.7898
395.373	59.19149
395.587	4.39042
395.801	-50.3944
396.015	4.39042
396.228	-63.03467
396.442	-77.78048
396.656	-46.18078
396.869	-6.14641
397.083	50.75953
397.297	61.29953
397.51	-16.68263
397.724	-75.67402
397.938	21.25059
398.151	-23.00407
398.365	-14.57544
398.578	6.49786
398.792	-10.36097
399.005	-41.96706
399.219	71.84011
399.433	52.86748
399.646	12.82031
399.86	23.35822
400.073	-52.50118
400.287	40.22009
400.5	-33.53931
400.714	-86.2061
400.927	14.92785
401.141	-81.99334
401.354	25.46587
401.567	61.29953
401.781	-35.64629
401.994	33.89672
402.208	19.14299
402.421	0.17561
402.635	-4.03909
402.848	17.0354
403.061	-84.09974
403.275	-35.64629
403.488	-25.11117
403.701	-1.93175
403.915	29.68125
404.128	14.92785
404.341	-58.82135
404.555	-16.68263
404.768	-29.32529
404.981	29.68125
405.195	0.17561
405.408	31.78897
405.621	-88.31244
405.834	-107.26832
406.048	69.73195
406.261	-52.50118
406.474	-4.03909
406.687	-18.7898
406.9	-29.32529
407.114	14.92785
407.327	17.0354
407.54	-20.89695
407.753	33.89672
407.966	-1.93175
408.179	21.25059
408.392	29.68125
408.605	27.57355
408.819	-10.36097
409.032	21.25059
409.245	8.60532
409.458	-8.2537
409.671	-44.07393
409.884	-12.46822
410.097	-20.89695
410.31	38.11228
410.523	6.49786
410.736	-20.89695
410.949	23.35822
411.162	27.57355
411.375	-27.21824
411.588	-27.21824
411.801	-46.18078
412.014	-18.7898
412.227	-79.88693
412.44	42.32793
412.653	6.49786
412.865	-33.53931
413.078	-33.53931
413.291	10.7128
413.504	-84.09974
413.717	-58.82135
413.93	4.39042
414.143	33.89672
414.356	-69.35446
414.568	50.75953
414.781	-1.93175
414.994	-12.46822
415.207	-8.2537
415.42	31.78897
415.632	-48.28761
415.845	6.49786
416.058	25.46587
416.271	-20.89695
416.483	17.0354
416.696	10.7128
416.909	57.08346
417.121	-37.75323
417.334	-27.21824
417.547	-88.31244
417.759	21.25059
417.972	21.25059
418.185	-1.93175
418.397	-41.96706
418.61	-6.14641
418.823	-16.68263
419.035	-16.68263
419.248	-16.68263
419.46	-35.64629
419.673	-12.46822
419.885	38.11228
420.098	6.49786
420.311	42.32793
420.523	-29.32529
420.736	19.14299
420.948	31.78897
421.161	-12.46822
421.373	-33.53931
421.586	46.54368
421.798	12.82031
422.01	38.11228
422.223	-81.99334
422.435	38.11228
422.648	-14.57544
422.86	-8.2537
423.073	-10.36097
423.285	-16.68263
423.497	-39.86016
423.71	21.25059
423.922	0.17561
424.134	-46.18078
424.347	-1.93175
424.559	-1.93175
424.771	-39.86016
424.984	-88.31244
425.196	-14.57544
425.408	-12.46822
425.621	-71.461
425.833	8.60532
426.045	21.25059
426.257	-29.32529
426.47	36.00449
426.682	-105.16222
426.894	-16.68263
427.106	-63.03467
427.318	-46.18078
427.531	-33.53931
427.743	6.49786
427.955	-46.18078
428.167	33.89672
428.379	52.86748
428.591	-52.50118
428.804	-1.93175
429.016	23.35822
429.228	-18.7898
429.44	4.39042
429.652	40.22009
429.864	4.39042
430.076	-1.93175
430.288	38.11228
430.5	-63.03467
430.712	21.25059
430.924	-46.18078
431.136	-73.56752
431.348	-29.32529
431.56	-29.32529
431.772	-65.14129
431.984	-46.18078
432.196	-60.92802
432.408	-20.89695
432.62	-20.89695
432.832	-1.93175
433.044	-35.64629
433.256	-10.36097
433.468	-48.28761
433.679	27.57355
433.891	-100.94993
434.103	-65.14129
434.315	29.68125
434.527	0.17561
434.739	-58.82135
434.95	-41.96706
435.162	82.38126
435.374	-71.461
435.586	33.89672
435.798	-8.2537
436.009	-37.75323
436.221	25.46587
436.433	50.75953
436.645	14.92785
436.856	44.4358
437.068	31.78897
437.28	-52.50118
437.491	6.49786
437.703	-18.7898
437.915	4.39042
438.126	42.32793
438.338	19.14299
438.55	-63.03467
438.761	-29.32529
438.973	31.78897
439.184	25.46587
439.396	-16.68263
439.608	8.60532
439.819	12.82031
440.031	-98.84375
440.242	0.17561
440.454	12.82031
440.665	-41.96706
440.877	-18.7898
441.088	21.25059
441.3	25.46587
441.511	-35.64629
441.723	29.68125
441.934	-1.93175
442.146	71.84011
442.357	-67.24789
442.569	-54.60793
442.78	31.78897
442.991	27.57355
443.203	-100.94993
443.414	-29.32529
443.626	21.25059
443.837	-52.50118
444.048	-44.07393
444.26	76.05651
444.471	14.92785
444.682	23.35822
444.894	-39.86016
445.105	2.283
445.316	-44.07393
445.528	-8.2537
445.739	-10.36097
445.95	29.68125
446.161	-33.53931
446.373	-46.18078
446.584	6.49786
446.795	17.0354
447.006	-8.2537
447.217	-37.75323
447.429	-10.36097
447.64	-10.36097
447.851	-71.461
448.062	-8.2537
448.273	33.89672
448.484	8.60532
448.695	-16.68263
448.907	-8.2537
449.118	8.60532
449.329	-18.7898
449.54	6.49786
449.751	21.25059
449.962	42.32793
450.173	4.39042
450.384	-77.78048
450.595	29.68125
450.806	-16.68263
451.017	78.16474
451.228	-4.03909
451.439	6.49786
451.65	44.4358
451.861	40.22009
452.072	-20.89695
452.283	-41.96706
452.494	14.92785
452.705	12.82031
452.915	-10.36097
453.126	-29.32529
453.337	-41.96706
453.548	-35.64629
453.759	-27.21824
453.97	-52.50118
454.181	25.46587
454.391	-20.89695
454.602	-12.46822
454.813	6.49786
455.024	-31.43231
455.235	-29.32529
455.445	17.0354
455.656	-20.89695
455.867	-71.461
456.078	12.82031
456.288	-58.82135
456.499	-14.57544
456.71	-27.21824
456.921	4.39042
457.131	6.49786
457.342	-56.71465
457.553	12.82031
457.763	-14.57544
457.974	-12.46822
458.184	48.65159
458.395	17.0354
458.606	-25.11117
458.816	-37.75323
459.027	-39.86016
459.237	-12.46822
459.448	46.54368
459.659	-39.86016
459.869	-10.36097
460.08	-27.21824
460.29	-4.03909
460.501	8.60532
460.711	-10.36097
460.922	-31.43231
461.132	-29.32529
461.343	-117.79845
461.553	-63.03467
461.764	67.62381
461.974	29.68125
462.184	23.35822
462.395	-12.46822
462.605	38.11228
462.816	-6.14641
463.026	14.92785
463.236	-84.09974
463.447	-73.56752
463.657	-39.86016
463.867	-1.93175
464.078	21.25059
464.288	4.39042
464.498	-18.7898
464.709	-25.11117
464.919	-14.57544
465.129	-12.46822
465.339	46.54368
465.55	-25.11117
465.76	-6.14641
465.97	23.35822
466.18	-31.43231
466.391	-23.00407
466.601	-20.89695
466.811	-8.2537
467.021	67.62381
467.231	-33.53931
467.441	71.84011
467.651	-54.60793
467.862	-16.68263
468.072	57.08346
468.282	40.22009
468.492	-46.18078
468.702	-12.46822
468.912	-18.7898
469.122	-48.28761
469.332	-16.68263
469.542	67.62381
469.752	-33.53931
469.962	-41.96706
470.172	-8.2537
470.382	-10.36097
470.592	29.68125
470.802	-20.89695
471.012	12.82031
471.222	-1.93175
471.432	33.89672
471.642	-52.50118
471.852	-23.00407
472.062	-35.64629
472.272	-71.461
472.482	21.25059
472.691	-77.78048
472.901	6.49786
473.111	-12.46822
473.321	23.35822
473.531	31.78897
473.741	-12.46822
473.95	52.86748
474.16	4.39042
474.37	17.0354
474.58	-41.96706
474.79	-20.89695
474.999	29.68125
475.209	-1.93175
475.419	12.82031
475.628	-35.64629
475.838	-20.89695
476.048	-18.7898
476.258	29.68125
476.467	57.08346
476.677	4.39042
476.886	-71.461
477.096	-12.46822
477.306	6.49786
477.515	80.27299
477.725	27.57355
477.935	-67.24789
478.144	19.14299
478.354	73.9483
478.563	-37.75323
478.773	-4.03909
478.982	69.73195
479.192	40.22009
479.401	-46.18078
479.611	4.39042
479.82	-41.96706
480.03	-39.86016
480.239	-136.75099
480.449	52.86748
480.658	6.49786
480.868	21.25059
481.077	12.82031
481.287	-35.64629
481.496	21.25059
481.705	25.46587
481.915	14.92785
482.124	6.49786
482.333	6.49786
482.543	-44.07393
482.752	10.7128
482.961	36.00449
483.171	-29.32529
483.38	-12.46822
483.589	38.11228
483.799	-63.03467
484.008	12.82031
484.217	-50.3944
484.426	29.68125
484.636	-33.53931
484.845	-16.68263
485.054	42.32793
485.263	19.14299
485.472	25.46587
485.682	-6.14641
485.891	-14.57544
486.1	92.92297
486.309	-33.53931
486.518	42.32793
486.727	25.46587
486.936	25.46587
487.146	-75.67402
487.355	-23.00407
487.564	-56.71465
487.773	-37.75323
487.982	25.46587
488.191	46.54368
488.4	-63.03467
488.609	50.75953
488.818	36.00449
489.027	-1.93175
489.236	69.73195
489.445	76.05651
489.654	-122.01031
489.863	25.46587
490.072	-8.2537
490.281	-46.18078
490.49	-10.36097
490.698	-1.93175
490.907	-8.2537
491.116	-12.46822
491.325	21.25059
491.534	-73.56752
491.743	4.39042
491.952	21.25059
492.16	50.75953
492.369	-25.11117
492.578	-20.89695
492.787	14.92785
492.996	-6.14641
493.204	-8.2537
493.413	-23.00407
493.622	-4.03909
493.831	10.7128
494.039	-37.75323
494.248	73.9483
494.457	31.78897
494.665	57.08346
494.874	29.68125
495.083	-23.00407
495.291	-117.79845
495.5	-4.03909
495.709	67.62381
495.917	-8.2537
496.126	67.62381
496.335	-33.53931
496.543	-37.75323
496.752	4.39042
496.96	50.75953
497.169	-94.6313
497.377	-35.64629
497.586	36.00449
497.794	63.4076
498.003	50.75953
498.211	12.82031
498.42	-1.93175
498.628	12.82031
498.837	42.32793
499.045	6.49786
499.254	-12.46822
499.462	6.49786
499.671	46.54368
499.879	-35.64629
500.087	17.0354
500.296	21.25059
500.504	59.19149
500.713	42.32793
500.921	14.92785
501.129	-4.03909
501.338	6.49786
501.546	31.78897
501.754	6.49786
501.962	-18.7898
502.171	-48.28761
502.379	-27.21824
502.587	48.65159
502.795	25.46587
503.004	29.68125
503.212	-16.68263
503.42	8.60532
503.628	21.25059
503.837	6.49786
504.045	-65.14129
504.253	23.35822
504.461	-27.21824
504.669	29.68125
504.877	-18.7898
505.085	-8.2537
505.294	-10.36097
505.502	17.0354
505.71	38.11228
505.918	71.84011
506.126	12.82031
506.334	-33.53931
506.542	4.39042
506.75	80.27299
506.958	-20.89695
507.166	12.82031
507.374	12.82031
507.582	12.82031
507.79	-63.03467
507.998	-29.32529
508.206	63.4076
508.414	29.68125
508.622	-44.07393
508.83	14.92785
509.037	0.17561
509.245	57.08346
509.453	-63.03467
509.661	-20.89695
509.869	-4.03909
510.077	-69.35446
510.285	-92.52504
510.492	4.39042
510.7	-1.93175
510.908	54.97546
511.116	6.49786
511.324	38.11228
511.531	-65.14129
511.739	6.49786
511.947	6.49786
512.155	29.68125
512.362	4.39042
512.57	-12.46822
512.778	0.17561
512.985	-4.03909
513.193	-12.46822
513.401	17.0354
513.608	-12.46822
513.816	6.49786
514.024	14.92785
514.231	19.14299
514.439	29.68125
514.646	-46.18078
514.854	-31.43231
515.061	21.25059
515.269	50.75953
515.477	29.68125
515.684	-86.2061
515.892	46.54368
516.099	31.78897
516.307	-33.53931
516.514	-27.21824
516.722	-31.43231
516.929	-12.46822
517.136	-4.03909
517.344	23.35822
517.551	4.39042
517.759	21.25059
517.966	42.32793
518.173	12.82031
518.381	14.92785
518.588	36.00449
518.796	-12.46822
519.003	-25.11117
519.21	-37.75323
519.418	-16.68263
519.625	-25.11117
519.832	-29.32529
520.039	0.17561
520.247	23.35822
520.454	12.82031
520.661	57.08346
520.868	0.17561
521.076	-12.46822
521.283	0.17561
521.49	-35.64629
521.697	4.39042
521.904	46.54368
522.112	12.82031
522.319	-105.16222
522.526	42.32793
522.733	-33.53931
522.94	-27.21824
523.147	38.11228
523.354	-10.36097
523.561	50.75953
523.768	-16.68263
523.975	29.68125
524.183	14.92785
524.39	-44.07393
524.597	31.78897
524.804	-14.57544
525.011	-8.2537
525.218	-29.32529
525.425	-29.32529
525.632	-56.71465
525.838	-37.75323
526.045	21.25059
526.252	-46.18078
526.459	-54.60793
526.666	27.57355
526.873	-46.18078
527.08	0.17561
527.287	-50.3944
527.494	29.68125
527.701	21.25059
527.907	33.89672
528.114	27.57355
528.321	21.25059
528.528	-35.64629
528.735	-58.82135
528.941	2.283
529.148	-37.75323
529.355	-54.60793
529.562	-60.92802
529.768	-41.96706
529.975	17.0354
530.182	-1.93175
530.388	12.82031
530.595	8.60532
530.802	-4.03909
531.008	-73.56752
531.215	-50.3944
531.422	-79.88693
531.628	107.68229
531.835	-14.57544
532.042	-37.75323
532.248	14.92785
532.455	4.39042
532.661	-35.64629
532.868	-16.68263
533.074	-50.3944
533.281	-14.57544
533.487	42.32793
533.694	38.11228
533.9	-60.92802
534.107	42.32793
534.313	25.46587
534.52	-29.32529
534.726	-37.75323
534.933	-8.2537
535.139	46.54368
535.345	-35.64629
535.552	-50.3944
535.758	12.82031
535.965	-67.24789
536.171	-12.46822
536.377	33.89672
536.584	6.49786
536.79	57.08346
536.996	-8.2537
537.203	-14.57544
537.409	-39.86016
537.615	-20.89695
537.821	6.49786
538.028	23.35822
538.234	54.97546
538.44	23.35822
538.646	-37.75323
538.853	-90.41875
539.059	-16.68263
539.265	-37.75323
539.471	65.5157
539.677	21.25059
539.883	-1.93175
540.09	-50.3944
540.296	-33.53931
540.502	8.60532
540.708	33.89672
540.914	-16.68263
541.12	-14.57544
541.326	-25.11117
541.532	19.14299
541.738	-46.18078
541.944	0.17561
542.15	-50.3944
542.356	-20.89695
542.562	54.97546
542.768	-98.84375
542.974	-79.88693
543.18	27.57355
543.386	-75.67402
543.592	23.35822
543.798	-33.53931
544.004	-65.14129
544.21	-56.71465
544.415	8.60532
544.621	-6.14641
544.827	12.82031
545.033	-50.3944
545.239	-65.14129
545.445	31.78897
545.651	-29.32529
545.856	25.46587
546.062	-10.36097
546.268	-39.86016
546.474	12.82031
546.679	-56.71465
546.885	-29.32529
547.091	-29.32529
547.297	6.49786
547.502	38.11228
547.708	-105.16222
547.914	-10.36097
548.119	-16.68263
548.325	-134.64526
548.531	0.17561
548.736	-44.07393
548.942	-16.68263
549.147	-96.73754
549.353	-1.93175
549.559	19.14299
549.764	-50.3944
549.97	12.82031
550.175	8.60532
550.381	-44.07393
550.586	-18.7898
550.792	-41.96706
550.997	61.29953
551.203	8.60532
551.408	-25.11117
551.614	-54.60793
551.819	0.17561
552.025	23.35822
552.23	88.70622
552.435	-1.93175
552.641	-16.68263
552.846	-79.88693
553.052	-46.18078
553.257	-69.35446
553.462	-77.78048
553.668	31.78897
553.873	17.0354
554.078	-54.60793
554.283	-1.93175
554.489	76.05651
554.694	40.22009
554.899	-14.57544
555.105	-77.78048
555.31	42.32793
555.515	44.4358
555.72	21.25059
555.925	-46.18078
556.131	-41.96706
556.336	21.25059
556.541	-1.93175
556.746	-37.75323
556.951	-60.92802
557.156	44.4358
557.361	14.92785
557.567	-60.92802
557.772	-58.82135
557.977	52.86748
558.182	-20.89695
558.387	63.4076
558.592	0.17561
558.797	-37.75323
559.002	-67.24789
559.207	-73.56752
559.412	57.08346
559.617	25.46587
559.822	-63.03467
560.027	33.89672
560.232	42.32793
560.437	-4.03909
560.642	-31.43231
560.847	-44.07393
561.051	6.49786
561.256	25.46587
561.461	-52.50118
561.666	-8.2537
561.871	27.57355
562.076	-33.53931
562.281	40.22009
562.485	4.39042
562.69	25.46587
562.895	71.84011
563.1	14.92785
563.305	59.19149
563.509	65.5157
563.714	76.05651
563.919	14.92785
564.123	44.4358
564.328	-1.93175
564.533	-75.67402
564.737	-20.89695
564.942	29.68125
565.147	-46.18078
565.351	-12.46822
565.556	4.39042
565.761	8.60532
565.965	40.22009
566.17	25.46587
566.374	33.89672
566.579	-8.2537
566.784	-52.50118
566.988	4.39042
567.193	-35.64629
567.397	-35.64629
567.602	-6.14641
567.806	-14.57544
568.011	-14.57544
568.215	54.97546
568.42	2.283
568.624	-12.46822
568.828	-6.14641
569.033	-20.89695
569.237	2.283
569.442	4.39042
569.646	46.54368
569.85	14.92785
570.055	-1.93175
570.259	-18.7898
570.463	-37.75323
570.668	-37.75323
570.872	48.65159
571.076	6.49786
571.281	33.89672
571.485	36.00449
571.689	63.4076
571.893	-23.00407
572.098	76.05651
572.302	-1.93175
572.506	6.49786
572.71	6.49786
572.914	-31.43231
573.119	8.60532
573.323	-33.53931
573.527	12.82031
573.731	-12.46822
573.935	-54.60793
574.139	-27.21824
574.343	10.7128
574.547	-8.2537
574.751	-35.64629
574.955	-6.14641
575.159	-79.88693
575.364	-69.35446
575.568	40.22009
575.772	-18.7898
575.976	-29.32529
576.18	-14.57544
576.383	-1.93175
576.587	33.89672
576.791	78.16474
576.995	-20.89695
577.199	-44.07393
577.403	-46.18078
577.607	8.60532
577.811	-20.89695
578.015	95.03138
578.219	-69.35446
578.422	29.68125
578.626	21.25059
578.83	-16.68263
579.034	4.39042
579.238	31.78897
579.442	54.97546
579.645	54.97546
579.849	-52.50118
580.053	-8.2537
580.257	-20.89695
580.46	88.70622
580.664	33.89672
580.868	25.46587
581.071	31.78897
581.275	-25.11117
581.479	-20.89695
581.682	-33.53931
581.886	-27.21824
582.09	-4.03909
582.293	-33.53931
582.497	17.0354
582.7	67.62381
582.904	-8.2537
583.107	-33.53931
583.311	-25.11117
583.515	-54.60793
583.718	10.7128
583.922	48.65159
584.125	-35.64629
584.329	42.32793
584.532	50.75953
584.735	10.7128
584.939	-52.50118
585.142	-20.89695
585.346	80.27299
585.549	-58.82135
585.753	40.22009
585.956	-48.28761
586.159	69.73195
586.363	-1.93175
586.566	42.32793
586.769	50.75953
586.973	-52.50118
587.176	12.82031
587.379	-25.11117
587.582	27.57355
587.786	-41.96706
587.989	-12.46822
588.192	0.17561
588.395	-12.46822
588.599	-29.32529
588.802	-58.82135
589.005	-12.46822
589.208	-84.09974
589.411	-10.36097
589.615	-23.00407
589.818	54.97546
590.021	8.60532
590.224	-20.89695
590.427	-58.82135
590.63	33.89672
590.833	12.82031
591.036	17.0354
591.239	-63.03467
591.442	-8.2537
591.645	-25.11117
591.848	-94.6313
592.051	-35.64629
592.254	-6.14641
592.457	-10.36097
592.66	-60.92802
592.863	-16.68263
593.066	-16.68263
593.269	36.00449
593.472	-4.03909
593.675	-63.03467
593.878	-8.2537
594.081	4.39042
594.284	-18.7898
594.486	23.35822
594.689	12.82031
594.892	-1.93175
595.095	84.48956
595.298	-12.46822
595.5	0.17561
595.703	23.35822
595.906	33.89672
596.109	-31.43231
596.311	14.92785
596.514	-48.28761
596.717	-44.07393
596.92	-52.50118
597.122	-52.50118
597.325	31.78897
597.528	-1.93175
597.73	31.78897
597.933	-4.03909
598.136	-58.82135
598.338	19.14299
598.541	-37.75323
598.743	23.35822
598.946	36.00449
599.148	-18.7898
599.351	-39.86016
599.554	-52.50118
599.756	-79.88693
599.959	4.39042
600.161	-37.75323
600.363	76.05651
600.566	-16.68263
600.768	76.05651
600.971	29.68125
601.173	0.17561
601.376	-37.75323
601.578	48.65159
601.78	-18.7898
601.983	4.39042
602.185	-52.50118
602.388	-63.03467
602.59	29.68125
602.792	-35.64629
602.995	-39.86016
603.197	-27.21824
603.399	25.46587
603.601	-4.03909
603.804	36.00449
604.006	-46.18078
604.208	10.7128
604.41	-54.60793
604.613	6.49786
604.815	73.9483
605.017	-20.89695
605.219	-8.2537
605.421	4.39042
605.623	42.32793
605.826	19.14299
606.028	-67.24789
606.23	-35.64629
606.432	-10.36097
606.634	-122.01031
606.836	-4.03909
607.038	-35.64629
607.24	44.4358
607.442	-12.46822
607.644	-29.32529
607.846	-75.67402
608.048	50.75953
608.25	-14.57544
608.452	-58.82135
608.654	54.97546
608.856	40.22009
609.058	-16.68263
609.26	29.68125
609.462	-27.21824
609.664	-29.32529
609.866	-73.56752
610.067	-10.36097
610.269	-37.75323
610.471	-33.53931
610.673	-71.461
610.875	-71.461
611.077	21.25059
611.278	-20.89695
611.48	-8.2537
611.682	-27.21824
611.884	-14.57544
612.085	-54.60793
612.287	-20.89695
612.489	-4.03909
612.69	4.39042
612.892	-29.32529
613.094	42.32793
613.295	8.60532
613.497	-56.71465
613.699	-18.7898
613.9	19.14299
614.102	19.14299
614.304	-111.48045
614.505	38.11228
614.707	42.32793
614.908	-4.03909
615.11	33.89672
615.311	25.46587
615.513	-25.11117
615.714	-1.93175
615.916	-16.68263
616.117	-44.07393
616.319	-29.32529
616.52	10.7128
616.722	-20.89695
616.923	-29.32529
617.124	-16.68263
617.326	59.19149
617.527	25.46587
617.729	-69.35446
617.93	21.25059
618.131	-69.35446
618.333	4.39042
618.534	0.17561
618.735	27.57355
618.937	21.25059
619.138	-4.03909
619.339	4.39042
619.54	-29.32529
619.742	-52.50118
619.943	-16.68263
620.144	21.25059
620.345	0.17561
620.546	10.7128
620.748	-79.88693
620.949	6.49786
621.15	29.68125
621.351	-75.67402
621.552	-6.14641
621.753	-12.46822
621.954	38.11228
622.155	-63.03467
622.356	-14.57544
622.558	65.5157
622.759	-31.43231
622.96	33.89672
623.161	-69.35446
623.362	21.25059
623.563	31.78897
623.764	-27.21824
623.965	-86.2061
624.166	-27.21824
624.366	-23.00407
624.567	6.49786
624.768	-6.14641
624.969	-23.00407
625.17	-128.32791
625.371	63.4076
625.572	8.60532
625.773	21.25059
625.973	73.9483
626.174	29.68125
626.375	-63.03467
626.576	17.0354
626.777	-4.03909
626.977	-37.75323
627.178	-37.75323
627.379	40.22009
627.58	-6.14641
627.78	-1.93175
627.981	12.82031
628.182	-37.75323
628.382	-25.11117
628.583	31.78897
628.784	-12.46822
628.984	-18.7898
629.185	-1.93175
629.386	-29.32529
629.586	59.19149
629.787	8.60532
629.987	-29.32529
630.188	-10.36097
630.388	46.54368
630.589	69.73195
630.79	40.22009
630.99	-56.71465
631.191	54.97546
631.391	-25.11117
631.591	-33.53931
631.792	-41.96706
631.992	-50.3944
632.193	-23.00407
632.393	-48.28761
632.594	-37.75323
632.794	-54.60793
632.994	-56.71465
633.195	-33.53931
633.395	48.65159
633.595	4.39042
633.796	33.89672
633.996	-16.68263
634.196	25.46587
634.397	-27.21824
634.597	-6.14641
634.797	-27.21824
634.997	40.22009
635.198	12.82031
635.398	54.97546
635.598	-20.89695
635.798	-16.68263
635.998	63.4076
636.199	-41.96706
636.399	-50.3944
636.599	-58.82135
636.799	-100.94993
636.999	63.4076
637.199	23.35822
637.399	-10.36097
637.599	-37.75323
637.799	-63.03467
637.999	-16.68263
638.199	-10.36097
638.399	40.22009
638.599	65.5157
638.799	-1.93175
638.999	42.32793
639.199	19.14299
639.399	44.4358
639.599	-52.50118
639.799	-46.18078
639.999	-44.07393
640.199	-50.3944
640.399	67.62381
640.599	-54.60793
640.799	23.35822
640.998	-29.32529
641.198	25.46587
641.398	29.68125
641.598	-58.82135
641.798	4.39042
641.997	57.08346
642.197	-8.2537
642.397	25.46587
642.597	-16.68263
642.796	0.17561
642.996	-14.57544
643.196	17.0354
643.395	12.82031
643.595	-29.32529
643.795	46.54368
643.994	-4.03909
644.194	-54.60793
644.394	25.46587
644.593	33.89672
644.793	-1.93175
644.992	31.78897
645.192	52.86748
645.392	14.92785
645.591	-6.14641
645.791	-14.57544
645.99	-8.2537
646.19	-12.46822
646.389	-52.50118
646.589	76.05651
646.788	0.17561
646.987	-29.32529
647.187	8.60532
647.386	-20.89695
647.586	6.49786
647.785	33.89672
647.984	44.4358
648.184	-18.7898
648.383	23.35822
648.582	19.14299
648.782	-81.99334
648.981	-52.50118
649.18	12.82031
649.38	10.7128
649.579	25.46587
649.778	33.89672
649.977	-44.07393
650.177	-16.68263
650.376	-31.43231
650.575	-84.09974
650.774	-52.50118
650.973	-20.89695
651.173	-8.2537
651.372	-10.36097
651.571	0.17561
651.77	29.68125
651.969	25.46587
652.168	44.4358
652.367	-4.03909
652.566	14.92785
652.765	-86.2061
652.964	-4.03909
653.163	-1.93175
653.362	54.97546
653.561	-29.32529
653.76	-31.43231
653.959	33.89672
654.158	-33.53931
654.357	-100.94993
654.556	48.65159
654.755	8.60532
654.954	-41.96706
655.153	-29.32529
655.352	-16.68263
655.551	33.89672
655.749	-50.3944
655.948	21.25059
656.147	-18.7898
656.346	-46.18078
656.545	-20.89695
656.743	25.46587
656.942	-58.82135
657.141	14.92785
657.34	-18.7898
657.538	-90.41875
657.737	-18.7898
657.936	-16.68263
658.135	82.38126
658.333	38.11228
658.532	-35.64629
658.731	-23.00407
658.929	29.68125
659.128	23.35822
659.326	-35.64629
659.525	-6.14641
659.724	29.68125
659.922	10.7128
660.121	21.25059
660.319	25.46587
660.518	8.60532
660.716	19.14299
660.915	-37.75323
661.113	-27.21824
661.312	31.78897
661.51	25.46587
661.709	-37.75323
661.907	-18.7898
662.105	23.35822
662.304	-54.60793
662.502	-41.96706
662.701	-27.21824
662.899	-12.46822
663.097	-20.89695
663.296	40.22009
663.494	-6.14641
663.692	-23.00407
663.891	-20.89695
664.089	17.0354
664.287	-29.32529
664.485	-8.2537
664.684	29.68125
664.882	63.4076
665.08	-20.89695
665.278	12.82031
665.476	-10.36097
665.675	-44.07393
665.873	-4.03909
666.071	12.82031
666.269	4.39042
666.467	14.92785
666.665	-12.46822
666.863	4.39042
667.061	4.39042
667.259	23.35822
667.457	-1.93175
667.655	31.78897
667.853	8.60532
668.051	8.60532
668.249	-67.24789
668.447	-1.93175
668.645	42.32793
668.843	48.65159
669.041	25.46587
669.239	4.39042
669.437	31.78897
669.635	-20.89695
669.833	-20.89695
670.031	-100.94993
670.229	-103.05609
670.426	4.39042
670.624	-33.53931
670.822	12.82031
671.02	-46.18078
671.218	-18.7898
671.415	6.49786
671.613	-37.75323
671.811	-44.07393
672.009	-18.7898
672.206	-39.86016
672.404	-4.03909
672.602	12.82031
672.799	4.39042
672.997	44.4358
673.195	-46.18078
673.392	-54.60793
673.59	-29.32529
673.788	48.65159
673.985	-56.71465
674.183	4.39042
674.38	-6.14641
674.578	-10.36097
674.775	4.39042
674.973	-16.68263
675.17	31.78897
675.368	-23.00407
675.565	29.68125
675.763	21.25059
675.96	-77.78048
676.158	4.39042
676.355	10.7128
676.553	-12.46822
676.75	29.68125
676.947	-25.11117
677.145	25.46587
677.342	10.7128
677.539	36.00449
677.737	12.82031
677.934	46.54368
678.131	-20.89695
678.329	29.68125
678.526	-1.93175
678.723	-29.32529
678.92	-37.75323
679.118	40.22009
679.315	-41.96706
679.512	12.82031
679.709	-4.03909
679.906	38.11228
680.104	-1.93175
680.301	-75.67402
680.498	38.11228
680.695	-4.03909
680.892	48.65159
681.089	-37.75323
681.286	-29.32529
681.483	-18.7898
681.68	-4.03909
681.877	-27.21824
682.075	-4.03909
682.272	-69.35446
682.469	-12.46822
682.665	6.49786
682.862	-29.32529
683.059	48.65159
683.256	-46.18078
683.453	65.5157
683.65	-20.89695
683.847	-41.96706
684.044	-16.68263
684.241	-35.64629
684.438	29.68125
684.635	-54.60793
684.831	-31.43231
685.028	-20.89695
685.225	73.9483
685.422	4.39042
685.619	-29.32529
685.815	-20.89695
686.012	4.39042
686.209	-20.89695
686.405	48.65159
686.602	29.68125
686.799	4.39042
686.996	-50.3944
687.192	-12.46822
687.389	4.39042
687.586	-12.46822
687.782	-4.03909
687.979	-71.461
688.175	0.17561
688.372	8.60532
688.568	-12.46822
688.765	-6.14641
688.962	71.84011
689.158	46.54368
689.355	40.22009
689.551	42.32793
689.748	2.283
689.944	-54.60793
690.14	71.84011
690.337	25.46587
690.533	88.70622
690.73	-60.92802
690.926	57.08346
691.123	46.54368
691.319	-12.46822
691.515	38.11228
691.712	-18.7898
691.908	-58.82135
692.104	-8.2537
692.301	-33.53931
692.497	-52.50118
692.693	-20.89695
692.889	36.00449
693.086	-29.32529
693.282	46.54368
693.478	-50.3944
693.674	-16.68263
693.87	14.92785
694.067	-4.03909
694.263	-4.03909
694.459	-69.35446
694.655	-54.60793
694.851	-8.2537
695.047	-27.21824
695.243	-46.18078
695.439	2.283
695.635	-10.36097
695.831	21.25059
696.027	-46.18078
696.224	31.78897
696.42	-18.7898
696.615	-10.36097
696.811	0.17561
697.007	2.283
697.203	-12.46822
697.399	-4.03909
697.595	54.97546
697.791	23.35822
697.987	48.65159
698.183	-16.68263
698.379	61.29953
698.575	-29.32529
698.77	6.49786
698.966	-14.57544
699.162	0.17561
699.358	-4.03909
699.554	19.14299
699.749	-84.09974
699.945	-4.03909
700.141	-20.89695
700.337	-10.36097
700.532	-4.03909
700.728	-10.36097
700.924	48.65159
701.119	21.25059
701.315	8.60532
701.511	-71.461
701.706	-37.75323
701.902	-12.46822
702.097	-12.46822
702.293	-48.28761
702.489	25.46587
702.684	27.57355
702.88	4.39042
703.075	-20.89695
703.271	63.4076
703.466	71.84011
703.662	-54.60793
703.857	14.92785
704.053	4.39042
704.248	-54.60793
704.443	54.97546
704.639	-37.75323
704.834	-50.3944
705.03	-44.07393
705.225	-6.14641
705.42	-20.89695
705.616	12.82031
705.811	38.11228
706.006	4.39042
706.202	-14.57544
706.397	-1.93175
706.592	29.68125
706.787	-44.07393
706.983	12.82031
707.178	-10.36097
707.373	4.39042
707.568	-8.2537
707.763	19.14299
707.959	2.283
708.154	59.19149
708.349	-31.43231
708.544	-71.461
708.739	-84.09974
708.934	-1.93175
709.129	-73.56752
709.324	31.78897
709.519	29.68125
709.714	21.25059
709.909	-18.7898
710.104	-23.00407
710.299	36.00449
710.494	-10.36097
710.689	-63.03467
710.884	-35.64629
711.079	-20.89695
711.274	-18.7898
711.469	-54.60793
711.664	21.25059
711.859	-8.2537
712.054	8.60532
712.249	-4.03909
712.443	71.84011
712.638	-29.32529
712.833	-27.21824
713.028	-37.75323
713.223	-8.2537
713.417	-71.461
713.612	-29.32529
713.807	-20.89695
714.002	12.82031
714.196	14.92785
714.391	59.19149
714.586	-41.96706
714.78	6.49786
714.975	33.89672
715.17	-98.84375
715.364	-4.03909
715.559	6.49786
715.754	21.25059
715.948	-23.00407
716.143	-33.53931
716.337	-27.21824
716.532	8.60532
716.726	-31.43231
716.921	-41.96706
717.115	-67.24789
717.31	-1.93175
717.504	-16.68263
717.699	-16.68263
717.893	50.75953
718.088	-25.11117
718.282	-4.03909
718.476	31.78897
718.671	-20.89695
718.865	-67.24789
719.059	14.92785
719.254	-8.2537
719.448	23.35822
719.642	-37.75323
719.837	-33.53931
720.031	-63.03467
720.225	8.60532
720.419	57.08346
720.614	23.35822
720.808	-16.68263
721.002	12.82031
721.196	-20.89695
721.39	17.0354
721.585	-31.43231
721.779	10.7128
721.973	65.5157
722.167	4.39042
722.361	-52.50118
722.555	25.46587
722.749	17.0354
722.943	42.32793
723.137	-14.57544
723.331	-33.53931
723.525	17.0354
723.719	4.39042
723.913	-18.7898
724.107	8.60532
724.301	-10.36097
724.495	42.32793
724.689	-31.43231
724.883	-77.78048
725.077	38.11228
725.271	46.54368
725.465	-44.07393
725.659	12.82031
725.853	29.68125
726.046	-12.46822
726.24	-46.18078
726.434	-48.28761
726.628	-27.21824
726.822	31.78897
727.015	-29.32529
727.209	-27.21824
727.403	2.283
727.596	-25.11117
727.79	-81.99334
727.984	-12.46822
728.177	-8.2537
728.371	-6.14641
728.565	-84.09974
728.758	76.05651
728.952	-10.36097
729.146	-14.57544
729.339	-33.53931
729.533	19.14299
729.726	12.82031
729.92	-41.96706
730.113	17.0354
730.307	57.08346
730.5	-33.53931
730.694	33.89672
730.887	33.89672
731.081	4.39042
731.274	-77.78048
731.468	17.0354
731.661	21.25059
731.854	50.75953
732.048	88.70622
732.241	4.39042
732.435	38.11228
732.628	76.05651
732.821	10.7128
733.014	-33.53931
733.208	-6.14641
733.401	38.11228
733.594	-10.36097
733.788	-31.43231
733.981	23.35822
734.174	-41.96706
734.367	-103.05609
734.56	-96.73754
734.754	-12.46822
734.947	33.89672
735.14	-27.21824
735.333	21.25059
735.526	17.0354
735.719	-20.89695
735.912	12.82031
736.105	-46.18078
736.298	-44.07393
736.491	36.00449
736.684	23.35822
736.877	61.29953
737.07	-14.57544
737.263	29.68125
737.456	-8.2537
737.649	-48.28761
737.842	-86.2061
738.035	8.60532
738.228	29.68125
738.421	38.11228
738.614	14.92785
738.807	-54.60793
739	82.38126
739.192	0.17561
739.385	-4.03909
739.578	-37.75323
739.771	-71.461
739.964	25.46587
740.156	-50.3944
740.349	12.82031
740.542	-60.92802
740.735	4.39042
740.927	31.78897
741.12	-75.67402
741.313	2.283
741.505	12.82031
741.698	-14.57544
741.891	-73.56752
742.083	6.49786
742.276	6.49786
742.468	42.32793
742.661	29.68125
742.854	0.17561
743.046	-20.89695
743.239	46.54368
743.431	-10.36097
743.624	17.0354
743.816	48.65159
744.009	40.22009
744.201	17.0354
744.393	-46.18078
744.586	12.82031
744.778	46.54368
744.971	-23.00407
745.163	-77.78048
745.355	10.7128
745.548	-44.07393
745.74	-86.2061
745.932	-41.96706
746.125	-54.60793
746.317	4.39042
746.509	-23.00407
746.702	-4.03909
746.894	-73.56752
747.086	38.11228
747.278	-25.11117
747.471	54.97546
747.663	4.39042
747.855	33.89672
748.047	12.82031
748.239	14.92785
748.431	-16.68263
748.623	-10.36097
748.815	-1.93175
749.008	-35.64629
749.2	-8.2537
749.392	31.78897
749.584	17.0354
749.776	-10.36097
749.968	6.49786
750.16	63.4076
750.352	38.11228
750.544	8.60532
750.736	4.39042
750.928	-6.14641
751.12	-27.21824
751.311	-29.32529
751.503	-33.53931
751.695	-37.75323
751.887	-8.2537
752.079	76.05651
752.271	-44.07393
752.463	-16.68263
752.654	-4.03909
752.846	-54.60793
753.038	25.46587
753.23	42.32793
753.421	12.82031
753.613	-4.03909
753.805	29.68125
753.997	2.283
754.188	14.92785
754.38	-37.75323
754.572	65.5157
754.763	-46.18078
754.955	-10.36097
755.146	38.11228
755.338	50.75953
755.53	-35.64629
755.721	8.60532
755.913	4.39042
756.104	21.25059
756.296	-29.32529
756.487	12.82031
756.679	-10.36097
756.87	-12.46822
757.062	-8.2537
757.253	-29.32529
757.445	25.46587
757.636	-16.68263
757.827	17.0354
758.019	-37.75323
758.21	23.35822
758.401	-14.57544
758.593	-12.46822
758.784	65.5157
758.975	-35.64629
759.167	-50.3944
759.358	0.17561
759.549	-12.46822
759.74	-84.09974
759.932	-25.11117
760.123	0.17561
760.314	21.25059
760.505	-33.53931
760.696	0.17561
760.888	10.7128
761.079	-60.92802
761.27	6.49786
761.461	-8.2537
761.652	25.46587
761.843	21.25059
762.034	-23.00407
762.225	-23.00407
762.416	-52.50118
762.607	-94.6313
762.798	21.25059
762.989	-79.88693
763.18	-10.36097
763.371	6.49786
763.562	-23.00407
763.753	4.39042
763.944	21.25059
764.135	42.32793
764.326	0.17561
764.517	-18.7898
764.708	-20.89695
764.899	-23.00407
765.089	33.89672
765.28	33.89672
765.471	2.283
765.662	-46.18078
765.853	38.11228
766.043	-29.32529
766.234	-16.68263
766.425	61.29953
766.615	-29.32529
766.806	69.73195
766.997	36.00449
767.187	-107.26832
767.378	-37.75323
767.569	-29.32529
767.759	-46.18078
767.95	-8.2537
768.141	-20.89695
768.331	-37.75323
768.522	-37.75323
768.712	-25.11117
768.903	-54.60793
769.093	29.68125
769.284	-39.86016
769.474	4.39042
769.665	61.29953
769.855	4.39042
770.046	6.49786
770.236	10.7128
770.426	-20.89695
770.617	-20.89695
770.807	14.92785
770.998	-14.57544
771.188	50.75953
771.378	27.57355
771.569	-31.43231
771.759	29.68125
771.949	-4.03909
772.139	-50.3944
772.33	-44.07393
772.52	-37.75323
772.71	0.17561
772.9	-4.03909
773.09	4.39042
773.281	25.46587
773.471	12.82031
773.661	-39.86016
773.851	-63.03467
774.041	4.39042
774.231	4.39042
774.421	31.78897
774.611	-10.36097
774.802	-4.03909
774.992	33.89672
775.182	12.82031
775.372	36.00449
775.562	-31.43231
775.752	4.39042
775.942	-41.96706
776.131	36.00449
776.321	-25.11117
776.511	-41.96706
776.701	-37.75323
776.891	6.49786
777.081	-33.53931
777.271	-37.75323
777.461	-69.35446
777.651	-37.75323
777.84	6.49786
778.03	29.68125
778.22	4.39042
778.41	0.17561
778.599	-25.11117
778.789	-35.64629
778.979	-31.43231
779.169	-27.21824
779.358	88.70622
779.548	0.17561
779.738	-37.75323
779.927	-54.60793
780.117	65.5157
780.307	-16.68263
780.496	21.25059
780.686	-79.88693
780.875	-23.00407
781.065	-41.96706
781.254	-12.46822
781.444	-37.75323
781.633	-44.07393
781.823	-52.50118
782.012	-4.03909
782.202	-37.75323
782.391	10.7128
782.581	17.0354
782.77	-25.11117
782.96	-52.50118
783.149	46.54368
783.338	0.17561
783.528	12.82031
783.717	25.46587
783.906	8.60532
784.096	-6.14641
784.285	29.68125
784.474	29.68125
784.663	25.46587
784.853	-4.03909
785.042	-8.2537
785.231	-29.32529
785.42	-1.93175
785.61	-35.64629
785.799	-52.50118
785.988	-10.36097
786.177	-33.53931
786.366	-50.3944
786.555	-18.7898
786.744	-75.67402
786.933	-10.36097
787.122	-67.24789
787.312	-107.26832
787.501	29.68125
787.69	-27.21824
787.879	-84.09974
788.068	-4.03909
788.257	-4.03909
788.445	-60.92802
788.634	73.9483
788.823	4.39042
789.012	-67.24789
789.201	-4.03909
789.39	-4.03909
789.579	14.92785
789.768	8.60532
789.957	-52.50118
790.145	44.4358
790.334	-10.36097
790.523	52.86748
790.712	33.89672
790.9	-12.46822
791.089	-71.461
791.278	-20.89695
791.467	-65.14129
791.655	-37.75323
791.844	8.60532
792.033	29.68125
792.221	71.84011
792.41	-27.21824
792.599	-48.28761
792.787	-27.21824
792.976	21.25059
793.164	-10.36097
793.353	-27.21824
793.541	4.39042
793.73	4.39042
793.918	-41.96706
794.107	-4.03909
794.295	-6.14641
794.484	6.49786
794.672	8.60532
794.861	-67.24789
795.049	-8.2537
795.238	-79.88693
795.426	63.4076
795.614	14.92785
795.803	23.35822
795.991	12.82031
796.179	-12.46822
796.368	-33.53931
796.556	-27.21824
796.744	-8.2537
796.932	46.54368
797.121	-20.89695
797.309	-54.60793
797.497	-25.11117
797.685	-54.60793
797.874	-4.03909
798.062	-56.71465
798.25	23.35822
798.438	8.60532
798.626	-10.36097
798.814	-25.11117
799.002	-71.461
799.19	-50.3944
799.378	-75.67402
799.566	19.14299
799.755	-20.89695
799.943	-1.93175
800.131	6.49786
800.318	12.82031
800.506	6.49786
800.694	23.35822
800.882	-50.3944
801.07	4.39042
801.258	-16.68263
801.446	-50.3944
801.634	4.39042
801.822	101.35674
802.01	-27.21824
802.197	36.00449
802.385	23.35822
802.573	10.7128
802.761	-46.18078
802.949	-20.89695
803.136	-4.03909
803.324	54.97546
803.512	21.25059
803.699	25.46587
803.887	6.49786
804.075	-25.11117
804.262	8.60532
804.45	-25.11117
804.638	-12.46822
804.825	-10.36097
805.013	-58.82135
805.201	6.49786
805.388	0.17561
805.576	-50.3944
805.763	-25.11117
805.951	38.11228
806.138	-25.11117
806.326	4.39042
806.513	-88.31244
806.701	-16.68263
806.888	4.39042
807.075	-98.84375
807.263	4.39042
807.45	12.82031
807.638	0.17561
807.825	-18.7898
808.012	80.27299
808.2	-1.93175
808.387	-37.75323
808.574	-6.14641
808.761	-35.64629
808.949	-10.36097
809.136	2.283
809.323	42.32793
809.51	36.00449
809.698	6.49786
809.885	-20.89695
810.072	-18.7898
810.259	-35.64629
810.446	-37.75323
810.633	69.73195
810.82	31.78897
811.008	-25.11117
811.195	4.39042
811.382	10.7128
811.569	-65.14129
811.756	-69.35446
811.943	-35.64629
812.13	-29.32529
812.317	-12.46822
812.504	82.38126
812.691	-65.14129
812.878	10.7128
813.064	46.54368
813.251	-63.03467
813.438	4.39042
813.625	-50.3944
813.812	-10.36097
813.999	25.46587
814.186	-8.2537
814.372	-56.71465
814.559	95.03138
814.746	19.14299
814.933	-37.75323
815.12	-37.75323
815.306	38.11228
815.493	-4.03909
815.68	-20.89695
815.866	-63.03467
816.053	12.82031
816.24	54.97546
816.426	-4.03909
816.613	4.39042
816.799	-16.68263
816.986	-63.03467
817.173	-6.14641
817.359	-27.21824
817.546	-23.00407
817.732	23.35822
817.919	-8.2537
818.105	-12.46822
818.292	21.25059
818.478	-6.14641
818.665	-8.2537
818.851	-29.32529
819.037	-75.67402
819.224	-67.24789
819.41	-46.18078
819.597	21.25059
819.783	29.68125
819.969	-10.36097
820.156	4.39042
820.342	12.82031
820.528	-20.89695
820.714	-37.75323
820.901	-1.93175
821.087	-14.57544
821.273	29.68125
821.459	-48.28761
821.646	-94.6313
821.832	31.78897
822.018	-119.90439
822.204	50.75953
822.39	19.14299
822.576	31.78897
822.762	29.68125
822.948	29.68125
823.134	31.78897
823.32	57.08346
823.507	0.17561
823.693	12.82031
823.879	-20.89695
824.065	-1.93175
824.25	54.97546
824.436	31.78897
824.622	-27.21824
824.808	-67.24789
824.994	31.78897
825.18	-65.14129
825.366	57.08346
825.552	-8.2537
825.738	-8.2537
825.923	6.49786
826.109	57.08346
826.295	-18.7898
826.481	-50.3944
826.667	6.49786
826.852	-67.24789
827.038	4.39042
827.224	97.13981
827.409	-16.68263
827.595	10.7128
827.781	-63.03467
827.966	59.19149
828.152	-8.2537
828.338	-4.03909
828.523	-109.3744
828.709	12.82031
828.894	8.60532
829.08	14.92785
829.266	27.57355
829.451	-37.75323
829.637	12.82031
829.822	-8.2537
830.008	84.48956
830.193	8.60532
830.378	42.32793
830.564	-31.43231
830.749	-18.7898
830.935	36.00449
831.12	-65.14129
831.305	-29.32529
831.491	-12.46822
831.676	-35.64629
831.861	-8.2537
832.047	-88.31244
832.232	-33.53931
832.417	-41.96706
832.602	-37.75323
832.788	-1.93175
832.973	40.22009
833.158	6.49786
833.343	31.78897
833.528	-1.93175
833.714	-20.89695
833.899	-20.89695
834.084	-29.32529
834.269	14.92785
834.454	-4.03909
834.639	-67.24789
834.824	54.97546
835.009	-4.03909
835.194	-18.7898
835.379	-58.82135
835.564	12.82031
835.749	8.60532
835.934	-94.6313
836.119	-69.35446
836.304	-16.68263
836.489	-20.89695
836.674	73.9483
836.859	-16.68263
837.044	59.19149
837.228	29.68125
837.413	-16.68263
837.598	-10.36097
837.783	48.65159
837.968	-44.07393
838.152	-44.07393
838.337	-4.03909
838.522	-88.31244
838.707	-12.46822
838.891	25.46587
839.076	-44.07393
839.261	46.54368
839.445	23.35822
839.63	31.78897
839.815	46.54368
839.999	23.35822
840.184	-12.46822
840.368	4.39042
840.553	-12.46822
840.737	82.38126
840.922	-41.96706
841.106	-16.68263
841.291	29.68125
841.475	14.92785
841.66	10.7128
841.844	-27.21824
842.029	42.32793
842.213	-69.35446
842.397	-33.53931
842.582	46.54368
842.766	19.14299
842.951	8.60532
843.135	-12.46822
843.319	25.46587
843.504	44.4358
843.688	-29.32529
843.872	-4.03909
844.056	42.32793
844.241	8.60532
844.425	-60.92802
844.609	-60.92802
844.793	-23.00407
844.977	42.32793
845.161	-35.64629
845.346	-54.60793
845.53	21.25059
845.714	-50.3944
845.898	14.92785
846.082	-44.07393
846.266	-50.3944
846.45	-48.28761
846.634	19.14299
846.818	2.283
847.002	-35.64629
847.186	0.17561
847.37	14.92785
847.554	12.82031
847.738	-56.71465
847.922	-37.75323
848.106	-25.11117
848.29	-54.60793
848.473	40.22009
848.657	4.39042
848.841	-14.57544
849.025	12.82031
849.209	-25.11117
849.392	19.14299
849.576	-12.46822
849.76	12.82031
849.944	38.11228
850.127	21.25059
850.311	4.39042
850.495	-8.2537
850.678	14.92785
850.862	-4.03909
851.046	-29.32529
851.229	21.25059
851.413	33.89672
851.596	-35.64629
851.78	19.14299
851.964	46.54368
852.147	-54.60793
852.331	21.25059
852.514	-16.68263
852.698	6.49786
852.881	-12.46822
853.065	-39.86016
853.248	8.60532
853.431	-12.46822
853.615	21.25059
853.798	73.9483
853.982	-46.18078
854.165	-10.36097
854.348	12.82031
854.532	-46.18078
854.715	-46.18078
854.898	21.25059
855.081	12.82031
855.265	-46.18078
855.448	0.17561
855.631	38.11228
855.814	-25.11117
855.997	-37.75323
856.181	-25.11117
856.364	-10.36097
856.547	31.78897
856.73	-20.89695
856.913	-12.46822
857.096	-10.36097
857.279	-41.96706
857.462	-69.35446
857.645	46.54368
857.828	14.92785
858.011	-8.2537
858.194	10.7128
858.377	-65.14129
858.56	4.39042
858.743	-33.53931
858.926	31.78897
859.109	-20.89695
859.292	-20.89695
859.475	-71.461
859.658	-65.14129
859.841	90.81458
860.023	-33.53931
860.206	6.49786
860.389	10.7128
860.572	40.22009
860.755	-33.53931
860.937	33.89672
861.12	6.49786
861.303	40.22009
861.486	19.14299
861.668	46.54368
861.851	-94.6313
862.034	-25.11117
862.216	0.17561
862.399	-48.28761
862.581	-81.99334
862.764	67.62381
862.947	105.57375
863.129	29.68125
863.312	-48.28761
863.494	90.81458
863.677	46.54368
863.859	-41.96706
864.042	-44.07393
864.224	-6.14641
864.406	-39.86016
864.589	-23.00407
864.771	-10.36097
864.954	-54.60793
865.136	-71.461
865.318	21.25059
865.501	-37.75323
865.683	-1.93175
865.865	-46.18078
866.048	-1.93175
866.23	-14.57544
866.412	25.46587
866.594	-4.03909
866.777	0.17561
866.959	-6.14641
867.141	-4.03909
867.323	-88.31244
867.505	-8.2537
867.687	-16.68263
867.869	2.283
868.052	0.17561
868.234	97.13981
868.416	0.17561
868.598	-52.50118
868.78	4.39042
868.962	50.75953
869.144	19.14299
869.326	-69.35446
869.508	31.78897
869.69	-35.64629
869.872	-27.21824
870.054	82.38126
870.236	-16.68263
870.417	46.54368
870.599	-122.01031
870.781	14.92785
870.963	-23.00407
871.145	-20.89695
871.327	8.60532
871.508	6.49786
871.69	17.0354
871.872	17.0354
872.054	-25.11117
872.235	33.89672
872.417	-44.07393
872.599	-33.53931
872.78	-4.03909
872.962	6.49786
873.144	-27.21824
873.325	63.4076
873.507	54.97546
873.689	-16.68263
873.87	10.7128
874.052	71.84011
874.233	-4.03909
874.415	21.25059
874.596	10.7128
874.778	2.283
874.959	6.49786
875.141	42.32793
875.322	17.0354
875.503	-4.03909
875.685	-46.18078
875.866	-63.03467
876.048	-29.32529
876.229	-25.11117
876.41	21.25059
876.592	-25.11117
876.773	8.60532
876.954	-6.14641
877.136	6.49786
877.317	-33.53931
877.498	-12.46822
877.679	-20.89695
877.86	33.89672
878.042	-8.2537
878.223	12.82031
878.404	29.68125
878.585	-37.75323
878.766	8.60532
878.947	29.68125
879.128	-20.89695
879.309	23.35822
879.49	-58.82135
879.672	29.68125
879.853	-67.24789
880.034	25.46587
880.215	59.19149
880.396	-16.68263
880.576	-20.89695
880.757	-46.18078
880.938	-35.64629
881.119	-31.43231
881.3	-33.53931
881.481	4.39042
881.662	-14.57544
881.843	6.49786
882.023	44.4358
882.204	-23.00407
882.385	14.92785
882.566	-27.21824
882.747	36.00449
882.927	-33.53931
883.108	-56.71465
883.289	17.0354
883.469	-10.36097
883.65	-20.89695
883.831	-12.46822
884.011	-8.2537
884.192	-31.43231
884.373	6.49786
884.553	-37.75323
884.734	17.0354
884.914	-1.93175
885.095	-41.96706
885.275	42.32793
885.456	-33.53931
885.636	59.19149
885.817	48.65159
885.997	42.32793
886.178	-31.43231
886.358	-25.11117
886.538	-37.75323
886.719	-60.92802
886.899	-16.68263
887.08	-27.21824
887.26	23.35822
887.44	29.68125
887.621	-23.00407
887.801	25.46587
887.981	33.89672
888.161	6.49786
888.342	14.92785
888.522	-18.7898
888.702	-48.28761
888.882	-41.96706
889.062	-4.03909
889.242	12.82031
889.423	8.60532
889.603	-20.89695
889.783	65.5157
889.963	-88.31244
890.143	44.4358
890.323	6.49786
890.503	-48.28761
890.683	-50.3944
890.863	4.39042
891.043	-23.00407
891.223	-29.32529
891.403	-12.46822
891.583	54.97546
891.763	-48.28761
891.943	-35.64629
892.122	38.11228
892.302	8.60532
892.482	-12.46822
892.662	-12.46822
892.842	-16.68263
893.022	14.92785
893.201	-75.67402
893.381	-1.93175
893.561	-23.00407
893.741	-4.03909
893.92	50.75953
894.1	-12.46822
894.28	-25.11117
894.459	-71.461
894.639	-10.36097
894.819	17.0354
894.998	-20.89695
895.178	-63.03467
895.357	-35.64629
895.537	-10.36097
895.716	-16.68263
895.896	29.68125
896.075	-16.68263
896.255	38.11228
896.434	-69.35446
896.614	-4.03909
896.793	-33.53931
896.973	-12.46822
897.152	19.14299
897.331	-33.53931
897.511	-16.68263
897.69	-39.86016
897.87	38.11228
898.049	17.0354
898.228	-16.68263
898.407	-52.50118
898.587	-25.11117
898.766	17.0354
898.945	12.82031
899.124	-37.75323
899.304	-16.68263
899.483	-18.7898
899.662	10.7128
899.841	-67.24789
900.02	-6.14641
900.199	-33.53931
900.378	54.97546
900.557	8.60532
900.737	-12.46822
900.916	-46.18078
901.095	-35.64629
901.274	33.89672
901.453	8.60532
901.632	-1.93175
901.811	-75.67402
901.989	10.7128
902.168	-4.03909
902.347	67.62381
902.526	-10.36097
902.705	27.57355
902.884	-92.52504
903.063	-60.92802
903.242	50.75953
903.42	12.82031
903.599	-84.09974
903.778	-48.28761
903.957	-35.64629
904.135	17.0354
904.314	-10.36097
904.493	-48.28761
904.672	-39.86016
904.85	-10.36097
905.029	63.4076
905.207	4.39042
905.386	-4.03909
905.565	12.82031
905.743	36.00449
905.922	-4.03909
906.1	25.46587
906.279	-27.21824
906.457	-16.68263
906.636	-1.93175
906.814	76.05651
906.993	-35.64629
907.171	14.92785
907.35	31.78897
907.528	2.283
907.707	-44.07393
907.885	-20.89695
908.063	-20.89695
908.242	12.82031
908.42	-6.14641
908.598	44.4358
908.777	-37.75323
908.955	59.19149
909.133	-4.03909
909.311	-31.43231
909.49	107.68229
909.668	-8.2537
909.846	-4.03909
910.024	2.283
910.202	-1.93175
910.38	21.25059
910.559	59.19149
910.737	-58.82135
910.915	36.00449
911.093	17.0354
911.271	-52.50118
911.449	31.78897
911.627	-63.03467
911.805	-4.03909
911.983	-18.7898
912.161	76.05651
912.339	-10.36097
912.517	-46.18078
912.695	-81.99334
912.872	-4.03909
913.05	0.17561
913.228	-46.18078
913.406	4.39042
913.584	-35.64629
913.762	2.283
913.939	12.82031
914.117	-31.43231
914.295	12.82031
914.473	-84.09974
914.65	0.17561
914.828	-44.07393
915.006	42.32793
915.184	-54.60793
915.361	-56.71465
915.539	-46.18078
915.716	17.0354
915.894	12.82031
916.072	12.82031
916.249	29.68125
916.427	6.49786
916.604	6.49786
916.782	-8.2537
916.959	-54.60793
917.137	-20.89695
917.314	-27.21824
917.492	-44.07393
917.669	-1.93175
917.847	-58.82135
918.024	29.68125
918.201	23.35822
918.379	4.39042
918.556	-12.46822
918.733	-37.75323
918.911	4.39042
919.088	-10.36097
919.265	-6.14641
919.442	-35.64629
919.62	-20.89695
919.797	-50.3944
919.974	29.68125
920.151	21.25059
920.328	-16.68263
920.506	-8.2537
920.683	50.75953
920.86	-71.461
921.037	-8.2537
921.214	12.82031
921.391	-18.7898
921.568	59.19149
921.745	-20.89695
921.922	-12.46822
922.099	-16.68263
922.276	0.17561
922.453	-103.05609
922.63	0.17561
922.807	0.17561
922.984	38.11228
923.161	27.57355
923.338	-14.57544
923.514	29.68125
923.691	-4.03909
923.868	-35.64629
924.045	17.0354
924.222	-46.18078
924.399	54.97546
924.575	25.46587
924.752	-16.68263
924.929	-8.2537
925.105	17.0354
925.282	-35.64629
925.459	42.32793
925.635	-54.60793
925.812	-71.461
925.989	-14.57544
926.165	-10.36097
926.342	-1.93175
926.518	65.5157
926.695	-8.2537
926.871	6.49786
927.048	12.82031
927.224	-94.6313
927.401	-6.14641
927.577	36.00449
927.754	-18.7898
927.93	-12.46822
928.107	-75.67402
928.283	19.14299
928.459	-37.75323
928.636	25.46587
928.812	31.78897
928.988	-75.67402
929.165	-46.18078
929.341	59.19149
929.517	12.82031
929.693	29.68125
929.87	-1.93175
930.046	23.35822
930.222	-20.89695
930.398	57.08346
930.574	-8.2537
930.751	-20.89695
930.927	12.82031
931.103	-27.21824
931.279	4.39042
931.455	12.82031
931.631	-20.89695
931.807	10.7128
931.983	21.25059
932.159	36.00449
932.335	76.05651
932.511	-1.93175
932.687	17.0354
932.863	46.54368
933.039	-12.46822
933.215	17.0354
933.391	38.11228
933.566	67.62381
933.742	-63.03467
933.918	-31.43231
934.094	-79.88693
934.27	-37.75323
934.445	57.08346
934.621	-10.36097
934.797	4.39042
934.973	38.11228
935.148	-75.67402
935.324	0.17561
935.5	-8.2537
935.675	-52.50118
935.851	42.32793
936.027	21.25059
936.202	57.08346
936.378	-1.93175
936.553	-58.82135
936.729	-12.46822
936.904	-33.53931
937.08	2.283
937.255	57.08346
937.431	-20.89695
937.606	-4.03909
937.782	-8.2537
937.957	33.89672
938.133	-54.60793
938.308	-1.93175
938.483	76.05651
938.659	27.57355
938.834	-33.53931
939.009	-1.93175
939.185	38.11228
939.36	-63.03467
939.535	-41.96706
939.71	-16.68263
939.886	2.283
940.061	19.14299
940.236	-25.11117
940.411	31.78897
940.586	38.11228
940.761	19.14299
940.937	12.82031
941.112	-29.32529
941.287	-39.86016
941.462	-31.43231
941.637	-56.71465
941.812	8.60532
941.987	-18.7898
942.162	33.89672
942.337	-16.68263
942.512	12.82031
942.687	-132.5395
942.862	-29.32529
943.037	31.78897
943.212	-8.2537
943.386	8.60532
943.561	12.82031
943.736	40.22009
943.911	-16.68263
944.086	23.35822
944.26	-29.32529
944.435	-20.89695
944.61	-4.03909
944.785	-10.36097
944.959	8.60532
945.134	6.49786
945.309	-25.11117
945.483	0.17561
945.658	21.25059
945.833	-8.2537
946.007	-54.60793
946.182	36.00449
946.357	-39.86016
946.531	-20.89695
946.706	-65.14129
946.88	-96.73754
947.055	46.54368
947.229	-14.57544
947.404	14.92785
947.578	0.17561
947.752	31.78897
947.927	8.60532
948.101	-16.68263
948.276	57.08346
948.45	33.89672
948.624	-25.11117
948.799	-4.03909
948.973	-50.3944
949.147	-25.11117
949.321	-25.11117
949.496	-29.32529
949.67	-44.07393
949.844	29.68125
950.018	8.60532
950.193	21.25059
950.367	14.92785
950.541	-41.96706
950.715	12.82031
950.889	17.0354
951.063	-29.32529
951.237	-12.46822
951.411	46.54368
951.585	-29.32529
951.759	-4.03909
951.933	17.0354
952.107	-23.00407
952.281	31.78897
952.455	29.68125
952.629	-58.82135
952.803	-58.82135
952.977	61.29953
953.151	-46.18078
953.325	-44.07393
953.499	-52.50118
953.672	14.92785
953.846	19.14299
954.02	67.62381
954.194	59.19149
954.368	-16.68263
954.541	-18.7898
954.715	12.82031
954.889	-105.16222
955.062	14.92785
955.236	-25.11117
955.41	63.4076
955.583	-10.36097
955.757	12.82031
955.93	10.7128
956.104	-35.64629
956.278	-39.86016
956.451	65.5157
956.625	-18.7898
956.798	14.92785
956.972	14.92785
957.145	38.11228
957.319	-71.461
957.492	-37.75323
957.665	-29.32529
957.839	-16.68263
958.012	-6.14641
958.185	-1.93175
958.359	36.00449
958.532	-4.03909
958.705	-29.32529
958.879	65.5157
959.052	-37.75323
959.225	88.70622
959.398	2.283
959.572	25.46587
959.745	-44.07393
959.918	67.62381
960.091	-14.57544
960.264	-10.36097
960.438	-25.11117
960.611	14.92785
960.784	4.39042
960.957	21.25059
961.13	-63.03467
961.303	65.5157
961.476	50.75953
961.649	-12.46822
961.822	29.68125
961.995	-79.88693
962.168	-18.7898
962.341	4.39042
962.514	4.39042
962.686	2.283
962.859	-12.46822
963.032	-33.53931
963.205	-50.3944
963.378	6.49786
963.551	-12.46822
963.723	12.82031
963.896	-14.57544
964.069	-8.2537
964.242	-37.75323
964.414	-18.7898
964.587	-54.60793
964.76	19.14299
964.932	4.39042
965.105	-20.89695
965.278	0.17561
965.45	-46.18078
965.623	4.39042
965.795	-60.92802
965.968	-29.32529
966.14	-8.2537
966.313	4.39042
966.485	33.89672
966.658	-77.78048
966.83	-10.36097
967.003	-14.57544
967.175	86.59788
967.348	4.39042
967.52	40.22009
967.692	-1.93175
967.865	88.70622
968.037	-4.03909
968.209	19.14299
968.382	-10.36097
968.554	-18.7898
968.726	31.78897
968.898	-31.43231
969.071	-73.56752
969.243	21.25059
969.415	42.32793
969.587	-41.96706
969.759	-29.32529
969.932	-71.461
970.104	-6.14641
970.276	6.49786
970.448	-65.14129
970.62	-92.52504
970.792	42.32793
970.964	8.60532
971.136	4.39042
971.308	36.00449
971.48	-16.68263
971.652	-37.75323
971.824	12.82031
971.996	92.92297
972.168	-12.46822
972.339	-37.75323
972.511	-60.92802
972.683	-33.53931
972.855	-1.93175
973.027	-37.75323
973.199	-39.86016
973.37	-37.75323
973.542	-27.21824
973.714	50.75953
973.886	-20.89695
974.057	-31.43231
974.229	10.7128
974.401	12.82031
974.572	-4.03909
974.744	33.89672
974.915	-86.2061
975.087	40.22009
975.259	27.57355
975.43	-27.21824
975.602	-88.31244
975.773	-8.2537
975.945	21.25059
976.116	-4.03909
976.288	-4.03909
976.459	33.89672
976.63	59.19149
976.802	12.82031
976.973	-12.46822
977.145	-27.21824
977.316	6.49786
977.487	65.5157
977.659	-14.57544
977.83	-41.96706
978.001	-14.57544
978.172	-81.99334
978.344	-14.57544
978.515	17.0354
978.686	25.46587
978.857	29.68125
979.028	-16.68263
979.2	-4.03909
979.371	21.25059
979.542	0.17561
979.713	-10.36097
979.884	-50.3944
980.055	48.65159
980.226	76.05651
980.397	-29.32529
980.568	12.82031
980.739	-4.03909
980.91	17.0354
981.081	71.84011
981.252	-20.89695
981.423	-12.46822
981.594	29.68125
981.765	-16.68263
981.936	0.17561
982.106	33.89672
982.277	-4.03909
982.448	21.25059
982.619	-37.75323
982.79	-50.3944
982.96	-4.03909
983.131	-25.11117
983.302	-41.96706
983.472	8.60532
983.643	-6.14641
983.814	-16.68263
983.984	-67.24789
984.155	-27.21824
984.326	-37.75323
984.496	-25.11117
984.667	8.60532
984.837	61.29953
985.008	-18.7898
985.178	-12.46822
985.349	-33.53931
985.519	40.22009
985.69	-12.46822
985.86	-12.46822
986.031	44.4358
986.201	38.11228
986.371	-75.67402
986.542	-37.75323
986.712	-77.78048
986.882	-10.36097
987.053	71.84011
987.223	-16.68263
987.393	-4.03909
987.563	-44.07393
987.734	-1.93175
987.904	10.7128
988.074	6.49786
988.244	-69.35446
988.414	29.68125
988.585	10.7128
988.755	25.46587
988.925	-37.75323
989.095	-1.93175
989.265	10.7128
989.435	-37.75323
989.605	17.0354
989.775	21.25059
989.945	54.97546
990.115	29.68125
990.285	12.82031
990.455	67.62381
990.625	29.68125
990.795	-41.96706
990.965	-1.93175
991.134	38.11228
991.304	-20.89695
991.474	-33.53931
991.644	-79.88693
991.814	4.39042
991.984	-4.03909
992.153	-39.86016
992.323	-37.75323
992.493	-52.50118
992.662	46.54368
992.832	-33.53931
993.002	-4.03909
993.171	23.35822
993.341	59.19149
993.511	-33.53931
993.68	4.39042
993.85	25.46587
994.019	-44.07393
994.189	-18.7898
994.358	-35.64629
994.528	-23.00407
994.697	12.82031
994.867	-10.36097
995.036	-37.75323
995.206	-58.82135
995.375	0.17561
995.544	46.54368
995.714	-41.96706
995.883	12.82031
996.052	31.78897
996.222	31.78897
996.391	-4.03909
996.56	6.49786
996.73	-23.00407
996.899	8.60532
997.068	-44.07393
997.237	14.92785
997.406	59.19149
997.576	-4.03909
997.745	-16.68263
997.914	-12.46822
998.083	10.7128
998.252	-10.36097
998.421	29.68125
998.59	-37.75323
998.759	-8.2537
998.928	-1.93175
999.097	19.14299
999.266	-44.07393
999.435	19.14299
999.604	-41.96706
999.773	29.68125
999.942	14.92785
1000.111	57.08346
1000.28	48.65159
1000.448	-20.89695
1000.617	-39.86016
1000.786	14.92785
1000.955	29.68125
1001.124	-29.32529
1001.292	-16.68263
1001.461	-20.89695
1001.63	-50.3944
1001.798	-8.2537
1001.967	23.35822
1002.136	21.25059
1002.304	-14.57544
1002.473	-46.18078
1002.642	38.11228
1002.81	-16.68263
1002.979	29.68125
1003.147	-18.7898
1003.316	6.49786
1003.484	63.4076
1003.653	-54.60793
1003.821	-8.2537
1003.99	8.60532
1004.158	-54.60793
1004.327	-29.32529
1004.495	21.25059
1004.663	-71.461
1004.832	19.14299
1005	-14.57544
1005.168	-37.75323
1005.337	4.39042
1005.505	-23.00407
1005.673	0.17561
1005.842	67.62381
1006.01	-1.93175
1006.178	-37.75323
1006.346	21.25059
1006.514	23.35822
1006.683	29.68125
1006.851	10.7128
1007.019	4.39042
1007.187	-33.53931
1007.355	-56.71465
1007.523	-44.07393
1007.691	-115.69247
1007.859	38.11228
1008.027	-4.03909
1008.195	-27.21824
1008.363	48.65159
1008.531	23.35822
1008.699	21.25059
1008.867	-117.79845
1009.035	29.68125
1009.203	31.78897
1009.37	-18.7898
1009.538	-12.46822
1009.706	42.32793
1009.874	19.14299
1010.042	-29.32529
1010.209	118.22533
1010.377	0.17561
1010.545	-29.32529
1010.713	48.65159
1010.88	-10.36097
1011.048	-8.2537
1011.216	-12.46822
1011.383	57.08346
1011.551	-8.2537
1011.718	-46.18078
1011.886	4.39042
1012.054	-1.93175
1012.221	23.35822
1012.389	4.39042
1012.556	6.49786
1012.724	-20.89695
1012.891	42.32793
1013.058	-86.2061
1013.226	-23.00407
1013.393	31.78897
1013.561	-25.11117
1013.728	59.19149
1013.895	23.35822
1014.063	-71.461
1014.23	-14.57544
1014.397	8.60532
1014.565	-69.35446
1014.732	33.89672
1014.899	27.57355
1015.066	48.65159
1015.233	-46.18078
1015.401	-16.68263
1015.568	21.25059
1015.735	-39.86016
1015.902	-41.96706
1016.069	-92.52504
1016.236	27.57355
1016.403	0.17561
1016.57	-16.68263
1016.737	25.46587
1016.904	-56.71465
1017.071	-58.82135
1017.238	-31.43231
1017.405	-46.18078
1017.572	-46.18078
1017.739	38.11228
1017.906	-37.75323
1018.073	4.39042
1018.24	33.89672
1018.407	71.84011
1018.573	-33.53931
1018.74	-8.2537
1018.907	-6.14641
1019.074	-35.64629
1019.241	-16.68263
1019.407	-20.89695
1019.574	19.14299
1019.741	-10.36097
1019.907	-12.46822
1020.074	50.75953
1020.241	-29.32529
1020.407	6.49786
1020.574	-58.82135
1020.74	54.97546
1020.907	-48.28761
1021.073	-16.68263
1021.24	36.00449
1021.406	31.78897
1021.573	-33.53931
1021.739	6.49786
1021.906	71.84011
1022.072	-63.03467
1022.239	-75.67402
1022.405	-109.3744
1022.571	4.39042
1022.738	48.65159
1022.904	0.17561
1023.07	-71.461
1023.237	-92.52504
1023.403	-12.46822
1023.569	-58.82135
1023.735	46.54368
1023.902	42.32793
1024.068	17.0354
1024.234	25.46587
1024.4	-20.89695
1024.566	50.75953
1024.732	2.283
1024.898	-29.32529
1025.065	57.08346
1025.231	-94.6313
1025.397	21.25059
1025.563	38.11228
1025.729	54.97546
1025.895	-67.24789
1026.061	-48.28761
1026.227	-50.3944
1026.392	31.78897
1026.558	-4.03909
1026.724	12.82031
1026.89	-14.57544
1027.056	-60.92802
1027.222	-25.11117
1027.388	25.46587
1027.553	-8.2537
1027.719	-29.32529
1027.885	17.0354
1028.051	-29.32529
1028.216	27.57355
1028.382	46.54368
1028.548	29.68125
1028.713	-14.57544
1028.879	-71.461
1029.045	0.17561
1029.21	-20.89695
1029.376	-12.46822
1029.541	0.17561
1029.707	21.25059
1029.873	-33.53931
1030.038	-37.75323
1030.204	-33.53931
1030.369	-39.86016
1030.534	10.7128
1030.7	69.73195
1030.865	-16.68263
1031.031	-1.93175
1031.196	-14.57544
1031.361	23.35822
1031.527	29.68125
1031.692	-1.93175
1031.857	-35.64629
1032.023	19.14299
1032.188	-25.11117
1032.353	46.54368
1032.518	-54.60793
1032.684	29.68125
1032.849	-41.96706
1033.014	46.54368
1033.179	17.0354
1033.344	38.11228
1033.509	6.49786
1033.674	-60.92802
1033.839	8.60532
1034.004	12.82031
1034.17	80.27299
1034.335	19.14299
1034.5	12.82031
1034.664	33.89672
1034.829	36.00449
1034.994	-46.18078
1035.159	71.84011
1035.324	33.89672
1035.489	4.39042
1035.654	0.17561
1035.819	48.65159
1035.984	-1.93175
1036.148	-8.2537
1036.313	-12.46822
1036.478	-12.46822
1036.643	-20.89695
1036.807	12.82031
1036.972	0.17561
1037.137	54.97546
1037.301	12.82031
1037.466	-33.53931
1037.631	54.97546
1037.795	-35.64629
1037.96	12.82031
1038.124	-1.93175
1038.289	25.46587
1038.454	12.82031
1038.618	12.82031
1038.783	-1.93175
1038.947	-54.60793
1039.111	-44.07393
1039.276	-12.46822
1039.44	4.39042
1039.605	-54.60793
1039.769	-31.43231
1039.933	2.283
1040.098	42.32793
1040.262	17.0354
1040.426	21.25059
1040.591	-46.18078
1040.755	42.32793
1040.919	-14.57544
1041.083	21.25059
1041.248	52.86748
1041.412	19.14299
1041.576	21.25059
1041.74	2.283
1041.904	17.0354
1042.068	23.35822
1042.232	-109.3744
1042.397	-29.32529
1042.561	76.05651
1042.725	25.46587
1042.889	42.32793
1043.053	-4.03909
1043.217	4.39042
1043.381	21.25059
1043.544	2.283
1043.708	-29.32529
1043.872	-6.14641
1044.036	-14.57544
1044.2	42.32793
1044.364	-20.89695
1044.528	-33.53931
1044.691	-4.03909
1044.855	21.25059
1045.019	-48.28761
1045.183	63.4076
1045.346	38.11228
1045.51	14.92785
1045.674	-79.88693
1045.837	69.73195
1046.001	50.75953
1046.165	-4.03909
1046.328	-12.46822
1046.492	-56.71465
1046.655	-37.75323
1046.819	-23.00407
1046.983	-46.18078
1047.146	38.11228
1047.31	-18.7898
1047.473	-60.92802
1047.636	-4.03909
1047.8	-10.36097
1047.963	54.97546
1048.127	-1.93175
1048.29	29.68125
