Data from Scatter_Coeff_Baseline_USB4F045381__5__0005.txt Node

Date: Thu Feb 13 19:13:53 EST 2025
User: mmckonesweet
Spectrometer: USB4F04538
Trigger mode: 4
Integration Time (sec): 2.400000E-3
Scans to average: 1
Electric dark correction enabled: true
Nonlinearity correction enabled: true
Boxcar width: 0
XAxis mode: Wavelengths
Number of Pixels in Spectrum: 3648
>>>>>Begin Spectral Data<<<<<
345.52	36.70708
345.736	36.70708
345.952	36.70708
346.168	13.52282
346.384	28.27611
346.6	30.38382
346.816	-64.43909
347.032	-9.65855
347.248	62.00222
347.464	7.20034
347.68	13.52282
347.896	-45.4785
348.112	87.30066
348.328	-56.01241
348.544	-26.51589
348.76	-5.44397
348.975	7.20034
349.191	53.57014
349.407	24.06077
349.623	45.13842
349.839	28.27611
350.055	30.38382
350.27	28.27611
350.486	-26.51589
350.702	-20.19457
350.918	53.57014
351.133	62.00222
351.349	36.70708
351.565	74.65103
351.781	7.20034
351.996	30.38382
352.212	-13.87303
352.428	57.78613
352.644	-70.75882
352.859	-87.61033
353.075	-7.55127
353.291	28.27611
353.506	19.84552
353.722	-3.33665
353.938	24.06077
354.153	21.95313
354.369	40.92271
354.584	34.5993
354.8	-1.2293
355.016	34.5993
355.231	66.2184
355.447	-30.72997
355.662	7.20034
355.878	-60.2258
356.093	36.70708
356.309	30.38382
356.524	-56.01241
356.74	0.87808
356.955	87.30066
357.171	-11.7658
357.386	45.13842
357.602	9.30781
357.817	17.73793
358.033	68.32652
358.248	-37.05092
358.464	-5.44397
358.679	28.27611
358.895	-28.62294
359.11	-24.40881
359.325	85.19233
359.541	-22.3017
359.756	66.2184
359.972	49.35423
360.187	15.63036
360.402	47.24632
360.618	32.49155
360.833	38.81488
361.048	36.70708
361.264	-9.65855
361.479	-11.7658
361.694	68.32652
361.909	-20.19457
362.125	15.63036
362.34	53.57014
362.555	9.30781
362.77	15.63036
362.986	24.06077
363.201	-15.98024
363.416	-5.44397
363.631	-7.55127
363.847	28.27611
364.062	15.63036
364.277	5.09289
364.492	-26.51589
364.707	-1.2293
364.922	-15.98024
365.138	36.70708
365.353	13.52282
365.568	133.68943
365.783	-5.44397
365.998	-15.98024
366.213	-20.19457
366.428	2.98547
366.643	40.92271
366.858	62.00222
367.073	-30.72997
367.288	43.03055
367.503	74.65103
367.718	49.35423
367.933	47.24632
368.148	74.65103
368.363	70.43467
368.578	-15.98024
368.793	26.16843
369.008	32.49155
369.223	49.35423
369.438	-34.94396
369.653	83.08402
369.868	32.49155
370.083	72.54284
370.298	-13.87303
370.513	70.43467
370.728	53.57014
370.943	-34.94396
371.157	47.24632
371.372	17.73793
371.587	-22.3017
371.802	59.89417
372.017	-9.65855
372.232	-47.58533
372.446	-9.65855
372.661	11.4153
372.876	17.73793
373.091	53.57014
373.306	97.84262
373.52	0.87808
373.735	-28.62294
373.95	28.27611
374.165	32.49155
374.379	53.57014
374.594	-45.4785
374.809	74.65103
375.023	64.1103
375.238	76.75925
375.453	11.4153
375.667	-26.51589
375.882	15.63036
376.097	36.70708
376.311	70.43467
376.526	32.49155
376.741	-81.29121
376.955	-47.58533
377.17	21.95313
377.384	-39.15785
377.599	32.49155
377.813	21.95313
378.028	19.84552
378.242	15.63036
378.457	30.38382
378.672	5.09289
378.886	-22.3017
379.101	34.5993
379.315	49.35423
379.53	26.16843
379.744	7.20034
379.958	11.4153
380.173	13.52282
380.387	-5.44397
380.602	2.98547
380.816	2.98547
381.031	26.16843
381.245	57.78613
381.459	49.35423
381.674	28.27611
381.888	5.09289
382.103	19.84552
382.317	2.98547
382.531	9.30781
382.746	104.16807
382.96	70.43467
383.174	28.27611
383.388	-32.83698
383.603	-7.55127
383.817	-5.44397
384.031	26.16843
384.246	36.70708
384.46	-47.58533
384.674	15.63036
384.888	-11.7658
385.103	62.00222
385.317	36.70708
385.531	-30.72997
385.745	64.1103
385.959	-22.3017
386.174	66.2184
386.388	51.46218
386.602	-13.87303
386.816	62.00222
387.03	72.54284
387.244	2.98547
387.458	85.19233
387.672	-1.2293
387.887	-11.7658
388.101	30.38382
388.315	9.30781
388.529	34.5993
388.743	28.27611
388.957	70.43467
389.171	70.43467
389.385	40.92271
389.599	-37.05092
389.813	13.52282
390.027	28.27611
390.241	11.4153
390.455	-34.94396
390.669	19.84552
390.883	47.24632
391.097	62.00222
391.311	-18.08741
391.525	7.20034
391.738	21.95313
391.952	95.73419
392.166	-5.44397
392.38	91.51738
392.594	38.81488
392.808	45.13842
393.022	64.1103
393.236	-7.55127
393.449	43.03055
393.663	-64.43909
393.877	-26.51589
394.091	-30.72997
394.305	17.73793
394.518	36.70708
394.732	-28.62294
394.946	36.70708
395.16	9.30781
395.373	-13.87303
395.587	-51.79892
395.801	93.62577
396.015	-3.33665
396.228	64.1103
396.442	59.89417
396.656	-22.3017
396.869	-3.33665
397.083	47.24632
397.297	36.70708
397.51	28.27611
397.724	7.20034
397.938	36.70708
398.151	45.13842
398.365	89.40901
398.578	72.54284
398.792	47.24632
399.005	62.00222
399.219	45.13842
399.433	70.43467
399.646	70.43467
399.86	28.27611
400.073	62.00222
400.287	-9.65855
400.5	83.08402
400.714	74.65103
400.927	15.63036
401.141	17.73793
401.354	40.92271
401.567	59.89417
401.781	72.54284
401.994	-3.33665
402.208	49.35423
402.421	11.4153
402.635	32.49155
402.848	24.06077
403.061	38.81488
403.275	36.70708
403.488	80.97574
403.701	-5.44397
403.915	55.67812
404.128	-15.98024
404.341	47.24632
404.555	114.71092
404.768	36.70708
404.981	38.81488
405.195	78.86748
405.408	28.27611
405.621	-66.54569
405.834	91.51738
406.048	34.5993
406.261	38.81488
406.474	70.43467
406.687	68.32652
406.9	80.97574
407.114	40.92271
407.327	11.4153
407.54	49.35423
407.753	85.19233
407.966	7.20034
408.179	47.24632
408.392	62.00222
408.605	64.1103
408.819	2.98547
409.032	36.70708
409.245	70.43467
409.458	55.67812
409.671	129.47183
409.884	30.38382
410.097	30.38382
410.31	53.57014
410.523	53.57014
410.736	97.84262
410.949	-5.44397
411.162	62.00222
411.375	-34.94396
411.588	87.30066
411.801	95.73419
412.014	-1.2293
412.227	30.38382
412.44	123.1456
412.653	36.70708
412.865	0.87808
413.078	38.81488
413.291	36.70708
413.504	36.70708
413.717	45.13842
413.93	108.38515
414.143	68.32652
414.356	99.95108
414.568	55.67812
414.781	38.81488
414.994	114.71092
415.207	40.92271
415.42	13.52282
415.632	45.13842
415.845	80.97574
416.058	49.35423
416.271	45.13842
416.483	36.70708
416.696	104.16807
416.909	36.70708
417.121	118.92822
417.334	62.00222
417.547	53.57014
417.759	24.06077
417.972	47.24632
418.185	74.65103
418.397	78.86748
418.61	116.81956
418.823	32.49155
419.035	87.30066
419.248	11.4153
419.46	152.66967
419.673	5.09289
419.885	80.97574
420.098	21.95313
420.311	70.43467
420.523	32.49155
420.736	131.58062
420.948	83.08402
421.161	40.92271
421.373	87.30066
421.586	64.1103
421.798	95.73419
422.01	36.70708
422.223	167.43326
422.435	123.1456
422.648	28.27611
422.86	57.78613
423.073	19.84552
423.285	118.92822
423.497	38.81488
423.71	55.67812
423.922	55.67812
424.134	70.43467
424.347	131.58062
424.559	21.95313
424.771	76.75925
424.984	28.27611
425.196	70.43467
425.408	91.51738
425.621	2.98547
425.833	93.62577
426.045	131.58062
426.257	97.84262
426.47	78.86748
426.682	133.68943
426.894	121.0369
427.106	70.43467
427.318	34.5993
427.531	51.46218
427.743	99.95108
427.955	146.34273
428.167	121.0369
428.379	85.19233
428.591	123.1456
428.804	80.97574
429.016	123.1456
429.228	121.0369
429.44	95.73419
429.652	116.81956
429.864	91.51738
430.076	114.71092
430.288	213.83967
430.5	85.19233
430.712	62.00222
430.924	108.38515
431.136	59.89417
431.348	123.1456
431.56	91.51738
431.772	106.2766
431.984	135.79826
432.196	99.95108
432.408	121.0369
432.62	104.16807
432.832	167.43326
433.044	116.81956
433.256	184.30718
433.468	85.19233
433.679	95.73419
433.891	150.56067
434.103	171.65161
434.315	137.90711
434.527	129.47183
434.739	87.30066
434.95	110.49372
435.162	150.56067
435.374	161.10588
435.586	154.77869
435.798	150.56067
436.009	175.87005
436.221	87.30066
436.433	161.10588
436.645	156.88773
436.856	205.40141
437.068	180.08857
437.28	125.25432
437.491	72.54284
437.703	213.83967
437.915	171.65161
438.126	190.63523
438.338	154.77869
438.55	201.1824
438.761	177.9793
438.973	165.32411
439.184	121.0369
439.396	213.83967
439.608	171.65161
439.819	173.76082
440.031	190.63523
440.242	209.6205
440.454	177.9793
440.665	121.0369
440.877	211.73008
441.088	192.74463
441.3	234.9367
441.511	182.19786
441.723	211.73008
441.934	137.90711
442.146	213.83967
442.357	294.01862
442.569	234.9367
442.78	247.59586
442.991	199.07293
443.203	167.43326
443.414	277.13656
443.626	165.32411
443.837	201.1824
444.048	258.14568
444.26	239.15634
444.471	203.2919
444.682	158.99679
444.894	291.9083
445.105	264.47581
445.316	308.79138
445.528	220.16857
445.739	275.02639
445.95	230.71714
446.161	283.46719
446.373	264.47581
446.584	272.91624
446.795	298.23931
447.006	277.13656
447.217	218.05892
447.429	270.8061
447.64	277.13656
447.851	268.69598
448.062	344.67174
448.273	332.0075
448.484	275.02639
448.695	211.73008
448.907	302.46008
449.118	315.12283
449.329	332.0075
449.54	310.90184
449.751	319.34389
449.962	325.67561
450.173	241.26619
450.384	357.33661
450.595	319.34389
450.806	412.22473
451.017	283.46719
451.228	361.55837
451.439	315.12283
451.65	408.00217
451.861	384.77926
452.072	374.22406
452.283	306.68093
452.494	376.33506
452.705	382.66819
452.915	399.55725
453.126	393.22373
453.337	363.66927
453.548	408.00217
453.759	435.44996
453.97	446.00751
454.181	452.34223
454.391	410.11344
454.602	522.03308
454.813	513.58486
455.024	553.71593
455.235	439.67293
455.445	399.55725
455.656	500.91295
455.867	505.13686
456.078	469.23549
456.288	524.14517
456.499	524.14517
456.71	606.52744
456.921	488.24157
457.131	598.07705
457.342	566.38994
457.553	513.58486
457.763	606.52744
457.974	762.89398
458.184	644.55668
458.395	712.17376
458.606	610.75271
458.816	697.38152
459.027	617.09072
459.237	712.17376
459.448	712.17376
459.659	705.83416
459.869	786.14272
460.08	678.36375
460.29	731.19313
460.501	815.73372
460.711	906.63131
460.922	836.87127
461.132	864.3514
461.343	855.89582
461.553	870.69318
461.764	858.0097
461.974	995.42896
462.184	889.71896
462.395	919.3159
462.605	1128.646
462.816	965.82836
463.026	953.1428
463.236	1075.77955
463.447	957.37129
463.657	999.65772
463.867	1312.63997
464.078	1065.20663
464.288	1151.90816
464.498	1128.646
464.709	1424.73641
464.919	1147.67864
465.129	1285.14525
465.339	1261.88078
465.55	1378.20545
465.76	1414.16117
465.97	1367.63028
466.18	1359.17017
466.391	1589.70925
466.601	1371.86035
466.811	1541.06395
467.021	1524.14369
467.231	1693.34141
467.441	1464.9224
467.651	1767.36015
467.862	1661.61791
468.072	2006.29726
468.282	1856.17626
468.492	1716.60489
468.702	1906.92457
468.912	2169.06709
469.122	2103.54168
469.332	2099.31398
469.542	1925.95439
469.752	2198.65666
469.962	2088.7446
470.172	2336.01409
470.382	2306.43273
470.592	2238.81126
470.802	2414.18399
471.012	2316.99772
471.222	2562.0328
471.432	2606.37643
471.642	2606.37643
471.852	2650.71468
472.062	2640.15845
472.272	2745.70638
472.482	2842.78114
472.691	3140.14494
472.901	2929.2793
473.111	2958.80966
473.321	3199.15906
473.531	3291.86933
473.741	3165.43827
473.95	3367.6987
474.16	3218.12516
474.37	3475.08474
474.58	3390.8643
474.79	3677.09451
474.999	3475.08474
475.209	3504.5551
475.419	3491.92538
475.628	3778.03399
475.838	3817.97681
476.048	4030.18342
476.258	3862.11585
476.467	4109.9696
476.677	4349.14569
476.886	4376.40246
477.096	4483.29726
477.306	4395.27038
477.515	4269.45112
477.725	4342.85514
477.935	4472.8199
478.144	4627.82833
478.354	4424.61696
478.563	5018.98888
478.773	4906.11538
478.982	4941.65687
479.192	5140.14837
479.401	5215.31151
479.611	5348.86015
479.82	5094.20051
480.03	5215.31151
480.239	5446.8738
480.449	5471.89025
480.658	5588.58883
480.868	5857.13095
481.077	5686.47523
481.287	5615.669
481.496	5794.71434
481.705	5871.69176
481.915	6073.34418
482.124	6187.58479
482.333	6000.60857
482.543	6185.50832
482.752	6268.54874
482.961	6305.9047
483.171	6301.75441
483.38	6247.79215
483.589	6484.27883
483.799	6652.12537
484.008	6716.3229
484.217	6728.74568
484.426	6817.75151
484.636	6840.51367
484.845	7194.01034
485.054	6970.82582
485.263	7163.02806
485.472	7212.59732
485.682	7165.0937
485.891	7309.63359
486.1	7402.49525
486.309	7616.941
486.518	7719.95765
486.727	7583.96446
486.936	7740.55465
487.146	7767.32761
487.355	7960.81205
487.564	7798.21508
487.773	8086.27408
487.982	7777.62396
488.191	8135.61558
488.4	8226.0451
488.609	8121.2255
488.818	8226.0451
489.027	8417.0548
489.236	8648.91823
489.445	8587.38507
489.654	8558.66382
489.863	8687.88056
490.072	8609.94918
490.281	8829.31955
490.49	8706.33407
490.698	9025.96162
490.907	8892.83649
491.116	9249.03742
491.325	9017.77145
491.534	9093.51986
491.743	9204.02927
491.952	9236.76328
492.16	9291.99216
492.369	9500.52617
492.578	9535.26548
492.787	9545.48205
492.996	9606.77317
493.204	9792.60417
493.413	9810.97621
493.622	9947.70797
493.831	9892.61508
494.039	10170.01356
494.248	9837.51145
494.457	9992.59063
494.665	10186.32299
494.874	10265.81892
495.083	10153.70324
495.291	10451.23021
495.5	10424.74954
495.709	10516.40415
495.917	10328.99332
496.126	10536.76832
496.335	10612.10487
496.543	10880.73742
496.752	10658.92713
496.96	10722.02519
497.169	10711.84887
497.377	10701.67225
497.586	10595.81733
497.794	11045.47999
498.003	10982.43905
498.211	11035.31281
498.42	11120.70863
498.628	11179.66135
498.837	11311.76483
499.045	11360.53062
499.254	11382.87968
499.462	11472.26408
499.671	11397.10119
499.879	11539.29017
500.087	11451.95109
500.296	11880.3604
500.504	11669.25125
500.713	11673.31193
500.921	11504.76287
501.129	11657.06899
501.338	11644.8864
501.546	12030.51753
501.754	11602.24476
501.962	11803.23516
502.171	11935.1526
502.379	12194.82953
502.587	12077.17912
502.795	12168.4618
503.004	11762.63799
503.212	12452.35862
503.42	12290.14873
503.628	12434.11217
503.837	12125.86512
504.045	12490.87716
504.253	12423.97502
504.461	12306.3717
504.669	12541.5559
504.877	12823.26008
505.085	12610.47265
505.294	12768.54939
505.502	12738.15278
505.71	13025.85808
505.918	12709.78145
506.126	12784.76039
506.334	12693.56874
506.542	13114.98516
506.75	12965.08414
506.958	13131.18909
507.166	13183.84981
507.374	12756.3909
507.582	13129.16361
507.79	13074.47401
507.998	13108.90861
508.206	13544.2959
508.414	13228.40648
508.622	13562.51743
508.83	13238.5327
509.037	13686.01159
509.245	13384.33841
509.453	13445.08456
509.661	13386.36334
509.869	13744.71765
510.077	13566.56663
510.285	13659.69421
510.492	13764.96051
510.7	14133.33248
510.908	13829.73565
511.116	13963.32525
511.324	13811.51794
511.531	13930.94097
511.739	13825.68729
511.947	14173.80804
512.155	13951.18122
512.362	13955.22924
512.57	14050.35483
512.778	14005.82864
512.985	14107.0229
513.193	14299.27723
513.401	14019.99619
513.608	14254.75674
513.816	14337.72604
514.024	14301.30086
514.231	14270.94611
514.439	14406.52769
514.646	14625.06311
514.854	14562.33686
515.061	14327.60799
515.269	14795.0262
515.477	14655.41414
515.684	14653.39075
515.892	14422.71604
516.099	14920.47176
516.307	14756.5827
516.514	14918.44846
516.722	14770.74613
516.929	15025.68273
517.136	14661.48432
517.344	14920.47176
517.551	14786.93285
517.759	15284.66169
517.966	15120.77664
518.173	15124.82318
518.381	14841.56272
518.588	15252.28928
518.796	15027.70601
519.003	15217.89364
519.21	15503.17767
519.418	15424.26854
519.625	15462.71135
519.832	15786.45028
520.039	15440.45496
520.247	15541.62091
520.454	15319.05744
520.661	15786.45028
520.868	15622.55485
521.076	15733.84118
521.283	15644.8119
521.49	15640.76516
521.697	15794.54405
521.904	15934.16449
522.112	15990.82378
522.319	16045.46055
522.526	16007.01234
522.733	16207.35381
522.94	16187.11659
523.147	16053.55498
523.354	16019.15383
523.561	16419.85551
523.768	16367.23411
523.975	16446.16671
524.183	16160.80845
524.39	16096.05111
524.597	16328.78084
524.804	16470.45428
525.011	16288.30445
525.218	16685.00784
525.425	16626.30675
525.632	16733.58954
525.838	16648.57245
526.045	16802.41596
526.252	16421.87944
526.459	16978.54384
526.666	16656.66914
526.873	17314.66099
527.08	17328.83636
527.287	17288.3357
527.494	16709.29852
527.701	17424.0177
527.907	17053.45482
528.114	17306.56085
528.321	17351.11224
528.528	17529.33271
528.735	17478.69943
528.941	17195.18866
529.148	17033.20824
529.355	17397.69027
529.562	17122.29525
529.768	17658.96305
529.975	17444.26993
530.182	17652.88633
530.388	17361.23776
530.595	17677.1934
530.802	17575.91708
531.008	17780.50378
531.215	17513.12984
531.422	17774.42645
531.628	18013.49128
531.835	18062.12062
532.042	17942.57715
532.248	18181.67661
532.455	18104.673
532.661	18343.80685
532.868	18179.65013
533.074	18580.96582
533.281	18362.048
533.487	18208.02116
533.694	18159.38555
533.9	18797.90124
534.107	18161.41199
534.313	18690.44163
534.52	18128.98936
534.726	18497.85287
534.933	18370.15528
535.139	18724.9086
535.345	18341.78008
535.552	18812.09485
535.758	18435.01566
535.965	18662.05792
536.171	18672.19487
536.377	18903.34416
536.584	18702.60631
536.79	18881.03802
536.996	19311.02434
537.203	19345.51234
537.409	18962.15356
537.615	19041.24742
537.821	18927.67867
538.028	19388.11681
538.234	19207.56748
538.44	19489.5634
538.646	19607.25446
538.853	19840.64903
539.059	19394.20332
539.265	19749.31412
539.471	19690.45834
539.677	19217.70984
539.883	19418.5497
540.09	19745.25499
540.296	19660.01708
540.502	19881.24505
540.708	19522.0285
540.914	20019.2841
541.12	19976.65232
541.326	20096.43204
541.532	19686.39945
541.738	20130.94756
541.944	19834.55977
542.15	20382.74457
542.356	20137.03866
542.562	20313.69703
542.768	20122.82615
542.974	20344.15858
543.18	20234.50141
543.386	20514.76072
543.592	20819.48068
543.798	20585.85366
544.004	20398.99176
544.21	20707.73916
544.415	20437.5799
544.621	20864.1808
544.827	20537.10366
545.033	20890.59544
545.239	20543.19728
545.445	21166.97488
545.651	20963.74732
545.856	21016.58255
546.062	20977.97192
546.268	21077.54972
546.474	20849.95781
546.679	20482.26279
546.885	20866.21267
547.091	20896.69123
547.297	20675.23489
547.502	20961.71525
547.708	21339.75026
547.914	20851.98966
548.119	21286.89822
548.325	21045.03344
548.531	20835.73504
548.736	21134.45572
548.942	21018.61473
549.147	21299.0946
549.353	21402.7697
549.559	21256.4079
549.764	20805.25833
549.97	21227.95109
550.175	21282.83279
550.381	21679.28723
550.586	21280.80008
550.792	21604.05097
550.997	21506.45519
551.203	21728.092
551.408	21532.88648
551.614	21742.32715
551.819	21803.33708
552.025	22023.0015
552.23	22185.74439
552.435	22197.95107
552.641	22126.74732
552.846	21811.472
553.052	21884.68906
553.257	22130.81598
553.462	22159.29704
553.668	22112.50712
553.873	22336.30277
554.078	22472.63641
554.283	22358.68478
554.489	22535.72163
554.694	22267.12479
554.899	22155.22827
555.105	22006.72853
555.31	22663.93761
555.515	22611.02137
555.72	22604.91581
555.925	22143.02206
556.131	22659.86704
556.336	22525.54636
556.541	22633.40872
556.746	22643.58493
556.951	22871.55479
557.156	22533.68657
557.361	22906.16113
557.567	22733.13933
557.772	22938.7327
557.977	22706.67937
558.182	22863.41227
558.387	23022.20128
558.592	22885.80434
558.797	23176.9383
559.002	23056.81185
559.207	22895.9827
559.412	23150.46878
559.617	22749.42268
559.822	23020.16539
560.027	22893.94702
560.232	23482.39506
560.437	23301.14874
560.642	23091.42338
560.847	23500.72472
561.051	23480.35845
561.256	23181.01058
561.461	23413.15195
561.666	23205.44455
561.871	23052.73997
562.076	23468.13883
562.281	23832.73772
562.485	23447.77306
562.69	23769.58804
562.895	23641.26035
563.1	23624.96562
563.305	23661.62904
563.509	23785.88446
563.714	23468.13883
563.919	23899.96465
564.123	24087.40159
564.328	23478.32183
564.533	23981.45603
564.737	23323.54861
564.942	23655.5184
565.147	23924.41159
565.351	23504.79801
565.556	23531.2747
565.761	23696.25648
565.965	23973.30669
566.17	23963.12007
566.374	23834.77486
566.579	23804.21816
566.784	24038.5027
566.988	24293.20178
567.193	24523.48562
567.397	24303.39062
567.602	24285.05075
567.806	24036.46528
568.011	24270.78656
568.215	24215.76875
568.42	24651.88814
568.624	24313.57953
568.828	24735.45697
569.033	24602.97173
569.237	24855.72169
569.442	24605.00988
569.646	24366.56292
569.85	24285.05075
570.055	24912.79937
570.259	24965.8017
570.463	24922.992
570.668	24321.7307
570.872	24378.79011
571.076	24906.68382
571.281	24931.14615
571.485	24878.14485
571.689	24700.80598
571.893	24484.76302
572.098	24696.72944
572.302	25145.20567
572.506	24986.18763
572.71	24880.18333
572.914	24982.11043
573.119	25067.73363
573.323	24605.00988
573.527	25263.4586
573.731	24988.22624
573.935	25179.86525
574.139	25369.48462
574.343	25163.55478
574.547	24906.68382
574.751	25212.48661
574.955	25638.65273
575.159	25289.96457
575.364	24986.18763
575.568	25257.34189
575.772	25106.46925
575.976	25304.23716
576.18	25289.96457
576.383	25577.47508
576.587	25555.04372
576.791	25530.57342
576.995	25926.21095
577.199	25693.71413
577.403	25371.52364
577.607	25783.44684
577.811	26124.05595
578.015	25779.368
578.219	25640.69202
578.422	25750.81634
578.626	25712.06825
578.83	25701.8715
579.034	25652.92777
579.238	25726.34378
579.442	26197.48716
579.645	25385.79682
579.849	25675.36018
580.053	26244.40271
580.257	26275.00029
580.46	26264.80105
580.664	26817.65721
580.868	26356.59566
581.071	26485.11366
581.275	26368.83519
581.479	26438.19365
581.682	26623.83856
581.886	26776.85217
582.09	26397.39433
582.293	26593.23686
582.497	26611.59784
582.7	26634.03921
582.904	26572.83592
583.107	26905.39001
583.311	26446.35359
583.515	26534.07457
583.718	26713.60552
583.922	26842.14051
584.125	26793.17411
584.329	26511.63404
584.532	26281.11985
584.735	27162.48253
584.939	26360.6755
585.142	26421.87384
585.346	26427.99376
585.549	26617.7182
585.753	26507.55396
585.956	26987.0043
586.159	27127.79417
586.363	27227.77931
586.566	27182.88762
586.769	27248.18483
586.973	27013.52942
587.176	27411.43369
587.379	27219.61714
587.582	27299.19921
587.786	27011.48902
587.989	26915.59168
588.192	26650.36031
588.395	27109.4299
588.599	27246.14427
588.802	27115.55131
589.005	26917.63201
589.208	27531.83494
589.411	27152.28003
589.615	27568.56839
589.818	27817.54985
590.021	27548.16087
590.224	27558.36461
590.427	27882.85937
590.63	27795.09997
590.833	26952.31795
591.036	27417.55568
591.239	27531.83494
591.442	27639.99567
591.645	28086.95918
591.848	27650.19969
592.051	28033.89214
592.254	27850.20446
592.457	28252.28824
592.66	28127.7805
592.863	28056.34349
593.066	27966.53892
593.269	28127.7805
593.472	27678.7711
593.675	27995.11287
593.878	27850.20446
594.081	28425.78938
594.284	28505.39838
594.486	28352.30559
594.689	28340.05843
594.892	28199.21886
595.095	27964.49793
595.298	28358.42919
595.5	28037.9742
595.703	28593.17428
595.906	28556.43064
596.109	28338.01724
596.311	28680.95212
596.514	28548.26543
596.717	28846.30634
596.92	28834.05764
597.122	28364.55279
597.325	28389.04731
597.528	28648.29037
597.73	29240.32595
597.933	28976.96141
598.136	28636.04228
598.338	28885.09412
598.541	28930.00675
598.743	29052.49831
598.946	28519.68735
599.148	29223.99277
599.351	29181.11846
599.554	29489.41538
599.756	28834.05764
599.959	29299.53432
600.161	28966.75383
600.363	29381.20248
600.566	28778.93898
600.768	29089.2465
600.971	28893.26001
601.173	28564.59586
601.376	29334.24308
601.578	28934.08974
601.78	29270.95086
601.983	28997.37665
602.185	29144.36943
602.388	29268.90919
602.59	29172.95198
602.792	29544.54385
602.995	29646.63566
603.197	29422.03719
603.399	30044.81982
603.601	29362.827
603.804	29346.49331
604.006	29571.08746
604.208	29748.73017
604.41	29616.00783
604.613	29489.41538
604.815	29132.11982
605.017	29542.50204
605.219	29444.49646
605.421	28950.42175
605.623	29370.99387
605.826	29307.70106
606.028	28756.48344
606.23	28999.41818
606.432	29201.53474
606.634	29501.66608
606.836	29430.20418
607.038	29679.30561
607.24	29428.16243
607.442	29562.92018
607.644	29393.45285
607.846	29944.75931
608.048	29875.33115
608.25	29709.93393
608.452	29918.21309
608.654	30050.94606
608.856	29699.72446
609.058	29667.05434
609.26	29540.46023
609.462	29532.29301
609.664	29701.76636
609.866	29293.40928
610.067	29513.91682
610.269	29387.32766
610.471	29681.34749
610.673	30224.52727
610.875	29844.70149
611.077	29932.50718
611.278	29979.47387
611.48	29471.03939
611.682	29544.54385
611.884	29844.70149
612.085	29520.04221
612.287	29981.51591
612.489	29748.73017
612.69	29963.13756
612.892	29805.90428
613.094	30069.32485
613.295	29895.75106
613.497	30249.03354
613.699	29916.17109
613.9	30124.46179
614.102	30283.75104
614.304	30453.25918
614.505	29881.45711
614.707	30022.35702
614.908	29438.37119
615.11	29479.20649
615.311	29660.92873
615.513	29662.9706
615.714	29364.86871
615.916	30001.93641
616.117	29716.05963
616.319	30014.18876
616.52	29522.08401
616.722	29448.57997
616.923	29891.66707
617.124	30181.64172
617.326	29313.82613
617.527	29701.76636
617.729	29581.29659
617.93	30008.06258
618.131	29934.5492
618.333	29705.85014
618.534	29638.46822
618.735	29609.8823
618.937	29667.05434
619.138	29703.80825
619.339	29601.71493
619.54	29524.1258
619.742	29805.90428
619.943	29922.29711
620.144	29577.21294
620.345	29781.40098
620.546	29767.10747
620.748	30187.7682
620.949	30169.3888
621.15	30218.40073
621.351	29711.97583
621.552	29999.89436
621.753	29912.08707
621.954	30340.93357
622.155	29828.36577
622.356	30269.45556
622.558	30148.96736
622.759	30283.75104
622.96	29926.38114
623.161	30575.80051
623.362	29961.09553
623.563	30500.23281
623.764	29750.77208
623.965	30104.0406
624.166	30120.37754
624.366	29628.25893
624.567	29393.45285
624.768	29505.74966
624.969	29564.96199
625.17	29675.22185
625.371	29660.92873
625.572	29707.89204
625.773	29910.04507
625.973	29828.36577
626.174	29697.68257
626.375	29979.47387
626.576	29903.91906
626.777	30089.74584
626.977	29434.28768
627.178	30177.55741
627.379	29954.96944
627.58	30238.82257
627.78	30202.06335
627.981	30087.70374
628.182	30167.34665
628.382	30220.44291
628.583	30318.46889
628.784	30324.59561
628.984	30228.61164
629.185	30465.5131
629.386	30242.90696
629.586	30532.91052
629.787	30590.09729
629.987	30539.03763
630.188	29987.64205
630.388	29924.33913
630.589	29957.01147
630.79	30271.49777
630.99	30001.93641
631.191	29842.65952
631.391	30012.1467
631.591	29634.3845
631.792	29809.98818
631.992	30173.4731
632.193	30240.86476
632.393	30318.46889
632.594	30389.94792
632.794	30657.49729
632.994	30481.85175
633.195	30387.90564
633.395	30289.8777
633.595	30302.13104
633.796	30436.92067
633.996	30500.23281
634.196	30880.1318
634.397	30988.39119
634.597	30338.89132
634.797	30831.10997
634.997	30818.85464
635.198	30459.38613
635.398	30677.92181
635.598	30641.15777
635.798	30510.44456
635.998	30614.60622
636.199	30496.14812
636.399	30479.80941
636.599	30095.87216
636.799	30046.8619
636.999	30146.92522
637.199	30375.652
637.399	30481.85175
637.599	30775.96136
637.799	30561.50378
637.999	30530.86816
638.199	30483.89408
638.399	30579.8853
638.599	30234.7382
638.799	30377.69427
638.999	30716.72876
639.199	30790.25905
639.399	30841.32278
639.599	31305.02242
639.799	30890.34478
639.999	30910.77084
640.199	30831.10997
640.399	31035.37292
640.599	29785.48486
640.799	30902.6004
640.998	30492.06344
641.198	30749.40868
641.398	30929.15442
641.598	31294.80793
641.798	31155.89482
641.997	31027.20213
642.197	30951.6234
642.397	30878.0892
642.597	30814.76954
642.796	31225.35049
642.996	30528.82579
643.196	30820.89719
643.395	30731.02618
643.595	30547.20712
643.795	30586.01249
643.994	31221.26482
644.194	30923.02655
644.394	31364.26719
644.593	30967.96458
644.793	30788.21652
644.992	30481.85175
645.192	30837.23765
645.392	30769.8338
645.591	31061.92815
645.791	30706.51636
645.99	31061.92815
646.19	30790.25905
646.389	30837.23765
646.589	30820.89719
646.788	30710.60132
646.987	30504.31751
647.187	30878.0892
647.386	30761.66373
647.586	31041.50103
647.785	30808.6419
647.984	31360.1813
648.184	31059.88543
648.383	30939.36757
648.582	30639.11533
648.782	30994.51919
648.981	31008.81793
649.18	30771.87632
649.38	31141.59535
649.579	31913.88102
649.778	31785.14958
649.977	31770.84653
650.177	31492.97602
650.376	31262.12186
650.575	31002.68989
650.774	31443.94332
650.973	31149.76647
651.173	31223.30765
651.372	31010.86062
651.571	31364.26719
651.77	31803.53933
651.969	31732.02444
652.168	31693.20299
652.367	31298.89372
652.566	30947.53812
652.765	31576.74244
652.964	31670.7277
653.163	31264.16472
653.362	31419.42732
653.561	31454.15839
653.76	31305.02242
653.959	31654.38218
654.158	31721.8082
654.357	31687.07334
654.556	31354.05248
654.755	31703.4191
654.954	31441.90031
655.153	31070.09904
655.352	31190.62244
655.551	31268.25046
655.749	31415.34135
655.948	31284.59349
656.147	31437.8143
656.346	31260.07899
656.545	31341.79488
656.743	31033.33022
656.942	31425.5563
657.141	31464.3735
657.34	31307.06532
657.538	31574.69933
657.737	31633.95043
657.936	32179.54148
658.135	32263.3338
658.333	31186.53681
658.532	31164.06599
658.731	31413.29836
658.929	31125.25317
659.128	31664.59812
659.326	31352.00954
659.525	31550.18205
659.724	31229.43617
659.922	31740.19746
660.121	31558.35445
660.319	31405.12643
660.518	31039.45832
660.716	31566.52687
660.915	31347.92367
661.113	31764.71669
661.312	30961.83663
661.51	31793.32278
661.709	31676.85731
661.907	30953.66604
662.105	31084.39816
662.304	31180.40839
662.502	30914.85607
662.701	31799.45271
662.899	31572.65621
663.097	31580.82868
663.296	30843.36535
663.494	31505.23434
663.692	31441.90031
663.891	31356.09542
664.089	31162.0232
664.287	31674.8141
664.485	31021.07405
664.684	31374.48194
664.882	31311.15112
665.08	31155.89482
665.278	31609.43255
665.476	31723.85145
665.675	31411.25538
665.873	31499.10518
666.071	31033.33022
666.269	31331.58025
666.467	31785.14958
666.665	31744.28398
666.863	31274.37909
667.061	31476.63168
667.259	31507.2774
667.457	31425.5563
667.655	31480.71776
667.853	31609.43255
668.051	31474.58865
668.249	31380.61081
668.447	31213.09348
668.645	31031.28752
668.843	31341.79488
669.041	31309.10822
669.239	30974.09255
669.437	30824.9823
669.635	31331.58025
669.833	31607.38941
670.031	31066.0136
670.229	30659.53973
670.426	31008.81793
670.624	31006.77525
670.822	30839.28022
671.02	30763.70625
671.218	31055.8
671.415	30914.85607
671.613	30886.25958
671.811	30653.4124
672.009	30876.04661
672.206	31319.32276
672.404	30947.53812
672.602	31652.33899
672.799	31486.84688
672.997	31844.40599
673.195	31519.5358
673.392	31472.54561
673.59	31266.20759
673.788	31211.05065
673.985	30710.60132
674.183	31352.00954
674.38	31264.16472
674.578	31309.10822
674.775	30988.39119
674.973	30853.57821
675.17	30688.13412
675.368	30630.94561
675.565	30177.55741
675.763	30994.51919
675.96	30281.70883
676.158	30534.95289
676.355	30539.03763
676.553	31366.31014
676.75	30679.96427
676.947	30594.1821
677.145	29991.72615
677.342	30365.44066
677.539	30414.45536
677.737	30451.21686
677.934	30963.87928
678.131	30812.72699
678.329	30487.97876
678.526	30710.60132
678.723	30970.00724
678.92	30735.11117
679.118	30720.81373
679.315	30496.14812
679.512	30477.76708
679.709	30528.82579
679.906	30314.38442
680.104	30651.36996
680.301	30682.00673
680.498	29963.13756
680.695	29814.07208
680.892	30261.28674
681.089	30308.25772
681.286	30328.68009
681.483	29924.33913
681.68	30373.60973
681.877	29777.31712
682.075	30124.46179
682.272	29922.29711
682.469	30628.90318
682.665	30202.06335
682.862	30073.40904
683.059	29940.67526
683.256	30003.97847
683.453	30038.69359
683.65	30240.86476
683.847	29638.46822
684.044	29983.55796
684.241	29742.60442
684.438	30246.99134
684.635	29693.5988
684.831	29644.5938
685.028	29511.87503
685.225	29644.5938
685.422	29064.74767
685.619	29460.83055
685.815	29234.201
686.012	29154.57746
686.209	28615.62889
686.405	29366.91043
686.602	29085.16335
686.799	28927.96526
686.996	29307.70106
687.192	28640.12497
687.389	28672.78666
687.586	28680.95212
687.782	29567.00382
687.979	28917.7578
688.175	29158.66068
688.372	29342.40989
688.568	29540.46023
688.765	29732.39486
688.962	29981.51591
689.158	29640.51007
689.355	29487.3736
689.551	29219.90948
689.748	29209.70128
689.944	29399.57804
690.14	29366.91043
690.337	29019.83353
690.533	29064.74767
690.73	28997.37665
690.926	29887.58308
691.123	28832.0162
691.319	29003.50124
691.515	29109.66231
691.712	28611.54622
691.908	28970.83686
692.104	28578.88504
692.301	28493.15074
692.497	28291.07017
692.693	28599.29825
692.889	28944.29724
693.086	29154.57746
693.282	28613.58756
693.478	28832.0162
693.674	28621.7529
693.87	28970.83686
694.067	28889.17706
694.263	28627.87691
694.459	28184.93108
694.655	28131.86265
694.851	28297.19367
695.047	28313.52304
695.243	28783.02182
695.439	28958.58778
695.635	28376.80003
695.831	28391.08853
696.027	28109.41085
696.224	28429.87185
696.42	28266.57627
696.615	28666.66257
696.811	28466.61431
697.007	28670.74529
697.203	28225.75346
697.399	27993.07186
697.595	28005.3179
697.791	27923.67842
697.987	27907.35075
698.183	27919.5965
698.379	27833.87712
698.575	28250.24709
698.77	28017.56398
698.966	28031.85112
699.162	27642.03647
699.358	27525.71274
699.554	27121.67274
699.749	27484.89834
699.945	27927.76035
700.141	27648.15888
700.337	28037.9742
700.532	28252.28824
700.728	28150.23241
700.924	28019.60499
701.119	27893.06409
701.315	27791.01819
701.511	27431.84038
701.706	28029.8101
701.902	27878.77749
702.097	27423.67769
702.293	27615.50615
702.489	27552.24236
702.684	27456.32856
702.88	27227.77931
703.075	27368.58007
703.271	27525.71274
703.466	27754.28239
703.662	27715.50612
703.857	27884.90031
704.053	27697.13856
704.248	27552.24236
704.443	27731.83291
704.639	27542.03864
704.834	27817.54985
705.03	27744.07806
705.225	27576.73143
705.42	27776.732
705.616	27817.54985
705.811	27619.58772
706.006	27676.73028
706.202	27603.26145
706.397	27129.83465
706.592	27235.9415
706.787	27499.18333
706.983	27513.46837
707.178	27621.62851
707.373	27111.47037
707.568	27148.19904
707.763	27070.66126
707.959	27295.11803
708.154	26907.43034
708.349	26819.69748
708.544	27091.06575
708.739	26717.68591
708.934	27015.56983
709.129	26978.84277
709.324	26917.63201
709.519	27001.28703
709.714	27070.66126
709.909	27050.25691
710.104	26617.7182
710.299	26570.79584
710.494	26678.92249
710.689	26674.84216
710.884	26438.19365
711.079	26713.60552
711.274	26466.75356
711.469	27182.88762
711.664	26929.87406
711.859	27360.41754
712.054	26840.10023
712.249	26825.81829
712.443	26611.59784
712.638	26838.05995
712.833	26629.95894
713.028	27311.44278
713.223	26595.27697
713.417	27127.79417
713.612	26636.07934
713.807	27054.33777
714.002	26962.51977
714.196	26778.89241
714.391	25854.82776
714.586	26275.00029
714.78	26350.47591
714.975	26168.93032
715.17	26028.19082
715.364	26695.24386
715.559	26509.594
715.754	26321.9173
715.948	25975.16072
716.143	26272.96044
716.337	25897.6574
716.532	26301.51849
716.726	26580.99628
716.921	26228.08416
717.115	26317.83753
717.31	26042.46835
717.504	25960.8836
717.699	25952.72528
717.893	26093.46027
718.088	25524.45589
718.282	25822.1962
718.476	26030.23046
718.671	26007.79448
718.865	25985.35872
719.059	25618.25998
719.254	25820.15674
719.448	25956.80444
719.642	26117.93678
719.837	26020.03226
720.031	25942.52743
720.225	25710.0289
720.419	25714.10761
720.614	25571.35741
720.808	25522.41672
721.002	25188.02054
721.196	25438.8124
721.39	25218.60318
721.585	25553.00451
721.779	25037.15346
721.973	25567.27897
722.167	24863.87554
722.361	25238.99188
722.555	25151.32202
722.749	25349.09456
722.943	25287.92563
723.137	24988.22624
723.331	25088.1207
723.525	24831.2604
723.719	24698.76771
723.913	25218.60318
724.107	24855.72169
724.301	25245.10853
724.495	24994.34207
724.689	24672.2704
724.883	25016.76696
725.077	25145.20567
725.271	25281.80885
725.465	25139.08934
725.659	24704.88253
725.853	25132.97303
726.046	25357.25056
726.24	24755.84024
726.434	24570.36158
726.628	25077.92714
726.822	24717.11224
727.015	24845.52945
727.209	24639.6589
727.403	25173.74881
727.596	24592.78099
727.79	25043.26945
727.984	24784.37721
728.177	25067.73363
728.371	24772.14702
728.565	24698.76771
728.758	24619.27704
728.952	25108.50799
729.146	24884.2603
729.339	25010.65105
729.533	24876.10637
729.726	24674.30864
729.92	25126.85674
730.113	24978.03323
730.307	25139.08934
730.5	24933.1847
730.694	25063.65625
730.887	25045.30812
731.081	24969.87887
731.274	25069.77233
731.468	24020.16603
731.661	24240.22087
731.854	24399.16897
732.048	24397.13108
732.241	24185.20416
732.435	24935.22324
732.628	24293.20178
732.821	24399.16897
733.014	24717.11224
733.208	24896.49127
733.401	24755.84024
733.594	24140.3772
733.788	24071.10178
733.981	24474.57301
734.174	24653.92636
734.367	24456.23116
734.56	24739.53361
734.754	24947.45456
734.947	24645.77351
735.14	24230.03244
735.333	24144.45232
735.526	24036.46528
735.719	24018.12864
735.912	24172.97849
736.105	23851.07203
736.298	24313.57953
736.491	24446.04134
736.684	24140.3772
736.877	24452.15523
737.07	24519.40952
737.263	24521.44757
737.456	24032.39045
737.649	23975.34402
737.842	23834.77486
738.035	23539.42148
738.228	23739.03276
738.421	24368.60078
738.614	24276.89977
738.807	24069.06432
739	24136.30209
739.192	24225.95709
739.385	24054.80215
739.578	23791.99567
739.771	24179.09132
739.964	23983.49338
740.156	24221.88175
740.349	24030.35304
740.542	24244.29626
740.735	23977.38136
740.927	23904.03911
741.12	23763.47693
741.313	23688.10877
741.505	23881.62972
741.698	23681.99802
741.891	23569.97234
742.083	23761.4399
742.276	23963.12007
742.468	24014.05386
742.661	24026.27823
742.854	24170.94089
743.046	24111.85164
743.239	24071.10178
743.431	24342.10883
743.624	24109.81412
743.816	24109.81412
744.009	24073.13925
744.201	23759.40287
744.393	23429.44412
744.586	23464.06565
744.778	22950.94726
744.971	23288.93079
745.163	23830.70059
745.355	24299.31507
745.548	23985.53072
745.74	23928.48612
745.932	23961.08276
746.125	23720.69991
746.317	23352.0581
746.509	23087.35139
746.702	22995.73502
746.894	22869.51916
747.086	22834.91386
747.278	22659.86704
747.471	22849.16298
747.663	23005.91429
747.855	23272.64037
748.047	23303.18508
748.239	23462.02907
748.431	23572.00909
748.623	23258.38641
748.815	22863.41227
749.008	22851.19858
749.2	22651.72596
749.392	22368.85857
749.584	22429.90322
749.776	22802.34507
749.968	22515.37118
750.16	22798.27404
750.352	21917.23158
750.544	22448.21725
750.736	22328.16396
750.928	22480.77624
751.12	22269.15938
751.311	22421.76374
751.503	22570.3182
751.695	22572.35333
751.887	22261.02105
752.079	22698.53796
752.271	22727.03313
752.463	22543.86191
752.654	22411.58948
752.846	22716.85621
753.038	22627.30304
753.23	22492.9861
753.421	22169.46902
753.613	22287.47081
753.805	22643.58493
753.997	22429.90322
754.188	22362.75429
754.38	22547.93207
754.572	22531.65151
754.763	22383.10203
754.955	22098.2671
755.146	22625.26782
755.338	22263.05563
755.53	22360.71953
755.721	21579.65117
755.913	22199.98553
756.104	22189.81327
756.296	22344.44163
756.487	22114.54142
756.679	22301.71325
756.87	21555.25194
757.062	22126.74732
757.253	22147.09078
757.445	22315.95586
757.636	22106.40423
757.827	21730.12558
758.019	21980.28548
758.21	22073.85607
758.401	21913.16371
758.593	21681.32072
758.784	21823.6745
758.975	22051.47977
759.167	21502.3889
759.358	21905.02802
759.549	21425.13236
759.74	21551.18546
759.932	21730.12558
760.123	21774.86534
760.314	21185.26736
760.505	21311.29113
760.696	21278.76738
760.888	21502.3889
761.079	21307.22561
761.27	21522.72052
761.461	21297.06186
761.652	21221.8533
761.843	20579.75978
762.034	20815.41713
762.225	20882.46778
762.416	21126.3261
762.607	21075.51742
762.798	20953.58702
762.989	20474.13848
763.18	20791.03619
763.371	20726.02328
763.562	20823.54424
763.753	20748.37099
763.944	20959.68319
764.135	20358.3743
764.326	20451.79696
764.517	20177.64696
764.708	20644.76311
764.899	20533.04127
765.089	20476.16955
765.28	20600.07286
765.471	20470.07635
765.662	20273.08309
765.853	20049.73651
766.043	19798.02501
766.234	19923.87268
766.425	20210.13482
766.615	20390.86813
766.806	20157.3426
766.997	20135.00829
767.187	19899.51381
767.378	20242.62375
767.569	19802.08436
767.759	20135.00829
767.95	20191.86027
768.141	20346.18939
768.331	20027.40465
768.522	19763.52121
768.712	19726.9891
768.903	19747.28455
769.093	19217.70984
769.284	19495.65052
769.474	19457.09936
769.665	19536.23231
769.855	19668.13466
770.046	19923.87268
770.236	19854.85744
770.426	19572.75735
770.617	19729.01863
770.807	19479.41827
770.998	19485.50533
771.188	19284.65197
771.378	19584.93266
771.569	19507.82488
771.759	19290.73784
771.949	19380.00154
772.139	19929.9625
772.33	19599.13739
772.52	19637.69409
772.71	19556.52383
772.9	19528.11582
773.09	19349.56983
773.281	19459.12833
773.471	19288.70921
773.661	18941.87407
773.851	18972.29346
774.041	18883.06583
774.231	18970.26547
774.421	19022.99444
774.611	18722.8811
774.802	18698.5514
774.992	18998.65765
775.182	18891.17711
775.372	18781.68021
775.562	18915.51134
775.752	18980.40544
775.942	18897.26062
776.131	18879.01022
776.321	18299.21866
776.511	18131.01575
776.701	18289.08523
776.891	18647.86635
777.081	18285.03189
777.271	18418.8002
777.461	18382.3163
777.651	18244.49926
777.84	18185.72957
778.03	18341.78008
778.22	18210.04769
778.41	18218.15384
778.599	18254.63228
778.789	18175.59718
778.979	18104.673
779.169	17804.81338
779.358	17669.09099
779.548	18041.85815
779.738	18479.60943
779.927	18203.96811
780.117	18185.72957
780.307	17806.8392
780.496	17821.02005
780.686	17968.91618
780.875	17480.72472
781.065	17778.478
781.254	17794.68432
781.444	17746.06601
781.633	17993.22965
781.823	17818.99421
782.012	17895.97878
782.202	17881.79704
782.391	17527.30734
782.581	17262.0109
782.77	17162.79113
782.96	17280.23571
783.149	17197.21353
783.338	17646.80964
783.528	17594.14622
783.717	17525.28197
783.906	17681.24462
784.096	17628.57974
784.285	17130.39433
784.474	17345.03697
784.663	17357.18754
784.853	17049.40548
785.042	16725.49249
785.231	16721.44398
785.42	16984.61756
785.61	16674.88683
785.799	16567.60756
785.988	16599.99309
786.177	16751.80802
786.366	16687.03205
786.555	16861.1231
786.744	17025.10969
786.933	16689.05627
787.122	16731.56527
787.312	16911.73442
787.501	17063.57821
787.69	16486.64615
787.879	16790.26992
788.068	16527.12643
788.257	16334.85237
788.445	16041.41335
788.634	16547.36688
788.823	16365.21024
789.012	16332.82852
789.201	16306.51873
789.39	16365.21024
789.579	16061.64943
789.768	16241.75749
789.957	16144.61896
790.145	16136.52425
790.334	16102.12204
790.523	16011.0595
790.712	16278.18546
790.9	16108.19299
791.089	15907.85874
791.278	16142.59528
791.467	16272.11409
791.655	16146.64264
791.844	16166.87953
792.033	16055.57859
792.221	15729.79436
792.41	16120.33492
792.599	15298.82463
792.787	15697.4199
792.976	15424.26854
793.164	15432.36175
793.353	15719.67731
793.541	15986.77665
793.73	15972.61175
793.918	16051.53137
794.107	15869.41227
794.295	15752.05194
794.484	15770.26279
794.672	15590.18113
794.861	15230.03328
795.049	15300.84791
795.238	15084.35774
795.426	15414.15204
795.614	15304.89447
795.803	15339.29026
795.991	15270.49875
796.179	15470.80459
796.368	14979.14723
796.556	15294.77808
796.744	14916.42516
796.932	14801.0962
797.121	14614.94605
797.309	14946.7746
797.497	14946.7746
797.685	14977.12394
797.874	15207.77728
798.062	15329.17385
798.25	14908.33196
798.438	15329.17385
798.626	15070.19482
798.814	14973.07737
799.002	14712.06881
799.19	14813.23619
799.378	14687.78833
799.566	14896.19214
799.755	14811.21286
799.943	14831.44612
800.131	14734.3258
800.318	15219.91691
800.506	15187.54457
800.694	15090.42756
800.882	14803.11953
801.07	14981.17051
801.258	14647.32056
801.446	14829.42279
801.634	14355.93843
801.822	14865.84252
802.01	14910.35526
802.197	15472.82791
802.385	15090.42756
802.573	15157.19552
802.761	14805.14287
802.949	14896.19214
803.136	14750.51265
803.324	14916.42516
803.512	14675.64804
803.699	14552.21962
803.887	14691.83508
804.075	14760.6294
804.262	14772.76947
804.45	14898.21544
804.638	14649.34395
804.825	14621.01629
805.013	14428.78665
805.201	14382.24496
805.388	14616.96946
805.576	14922.49505
805.763	14886.07561
805.951	14960.93763
806.138	14641.25036
806.326	14867.86583
806.513	14503.65643
806.701	14661.48432
806.888	14760.6294
807.075	15112.68355
807.263	14801.0962
807.45	15104.59047
807.638	14908.33196
807.825	15254.31256
808.012	14588.64155
808.2	14722.18564
808.387	14710.04544
808.574	15102.5672
808.761	14993.31022
808.949	15215.87037
809.136	14465.21003
809.323	14817.28284
809.51	14687.78833
809.698	14695.88184
809.885	14465.21003
810.072	14699.92859
810.259	14444.97488
810.446	14349.86765
810.633	14325.58438
810.82	14742.41923
811.008	14438.9043
811.195	14734.3258
811.382	14536.03197
811.569	14774.79281
811.756	14659.46093
811.943	15213.8471
812.13	14803.11953
812.317	14859.77258
812.504	14610.89921
812.691	15155.17225
812.878	14888.09892
813.064	14610.89921
813.251	14871.91245
813.438	14673.62465
813.625	14359.9856
813.812	14540.07889
813.999	14724.209
814.186	14691.83508
814.372	14556.26652
814.559	14718.13891
814.746	14461.16301
814.933	14621.01629
815.12	14321.53714
815.306	14720.16227
815.493	14501.63294
815.68	14896.19214
815.866	14323.56076
816.053	14655.41414
816.24	14364.03277
816.426	14538.05543
816.613	14256.78042
816.799	14467.23353
816.986	14086.78451
817.173	14226.42505
817.359	14040.23534
817.546	14117.14201
817.732	14052.37872
817.919	14254.75674
818.105	13930.94097
818.292	14056.4265
818.478	14200.11672
818.665	14218.33022
818.851	14107.0229
819.037	14038.21144
819.224	14333.67883
819.41	14368.07994
819.597	14153.57037
819.783	14410.57478
819.969	14564.36031
820.156	14467.23353
820.342	14327.60799
820.528	14222.37764
820.714	14244.63833
820.901	14491.51551
821.087	14151.54659
821.273	14183.92681
821.459	13813.54214
821.646	13971.42122
821.832	13710.30408
822.018	14038.21144
822.204	13945.10917
822.39	14139.40387
822.576	13914.74857
822.762	13756.8634
822.948	13564.54203
823.134	13878.31506
823.32	13841.88065
823.507	13837.83233
823.693	13900.58009
823.879	14054.40261
824.065	13831.75982
824.25	13793.3
824.436	13696.13352
824.622	13762.93624
824.808	13856.0497
824.994	13894.50784
825.18	13860.09797
825.366	14111.07055
825.552	13872.24272
825.738	13908.67638
825.923	13481.53058
826.109	13860.09797
826.295	13479.50583
826.481	13621.22934
826.667	13505.82725
826.852	13762.93624
827.038	13696.13352
827.224	14034.16362
827.409	13866.17036
827.595	13584.78781
827.781	13493.67898
827.966	13522.02473
828.152	13274.98618
828.338	13576.68954
828.523	13218.28015
828.709	13451.15898
828.894	13242.58316
829.08	13202.0778
829.266	12979.26513
829.451	13293.2124
829.637	12869.8623
829.822	13173.72299
830.008	13009.65214
830.193	12975.21345
830.378	12768.54939
830.564	13228.40648
830.749	12983.3168
830.935	13163.59605
831.12	12707.75488
831.305	13362.06393
831.491	12782.73404
831.676	12823.26008
831.861	12576.01517
832.047	12539.52882
832.232	12553.7182
832.417	12784.76039
832.602	12734.0998
832.788	12819.20758
832.973	12928.61757
833.158	13163.59605
833.343	13017.75515
833.528	12969.13588
833.714	12811.1025
833.899	12833.39124
834.084	12549.66412
834.269	13080.5508
834.454	12515.20345
834.639	12624.6605
834.824	12496.95882
835.009	12269.86938
835.194	12170.49013
835.379	12312.4552
835.564	11898.62514
835.749	12265.81342
835.934	12148.17808
836.119	12103.55125
836.304	11937.18183
836.489	12294.20452
836.674	12227.28041
836.859	12221.19601
837.044	12180.63168
837.228	12217.13971
837.413	12310.42738
837.598	12361.12094
837.783	12056.89198
837.968	12407.75523
838.152	11941.24026
838.337	12219.16786
838.522	11981.82276
838.707	12263.78543
838.891	11892.53697
839.076	12121.80812
839.261	11868.18354
839.445	11724.06747
839.63	11496.6384
839.815	11417.4168
839.999	11364.59417
840.184	11720.00723
840.368	11325.98878
840.553	11504.76287
840.737	11293.47616
840.922	11565.69157
841.106	11742.33811
841.291	11851.94726
841.475	11683.46349
841.66	11705.79612
841.844	11671.2816
842.029	11620.52024
842.213	11490.54495
842.397	11707.8263
842.582	11380.848
842.766	11628.64244
842.951	11362.5624
843.135	11492.57611
843.319	11537.25923
843.504	11338.18035
843.688	11258.92866
843.872	11256.89636
844.056	11065.81352
844.241	11366.62593
844.425	10872.60006
844.609	10868.53131
844.793	10785.1117
844.977	11096.31178
845.161	10709.81357
845.346	10799.35547
845.53	10691.49533
845.714	10968.20252
845.898	10273.97118
846.082	10730.16603
846.266	10844.11785
846.45	10953.96544
846.634	10842.08331
846.818	10882.77173
847.002	10665.03391
847.186	10514.36766
847.37	10616.17663
847.554	10667.06947
847.738	10408.45266
847.922	10443.08255
848.106	10422.71248
848.29	10532.69559
848.473	10249.51375
848.657	10206.70854
848.841	10373.819
849.025	10347.33187
849.209	10045.6248
849.392	10112.92355
849.576	10006.87002
849.76	10133.31409
849.944	10355.48199
850.127	10206.70854
850.311	10019.10892
850.495	10479.74542
850.678	10149.62552
850.862	10375.85638
851.046	10182.24571
851.229	10347.33187
851.413	9913.0211
851.596	10365.66935
851.78	10190.40021
851.964	10559.16746
852.147	9974.23039
852.331	10117.00177
852.514	10108.84528
852.698	9741.56433
852.881	9937.50639
853.065	9839.55252
853.248	9961.98958
853.431	10002.79026
853.615	9741.56433
853.798	9935.46603
853.982	9731.35522
854.165	9968.11005
854.348	9567.95711
854.532	9884.45226
854.715	9484.17666
854.898	9672.13485
855.081	9263.35649
855.265	9496.43889
855.448	9545.48205
855.631	9670.09254
855.814	9390.14697
855.997	9328.80467
856.181	9294.03745
856.364	9445.34246
856.547	9449.43054
856.73	9543.43876
856.913	9146.73432
857.096	9396.28039
857.279	9336.9845
857.462	9193.79901
857.645	9165.15201
857.828	9163.10567
858.011	9171.29093
858.194	9101.70746
858.377	8970.67255
858.56	9482.1329
858.743	9036.19893
858.926	9300.17319
859.109	9318.57952
859.292	9103.75431
859.475	8896.93376
859.658	9081.23795
859.841	8933.80603
860.023	8970.67255
860.206	8985.00798
860.389	9048.48313
860.572	8747.33654
860.755	8948.14369
860.937	8884.64172
861.12	9021.86657
861.303	8835.46711
861.486	8810.87591
861.668	8755.53615
861.851	8704.28376
862.034	8570.97338
862.216	8427.31938
862.399	8283.57119
862.581	8108.89037
862.764	8082.16177
862.947	8246.5919
863.129	8435.5307
863.312	8254.81007
863.494	8024.58089
863.677	8110.94628
863.859	8254.81007
864.042	8316.43633
864.224	8195.22118
864.406	8267.13674
864.589	8246.5919
864.771	8219.88067
864.954	8038.97759
865.136	8038.97759
865.318	8004.01243
865.501	8012.24006
865.683	7929.94911
865.865	8318.49023
866.048	7997.8415
866.23	8234.26406
866.412	7859.97597
866.594	7837.33248
866.777	7929.94911
866.959	7851.74226
867.141	7536.5511
867.323	7660.21444
867.505	7732.3161
867.687	8119.1697
867.869	7792.03796
868.052	7981.38478
868.234	7806.45095
868.416	7985.49908
868.598	8069.82434
868.78	8110.94628
868.962	7765.26828
869.144	7894.96552
869.326	7701.41856
869.508	7915.54482
869.69	7874.38415
869.872	7779.68316
870.054	7478.81515
870.236	7680.81756
870.417	7400.43213
870.599	7649.91209
870.781	7375.67309
870.963	7713.77815
871.145	7559.22847
871.327	7868.20934
871.508	7602.51444
871.69	7981.38478
871.872	7851.74226
872.054	7960.81205
872.235	7763.20892
872.417	7414.87347
872.599	7493.25072
872.78	7594.27022
872.962	7400.43213
873.144	7458.19107
873.325	7680.81756
873.507	7715.838
873.689	7641.66983
873.87	7985.49908
874.052	7528.30414
874.233	7771.44621
874.415	7517.99496
874.596	7862.03434
874.778	7441.69026
874.959	7831.15655
875.141	7468.50338
875.322	7573.65817
875.503	7237.37717
875.685	7522.11869
875.866	7410.74748
876.048	7474.69051
876.229	7363.29239
876.41	7437.56483
876.592	7303.44124
876.773	7482.93971
876.954	7039.0488
877.136	7297.24869
877.317	6972.89355
877.498	7136.1727
877.679	7140.30454
877.86	7616.941
878.042	7425.18805
878.223	7592.20911
878.404	7542.73609
878.585	7458.19107
878.766	7231.1825
878.947	7410.74748
879.128	7350.9109
879.309	7592.20911
879.49	7480.87744
879.672	7538.61278
879.853	7361.22886
880.034	7443.75293
880.215	7414.87347
880.396	7396.30584
880.576	7418.99936
880.757	7625.18428
880.938	7452.00343
881.119	7608.69738
881.3	7757.03074
881.481	7594.27022
881.662	7480.87744
881.843	7367.41937
882.023	7146.50213
882.204	7295.18446
882.385	7084.5172
882.566	7295.18446
882.747	7208.46703
882.927	7730.25642
883.108	7559.22847
883.289	7668.45594
883.469	7686.99808
883.65	7511.80919
883.831	7505.62323
884.011	7660.21444
884.192	7664.33524
884.373	7814.68648
884.553	7418.99936
884.734	7536.5511
884.914	7379.79981
885.095	7307.5695
885.275	7123.77665
885.456	7431.37654
885.636	7418.99936
885.817	7649.91209
885.997	7497.37498
886.178	7915.54482
886.358	7616.941
886.538	7905.25543
886.719	7804.39202
886.899	7713.77815
887.08	7596.3313
887.26	7540.67445
887.44	7198.14094
887.621	7548.92089
887.801	7167.15932
887.981	7686.99808
888.161	7340.59239
888.342	7546.85931
888.522	7416.93643
888.702	7621.06268
888.882	7243.57163
889.062	7476.75284
889.242	7181.61803
889.423	7456.12855
889.603	7262.15384
889.783	7429.31373
889.963	7194.01034
890.143	7619.00185
890.323	7189.87966
890.503	7352.97454
890.683	6968.75808
890.863	7291.05594
891.043	7041.11578
891.223	7563.35135
891.403	7425.18805
891.583	7530.36591
891.763	7355.03815
891.943	7579.84201
892.122	7689.05821
892.302	8016.35375
892.482	7798.21508
892.662	7754.9713
892.842	7557.167
893.022	7600.45341
893.201	7377.73646
893.381	7775.56473
893.561	7462.31606
893.741	7717.89784
893.92	7179.55256
894.1	7181.61803
894.28	6983.23182
894.459	7344.71986
894.639	7113.446
894.819	7307.5695
894.998	7214.66243
895.178	7474.69051
895.357	7103.11478
895.537	7367.41937
895.716	7179.55256
895.896	7183.68347
896.075	7132.04077
896.255	7381.86314
896.434	7245.63641
896.614	7319.95374
896.793	6962.55471
896.973	7260.08924
897.152	7138.23863
897.331	7429.31373
897.511	7375.67309
897.69	7427.2509
897.87	7262.15384
898.049	7251.83061
898.228	7241.50683
898.407	7181.61803
898.587	7012.176
898.766	7125.84271
898.945	6828.09829
899.124	6908.78363
899.304	6594.12149
899.483	6772.21893
899.662	6712.18179
899.841	6919.12541
900.02	6892.23561
900.199	6799.12588
900.378	6850.85919
900.557	6923.26196
900.737	6823.95965
900.916	6823.95965
901.095	6794.9866
901.274	6749.44849
901.453	6817.75151
901.632	6662.4813
901.811	6647.98283
901.989	6724.60485
902.168	6332.8793
902.347	6575.47354
902.526	6256.09507
902.705	6674.90767
902.884	6347.40244
903.063	6596.19337
903.242	6407.55759
903.42	6455.25291
903.599	6393.03918
903.778	6567.18496
903.957	6193.81405
904.135	6552.67906
904.314	6521.59118
904.493	6459.39975
904.672	6131.51192
904.85	6019.31477
905.029	5880.01171
905.207	6056.72144
905.386	5871.69176
905.565	6046.33147
905.743	5886.25143
905.922	6021.39312
906.1	5904.9693
906.279	6137.74308
906.457	5753.09146
906.636	6193.81405
906.814	5844.64932
906.993	5996.45138
907.171	5765.57932
907.35	5927.8441
907.528	5563.58821
907.707	5792.63342
907.885	5632.33174
908.063	5719.78637
908.242	5605.25402
908.42	5815.52223
908.598	5638.57988
908.777	5807.19936
908.955	5651.07552
909.133	5657.32303
909.311	5269.5772
909.49	5578.17232
909.668	5409.34279
909.846	5473.9748
910.024	5401.00153
910.202	5528.16486
910.38	5290.44441
910.559	5503.15604
910.737	5394.74534
910.915	5661.48791
911.093	5223.66111
911.271	5215.31151
911.449	5119.26437
911.627	5319.65458
911.805	5119.26437
911.983	5209.04907
912.161	5175.64584
912.339	5346.77419
912.517	5077.48941
912.695	5307.1365
912.872	5108.8215
913.05	5144.3249
913.228	4993.91169
913.406	5117.17585
913.584	4937.47586
913.762	4964.65076
913.939	4868.476
914.117	4832.9209
914.295	4518.91617
914.473	4826.64578
914.65	4638.29748
914.828	4803.63527
915.006	4705.28672
915.184	4914.47868
915.361	4548.24459
915.539	4845.47051
915.716	4784.80645
915.894	4929.11357
916.072	4759.69849
916.249	4904.0245
916.427	4711.56578
916.604	4891.47873
916.782	4502.15513
916.959	4575.47423
917.137	4292.5238
917.314	4632.01606
917.492	4353.33928
917.669	4604.79425
917.847	4258.96269
918.024	4533.58092
918.201	4296.71855
918.379	4342.85514
918.556	4225.3961
918.733	4420.42486
918.911	4055.38229
919.088	4229.59222
919.265	4084.7772
919.442	4202.31591
919.62	4143.55479
919.797	4487.48805
919.974	4036.48341
920.151	4114.16804
920.328	3954.56907
920.506	3920.95423
920.683	3820.07887
920.86	3941.96411
921.037	3689.71437
921.214	3811.67052
921.391	3569.79814
921.568	4023.88324
921.745	3704.43667
921.922	3944.06499
922.099	3710.74594
922.276	3881.0299
922.453	3618.19276
922.63	3878.92842
922.807	3580.31955
922.984	3763.31643
923.161	3426.66147
923.338	3735.98129
923.514	3350.84967
923.691	3719.15803
923.868	3302.40252
924.045	3432.97809
924.222	3163.33058
924.399	3237.08991
924.575	3188.62177
924.752	3333.99952
924.929	3188.62177
925.105	3504.5551
925.282	3038.94867
925.459	3401.39341
925.635	3055.81723
925.812	3428.76703
925.989	3344.53099
926.165	3367.6987
926.342	3317.14827
926.518	3106.4169
926.695	3095.87605
926.871	3049.49164
927.048	2821.68041
927.224	3081.1182
927.401	2895.5268
927.577	3053.70871
927.754	2752.03822
927.93	2931.38871
928.107	2787.91635
928.283	2965.13722
928.459	2754.1488
928.636	2760.48048
928.812	2397.28358
928.988	2657.04827
929.165	2452.20744
929.341	2526.13175
929.517	2376.15713
929.693	2464.88115
929.87	2141.58962
930.046	2494.45158
930.222	2352.91686
930.398	2606.37643
930.574	2304.3197
930.751	2412.07148
930.927	2316.99772
931.103	2361.36801
931.279	2166.95349
931.455	2359.25524
931.631	2116.22461
931.807	2443.75809
931.983	2270.51
932.159	2297.98057
932.335	2046.46523
932.511	2052.80732
932.687	1805.42514
932.863	2038.00902
933.039	1885.7798
933.215	1983.04103
933.391	1642.58352
933.566	1934.41194
933.742	1746.21237
933.918	1898.46673
934.094	1600.2842
934.27	1744.09758
934.445	1441.65682
934.621	1744.09758
934.797	1467.03745
934.973	1727.17907
935.148	1528.37376
935.324	1481.8428
935.5	1456.46219
935.675	1395.12576
935.851	1414.16117
936.027	1562.21417
936.202	1154.02292
936.378	1247.07628
936.553	995.42896
936.729	1160.36725
936.904	898.17507
937.08	1175.17081
937.255	938.3433
937.431	1008.11532
937.606	756.55362
937.782	893.947
937.957	830.52991
938.133	864.3514
938.308	752.32677
938.483	862.23749
938.659	583.28936
938.834	824.18863
939.009	610.75271
939.185	631.87982
939.36	526.25728
939.535	585.40185
939.71	522.03308
939.886	625.54156
940.061	551.60365
940.236	543.15464
940.411	467.12378
940.586	467.12378
940.761	418.55869
940.937	496.6891
941.112	403.77968
941.287	332.0075
941.462	308.79138
941.637	306.68093
941.812	289.79799
941.987	306.68093
942.162	306.68093
942.337	353.11491
942.512	319.34389
942.687	317.23335
942.862	306.68093
943.037	260.25571
943.212	266.58589
943.386	340.45025
943.561	334.11816
943.736	348.89329
943.911	334.11816
944.086	361.55837
944.26	294.01862
944.435	353.11491
944.61	264.47581
944.785	258.14568
944.959	308.79138
945.134	386.89035
945.309	190.63523
945.483	281.35697
945.658	224.38794
945.833	334.11816
946.007	306.68093
946.182	300.34969
946.357	205.40141
946.531	249.70578
946.706	260.25571
946.88	300.34969
947.055	232.82691
947.229	329.89685
947.404	239.15634
947.578	270.8061
947.752	283.46719
947.927	310.90184
948.101	232.82691
948.276	359.44748
948.45	323.56502
948.624	298.23931
948.799	213.83967
948.973	226.49765
949.147	226.49765
949.321	251.81573
949.496	323.56502
949.67	298.23931
949.844	287.68771
950.018	262.36575
950.193	234.9367
950.367	264.47581
950.541	232.82691
950.715	304.5705
950.889	291.9083
951.063	319.34389
951.237	241.26619
951.411	336.22884
951.585	414.33604
951.759	323.56502
951.933	308.79138
952.107	367.89113
952.281	393.22373
952.455	310.90184
952.629	340.45025
952.803	399.55725
952.977	294.01862
953.151	458.67709
953.325	412.22473
953.499	374.22406
953.672	222.27825
953.846	408.00217
954.02	294.01862
954.194	327.78622
954.368	298.23931
954.541	298.23931
954.715	308.79138
954.889	380.55713
955.062	298.23931
955.236	433.33849
955.41	281.35697
955.583	365.78019
955.757	391.11258
955.93	291.9083
956.104	281.35697
956.278	264.47581
956.451	327.78622
956.625	258.14568
956.798	372.11307
956.972	361.55837
957.145	374.22406
957.319	488.24157
957.492	329.89685
957.665	367.89113
957.839	334.11816
958.012	338.33954
958.185	224.38794
958.359	336.22884
958.532	306.68093
958.705	384.77926
958.879	205.40141
959.052	310.90184
959.225	298.23931
959.398	289.79799
959.572	313.01233
959.745	256.03568
959.918	272.91624
960.091	334.11816
960.264	340.45025
960.438	281.35697
960.611	272.91624
960.784	304.5705
960.957	315.12283
961.13	359.44748
961.303	264.47581
961.476	302.46008
961.649	285.57744
961.822	389.00146
961.995	283.46719
962.168	374.22406
962.341	270.8061
962.514	294.01862
962.686	272.91624
962.859	315.12283
963.032	287.68771
963.205	228.60739
963.378	247.59586
963.551	289.79799
963.723	251.81573
963.896	308.79138
964.069	291.9083
964.242	310.90184
964.414	230.71714
964.587	298.23931
964.76	251.81573
964.932	272.91624
965.105	285.57744
965.278	325.67561
965.45	245.48595
965.623	188.52586
965.795	199.07293
965.968	264.47581
966.14	243.37606
966.313	329.89685
966.485	251.81573
966.658	275.02639
966.83	218.05892
967.003	258.14568
967.175	167.43326
967.348	243.37606
967.52	262.36575
967.692	300.34969
967.865	209.6205
968.037	363.66927
968.209	266.58589
968.382	173.76082
968.554	266.58589
968.726	171.65161
968.898	258.14568
969.071	277.13656
969.243	196.96348
969.415	201.1824
969.587	226.49765
969.759	218.05892
969.932	218.05892
970.104	264.47581
970.276	289.79799
970.448	300.34969
970.62	190.63523
970.792	277.13656
970.964	260.25571
971.136	281.35697
971.308	220.16857
971.48	190.63523
971.652	289.79799
971.824	241.26619
971.996	196.96348
972.168	154.77869
972.339	171.65161
972.511	243.37606
972.683	184.30718
972.855	245.48595
973.027	156.88773
973.199	180.08857
973.37	213.83967
973.542	167.43326
973.714	137.90711
973.886	218.05892
974.057	182.19786
974.229	232.82691
974.401	218.05892
974.572	125.25432
974.744	106.2766
974.915	93.62577
975.087	150.56067
975.259	121.0369
975.43	121.0369
975.602	161.10588
975.773	142.12488
975.945	123.1456
976.116	91.51738
976.288	150.56067
976.459	131.58062
976.63	213.83967
976.802	108.38515
976.973	106.2766
977.145	188.52586
977.316	158.99679
977.487	129.47183
977.659	146.34273
977.83	93.62577
978.001	215.94929
978.172	99.95108
978.344	146.34273
978.515	121.0369
978.686	180.08857
978.857	95.73419
979.028	121.0369
979.2	49.35423
979.371	156.88773
979.542	158.99679
979.713	182.19786
979.884	78.86748
980.055	154.77869
980.226	116.81956
980.397	156.88773
980.568	154.77869
980.739	78.86748
980.91	70.43467
981.081	137.90711
981.252	97.84262
981.423	152.66967
981.594	142.12488
981.765	123.1456
981.936	133.68943
982.106	91.51738
982.277	201.1824
982.448	131.58062
982.619	146.34273
982.79	112.60231
982.96	137.90711
983.131	114.71092
983.302	173.76082
983.472	127.36306
983.643	91.51738
983.814	158.99679
983.984	129.47183
984.155	106.2766
984.326	142.12488
984.496	62.00222
984.667	146.34273
984.837	146.34273
985.008	91.51738
985.178	140.01598
985.349	83.08402
985.519	57.78613
985.69	85.19233
985.86	167.43326
986.031	95.73419
986.201	131.58062
986.371	78.86748
986.542	87.30066
986.712	184.30718
986.882	83.08402
987.053	78.86748
987.223	133.68943
987.393	161.10588
987.563	102.05957
987.734	53.57014
987.904	72.54284
988.074	78.86748
988.244	104.16807
988.414	70.43467
988.585	43.03055
988.755	78.86748
988.925	131.58062
989.095	57.78613
989.265	163.21498
989.435	158.99679
989.605	78.86748
989.775	144.23379
989.945	45.13842
990.115	76.75925
990.285	154.77869
990.455	116.81956
990.625	57.78613
990.795	104.16807
990.965	57.78613
991.134	76.75925
991.304	95.73419
991.474	80.97574
991.644	-7.55127
991.814	5.09289
991.984	59.89417
992.153	43.03055
992.323	-18.08741
992.493	133.68943
992.662	142.12488
992.832	83.08402
993.002	62.00222
993.171	53.57014
993.341	133.68943
993.511	125.25432
993.68	64.1103
993.85	78.86748
994.019	66.2184
994.189	-34.94396
994.358	70.43467
994.528	66.2184
994.697	32.49155
994.867	51.46218
995.036	146.34273
995.206	19.84552
995.375	83.08402
995.544	53.57014
995.714	49.35423
995.883	108.38515
996.052	11.4153
996.222	19.84552
996.391	91.51738
996.56	47.24632
996.73	62.00222
996.899	78.86748
997.068	9.30781
997.237	102.05957
997.406	38.81488
997.576	163.21498
997.745	72.54284
997.914	76.75925
998.083	40.92271
998.252	-3.33665
998.421	112.60231
998.59	104.16807
998.759	59.89417
998.928	68.32652
999.097	91.51738
999.266	28.27611
999.435	7.20034
999.604	38.81488
999.773	112.60231
999.942	108.38515
1000.111	49.35423
1000.28	70.43467
1000.448	-1.2293
1000.617	21.95313
1000.786	87.30066
1000.955	95.73419
1001.124	40.92271
1001.292	53.57014
1001.461	114.71092
1001.63	0.87808
1001.798	87.30066
1001.967	87.30066
1002.136	34.5993
1002.304	62.00222
1002.473	49.35423
1002.642	32.49155
1002.81	78.86748
1002.979	47.24632
1003.147	93.62577
1003.316	66.2184
1003.484	7.20034
1003.653	28.27611
1003.821	59.89417
1003.99	51.46218
1004.158	68.32652
1004.327	-5.44397
1004.495	28.27611
1004.663	40.92271
1004.832	30.38382
1005	45.13842
1005.168	66.2184
1005.337	47.24632
1005.505	74.65103
1005.673	121.0369
1005.842	-22.3017
1006.01	53.57014
1006.178	-22.3017
1006.346	62.00222
1006.514	74.65103
1006.683	19.84552
1006.851	78.86748
1007.019	76.75925
1007.187	19.84552
1007.355	30.38382
1007.523	-7.55127
1007.691	28.27611
1007.859	43.03055
1008.027	21.95313
1008.195	49.35423
1008.363	78.86748
1008.531	57.78613
1008.699	24.06077
1008.867	74.65103
1009.035	-5.44397
1009.203	78.86748
1009.37	40.92271
1009.538	89.40901
1009.706	70.43467
1009.874	40.92271
1010.042	-9.65855
1010.209	70.43467
1010.377	-22.3017
1010.545	106.2766
1010.713	34.5993
1010.88	-18.08741
1011.048	19.84552
1011.216	106.2766
1011.383	38.81488
1011.551	9.30781
1011.718	40.92271
1011.886	95.73419
1012.054	32.49155
1012.221	47.24632
1012.389	7.20034
1012.556	24.06077
1012.724	34.5993
1012.891	15.63036
1013.058	19.84552
1013.226	55.67812
1013.393	57.78613
1013.561	38.81488
1013.728	13.52282
1013.895	76.75925
1014.063	49.35423
1014.23	95.73419
1014.397	-28.62294
1014.565	53.57014
1014.732	15.63036
1014.899	-37.05092
1015.066	-13.87303
1015.233	47.24632
1015.401	36.70708
1015.568	-5.44397
1015.735	5.09289
1015.902	72.54284
1016.069	15.63036
1016.236	87.30066
1016.403	2.98547
1016.57	74.65103
1016.737	55.67812
1016.904	43.03055
1017.071	72.54284
1017.238	-9.65855
1017.405	114.71092
1017.572	19.84552
1017.739	34.5993
1017.906	2.98547
1018.073	40.92271
1018.24	49.35423
1018.407	13.52282
1018.573	36.70708
1018.74	11.4153
1018.907	15.63036
1019.074	40.92271
1019.241	40.92271
1019.407	26.16843
1019.574	-11.7658
1019.741	127.36306
1019.907	24.06077
1020.074	-22.3017
1020.241	45.13842
1020.407	28.27611
1020.574	-26.51589
1020.74	-20.19457
1020.907	7.20034
1021.073	62.00222
1021.24	-26.51589
1021.406	21.95313
1021.573	19.84552
1021.739	15.63036
1021.906	55.67812
1022.072	11.4153
1022.239	28.27611
1022.405	13.52282
1022.571	-7.55127
1022.738	28.27611
1022.904	30.38382
1023.07	36.70708
1023.237	-47.58533
1023.403	140.01598
1023.569	74.65103
1023.735	13.52282
1023.902	78.86748
1024.068	57.78613
1024.234	57.78613
1024.4	24.06077
1024.566	9.30781
1024.732	-58.11912
1024.898	74.65103
1025.065	40.92271
1025.231	-18.08741
1025.397	13.52282
1025.563	66.2184
1025.729	17.73793
1025.895	47.24632
1026.061	30.38382
1026.227	11.4153
1026.392	21.95313
1026.558	64.1103
1026.724	13.52282
1026.89	53.57014
1027.056	45.13842
1027.222	59.89417
1027.388	-56.01241
1027.553	70.43467
1027.719	-26.51589
1027.885	15.63036
1028.051	62.00222
1028.216	97.84262
1028.382	47.24632
1028.548	32.49155
1028.713	21.95313
1028.879	-3.33665
1029.045	64.1103
1029.21	74.65103
1029.376	2.98547
1029.541	24.06077
1029.707	13.52282
1029.873	30.38382
1030.038	-9.65855
1030.204	45.13842
1030.369	53.57014
1030.534	47.24632
1030.7	47.24632
1030.865	15.63036
1031.031	-3.33665
1031.196	34.5993
1031.361	-28.62294
1031.527	30.38382
1031.692	-15.98024
1031.857	-9.65855
1032.023	-5.44397
1032.188	89.40901
1032.353	-3.33665
1032.518	53.57014
1032.684	-28.62294
1032.849	21.95313
1033.014	70.43467
1033.179	21.95313
1033.344	36.70708
1033.509	47.24632
1033.674	-15.98024
1033.839	68.32652
1034.004	-18.08741
1034.17	78.86748
1034.335	-64.43909
1034.5	-22.3017
1034.664	-3.33665
1034.829	55.67812
1034.994	21.95313
1035.159	-37.05092
1035.324	-11.7658
1035.489	53.57014
1035.654	87.30066
1035.819	19.84552
1035.984	7.20034
1036.148	21.95313
1036.313	9.30781
1036.478	-22.3017
1036.643	38.81488
1036.807	45.13842
1036.972	9.30781
1037.137	17.73793
1037.301	19.84552
1037.466	-26.51589
1037.631	32.49155
1037.795	-26.51589
1037.96	21.95313
1038.124	11.4153
1038.289	45.13842
1038.454	36.70708
1038.618	87.30066
1038.783	55.67812
1038.947	-68.65227
1039.111	2.98547
1039.276	30.38382
1039.44	-30.72997
1039.605	55.67812
1039.769	24.06077
1039.933	36.70708
1040.098	21.95313
1040.262	-1.2293
1040.426	53.57014
1040.591	-39.15785
1040.755	-13.87303
1040.919	2.98547
1041.083	-18.08741
1041.248	19.84552
1041.412	62.00222
1041.576	11.4153
1041.74	24.06077
1041.904	-28.62294
1042.068	49.35423
1042.232	-13.87303
1042.397	-5.44397
1042.561	5.09289
1042.725	38.81488
1042.889	38.81488
1043.053	57.78613
1043.217	13.52282
1043.381	49.35423
1043.544	62.00222
1043.708	-1.2293
1043.872	0.87808
1044.036	95.73419
1044.2	38.81488
1044.364	64.1103
1044.528	64.1103
1044.691	-41.26476
1044.855	-62.33245
1045.019	17.73793
1045.183	80.97574
1045.346	106.2766
1045.51	-15.98024
1045.674	-26.51589
1045.837	-13.87303
1046.001	7.20034
1046.165	-1.2293
1046.328	17.73793
1046.492	55.67812
1046.655	-7.55127
1046.819	-39.15785
1046.983	45.13842
1047.146	-20.19457
1047.31	15.63036
1047.473	-3.33665
1047.636	55.67812
1047.8	53.57014
1047.963	24.06077
1048.127	66.2184
1048.29	-62.33245
