Data from Scatter_Coeff_Baseline_USB4F045381__26__0026.txt Node

Date: Thu Feb 13 19:21:23 EST 2025
User: mmckonesweet
Spectrometer: USB4F04538
Trigger mode: 4
Integration Time (sec): 2.400000E-3
Scans to average: 1
Electric dark correction enabled: true
Nonlinearity correction enabled: true
Boxcar width: 0
XAxis mode: Wavelengths
Number of Pixels in Spectrum: 3648
>>>>>Begin Spectral Data<<<<<
345.52	41.97663
345.736	41.97663
345.952	41.97663
346.168	6.14661
346.384	39.86879
346.6	-59.17246
346.816	-42.31821
347.032	-8.60492
347.248	39.86879
347.464	33.54542
347.68	10.36155
347.896	10.36155
348.112	-10.71218
348.328	14.57659
348.544	1.93177
348.76	-21.24814
348.975	31.43768
349.191	14.57659
349.407	35.65319
349.623	8.25407
349.839	-2.28298
350.055	31.43768
350.27	48.30027
350.486	44.08449
350.702	37.76098
350.918	-10.71218
351.133	-14.92664
351.349	29.32996
351.565	-69.70555
351.781	-23.35526
351.996	23.00695
352.212	-12.81942
352.428	48.30027
352.644	-27.56942
352.859	23.00695
353.075	-65.49239
353.291	-73.91861
353.506	-80.238
353.722	-33.89048
353.938	-69.70555
354.153	-48.63874
354.369	-19.141
354.584	46.19237
354.8	96.7884
355.016	16.68414
355.231	6.14661
355.447	-21.24814
355.662	-0.17561
355.878	-6.49763
356.093	20.89932
356.309	10.36155
356.524	-19.141
356.74	-42.31821
356.955	31.43768
357.171	-48.63874
357.386	-67.59898
357.602	-23.35526
357.817	-17.03383
358.033	31.43768
358.248	1.93177
358.464	27.22227
358.679	14.57659
358.895	-4.39031
359.11	52.51615
359.325	-67.59898
359.541	52.51615
359.756	-27.56942
359.972	41.97663
360.187	-4.39031
360.402	-86.55716
360.618	25.11459
360.833	-21.24814
361.048	-2.28298
361.264	-10.71218
361.479	-21.24814
361.694	16.68414
361.909	35.65319
362.125	-2.28298
362.34	-2.28298
362.555	-0.17561
362.77	-27.56942
362.986	52.51615
363.201	-27.56942
363.416	-44.42508
363.631	1.93177
363.847	84.13817
364.062	-35.99745
364.277	-0.17561
364.492	8.25407
364.707	-29.67646
364.922	-44.42508
365.138	41.97663
365.353	46.19237
365.568	10.36155
365.783	37.76098
365.998	-19.141
366.213	107.33087
366.428	1.93177
366.643	46.19237
366.858	44.08449
367.073	56.73213
367.288	-50.74553
367.503	-12.81942
367.718	-27.56942
367.933	4.03918
368.148	-25.46235
368.363	35.65319
368.578	48.30027
368.793	65.16435
369.008	16.68414
369.223	1.93177
369.438	-0.17561
369.653	8.25407
369.868	23.00695
370.083	23.00695
370.298	-6.49763
370.513	35.65319
370.728	-69.70555
370.943	8.25407
371.157	-42.31821
371.372	-25.46235
371.587	56.73213
371.802	67.27246
372.017	35.65319
372.232	-44.42508
372.446	65.16435
372.661	-73.91861
372.876	-10.71218
373.091	1.93177
373.306	27.22227
373.52	-27.56942
373.735	4.03918
373.95	14.57659
374.165	-6.49763
374.379	-6.49763
374.594	-19.141
374.809	-29.67646
375.023	-17.03383
375.238	31.43768
375.453	-14.92664
375.667	18.79172
375.882	56.73213
376.097	-61.27913
376.311	-6.49763
376.526	-52.8523
376.741	-8.60492
376.955	20.89932
377.17	-57.06577
377.384	18.79172
377.599	-52.8523
377.813	65.16435
378.028	-25.46235
378.242	23.00695
378.457	-17.03383
378.672	-2.28298
378.886	44.08449
379.101	-19.141
379.315	-2.28298
379.53	-10.71218
379.744	90.46319
379.958	48.30027
380.173	-50.74553
380.387	88.35483
380.602	27.22227
380.816	10.36155
381.031	-21.24814
381.245	-17.03383
381.459	75.70514
381.674	14.57659
381.888	37.76098
382.103	-52.8523
382.317	-6.49763
382.531	8.25407
382.746	6.14661
382.96	27.22227
383.174	60.94819
383.388	54.62413
383.603	23.00695
383.817	-8.60492
384.031	39.86879
384.246	16.68414
384.46	65.16435
384.674	48.30027
384.888	48.30027
385.103	-8.60492
385.317	39.86879
385.531	14.57659
385.745	31.43768
385.959	18.79172
386.174	-14.92664
386.388	6.14661
386.602	-31.78348
386.816	14.57659
387.03	-2.28298
387.244	-19.141
387.458	39.86879
387.672	82.02988
387.887	-19.141
388.101	-19.141
388.315	-6.49763
388.529	33.54542
388.743	-14.92664
388.957	-14.92664
389.171	4.03918
389.385	35.65319
389.599	-8.60492
389.813	-57.06577
390.027	18.79172
390.241	-42.31821
390.455	39.86879
390.669	39.86879
390.883	-12.81942
391.097	25.11459
391.311	-35.99745
391.525	-46.53192
391.738	-23.35526
391.952	75.70514
392.166	-67.59898
392.38	69.38059
392.594	94.67998
392.808	94.67998
393.022	-2.28298
393.236	8.25407
393.449	1.93177
393.663	77.81336
393.877	39.86879
394.091	-35.99745
394.305	-19.141
394.518	29.32996
394.732	65.16435
394.946	60.94819
395.16	1.93177
395.373	-23.35526
395.587	27.22227
395.801	-0.17561
396.015	-82.34441
396.228	-61.27913
396.442	67.27246
396.656	25.11459
396.869	-8.60492
397.083	31.43768
397.297	77.81336
397.51	-27.56942
397.724	8.25407
397.938	-10.71218
398.151	8.25407
398.365	8.25407
398.578	-2.28298
398.792	-21.24814
399.005	23.00695
399.219	10.36155
399.433	-2.28298
399.646	-25.46235
399.86	-27.56942
400.073	8.25407
400.287	39.86879
400.5	-8.60492
400.714	-35.99745
400.927	44.08449
401.141	-101.30096
401.354	82.02988
401.567	44.08449
401.781	-0.17561
401.994	-46.53192
402.208	56.73213
402.421	-19.141
402.635	50.4082
402.848	-14.92664
403.061	6.14661
403.275	27.22227
403.488	39.86879
403.701	-50.74553
403.915	-17.03383
404.128	20.89932
404.341	-35.99745
404.555	14.57659
404.768	-50.74553
404.981	-10.71218
405.195	-8.60492
405.408	-73.91861
405.621	77.81336
405.834	-54.95905
406.048	-57.06577
406.261	52.51615
406.474	75.70514
406.687	18.79172
406.9	65.16435
407.114	-44.42508
407.327	79.92161
407.54	33.54542
407.753	67.27246
407.966	-17.03383
408.179	56.73213
408.392	23.00695
408.605	48.30027
408.819	1.93177
409.032	-0.17561
409.245	52.51615
409.458	-17.03383
409.671	-8.60492
409.884	-50.74553
410.097	-23.35526
410.31	8.25407
410.523	-27.56942
410.736	23.00695
410.949	14.57659
411.162	50.4082
411.375	10.36155
411.588	8.25407
411.801	48.30027
412.014	16.68414
412.227	-21.24814
412.44	39.86879
412.653	-0.17561
412.865	14.57659
413.078	60.94819
413.291	-27.56942
413.504	-10.71218
413.717	35.65319
413.93	10.36155
414.143	14.57659
414.356	-6.49763
414.568	25.11459
414.781	-97.08857
414.994	23.00695
415.207	-33.89048
415.42	-65.49239
415.632	-10.71218
415.845	-23.35526
416.058	-19.141
416.271	39.86879
416.483	6.14661
416.696	1.93177
416.909	-12.81942
417.121	33.54542
417.334	44.08449
417.547	33.54542
417.759	63.05626
417.972	35.65319
418.185	-54.95905
418.397	-19.141
418.61	77.81336
418.823	65.16435
419.035	-33.89048
419.248	109.43943
419.46	-10.71218
419.673	23.00695
419.885	39.86879
420.098	-8.60492
420.311	-61.27913
420.523	31.43768
420.736	31.43768
420.948	-40.21131
421.161	-86.55716
421.373	18.79172
421.586	10.36155
421.798	39.86879
422.01	10.36155
422.223	-6.49763
422.435	84.13817
422.648	10.36155
422.86	-27.56942
423.073	25.11459
423.285	84.13817
423.497	-2.28298
423.71	-44.42508
423.922	65.16435
424.134	39.86879
424.347	65.16435
424.559	33.54542
424.771	14.57659
424.984	-21.24814
425.196	-14.92664
425.408	14.57659
425.621	27.22227
425.833	33.54542
426.045	6.14661
426.257	8.25407
426.47	-2.28298
426.682	31.43768
426.894	-2.28298
427.106	39.86879
427.318	-4.39031
427.531	25.11459
427.743	56.73213
427.955	52.51615
428.167	1.93177
428.379	-14.92664
428.591	-35.99745
428.804	10.36155
429.016	37.76098
429.228	-2.28298
429.44	23.00695
429.652	-8.60492
429.864	23.00695
430.076	16.68414
430.288	56.73213
430.5	-17.03383
430.712	86.24649
430.924	-57.06577
431.136	115.76524
431.348	23.00695
431.56	-10.71218
431.772	-40.21131
431.984	44.08449
432.196	10.36155
432.408	39.86879
432.62	44.08449
432.832	6.14661
433.044	8.25407
433.256	-4.39031
433.468	-52.8523
433.679	27.22227
433.891	-19.141
434.103	27.22227
434.315	23.00695
434.527	-25.46235
434.739	37.76098
434.95	50.4082
435.162	-8.60492
435.374	35.65319
435.586	-57.06577
435.798	82.02988
436.009	84.13817
436.221	23.00695
436.433	12.46906
436.645	-35.99745
436.856	8.25407
437.068	20.89932
437.28	27.22227
437.491	31.43768
437.703	31.43768
437.915	29.32996
438.126	-48.63874
438.338	-10.71218
438.55	-40.21131
438.761	39.86879
438.973	18.79172
439.184	-44.42508
439.396	1.93177
439.608	10.36155
439.819	14.57659
440.031	27.22227
440.242	27.22227
440.454	56.73213
440.665	10.36155
440.877	48.30027
441.088	14.57659
441.3	-19.141
441.511	14.57659
441.723	6.14661
441.934	23.00695
442.146	37.76098
442.357	14.57659
442.569	-23.35526
442.78	-6.49763
442.991	6.14661
443.203	-44.42508
443.414	31.43768
443.626	60.94819
443.837	37.76098
444.048	56.73213
444.26	31.43768
444.471	-27.56942
444.682	18.79172
444.894	-27.56942
445.105	37.76098
445.316	52.51615
445.528	6.14661
445.739	33.54542
445.95	-2.28298
446.161	-25.46235
446.373	31.43768
446.584	56.73213
446.795	-17.03383
447.006	50.4082
447.217	18.79172
447.429	-67.59898
447.64	65.16435
447.851	-59.17246
448.062	35.65319
448.273	6.14661
448.484	-23.35526
448.695	6.14661
448.907	109.43943
449.118	-10.71218
449.329	37.76098
449.54	60.94819
449.751	48.30027
449.962	18.79172
450.173	27.22227
450.384	39.86879
450.595	-31.78348
450.806	33.54542
451.017	-31.78348
451.228	94.67998
451.439	54.62413
451.65	29.32996
451.861	-2.28298
452.072	-21.24814
452.283	-2.28298
452.494	44.08449
452.705	-23.35526
452.915	60.94819
453.126	33.54542
453.337	6.14661
453.548	23.00695
453.759	14.57659
453.97	6.14661
454.181	-6.49763
454.391	8.25407
454.602	16.68414
454.813	1.93177
455.024	-10.71218
455.235	4.03918
455.445	-46.53192
455.656	-44.42508
455.867	18.79172
456.078	33.54542
456.288	-10.71218
456.499	8.25407
456.71	-29.67646
456.921	-61.27913
457.131	27.22227
457.342	6.14661
457.553	-0.17561
457.763	4.03918
457.974	25.11459
458.184	63.05626
458.395	1.93177
458.606	41.97663
458.816	-4.39031
459.027	-23.35526
459.237	-17.03383
459.448	-2.28298
459.659	132.63502
459.869	-44.42508
460.08	88.35483
460.29	10.36155
460.501	-27.56942
460.711	65.16435
460.922	25.11459
461.132	33.54542
461.343	-69.70555
461.553	-0.17561
461.764	4.03918
461.974	-21.24814
462.184	-6.49763
462.395	-2.28298
462.605	67.27246
462.816	-25.46235
463.026	-63.38577
463.236	-48.63874
463.447	23.00695
463.657	-23.35526
463.867	-14.92664
464.078	-27.56942
464.288	14.57659
464.498	-29.67646
464.709	-17.03383
464.919	-25.46235
465.129	44.08449
465.339	39.86879
465.55	10.36155
465.76	-14.92664
465.97	-33.89048
466.18	-2.28298
466.391	-2.28298
466.601	18.79172
466.811	6.14661
467.021	-35.99745
467.231	-2.28298
467.441	-31.78348
467.651	33.54542
467.862	-17.03383
468.072	14.57659
468.282	56.73213
468.492	-78.13156
468.702	20.89932
468.912	-73.91861
469.122	-27.56942
469.332	-17.03383
469.542	-0.17561
469.752	-10.71218
469.962	-82.34441
470.172	52.51615
470.382	31.43768
470.592	-8.60492
470.802	-27.56942
471.012	69.38059
471.222	-40.21131
471.432	-69.70555
471.642	6.14661
471.852	90.46319
472.062	23.00695
472.272	14.57659
472.482	84.13817
472.691	-17.03383
472.901	-2.28298
473.111	25.11459
473.321	-4.39031
473.531	-31.78348
473.741	27.22227
473.95	18.79172
474.16	-17.03383
474.37	16.68414
474.58	10.36155
474.79	14.57659
474.999	14.57659
475.209	-61.27913
475.419	65.16435
475.628	-19.141
475.838	52.51615
476.048	-4.39031
476.258	29.32996
476.467	-46.53192
476.677	39.86879
476.886	-19.141
477.096	16.68414
477.306	-44.42508
477.515	-27.56942
477.725	-50.74553
477.935	65.16435
478.144	6.14661
478.354	-33.89048
478.563	46.19237
478.773	-46.53192
478.982	50.4082
479.192	8.25407
479.401	-17.03383
479.611	10.36155
479.82	-4.39031
480.03	-6.49763
480.239	10.36155
480.449	82.02988
480.658	46.19237
480.868	27.22227
481.077	23.00695
481.287	23.00695
481.496	16.68414
481.705	12.46906
481.915	10.36155
482.124	-35.99745
482.333	29.32996
482.543	-17.03383
482.752	-27.56942
482.961	16.68414
483.171	-57.06577
483.38	39.86879
483.589	44.08449
483.799	4.03918
484.008	-14.92664
484.217	58.84015
484.426	-6.49763
484.636	-71.81209
484.845	-6.49763
485.054	-73.91861
485.263	23.00695
485.472	86.24649
485.682	4.03918
485.891	6.14661
486.1	14.57659
486.309	29.32996
486.518	31.43768
486.727	69.38059
486.936	1.93177
487.146	33.54542
487.355	10.36155
487.564	54.62413
487.773	8.25407
487.982	27.22227
488.191	52.51615
488.4	52.51615
488.609	39.86879
488.818	-33.89048
489.027	10.36155
489.236	63.05626
489.445	-4.39031
489.654	-38.10439
489.863	-19.141
490.072	-19.141
490.281	-0.17561
490.49	41.97663
490.698	-40.21131
490.907	-38.10439
491.116	-48.63874
491.325	31.43768
491.534	10.36155
491.743	-50.74553
491.952	-0.17561
492.16	41.97663
492.369	-25.46235
492.578	12.46906
492.787	-40.21131
492.996	65.16435
493.204	-44.42508
493.413	14.57659
493.622	-29.67646
493.831	-27.56942
494.039	115.76524
494.248	-25.46235
494.457	12.46906
494.665	-19.141
494.874	-35.99745
495.083	-25.46235
495.291	-12.81942
495.5	-0.17561
495.709	50.4082
495.917	-19.141
496.126	6.14661
496.335	14.57659
496.543	29.32996
496.752	50.4082
496.96	12.46906
497.169	-10.71218
497.377	-50.74553
497.586	16.68414
497.794	-33.89048
498.003	6.14661
498.211	-2.28298
498.42	-4.39031
498.628	-4.39031
498.837	84.13817
499.045	107.33087
499.254	27.22227
499.462	35.65319
499.671	56.73213
499.879	-38.10439
500.087	37.76098
500.296	52.51615
500.504	69.38059
500.713	10.36155
500.921	86.24649
501.129	-52.8523
501.338	-0.17561
501.546	-31.78348
501.754	-10.71218
501.962	8.25407
502.171	25.11459
502.379	20.89932
502.587	27.22227
502.795	-31.78348
503.004	90.46319
503.212	20.89932
503.42	-94.98234
503.628	67.27246
503.837	69.38059
504.045	6.14661
504.253	39.86879
504.461	10.36155
504.669	-2.28298
504.877	4.03918
505.085	48.30027
505.294	-27.56942
505.502	69.38059
505.71	35.65319
505.918	6.14661
506.126	-54.95905
506.334	90.46319
506.542	6.14661
506.75	6.14661
506.958	-44.42508
507.166	6.14661
507.374	73.59693
507.582	23.00695
507.79	-23.35526
507.998	8.25407
508.206	-19.141
508.414	23.00695
508.622	1.93177
508.83	50.4082
509.037	27.22227
509.245	65.16435
509.453	-6.49763
509.661	31.43768
509.869	10.36155
510.077	-31.78348
510.285	-10.71218
510.492	8.25407
510.7	-44.42508
510.908	6.14661
511.116	18.79172
511.324	14.57659
511.531	1.93177
511.739	-10.71218
511.947	44.08449
512.155	-52.8523
512.362	-21.24814
512.57	-61.27913
512.778	44.08449
512.985	39.86879
513.193	-17.03383
513.401	50.4082
513.608	8.25407
513.816	56.73213
514.024	27.22227
514.231	35.65319
514.439	1.93177
514.646	-44.42508
514.854	31.43768
515.061	-4.39031
515.269	-0.17561
515.477	1.93177
515.684	-54.95905
515.892	12.46906
516.099	98.89685
516.307	73.59693
516.514	48.30027
516.722	4.03918
516.929	14.57659
517.136	18.79172
517.344	-38.10439
517.551	-2.28298
517.759	-14.92664
517.966	-48.63874
518.173	16.68414
518.381	-21.24814
518.588	-0.17561
518.796	23.00695
519.003	48.30027
519.21	-2.28298
519.418	33.54542
519.625	52.51615
519.832	14.57659
520.039	86.24649
520.247	48.30027
520.454	25.11459
520.661	-8.60492
520.868	31.43768
521.076	37.76098
521.283	48.30027
521.49	115.76524
521.697	44.08449
521.904	12.46906
522.112	69.38059
522.319	39.86879
522.526	-101.30096
522.733	35.65319
522.94	29.32996
523.147	25.11459
523.354	6.14661
523.561	73.59693
523.768	-6.49763
523.975	-14.92664
524.183	-0.17561
524.39	-10.71218
524.597	27.22227
524.804	-25.46235
525.011	27.22227
525.218	58.84015
525.425	71.48875
525.632	-23.35526
525.838	44.08449
526.045	-0.17561
526.252	-92.87609
526.459	16.68414
526.666	109.43943
526.873	-2.28298
527.08	67.27246
527.287	-25.46235
527.494	-10.71218
527.701	-23.35526
527.907	23.00695
528.114	56.73213
528.321	16.68414
528.528	29.32996
528.735	25.11459
528.941	4.03918
529.148	-23.35526
529.355	-38.10439
529.562	10.36155
529.768	23.00695
529.975	18.79172
530.182	33.54542
530.388	14.57659
530.595	67.27246
530.802	1.93177
531.008	23.00695
531.215	23.00695
531.422	-17.03383
531.628	-0.17561
531.835	12.46906
532.042	8.25407
532.248	71.48875
532.455	39.86879
532.661	48.30027
532.868	-8.60492
533.074	-17.03383
533.281	41.97663
533.487	33.54542
533.694	12.46906
533.9	60.94819
534.107	88.35483
534.313	44.08449
534.52	23.00695
534.726	69.38059
534.933	84.13817
535.139	8.25407
535.345	79.92161
535.552	-2.28298
535.758	-27.56942
535.965	-27.56942
536.171	-29.67646
536.377	-10.71218
536.584	6.14661
536.79	12.46906
536.996	12.46906
537.203	-2.28298
537.409	65.16435
537.615	14.57659
537.821	25.11459
538.028	-25.46235
538.234	25.11459
538.44	14.57659
538.646	-42.31821
538.853	-57.06577
539.059	-4.39031
539.265	8.25407
539.471	14.57659
539.677	44.08449
539.883	6.14661
540.09	-2.28298
540.296	50.4082
540.502	-14.92664
540.708	-14.92664
540.914	1.93177
541.12	50.4082
541.326	18.79172
541.532	8.25407
541.738	27.22227
541.944	79.92161
542.15	-23.35526
542.356	-0.17561
542.562	58.84015
542.768	60.94819
542.974	56.73213
543.18	-33.89048
543.386	1.93177
543.592	56.73213
543.798	-6.49763
544.004	-6.49763
544.21	16.68414
544.415	23.00695
544.621	8.25407
544.827	18.79172
545.033	-6.49763
545.239	27.22227
545.445	16.68414
545.651	58.84015
545.856	35.65319
546.062	4.03918
546.268	44.08449
546.474	41.97663
546.679	44.08449
546.885	58.84015
547.091	107.33087
547.297	23.00695
547.502	1.93177
547.708	-6.49763
547.914	-35.99745
548.119	58.84015
548.325	41.97663
548.531	31.43768
548.736	-10.71218
548.942	44.08449
549.147	-33.89048
549.353	37.76098
549.559	29.32996
549.764	-50.74553
549.97	39.86879
550.175	25.11459
550.381	52.51615
550.586	50.4082
550.792	-10.71218
550.997	-48.63874
551.203	-12.81942
551.408	25.11459
551.614	46.19237
551.819	14.57659
552.025	37.76098
552.23	75.70514
552.435	73.59693
552.641	23.00695
552.846	96.7884
553.052	39.86879
553.257	48.30027
553.462	1.93177
553.668	20.89932
553.873	8.25407
554.078	-10.71218
554.283	79.92161
554.489	12.46906
554.694	18.79172
554.899	-40.21131
555.105	48.30027
555.31	35.65319
555.515	6.14661
555.72	16.68414
555.925	-4.39031
556.131	-10.71218
556.336	77.81336
556.541	56.73213
556.746	33.54542
556.951	50.4082
557.156	10.36155
557.361	-14.92664
557.567	1.93177
557.772	65.16435
557.977	65.16435
558.182	39.86879
558.387	23.00695
558.592	10.36155
558.797	39.86879
559.002	6.14661
559.207	-31.78348
559.412	37.76098
559.617	-29.67646
559.822	60.94819
560.027	86.24649
560.232	-14.92664
560.437	20.89932
560.642	6.14661
560.847	-23.35526
561.051	33.54542
561.256	44.08449
561.461	31.43768
561.666	-21.24814
561.871	14.57659
562.076	145.28826
562.281	-23.35526
562.485	-8.60492
562.69	90.46319
562.895	52.51615
563.1	39.86879
563.305	20.89932
563.509	14.57659
563.714	-67.59898
563.919	12.46906
564.123	6.14661
564.328	31.43768
564.533	-27.56942
564.737	16.68414
564.942	73.59693
565.147	50.4082
565.351	73.59693
565.556	-14.92664
565.761	12.46906
565.965	33.54542
566.17	92.57157
566.374	-10.71218
566.579	6.14661
566.784	29.32996
566.988	-14.92664
567.193	94.67998
567.397	-23.35526
567.602	48.30027
567.806	20.89932
568.011	-19.141
568.215	35.65319
568.42	44.08449
568.624	-25.46235
568.828	77.81336
569.033	35.65319
569.237	20.89932
569.442	41.97663
569.646	39.86879
569.85	113.65661
570.055	56.73213
570.259	-4.39031
570.463	75.70514
570.668	12.46906
570.872	-44.42508
571.076	56.73213
571.281	103.11382
571.485	75.70514
571.689	52.51615
571.893	65.16435
572.098	23.00695
572.302	6.14661
572.506	44.08449
572.71	73.59693
572.914	27.22227
573.119	-8.60492
573.323	1.93177
573.527	-4.39031
573.731	4.03918
573.935	-2.28298
574.139	-14.92664
574.343	8.25407
574.547	-6.49763
574.751	71.48875
574.955	-12.81942
575.159	82.02988
575.364	37.76098
575.568	82.02988
575.772	56.73213
575.976	-0.17561
576.18	-12.81942
576.383	23.00695
576.587	56.73213
576.791	6.14661
576.995	-29.67646
577.199	4.03918
577.403	-40.21131
577.607	48.30027
577.811	35.65319
578.015	8.25407
578.219	52.51615
578.422	73.59693
578.626	-10.71218
578.83	82.02988
579.034	6.14661
579.238	75.70514
579.442	31.43768
579.645	27.22227
579.849	56.73213
580.053	65.16435
580.257	23.00695
580.46	4.03918
580.664	-10.71218
580.868	37.76098
581.071	69.38059
581.275	46.19237
581.479	1.93177
581.682	48.30027
581.886	60.94819
582.09	84.13817
582.293	-2.28298
582.497	105.22233
582.7	67.27246
582.904	105.22233
583.107	8.25407
583.311	-17.03383
583.515	117.87389
583.718	-61.27913
583.922	86.24649
584.125	56.73213
584.329	-14.92664
584.532	23.00695
584.735	39.86879
584.939	33.54542
585.142	31.43768
585.346	31.43768
585.549	86.24649
585.753	-29.67646
585.956	75.70514
586.159	65.16435
586.363	-10.71218
586.566	6.14661
586.769	14.57659
586.973	79.92161
587.176	6.14661
587.379	56.73213
587.582	-78.13156
587.786	-0.17561
587.989	41.97663
588.192	86.24649
588.395	16.68414
588.599	23.00695
588.802	56.73213
589.005	-8.60492
589.208	48.30027
589.411	58.84015
589.615	44.08449
589.818	-17.03383
590.021	-44.42508
590.224	56.73213
590.427	31.43768
590.63	48.30027
590.833	54.62413
591.036	52.51615
591.239	60.94819
591.442	82.02988
591.645	48.30027
591.848	48.30027
592.051	33.54542
592.254	31.43768
592.457	8.25407
592.66	8.25407
592.863	27.22227
593.066	77.81336
593.269	67.27246
593.472	-12.81942
593.675	111.54801
593.878	50.4082
594.081	41.97663
594.284	27.22227
594.486	-61.27913
594.689	41.97663
594.892	-17.03383
595.095	90.46319
595.298	46.19237
595.5	113.65661
595.703	16.68414
595.906	14.57659
596.109	-2.28298
596.311	14.57659
596.514	65.16435
596.717	8.25407
596.92	92.57157
597.122	48.30027
597.325	25.11459
597.528	52.51615
597.73	65.16435
597.933	33.54542
598.136	-2.28298
598.338	65.16435
598.541	29.32996
598.743	88.35483
598.946	39.86879
599.148	115.76524
599.351	105.22233
599.554	6.14661
599.756	-0.17561
599.959	39.86879
600.161	31.43768
600.363	134.74384
600.566	60.94819
600.768	-14.92664
600.971	41.97663
601.173	37.76098
601.376	48.30027
601.578	25.11459
601.78	23.00695
601.983	-2.28298
602.185	31.43768
602.388	44.08449
602.59	109.43943
602.792	77.81336
602.995	90.46319
603.197	41.97663
603.399	98.89685
603.601	128.41744
603.804	65.16435
604.006	33.54542
604.208	79.92161
604.41	23.00695
604.613	-19.141
604.815	73.59693
605.017	141.07043
605.219	52.51615
605.421	44.08449
605.623	33.54542
605.826	39.86879
606.028	65.16435
606.23	73.59693
606.432	-25.46235
606.634	-10.71218
606.836	-42.31821
607.038	35.65319
607.24	39.86879
607.442	73.59693
607.644	117.87389
607.846	48.30027
608.048	35.65319
608.25	44.08449
608.452	69.38059
608.654	39.86879
608.856	71.48875
609.058	23.00695
609.26	48.30027
609.462	-50.74553
609.664	107.33087
609.866	10.36155
610.067	73.59693
610.269	75.70514
610.471	98.89685
610.673	27.22227
610.875	119.98255
611.077	23.00695
611.278	48.30027
611.48	31.43768
611.682	65.16435
611.884	48.30027
612.085	41.97663
612.287	48.30027
612.489	145.28826
612.69	92.57157
612.892	82.02988
613.094	56.73213
613.295	16.68414
613.497	50.4082
613.699	48.30027
613.9	52.51615
614.102	29.32996
614.304	33.54542
614.505	67.27246
614.707	41.97663
614.908	75.70514
615.11	117.87389
615.311	14.57659
615.513	20.89932
615.714	82.02988
615.916	18.79172
616.117	48.30027
616.319	50.4082
616.52	77.81336
616.722	46.19237
616.923	77.81336
617.124	86.24649
617.326	69.38059
617.527	48.30027
617.729	67.27246
617.93	41.97663
618.131	69.38059
618.333	77.81336
618.534	69.38059
618.735	113.65661
618.937	113.65661
619.138	111.54801
619.339	94.67998
619.54	67.27246
619.742	90.46319
619.943	77.81336
620.144	-57.06577
620.345	31.43768
620.546	149.50617
620.748	71.48875
620.949	-4.39031
621.15	77.81336
621.351	75.70514
621.552	122.09124
621.753	94.67998
621.954	82.02988
622.155	67.27246
622.356	82.02988
622.558	-4.39031
622.759	41.97663
622.96	107.33087
623.161	92.57157
623.362	69.38059
623.563	52.51615
623.764	149.50617
623.965	90.46319
624.166	60.94819
624.366	71.48875
624.567	44.08449
624.768	82.02988
624.969	23.00695
625.17	82.02988
625.371	52.51615
625.572	109.43943
625.773	25.11459
625.973	73.59693
626.174	119.98255
626.375	122.09124
626.576	101.00532
626.777	39.86879
626.977	132.63502
627.178	94.67998
627.379	105.22233
627.58	101.00532
627.78	98.89685
627.981	132.63502
628.182	12.46906
628.382	77.81336
628.583	63.05626
628.784	67.27246
628.984	-6.49763
629.185	103.11382
629.386	92.57157
629.586	27.22227
629.787	82.02988
629.987	82.02988
630.188	96.7884
630.388	84.13817
630.589	105.22233
630.79	86.24649
630.99	35.65319
631.191	90.46319
631.391	103.11382
631.591	-0.17561
631.792	88.35483
631.992	151.61516
632.193	14.57659
632.393	94.67998
632.594	75.70514
632.794	79.92161
632.994	90.46319
633.195	115.76524
633.395	153.72418
633.595	145.28826
633.796	101.00532
633.996	33.54542
634.196	130.52622
634.397	109.43943
634.597	65.16435
634.797	115.76524
634.997	109.43943
635.198	65.16435
635.398	90.46319
635.598	134.74384
635.798	119.98255
635.998	69.38059
636.199	82.02988
636.399	69.38059
636.599	94.67998
636.799	27.22227
636.999	141.07043
637.199	111.54801
637.399	77.81336
637.599	109.43943
637.799	124.19996
637.999	60.94819
638.199	124.19996
638.399	122.09124
638.599	143.17933
638.799	113.65661
638.999	58.84015
639.199	111.54801
639.399	92.57157
639.599	96.7884
639.799	94.67998
639.999	109.43943
640.199	90.46319
640.399	96.7884
640.599	94.67998
640.799	67.27246
640.998	143.17933
641.198	149.50617
641.398	71.48875
641.598	124.19996
641.798	124.19996
641.997	126.30869
642.197	84.13817
642.397	73.59693
642.597	90.46319
642.796	-48.63874
642.996	69.38059
643.196	98.89685
643.395	124.19996
643.595	132.63502
643.795	82.02988
643.994	92.57157
644.194	86.24649
644.394	145.28826
644.593	69.38059
644.793	41.97663
644.992	77.81336
645.192	82.02988
645.392	94.67998
645.591	122.09124
645.791	56.73213
645.99	31.43768
646.19	63.05626
646.389	90.46319
646.589	128.41744
646.788	65.16435
646.987	48.30027
647.187	109.43943
647.386	107.33087
647.586	96.7884
647.785	73.59693
647.984	111.54801
648.184	109.43943
648.383	54.62413
648.582	130.52622
648.782	58.84015
648.981	113.65661
649.18	136.85268
649.38	141.07043
649.579	132.63502
649.778	84.13817
649.977	103.11382
650.177	82.02988
650.376	151.61516
650.575	128.41744
650.774	109.43943
650.973	90.46319
651.173	132.63502
651.372	198.0182
651.571	90.46319
651.77	128.41744
651.969	204.34665
652.168	77.81336
652.367	193.79933
652.566	56.73213
652.765	126.30869
652.964	90.46319
653.163	147.39721
653.362	217.0041
653.561	124.19996
653.76	151.61516
653.959	143.17933
654.158	86.24649
654.357	217.0041
654.556	166.37868
654.755	166.37868
654.954	71.48875
655.153	107.33087
655.352	164.26954
655.551	130.52622
655.749	124.19996
655.948	39.86879
656.147	94.67998
656.346	94.67998
656.545	126.30869
656.743	193.79933
656.942	119.98255
657.141	107.33087
657.34	115.76524
657.538	208.56572
657.737	130.52622
657.936	115.76524
658.135	73.59693
658.333	143.17933
658.532	136.85268
658.731	198.0182
658.929	242.32113
659.128	124.19996
659.326	157.94226
659.525	113.65661
659.724	202.23715
659.922	141.07043
660.121	130.52622
660.319	151.61516
660.518	191.68993
660.716	115.76524
660.915	109.43943
661.113	183.25252
661.312	191.68993
661.51	233.8818
661.709	176.92467
661.907	176.92467
662.105	217.0041
662.304	183.25252
662.502	134.74384
662.701	79.92161
662.899	107.33087
663.097	195.90876
663.296	157.94226
663.494	153.72418
663.692	185.36184
663.891	155.83321
664.089	179.03394
664.287	157.94226
664.485	170.59702
664.684	151.61516
664.882	157.94226
665.08	202.23715
665.278	174.81543
665.476	246.5409
665.675	107.33087
665.873	105.22233
666.071	75.70514
666.269	153.72418
666.467	170.59702
666.665	160.05133
666.863	170.59702
667.061	145.28826
667.259	164.26954
667.457	109.43943
667.655	90.46319
667.853	145.28826
668.051	136.85268
668.249	119.98255
668.447	223.33309
668.645	157.94226
668.843	200.12766
669.041	130.52622
669.239	149.50617
669.437	130.52622
669.635	145.28826
669.833	174.81543
670.031	157.94226
670.229	172.70621
670.426	229.66226
670.624	221.22341
670.822	168.48784
671.02	122.09124
671.218	183.25252
671.415	117.87389
671.613	96.7884
671.811	149.50617
672.009	252.87071
672.206	168.48784
672.404	136.85268
672.602	143.17933
672.799	170.59702
672.997	84.13817
673.195	212.78487
673.392	111.54801
673.59	155.83321
673.788	235.99161
673.985	172.70621
674.183	185.36184
674.38	136.85268
674.578	103.11382
674.775	206.45618
674.973	168.48784
675.17	128.41744
675.368	208.56572
675.565	265.53084
675.763	267.64093
675.96	202.23715
676.158	155.83321
676.355	141.07043
676.553	271.86117
676.75	105.22233
676.947	157.94226
677.145	200.12766
677.342	155.83321
677.539	191.68993
677.737	195.90876
677.934	109.43943
678.131	233.8818
678.329	166.37868
678.526	195.90876
678.723	172.70621
678.92	172.70621
679.118	238.10143
679.315	128.41744
679.512	153.72418
679.709	122.09124
679.906	200.12766
680.104	174.81543
680.301	187.47118
680.498	210.67529
680.695	166.37868
680.892	187.47118
681.089	170.59702
681.286	189.58055
681.483	157.94226
681.68	235.99161
681.877	136.85268
682.075	162.16043
682.272	134.74384
682.469	193.79933
682.665	208.56572
682.862	181.14322
683.059	126.30869
683.256	170.59702
683.453	183.25252
683.65	119.98255
683.847	193.79933
684.044	269.75104
684.241	200.12766
684.438	128.41744
684.635	170.59702
684.831	200.12766
685.028	212.78487
685.225	282.41208
685.422	208.56572
685.619	204.34665
685.815	202.23715
686.012	240.21127
686.209	187.47118
686.405	225.4428
686.602	206.45618
686.799	174.81543
686.996	107.33087
687.192	183.25252
687.389	162.16043
687.586	219.11374
687.782	134.74384
687.979	235.99161
688.175	179.03394
688.372	206.45618
688.568	191.68993
688.765	183.25252
688.962	160.05133
689.158	235.99161
689.355	151.61516
689.551	210.67529
689.748	292.96345
689.944	248.65082
690.14	221.22341
690.337	174.81543
690.533	225.4428
690.73	238.10143
690.926	210.67529
691.123	179.03394
691.319	168.48784
691.515	204.34665
691.712	206.45618
691.908	200.12766
692.104	143.17933
692.301	166.37868
692.497	170.59702
692.693	136.85268
692.889	141.07043
693.086	204.34665
693.282	166.37868
693.478	242.32113
693.674	189.58055
693.87	212.78487
694.067	166.37868
694.263	124.19996
694.459	119.98255
694.655	225.4428
694.851	229.66226
695.047	259.20069
695.243	183.25252
695.439	240.21127
695.635	174.81543
695.831	244.431
696.027	225.4428
696.224	166.37868
696.42	153.72418
696.615	271.86117
696.811	202.23715
697.007	229.66226
697.203	94.67998
697.399	187.47118
697.595	200.12766
697.791	288.74285
697.987	261.31072
698.183	227.55252
698.379	174.81543
698.575	235.99161
698.77	141.07043
698.966	153.72418
699.162	170.59702
699.358	233.8818
699.554	221.22341
699.749	206.45618
699.945	168.48784
700.141	242.32113
700.337	204.34665
700.532	238.10143
700.728	284.52232
700.924	187.47118
701.119	141.07043
701.315	162.16043
701.511	113.65661
701.706	191.68993
701.902	143.17933
702.097	250.76076
702.293	195.90876
702.489	233.8818
702.684	221.22341
702.88	208.56572
703.075	174.81543
703.271	231.77202
703.466	250.76076
703.662	242.32113
703.857	149.50617
704.053	172.70621
704.248	261.31072
704.443	212.78487
704.639	231.77202
704.834	278.19166
705.03	257.09068
705.225	172.70621
705.42	147.39721
705.616	206.45618
705.811	254.98069
706.006	136.85268
706.202	250.76076
706.397	204.34665
706.592	191.68993
706.787	170.59702
706.983	210.67529
707.178	132.63502
707.373	244.431
707.568	200.12766
707.763	187.47118
707.959	225.4428
708.154	214.89448
708.349	212.78487
708.544	225.4428
708.739	221.22341
708.934	179.03394
709.129	166.37868
709.324	153.72418
709.519	141.07043
709.714	214.89448
709.909	238.10143
710.104	257.09068
710.299	227.55252
710.494	174.81543
710.689	214.89448
710.884	200.12766
711.079	210.67529
711.274	172.70621
711.469	212.78487
711.664	109.43943
711.859	157.94226
712.054	276.08147
712.249	179.03394
712.443	235.99161
712.638	208.56572
712.833	179.03394
713.028	242.32113
713.223	318.28862
713.417	151.61516
713.612	248.65082
713.807	248.65082
714.002	204.34665
714.196	170.59702
714.391	136.85268
714.586	202.23715
714.78	221.22341
714.975	124.19996
715.17	107.33087
715.364	288.74285
715.559	164.26954
715.754	151.61516
715.948	166.37868
716.143	176.92467
716.337	183.25252
716.532	240.21127
716.726	164.26954
716.921	238.10143
717.115	231.77202
717.31	217.0041
717.504	301.40489
717.699	204.34665
717.893	185.36184
718.088	263.42077
718.282	223.33309
718.476	257.09068
718.671	176.92467
718.865	286.63257
719.059	183.25252
719.254	200.12766
719.448	187.47118
719.642	210.67529
719.837	208.56572
720.031	221.22341
720.225	174.81543
720.419	314.06758
720.614	267.64093
720.808	229.66226
721.002	179.03394
721.196	235.99161
721.39	267.64093
721.585	254.98069
721.779	202.23715
721.973	204.34665
722.167	204.34665
722.361	223.33309
722.555	233.8818
722.749	210.67529
722.943	149.50617
723.137	229.66226
723.331	214.89448
723.525	225.4428
723.719	242.32113
723.913	233.8818
724.107	162.16043
724.301	276.08147
724.495	242.32113
724.689	168.48784
724.883	208.56572
725.077	233.8818
725.271	221.22341
725.465	250.76076
725.659	250.76076
725.853	157.94226
726.046	191.68993
726.24	240.21127
726.434	185.36184
726.628	320.39917
726.822	198.0182
727.015	259.20069
727.209	90.46319
727.403	157.94226
727.596	238.10143
727.79	242.32113
727.984	183.25252
728.177	267.64093
728.371	233.8818
728.565	276.08147
728.758	244.431
728.952	271.86117
729.146	166.37868
729.339	204.34665
729.533	233.8818
729.726	151.61516
729.92	278.19166
730.113	271.86117
730.307	195.90876
730.5	219.11374
730.694	246.5409
730.887	242.32113
731.081	238.10143
731.274	276.08147
731.468	233.8818
731.661	233.8818
731.854	252.87071
732.048	276.08147
732.241	271.86117
732.435	212.78487
732.628	210.67529
732.821	276.08147
733.014	259.20069
733.208	227.55252
733.401	183.25252
733.594	208.56572
733.788	231.77202
733.981	111.54801
734.174	267.64093
734.367	238.10143
734.56	217.0041
734.754	223.33309
734.947	221.22341
735.14	263.42077
735.333	238.10143
735.526	347.8379
735.719	257.09068
735.912	242.32113
736.105	265.53084
736.298	191.68993
736.491	235.99161
736.684	288.74285
736.877	282.41208
737.07	200.12766
737.263	195.90876
737.456	263.42077
737.649	166.37868
737.842	193.79933
738.035	242.32113
738.228	276.08147
738.421	179.03394
738.614	231.77202
738.807	292.96345
739	176.92467
739.192	286.63257
739.385	202.23715
739.578	214.89448
739.771	153.72418
739.964	181.14322
740.156	191.68993
740.349	233.8818
740.542	212.78487
740.735	149.50617
740.927	261.31072
741.12	214.89448
741.313	259.20069
741.505	191.68993
741.698	200.12766
741.891	257.09068
742.083	263.42077
742.276	276.08147
742.468	238.10143
742.661	282.41208
742.854	233.8818
743.046	263.42077
743.239	174.81543
743.431	126.30869
743.624	151.61516
743.816	246.5409
744.009	217.0041
744.201	271.86117
744.393	195.90876
744.586	238.10143
744.778	219.11374
744.971	202.23715
745.163	185.36184
745.355	240.21127
745.548	271.86117
745.74	295.07378
745.932	292.96345
746.125	259.20069
746.317	212.78487
746.509	261.31072
746.702	265.53084
746.894	305.62571
747.086	284.52232
747.278	303.51529
747.471	225.4428
747.663	210.67529
747.855	191.68993
748.047	276.08147
748.239	183.25252
748.431	280.30186
748.623	242.32113
748.815	284.52232
749.008	221.22341
749.2	200.12766
749.392	147.39721
749.584	261.31072
749.776	248.65082
749.968	115.76524
750.16	204.34665
750.352	250.76076
750.544	250.76076
750.736	217.0041
750.928	242.32113
751.12	242.32113
751.311	210.67529
751.503	157.94226
751.695	227.55252
751.887	166.37868
752.079	267.64093
752.271	153.72418
752.463	248.65082
752.654	179.03394
752.846	276.08147
753.038	246.5409
753.23	212.78487
753.421	235.99161
753.613	183.25252
753.805	206.45618
753.997	242.32113
754.188	231.77202
754.38	271.86117
754.572	225.4428
754.763	238.10143
754.955	208.56572
755.146	267.64093
755.338	252.87071
755.53	183.25252
755.721	288.74285
755.913	229.66226
756.104	176.92467
756.296	179.03394
756.487	250.76076
756.679	229.66226
756.87	242.32113
757.062	187.47118
757.253	200.12766
757.445	271.86117
757.636	200.12766
757.827	254.98069
758.019	246.5409
758.21	214.89448
758.401	233.8818
758.593	208.56572
758.784	242.32113
758.975	179.03394
759.167	261.31072
759.358	284.52232
759.549	212.78487
759.74	233.8818
759.932	168.48784
760.123	200.12766
760.314	244.431
760.505	153.72418
760.696	191.68993
760.888	191.68993
761.079	191.68993
761.27	174.81543
761.461	138.96154
761.652	210.67529
761.843	261.31072
762.034	214.89448
762.225	170.59702
762.416	244.431
762.607	217.0041
762.798	172.70621
762.989	309.84661
763.18	252.87071
763.371	229.66226
763.562	242.32113
763.753	174.81543
763.944	208.56572
764.135	229.66226
764.326	235.99161
764.517	244.431
764.708	212.78487
764.899	229.66226
765.089	157.94226
765.28	221.22341
765.471	204.34665
765.662	284.52232
765.853	267.64093
766.043	254.98069
766.234	168.48784
766.425	138.96154
766.615	145.28826
766.806	166.37868
766.997	219.11374
767.187	219.11374
767.378	145.28826
767.569	198.0182
767.759	244.431
767.95	265.53084
768.141	250.76076
768.331	202.23715
768.522	217.0041
768.712	179.03394
768.903	229.66226
769.093	200.12766
769.284	267.64093
769.474	221.22341
769.665	292.96345
769.855	208.56572
770.046	166.37868
770.236	200.12766
770.426	250.76076
770.617	124.19996
770.807	221.22341
770.998	143.17933
771.188	244.431
771.378	193.79933
771.569	170.59702
771.759	191.68993
771.949	130.52622
772.139	219.11374
772.33	103.11382
772.52	235.99161
772.71	179.03394
772.9	202.23715
773.09	191.68993
773.281	187.47118
773.471	214.89448
773.661	221.22341
773.851	217.0041
774.041	124.19996
774.231	143.17933
774.421	179.03394
774.611	176.92467
774.802	94.67998
774.992	189.58055
775.182	155.83321
775.372	183.25252
775.562	149.50617
775.752	179.03394
775.942	109.43943
776.131	128.41744
776.321	183.25252
776.511	219.11374
776.701	172.70621
776.891	164.26954
777.081	267.64093
777.271	217.0041
777.461	193.79933
777.651	94.67998
777.84	151.61516
778.03	151.61516
778.22	124.19996
778.41	170.59702
778.599	179.03394
778.789	147.39721
778.979	153.72418
779.169	183.25252
779.358	193.79933
779.548	166.37868
779.738	128.41744
779.927	221.22341
780.117	176.92467
780.307	191.68993
780.496	145.28826
780.686	217.0041
780.875	225.4428
781.065	242.32113
781.254	200.12766
781.444	235.99161
781.633	183.25252
781.823	166.37868
782.012	136.85268
782.202	200.12766
782.391	153.72418
782.581	164.26954
782.77	75.70514
782.96	145.28826
783.149	155.83321
783.338	229.66226
783.528	157.94226
783.717	187.47118
783.906	134.74384
784.096	115.76524
784.285	157.94226
784.474	210.67529
784.663	109.43943
784.853	164.26954
785.042	193.79933
785.231	124.19996
785.42	248.65082
785.61	200.12766
785.799	132.63502
785.988	200.12766
786.177	153.72418
786.366	200.12766
786.555	115.76524
786.744	134.74384
786.933	195.90876
787.122	149.50617
787.312	227.55252
787.501	84.13817
787.69	189.58055
787.879	208.56572
788.068	181.14322
788.257	166.37868
788.445	166.37868
788.634	193.79933
788.823	143.17933
789.012	126.30869
789.201	128.41744
789.39	244.431
789.579	151.61516
789.768	244.431
789.957	143.17933
790.145	98.89685
790.334	166.37868
790.523	229.66226
790.712	166.37868
790.9	145.28826
791.089	113.65661
791.278	138.96154
791.467	117.87389
791.655	117.87389
791.844	128.41744
792.033	141.07043
792.221	168.48784
792.41	151.61516
792.599	119.98255
792.787	200.12766
792.976	202.23715
793.164	185.36184
793.353	191.68993
793.541	185.36184
793.73	193.79933
793.918	200.12766
794.107	145.28826
794.295	124.19996
794.484	155.83321
794.672	111.54801
794.861	147.39721
795.049	94.67998
795.238	143.17933
795.426	185.36184
795.614	153.72418
795.803	136.85268
795.991	151.61516
796.179	132.63502
796.368	77.81336
796.556	202.23715
796.744	96.7884
796.932	221.22341
797.121	149.50617
797.309	117.87389
797.497	124.19996
797.685	98.89685
797.874	103.11382
798.062	153.72418
798.25	141.07043
798.438	195.90876
798.626	138.96154
798.814	141.07043
799.002	82.02988
799.19	115.76524
799.378	202.23715
799.566	132.63502
799.755	128.41744
799.943	88.35483
800.131	141.07043
800.318	124.19996
800.506	157.94226
800.694	181.14322
800.882	115.76524
801.07	82.02988
801.258	157.94226
801.446	149.50617
801.634	151.61516
801.822	86.24649
802.01	90.46319
802.197	193.79933
802.385	134.74384
802.573	111.54801
802.761	124.19996
802.949	84.13817
803.136	136.85268
803.324	115.76524
803.512	172.70621
803.699	130.52622
803.887	162.16043
804.075	200.12766
804.262	208.56572
804.45	130.52622
804.638	183.25252
804.825	141.07043
805.013	176.92467
805.201	96.7884
805.388	145.28826
805.576	162.16043
805.763	103.11382
805.951	157.94226
806.138	143.17933
806.326	141.07043
806.513	149.50617
806.701	183.25252
806.888	128.41744
807.075	210.67529
807.263	183.25252
807.45	141.07043
807.638	166.37868
807.825	204.34665
808.012	166.37868
808.2	88.35483
808.387	221.22341
808.574	219.11374
808.761	113.65661
808.949	149.50617
809.136	75.70514
809.323	141.07043
809.51	117.87389
809.698	155.83321
809.885	166.37868
810.072	44.08449
810.259	67.27246
810.446	92.57157
810.633	75.70514
810.82	147.39721
811.008	225.4428
811.195	149.50617
811.382	174.81543
811.569	212.78487
811.756	103.11382
811.943	185.36184
812.13	96.7884
812.317	149.50617
812.504	143.17933
812.691	141.07043
812.878	90.46319
813.064	132.63502
813.251	128.41744
813.438	149.50617
813.625	166.37868
813.812	191.68993
813.999	149.50617
814.186	242.32113
814.372	136.85268
814.559	210.67529
814.746	212.78487
814.933	181.14322
815.12	166.37868
815.306	151.61516
815.493	132.63502
815.68	111.54801
815.866	105.22233
816.053	94.67998
816.24	122.09124
816.426	124.19996
816.613	157.94226
816.799	103.11382
816.986	210.67529
817.173	200.12766
817.359	128.41744
817.546	174.81543
817.732	122.09124
817.919	225.4428
818.105	160.05133
818.292	170.59702
818.478	111.54801
818.665	212.78487
818.851	107.33087
819.037	185.36184
819.224	217.0041
819.41	174.81543
819.597	179.03394
819.783	103.11382
819.969	117.87389
820.156	212.78487
820.342	122.09124
820.528	166.37868
820.714	217.0041
820.901	153.72418
821.087	155.83321
821.273	187.47118
821.459	111.54801
821.646	155.83321
821.832	162.16043
822.018	56.73213
822.204	132.63502
822.39	143.17933
822.576	166.37868
822.762	162.16043
822.948	195.90876
823.134	172.70621
823.32	105.22233
823.507	98.89685
823.693	149.50617
823.879	166.37868
824.065	31.43768
824.25	257.09068
824.436	157.94226
824.622	162.16043
824.808	82.02988
824.994	153.72418
825.18	181.14322
825.366	105.22233
825.552	147.39721
825.738	149.50617
825.923	185.36184
826.109	96.7884
826.295	50.4082
826.481	212.78487
826.667	92.57157
826.852	193.79933
827.038	172.70621
827.224	124.19996
827.409	157.94226
827.595	276.08147
827.781	185.36184
827.966	136.85268
828.152	141.07043
828.338	166.37868
828.523	147.39721
828.709	143.17933
828.894	162.16043
829.08	124.19996
829.266	94.67998
829.451	101.00532
829.637	174.81543
829.822	149.50617
830.008	134.74384
830.193	111.54801
830.378	143.17933
830.564	174.81543
830.749	103.11382
830.935	105.22233
831.12	153.72418
831.305	75.70514
831.491	77.81336
831.676	128.41744
831.861	130.52622
832.047	160.05133
832.232	187.47118
832.417	172.70621
832.602	82.02988
832.788	128.41744
832.973	90.46319
833.158	179.03394
833.343	103.11382
833.528	119.98255
833.714	124.19996
833.899	160.05133
834.084	103.11382
834.269	155.83321
834.454	105.22233
834.639	105.22233
834.824	126.30869
835.009	73.59693
835.194	128.41744
835.379	157.94226
835.564	124.19996
835.749	107.33087
835.934	107.33087
836.119	119.98255
836.304	143.17933
836.489	84.13817
836.674	111.54801
836.859	132.63502
837.044	149.50617
837.228	132.63502
837.413	124.19996
837.598	153.72418
837.783	119.98255
837.968	134.74384
838.152	98.89685
838.337	98.89685
838.522	107.33087
838.707	109.43943
838.891	124.19996
839.076	229.66226
839.261	149.50617
839.445	132.63502
839.63	168.48784
839.815	84.13817
839.999	124.19996
840.184	84.13817
840.368	117.87389
840.553	90.46319
840.737	115.76524
840.922	130.52622
841.106	134.74384
841.291	126.30869
841.475	126.30869
841.66	75.70514
841.844	75.70514
842.029	111.54801
842.213	136.85268
842.397	132.63502
842.582	69.38059
842.766	136.85268
842.951	149.50617
843.135	71.48875
843.319	60.94819
843.504	84.13817
843.688	200.12766
843.872	103.11382
844.056	124.19996
844.241	124.19996
844.425	46.19237
844.609	105.22233
844.793	107.33087
844.977	96.7884
845.161	63.05626
845.346	141.07043
845.53	90.46319
845.714	157.94226
845.898	113.65661
846.082	56.73213
846.266	149.50617
846.45	90.46319
846.634	160.05133
846.818	143.17933
847.002	107.33087
847.186	132.63502
847.37	16.68414
847.554	-17.03383
847.738	105.22233
847.922	103.11382
848.106	128.41744
848.29	126.30869
848.473	221.22341
848.657	65.16435
848.841	141.07043
849.025	181.14322
849.209	90.46319
849.392	98.89685
849.576	157.94226
849.76	98.89685
849.944	90.46319
850.127	86.24649
850.311	20.89932
850.495	98.89685
850.678	130.52622
850.862	18.79172
851.046	164.26954
851.229	39.86879
851.413	48.30027
851.596	71.48875
851.78	124.19996
851.964	149.50617
852.147	101.00532
852.331	79.92161
852.514	115.76524
852.698	14.57659
852.881	107.33087
853.065	46.19237
853.248	98.89685
853.431	103.11382
853.615	183.25252
853.798	90.46319
853.982	35.65319
854.165	-42.31821
854.348	82.02988
854.532	77.81336
854.715	23.00695
854.898	157.94226
855.081	69.38059
855.265	82.02988
855.448	136.85268
855.631	48.30027
855.814	145.28826
855.997	101.00532
856.181	79.92161
856.364	56.73213
856.547	166.37868
856.73	75.70514
856.913	141.07043
857.096	50.4082
857.279	90.46319
857.462	60.94819
857.645	65.16435
857.828	115.76524
858.011	31.43768
858.194	48.30027
858.377	56.73213
858.56	141.07043
858.743	124.19996
858.926	130.52622
859.109	126.30869
859.292	65.16435
859.475	82.02988
859.658	69.38059
859.841	101.00532
860.023	92.57157
860.206	124.19996
860.389	111.54801
860.572	16.68414
860.755	98.89685
860.937	98.89685
861.12	103.11382
861.303	54.62413
861.486	168.48784
861.668	58.84015
861.851	109.43943
862.034	65.16435
862.216	141.07043
862.399	16.68414
862.581	98.89685
862.764	63.05626
862.947	48.30027
863.129	84.13817
863.312	48.30027
863.494	200.12766
863.677	84.13817
863.859	73.59693
864.042	168.48784
864.224	136.85268
864.406	60.94819
864.589	75.70514
864.771	90.46319
864.954	37.76098
865.136	39.86879
865.318	56.73213
865.501	52.51615
865.683	31.43768
865.865	82.02988
866.048	50.4082
866.23	73.59693
866.412	103.11382
866.594	63.05626
866.777	46.19237
866.959	82.02988
867.141	65.16435
867.323	77.81336
867.505	39.86879
867.687	31.43768
867.869	77.81336
868.052	46.19237
868.234	1.93177
868.416	-19.141
868.598	67.27246
868.78	6.14661
868.962	69.38059
869.144	41.97663
869.326	98.89685
869.508	138.96154
869.69	65.16435
869.872	109.43943
870.054	90.46319
870.236	141.07043
870.417	98.89685
870.599	73.59693
870.781	29.32996
870.963	115.76524
871.145	128.41744
871.327	41.97663
871.508	54.62413
871.69	65.16435
871.872	82.02988
872.054	90.46319
872.235	136.85268
872.417	84.13817
872.599	58.84015
872.78	65.16435
872.962	20.89932
873.144	60.94819
873.325	44.08449
873.507	79.92161
873.689	33.54542
873.87	31.43768
874.052	60.94819
874.233	48.30027
874.415	94.67998
874.596	147.39721
874.778	-42.31821
874.959	35.65319
875.141	60.94819
875.322	69.38059
875.503	90.46319
875.685	20.89932
875.866	94.67998
876.048	103.11382
876.229	73.59693
876.41	122.09124
876.592	10.36155
876.773	23.00695
876.954	111.54801
877.136	48.30027
877.317	35.65319
877.498	101.00532
877.679	37.76098
877.86	69.38059
878.042	39.86879
878.223	48.30027
878.404	67.27246
878.585	44.08449
878.766	4.03918
878.947	132.63502
879.128	128.41744
879.309	75.70514
879.49	44.08449
879.672	58.84015
879.853	79.92161
880.034	124.19996
880.215	54.62413
880.396	84.13817
880.576	84.13817
880.757	67.27246
880.938	39.86879
881.119	90.46319
881.3	56.73213
881.481	31.43768
881.662	29.32996
881.843	16.68414
882.023	39.86879
882.204	6.14661
882.385	86.24649
882.566	33.54542
882.747	96.7884
882.927	126.30869
883.108	98.89685
883.289	1.93177
883.469	86.24649
883.65	77.81336
883.831	92.57157
884.011	-0.17561
884.192	98.89685
884.373	56.73213
884.553	56.73213
884.734	48.30027
884.914	77.81336
885.095	82.02988
885.275	56.73213
885.456	73.59693
885.636	44.08449
885.817	79.92161
885.997	69.38059
886.178	60.94819
886.358	132.63502
886.538	48.30027
886.719	44.08449
886.899	103.11382
887.08	60.94819
887.26	6.14661
887.44	79.92161
887.621	82.02988
887.801	12.46906
887.981	35.65319
888.161	73.59693
888.342	69.38059
888.522	84.13817
888.702	94.67998
888.882	29.32996
889.062	92.57157
889.242	65.16435
889.423	46.19237
889.603	86.24649
889.783	41.97663
889.963	12.46906
890.143	92.57157
890.323	20.89932
890.503	41.97663
890.683	134.74384
890.863	60.94819
891.043	105.22233
891.223	117.87389
891.403	44.08449
891.583	23.00695
891.763	86.24649
891.943	130.52622
892.122	86.24649
892.302	63.05626
892.482	31.43768
892.662	130.52622
892.842	31.43768
893.022	56.73213
893.201	113.65661
893.381	145.28826
893.561	69.38059
893.741	107.33087
893.92	41.97663
894.1	39.86879
894.28	65.16435
894.459	141.07043
894.639	82.02988
894.819	50.4082
894.998	103.11382
895.178	82.02988
895.357	63.05626
895.537	132.63502
895.716	27.22227
895.896	54.62413
896.075	77.81336
896.255	65.16435
896.434	-48.63874
896.614	77.81336
896.793	119.98255
896.973	35.65319
897.152	41.97663
897.331	94.67998
897.511	86.24649
897.69	101.00532
897.87	86.24649
898.049	39.86879
898.228	75.70514
898.407	69.38059
898.587	44.08449
898.766	52.51615
898.945	195.90876
899.124	109.43943
899.304	-12.81942
899.483	35.65319
899.662	52.51615
899.841	105.22233
900.02	4.03918
900.199	111.54801
900.378	77.81336
900.557	185.36184
900.737	79.92161
900.916	77.81336
901.095	-8.60492
901.274	27.22227
901.453	46.19237
901.632	-23.35526
901.811	98.89685
901.989	58.84015
902.168	31.43768
902.347	98.89685
902.526	41.97663
902.705	111.54801
902.884	35.65319
903.063	92.57157
903.242	48.30027
903.42	58.84015
903.599	56.73213
903.778	-8.60492
903.957	33.54542
904.135	56.73213
904.314	-27.56942
904.493	48.30027
904.672	10.36155
904.85	94.67998
905.029	105.22233
905.207	50.4082
905.386	84.13817
905.565	16.68414
905.743	29.32996
905.922	117.87389
906.1	29.32996
906.279	52.51615
906.457	48.30027
906.636	25.11459
906.814	48.30027
906.993	-4.39031
907.171	73.59693
907.35	79.92161
907.528	10.36155
907.707	60.94819
907.885	69.38059
908.063	39.86879
908.242	69.38059
908.42	84.13817
908.598	58.84015
908.777	109.43943
908.955	-19.141
909.133	46.19237
909.311	98.89685
909.49	84.13817
909.668	8.25407
909.846	44.08449
910.024	52.51615
910.202	60.94819
910.38	136.85268
910.559	86.24649
910.737	63.05626
910.915	33.54542
911.093	4.03918
911.271	136.85268
911.449	6.14661
911.627	-10.71218
911.805	44.08449
911.983	58.84015
912.161	65.16435
912.339	4.03918
912.517	48.30027
912.695	122.09124
912.872	-21.24814
913.05	65.16435
913.228	6.14661
913.406	27.22227
913.584	124.19996
913.762	107.33087
913.939	6.14661
914.117	60.94819
914.295	27.22227
914.473	67.27246
914.65	35.65319
914.828	58.84015
915.006	60.94819
915.184	31.43768
915.361	60.94819
915.539	-19.141
915.716	41.97663
915.894	10.36155
916.072	69.38059
916.249	54.62413
916.427	67.27246
916.604	69.38059
916.782	46.19237
916.959	63.05626
917.137	107.33087
917.314	23.00695
917.492	58.84015
917.669	-33.89048
917.847	56.73213
918.024	52.51615
918.201	44.08449
918.379	48.30027
918.556	94.67998
918.733	48.30027
918.911	25.11459
919.088	37.76098
919.265	82.02988
919.442	-17.03383
919.62	37.76098
919.797	65.16435
919.974	6.14661
920.151	92.57157
920.328	-19.141
920.506	98.89685
920.683	84.13817
920.86	18.79172
921.037	-25.46235
921.214	18.79172
921.391	103.11382
921.568	27.22227
921.745	39.86879
921.922	115.76524
922.099	56.73213
922.276	115.76524
922.453	39.86879
922.63	-19.141
922.807	-2.28298
922.984	35.65319
923.161	-27.56942
923.338	48.30027
923.514	44.08449
923.691	1.93177
923.868	56.73213
924.045	48.30027
924.222	23.00695
924.399	-23.35526
924.575	33.54542
924.752	111.54801
924.929	90.46319
925.105	37.76098
925.282	88.35483
925.459	98.89685
925.635	101.00532
925.812	31.43768
925.989	12.46906
926.165	56.73213
926.342	48.30027
926.518	94.67998
926.695	52.51615
926.871	14.57659
927.048	-10.71218
927.224	-59.17246
927.401	98.89685
927.577	-6.49763
927.754	48.30027
927.93	105.22233
928.107	90.46319
928.283	33.54542
928.459	-8.60492
928.636	41.97663
928.812	48.30027
928.988	10.36155
929.165	73.59693
929.341	1.93177
929.517	73.59693
929.693	46.19237
929.87	-6.49763
930.046	-52.8523
930.222	8.25407
930.398	31.43768
930.574	48.30027
930.751	8.25407
930.927	41.97663
931.103	50.4082
931.279	60.94819
931.455	-29.67646
931.631	-19.141
931.807	60.94819
931.983	-14.92664
932.159	77.81336
932.335	84.13817
932.511	8.25407
932.687	35.65319
932.863	-27.56942
933.039	44.08449
933.215	39.86879
933.391	73.59693
933.566	39.86879
933.742	31.43768
933.918	20.89932
934.094	71.48875
934.27	107.33087
934.445	-10.71218
934.621	39.86879
934.797	46.19237
934.973	-88.66349
935.148	107.33087
935.324	69.38059
935.5	90.46319
935.675	-57.06577
935.851	77.81336
936.027	31.43768
936.202	33.54542
936.378	44.08449
936.553	-10.71218
936.729	46.19237
936.904	-12.81942
937.08	60.94819
937.255	65.16435
937.431	14.57659
937.606	46.19237
937.782	82.02988
937.957	-14.92664
938.133	103.11382
938.308	-6.49763
938.483	-38.10439
938.659	63.05626
938.834	-50.74553
939.009	52.51615
939.185	-6.49763
939.36	29.32996
939.535	63.05626
939.71	12.46906
939.886	56.73213
940.061	41.97663
940.236	37.76098
940.411	58.84015
940.586	54.62413
940.761	25.11459
940.937	48.30027
941.112	31.43768
941.287	16.68414
941.462	-2.28298
941.637	23.00695
941.812	92.57157
941.987	107.33087
942.162	-31.78348
942.337	44.08449
942.512	-23.35526
942.687	73.59693
942.862	-10.71218
943.037	-52.8523
943.212	75.70514
943.386	6.14661
943.561	6.14661
943.736	23.00695
943.911	56.73213
944.086	31.43768
944.26	37.76098
944.435	-0.17561
944.61	14.57659
944.785	84.13817
944.959	39.86879
945.134	33.54542
945.309	-35.99745
945.483	-12.81942
945.658	31.43768
945.833	-6.49763
946.007	-14.92664
946.182	31.43768
946.357	65.16435
946.531	58.84015
946.706	-4.39031
946.88	14.57659
947.055	46.19237
947.229	27.22227
947.404	39.86879
947.578	48.30027
947.752	98.89685
947.927	48.30027
948.101	41.97663
948.276	39.86879
948.45	29.32996
948.624	-35.99745
948.799	39.86879
948.973	67.27246
949.147	23.00695
949.321	65.16435
949.496	31.43768
949.67	-44.42508
949.844	-2.28298
950.018	23.00695
950.193	-31.78348
950.367	16.68414
950.541	-14.92664
950.715	23.00695
950.889	39.86879
951.063	14.57659
951.237	-31.78348
951.411	54.62413
951.585	-19.141
951.759	98.89685
951.933	8.25407
952.107	4.03918
952.281	58.84015
952.455	18.79172
952.629	33.54542
952.803	39.86879
952.977	39.86879
953.151	39.86879
953.325	23.00695
953.499	6.14661
953.672	-35.99745
953.846	67.27246
954.02	6.14661
954.194	75.70514
954.368	128.41744
954.541	39.86879
954.715	67.27246
954.889	-10.71218
955.062	73.59693
955.236	-23.35526
955.41	56.73213
955.583	-14.92664
955.757	56.73213
955.93	18.79172
956.104	-19.141
956.278	52.51615
956.451	-33.89048
956.625	-38.10439
956.798	-12.81942
956.972	-6.49763
957.145	-27.56942
957.319	105.22233
957.492	1.93177
957.665	-10.71218
957.839	-27.56942
958.012	-19.141
958.185	-38.10439
958.359	8.25407
958.532	-31.78348
958.705	-8.60492
958.879	-10.71218
959.052	-0.17561
959.225	12.46906
959.398	58.84015
959.572	48.30027
959.745	67.27246
959.918	1.93177
960.091	25.11459
960.264	65.16435
960.438	88.35483
960.611	103.11382
960.784	92.57157
960.957	-2.28298
961.13	10.36155
961.303	-59.17246
961.476	39.86879
961.649	48.30027
961.822	58.84015
961.995	35.65319
962.168	31.43768
962.341	-25.46235
962.514	-67.59898
962.686	41.97663
962.859	23.00695
963.032	16.68414
963.205	-12.81942
963.378	-27.56942
963.551	63.05626
963.723	71.48875
963.896	-6.49763
964.069	31.43768
964.242	-35.99745
964.414	-27.56942
964.587	31.43768
964.76	-4.39031
964.932	67.27246
965.105	37.76098
965.278	-38.10439
965.45	-12.81942
965.623	23.00695
965.795	20.89932
965.968	54.62413
966.14	14.57659
966.313	67.27246
966.485	-38.10439
966.658	82.02988
966.83	-19.141
967.003	25.11459
967.175	52.51615
967.348	35.65319
967.52	-8.60492
967.692	-25.46235
967.865	54.62413
968.037	103.11382
968.209	8.25407
968.382	-27.56942
968.554	-6.49763
968.726	39.86879
968.898	-33.89048
969.071	39.86879
969.243	63.05626
969.415	67.27246
969.587	44.08449
969.759	27.22227
969.932	60.94819
970.104	6.14661
970.276	-12.81942
970.448	14.57659
970.62	-48.63874
970.792	65.16435
970.964	82.02988
971.136	-44.42508
971.308	-19.141
971.48	-14.92664
971.652	-8.60492
971.824	31.43768
971.996	41.97663
972.168	65.16435
972.339	25.11459
972.511	-50.74553
972.683	82.02988
972.855	-23.35526
973.027	25.11459
973.199	73.59693
973.37	-0.17561
973.542	60.94819
973.714	79.92161
973.886	48.30027
974.057	58.84015
974.229	6.14661
974.401	14.57659
974.572	-57.06577
974.744	48.30027
974.915	4.03918
975.087	-19.141
975.259	14.57659
975.43	50.4082
975.602	75.70514
975.773	79.92161
975.945	-6.49763
976.116	10.36155
976.288	111.54801
976.459	-2.28298
976.63	-14.92664
976.802	56.73213
976.973	23.00695
977.145	31.43768
977.316	14.57659
977.487	-52.8523
977.659	-52.8523
977.83	41.97663
978.001	14.57659
978.172	56.73213
978.344	-2.28298
978.515	48.30027
978.686	54.62413
978.857	23.00695
979.028	27.22227
979.2	4.03918
979.371	8.25407
979.542	31.43768
979.713	50.4082
979.884	-19.141
980.055	-27.56942
980.226	16.68414
980.397	-17.03383
980.568	8.25407
980.739	-27.56942
980.91	-17.03383
981.081	67.27246
981.252	-10.71218
981.423	44.08449
981.594	-2.28298
981.765	46.19237
981.936	60.94819
982.106	25.11459
982.277	18.79172
982.448	-6.49763
982.619	18.79172
982.79	-25.46235
982.96	88.35483
983.131	52.51615
983.302	20.89932
983.472	-54.95905
983.643	-44.42508
983.814	60.94819
983.984	10.36155
984.155	14.57659
984.326	50.4082
984.496	44.08449
984.667	25.11459
984.837	-21.24814
985.008	14.57659
985.178	12.46906
985.349	101.00532
985.519	-50.74553
985.69	33.54542
985.86	-19.141
986.031	-0.17561
986.201	20.89932
986.371	141.07043
986.542	4.03918
986.712	27.22227
986.882	35.65319
987.053	84.13817
987.223	52.51615
987.393	44.08449
987.563	-12.81942
987.734	-21.24814
987.904	41.97663
988.074	60.94819
988.244	-6.49763
988.414	10.36155
988.585	77.81336
988.755	27.22227
988.925	-78.13156
989.095	14.57659
989.265	23.00695
989.435	65.16435
989.605	-44.42508
989.775	-4.39031
989.945	52.51615
990.115	-8.60492
990.285	-14.92664
990.455	29.32996
990.625	48.30027
990.795	-52.8523
990.965	35.65319
991.134	-8.60492
991.304	-38.10439
991.474	31.43768
991.644	-12.81942
991.814	33.54542
991.984	8.25407
992.153	94.67998
992.323	-31.78348
992.493	6.14661
992.662	39.86879
992.832	65.16435
993.002	44.08449
993.171	-46.53192
993.341	-33.89048
993.511	39.86879
993.68	18.79172
993.85	-2.28298
994.019	-4.39031
994.189	52.51615
994.358	50.4082
994.528	-6.49763
994.697	14.57659
994.867	27.22227
995.036	23.00695
995.206	52.51615
995.375	-4.39031
995.544	88.35483
995.714	-40.21131
995.883	33.54542
996.052	54.62413
996.222	-46.53192
996.391	48.30027
996.56	-14.92664
996.73	-40.21131
996.899	27.22227
997.068	25.11459
997.237	29.32996
997.406	37.76098
997.576	25.11459
997.745	27.22227
997.914	65.16435
998.083	50.4082
998.252	23.00695
998.421	14.57659
998.59	-10.71218
998.759	-44.42508
998.928	-27.56942
999.097	-31.78348
999.266	-27.56942
999.435	-14.92664
999.604	35.65319
999.773	-10.71218
999.942	-2.28298
1000.111	-10.71218
1000.28	-40.21131
1000.448	18.79172
1000.617	-2.28298
1000.786	39.86879
1000.955	-48.63874
1001.124	-17.03383
1001.292	-0.17561
1001.461	31.43768
1001.63	12.46906
1001.798	52.51615
1001.967	48.30027
1002.136	35.65319
1002.304	-19.141
1002.473	69.38059
1002.642	-44.42508
1002.81	-0.17561
1002.979	73.59693
1003.147	23.00695
1003.316	-6.49763
1003.484	39.86879
1003.653	39.86879
1003.821	23.00695
1003.99	1.93177
1004.158	-27.56942
1004.327	8.25407
1004.495	-23.35526
1004.663	31.43768
1004.832	50.4082
1005	-54.95905
1005.168	27.22227
1005.337	77.81336
1005.505	60.94819
1005.673	14.57659
1005.842	16.68414
1006.01	48.30027
1006.178	-21.24814
1006.346	-8.60492
1006.514	29.32996
1006.683	23.00695
1006.851	16.68414
1007.019	31.43768
1007.187	-67.59898
1007.355	44.08449
1007.523	14.57659
1007.691	-19.141
1007.859	18.79172
1008.027	-76.0251
1008.195	31.43768
1008.363	48.30027
1008.531	60.94819
1008.699	-10.71218
1008.867	56.73213
1009.035	90.46319
1009.203	-12.81942
1009.37	39.86879
1009.538	39.86879
1009.706	-10.71218
1009.874	48.30027
1010.042	52.51615
1010.209	-57.06577
1010.377	-23.35526
1010.545	-19.141
1010.713	23.00695
1010.88	16.68414
1011.048	14.57659
1011.216	-4.39031
1011.383	-33.89048
1011.551	29.32996
1011.718	31.43768
1011.886	-2.28298
1012.054	56.73213
1012.221	-21.24814
1012.389	18.79172
1012.556	12.46906
1012.724	1.93177
1012.891	-8.60492
1013.058	52.51615
1013.226	23.00695
1013.393	39.86879
1013.561	16.68414
1013.728	20.89932
1013.895	8.25407
1014.063	4.03918
1014.23	-10.71218
1014.397	44.08449
1014.565	-23.35526
1014.732	73.59693
1014.899	103.11382
1015.066	-63.38577
1015.233	-17.03383
1015.401	23.00695
1015.568	-27.56942
1015.735	31.43768
1015.902	8.25407
1016.069	33.54542
1016.236	25.11459
1016.403	-10.71218
1016.57	-19.141
1016.737	27.22227
1016.904	14.57659
1017.071	77.81336
1017.238	23.00695
1017.405	-4.39031
1017.572	-92.87609
1017.739	1.93177
1017.906	14.57659
1018.073	16.68414
1018.24	-21.24814
1018.407	44.08449
1018.573	1.93177
1018.74	-19.141
1018.907	-8.60492
1019.074	-40.21131
1019.241	-31.78348
1019.407	23.00695
1019.574	86.24649
1019.741	-2.28298
1019.907	-33.89048
1020.074	58.84015
1020.241	-14.92664
1020.407	-38.10439
1020.574	18.79172
1020.74	39.86879
1020.907	-2.28298
1021.073	-8.60492
1021.24	-19.141
1021.406	31.43768
1021.573	-10.71218
1021.739	-2.28298
1021.906	35.65319
1022.072	29.32996
1022.239	60.94819
1022.405	12.46906
1022.571	56.73213
1022.738	67.27246
1022.904	-35.99745
1023.07	14.57659
1023.237	37.76098
1023.403	6.14661
1023.569	-25.46235
1023.735	-42.31821
1023.902	10.36155
1024.068	-10.71218
1024.234	-10.71218
1024.4	-6.49763
1024.566	6.14661
1024.732	69.38059
1024.898	-4.39031
1025.065	-6.49763
1025.231	6.14661
1025.397	-52.8523
1025.563	35.65319
1025.729	-35.99745
1025.895	-17.03383
1026.061	-10.71218
1026.227	-52.8523
1026.392	4.03918
1026.558	-29.67646
1026.724	90.46319
1026.89	-17.03383
1027.056	14.57659
1027.222	-19.141
1027.388	44.08449
1027.553	-14.92664
1027.719	50.4082
1027.885	-19.141
1028.051	16.68414
1028.216	-10.71218
1028.382	31.43768
1028.548	65.16435
1028.713	-19.141
1028.879	-25.46235
1029.045	10.36155
1029.21	18.79172
1029.376	-17.03383
1029.541	-25.46235
1029.707	1.93177
1029.873	-40.21131
1030.038	73.59693
1030.204	-19.141
1030.369	39.86879
1030.534	8.25407
1030.7	-10.71218
1030.865	31.43768
1031.031	29.32996
1031.196	-19.141
1031.361	10.36155
1031.527	37.76098
1031.692	-8.60492
1031.857	-21.24814
1032.023	39.86879
1032.188	33.54542
1032.353	-0.17561
1032.518	-17.03383
1032.684	1.93177
1032.849	92.57157
1033.014	27.22227
1033.179	-21.24814
1033.344	-19.141
1033.509	-19.141
1033.674	-69.70555
1033.839	16.68414
1034.004	39.86879
1034.17	31.43768
1034.335	-23.35526
1034.5	41.97663
1034.664	-14.92664
1034.829	23.00695
1034.994	25.11459
1035.159	-17.03383
1035.324	6.14661
1035.489	10.36155
1035.654	25.11459
1035.819	46.19237
1035.984	10.36155
1036.148	-35.99745
1036.313	-46.53192
1036.478	16.68414
1036.643	-17.03383
1036.807	39.86879
1036.972	23.00695
1037.137	90.46319
1037.301	-17.03383
1037.466	14.57659
1037.631	-17.03383
1037.795	41.97663
1037.96	-10.71218
1038.124	-4.39031
1038.289	48.30027
1038.454	-6.49763
1038.618	41.97663
1038.783	-14.92664
1038.947	33.54542
1039.111	50.4082
1039.276	39.86879
1039.44	-82.34441
1039.605	-19.141
1039.769	23.00695
1039.933	29.32996
1040.098	-27.56942
1040.262	33.54542
1040.426	77.81336
1040.591	44.08449
1040.755	44.08449
1040.919	-27.56942
1041.083	-14.92664
1041.248	18.79172
1041.412	75.70514
1041.576	8.25407
1041.74	33.54542
1041.904	-46.53192
1042.068	35.65319
1042.232	27.22227
1042.397	6.14661
1042.561	105.22233
1042.725	77.81336
1042.889	-27.56942
1043.053	14.57659
1043.217	8.25407
1043.381	-19.141
1043.544	-10.71218
1043.708	50.4082
1043.872	-25.46235
1044.036	56.73213
1044.2	14.57659
1044.364	-2.28298
1044.528	-8.60492
1044.691	-14.92664
1044.855	-25.46235
1045.019	18.79172
1045.183	-10.71218
1045.346	48.30027
1045.51	-92.87609
1045.674	73.59693
1045.837	37.76098
1046.001	-76.0251
1046.165	44.08449
1046.328	6.14661
1046.492	14.57659
1046.655	31.43768
1046.819	-90.7698
1046.983	-76.0251
1047.146	12.46906
1047.31	-67.59898
1047.473	-44.42508
1047.636	-6.49763
1047.8	6.14661
1047.963	-67.59898
1048.127	18.79172
1048.29	-23.35526
