Data from Scatter_Coeff_Baseline_USB4F045381__47__0047.txt Node

Date: Thu Feb 13 19:31:32 EST 2025
User: mmckonesweet
Spectrometer: USB4F04538
Trigger mode: 4
Integration Time (sec): 2.400000E-3
Scans to average: 1
Electric dark correction enabled: true
Nonlinearity correction enabled: true
Boxcar width: 0
XAxis mode: Wavelengths
Number of Pixels in Spectrum: 3648
>>>>>Begin Spectral Data<<<<<
345.52	11.59093
345.736	11.59093
345.952	11.59093
346.168	11.59093
346.384	-24.23321
346.6	-1.05368
346.816	-17.91182
347.032	-5.26836
347.248	1.05369
347.464	-30.55439
347.68	28.45175
347.896	-1.05368
348.112	-51.62336
348.328	-68.47672
348.544	15.80599
348.76	55.85379
348.975	74.82672
349.191	-5.26836
349.407	41.09836
349.623	26.34407
349.839	89.5847
350.055	-28.44736
350.27	66.39408
350.486	15.80599
350.702	-41.08919
350.918	20.02115
351.133	-43.19607
351.349	-68.47672
351.565	74.82672
351.781	51.63784
351.996	28.45175
352.212	1.05369
352.428	11.59093
352.644	-41.08919
352.859	49.5299
353.075	-17.91182
353.291	32.66719
353.506	-74.79631
353.722	7.37596
353.938	34.77495
354.153	-30.55439
354.369	-9.48295
354.584	-17.91182
354.8	-51.62336
355.016	32.66719
355.231	41.09836
355.447	-7.37567
355.662	-41.08919
355.878	51.63784
356.093	-11.5902
356.309	-7.37567
356.524	17.91356
356.74	-17.91182
356.955	3.16109
357.171	47.42198
357.386	15.80599
357.602	11.59093
357.817	47.42198
358.033	22.12877
358.248	-22.12611
358.464	-22.12611
358.679	-66.37014
358.895	7.37596
359.11	-47.40976
359.325	1.05369
359.541	26.34407
359.756	-22.12611
359.972	91.69308
360.187	41.09836
360.402	-47.40976
360.618	22.12877
360.833	-17.91182
361.048	87.47635
361.264	49.5299
361.479	-3.16104
361.694	15.80599
361.909	32.66719
362.125	-7.37567
362.34	-1.05368
362.555	62.17789
362.77	41.09836
362.986	3.16109
363.201	-1.05368
363.416	7.37596
363.631	5.26851
363.847	43.20621
364.062	-60.05024
364.277	24.2364
364.492	-11.5902
364.707	53.7458
364.922	-7.37567
365.138	3.16109
365.353	-47.40976
365.568	-34.76838
365.783	-74.79631
365.998	-7.37567
366.213	66.39408
366.428	-26.3403
366.643	62.17789
366.858	-66.37014
367.073	-49.51657
367.288	49.5299
367.503	20.02115
367.718	34.77495
367.933	-20.01897
368.148	-5.26836
368.363	-24.23321
368.578	41.09836
368.793	91.69308
369.008	-62.1569
369.223	-47.40976
369.438	-1.05368
369.653	-81.11567
369.868	7.37596
370.083	24.2364
370.298	9.48343
370.513	-47.40976
370.728	-49.51657
370.943	-22.12611
371.157	-26.3403
371.372	7.37596
371.587	30.55946
371.802	81.15143
372.017	9.48343
372.232	-17.91182
372.446	-41.08919
372.661	45.31408
372.876	-13.69743
373.091	24.2364
373.306	-9.48295
373.52	-1.05368
373.735	22.12877
373.95	17.91356
374.165	49.5299
374.379	7.37596
374.594	-3.16104
374.809	-5.26836
375.023	-7.37567
375.238	24.2364
375.453	-41.08919
375.667	-32.6614
375.882	26.34407
376.097	-9.48295
376.311	-7.37567
376.526	-22.12611
376.741	-24.23321
376.955	-17.91182
377.17	-5.26836
377.384	-11.5902
377.599	15.80599
377.813	-17.91182
378.028	9.48343
378.242	-51.62336
378.457	41.09836
378.672	24.2364
378.886	26.34407
379.101	15.80599
379.315	13.69845
379.53	53.7458
379.744	1.05369
379.958	-72.68981
380.173	49.5299
380.387	1.05369
380.602	-47.40976
380.816	-34.76838
381.031	34.77495
381.245	55.85379
381.459	-30.55439
381.674	85.36802
381.888	66.39408
382.103	-26.3403
382.317	-1.05368
382.531	26.34407
382.746	9.48343
382.96	3.16109
383.174	3.16109
383.388	15.80599
383.603	-5.26836
383.817	-26.3403
384.031	-13.69743
384.246	66.39408
384.46	60.06984
384.674	-26.3403
384.888	-1.05368
385.103	-5.26836
385.317	49.5299
385.531	-1.05368
385.745	-7.37567
385.959	51.63784
386.174	-15.80464
386.388	15.80599
386.602	28.45175
386.816	55.85379
387.03	15.80599
387.244	28.45175
387.458	-28.44736
387.672	85.36802
387.887	11.59093
388.101	43.20621
388.315	28.45175
388.529	13.69845
388.743	3.16109
388.957	45.31408
389.171	74.82672
389.385	-34.76838
389.599	53.7458
389.813	49.5299
390.027	5.26851
390.241	83.25972
390.455	-20.01897
390.669	24.2364
390.883	1.05369
391.097	15.80599
391.311	-36.87534
391.525	-7.37567
391.738	7.37596
391.952	-34.76838
392.166	24.2364
392.38	1.05369
392.594	-3.16104
392.808	-22.12611
393.022	26.34407
393.236	7.37596
393.449	62.17789
393.663	68.5022
393.877	-1.05368
394.091	45.31408
394.305	32.66719
394.518	1.05369
394.732	66.39408
394.946	3.16109
395.16	11.59093
395.373	5.26851
395.587	-1.05368
395.801	34.77495
396.015	28.45175
396.228	-20.01897
396.442	-76.90279
396.656	24.2364
396.869	49.5299
397.083	-30.55439
397.297	-1.05368
397.51	41.09836
397.724	9.48343
397.938	45.31408
398.151	30.55946
398.365	-20.01897
398.578	-9.48295
398.792	41.09836
399.005	-3.16104
399.219	-9.48295
399.433	60.06984
399.646	7.37596
399.86	26.34407
400.073	22.12877
400.287	17.91356
400.5	15.80599
400.714	-17.91182
400.927	28.45175
401.141	20.02115
401.354	15.80599
401.567	-28.44736
401.781	79.04317
401.994	49.5299
402.208	5.26851
402.421	-32.6614
402.635	-7.37567
402.848	62.17789
403.061	-5.26836
403.275	43.20621
403.488	110.66943
403.701	-24.23321
403.915	34.77495
404.128	9.48343
404.341	74.82672
404.555	49.5299
404.768	45.31408
404.981	-34.76838
405.195	72.71852
405.408	15.80599
405.621	76.93493
405.834	24.2364
406.048	-24.23321
406.261	-5.26836
406.474	-38.98228
406.687	-1.05368
406.9	11.59093
407.114	-3.16104
407.327	17.91356
407.54	-1.05368
407.753	60.06984
407.966	64.28597
408.179	-1.05368
408.392	36.88273
408.605	26.34407
408.819	-36.87534
409.032	49.5299
409.245	36.88273
409.458	13.69845
409.671	24.2364
409.884	41.09836
410.097	66.39408
410.31	57.9618
410.523	70.61035
410.736	26.34407
410.949	17.91356
411.162	51.63784
411.375	-34.76838
411.588	55.85379
411.801	-17.91182
412.014	-34.76838
412.227	74.82672
412.44	53.7458
412.653	41.09836
412.865	41.09836
413.078	-11.5902
413.291	15.80599
413.504	38.99053
413.717	43.20621
413.93	45.31408
414.143	32.66719
414.356	5.26851
414.568	5.26851
414.781	20.02115
414.994	7.37596
415.207	85.36802
415.42	41.09836
415.632	-9.48295
415.845	7.37596
416.058	11.59093
416.271	-22.12611
416.483	68.5022
416.696	-26.3403
416.909	11.59093
417.121	9.48343
417.334	17.91356
417.547	-22.12611
417.759	20.02115
417.972	-7.37567
418.185	7.37596
418.397	51.63784
418.61	45.31408
418.823	41.09836
419.035	-53.73012
419.248	11.59093
419.46	-49.51657
419.673	-51.62336
419.885	32.66719
420.098	-22.12611
420.311	15.80599
420.523	5.26851
420.736	9.48343
420.948	36.88273
421.161	-13.69743
421.373	-53.73012
421.586	89.5847
421.798	53.7458
422.01	7.37596
422.223	-30.55439
422.435	45.31408
422.648	-3.16104
422.86	76.93493
423.073	15.80599
423.285	13.69845
423.497	15.80599
423.71	-13.69743
423.922	98.01833
424.134	51.63784
424.347	57.9618
424.559	-43.19607
424.771	20.02115
424.984	41.09836
425.196	57.9618
425.408	-1.05368
425.621	-1.05368
425.833	45.31408
426.045	64.28597
426.257	24.2364
426.47	-9.48295
426.682	28.45175
426.894	45.31408
427.106	-7.37567
427.318	76.93493
427.531	15.80599
427.743	104.34378
427.955	11.59093
428.167	83.25972
428.379	1.05369
428.591	64.28597
428.804	53.7458
429.016	45.31408
429.228	24.2364
429.44	20.02115
429.652	13.69845
429.864	24.2364
430.076	100.12679
430.288	36.88273
430.5	91.69308
430.712	5.26851
430.924	-13.69743
431.136	74.82672
431.348	66.39408
431.56	76.93493
431.772	24.2364
431.984	26.34407
432.196	38.99053
432.408	43.20621
432.62	24.2364
432.832	20.02115
433.044	36.88273
433.256	28.45175
433.468	24.2364
433.679	100.12679
433.891	30.55946
434.103	100.12679
434.315	1.05369
434.527	-13.69743
434.739	34.77495
434.95	22.12877
435.162	36.88273
435.374	74.82672
435.586	3.16109
435.798	70.61035
436.009	36.88273
436.221	-22.12611
436.433	-7.37567
436.645	66.39408
436.856	11.59093
437.068	104.34378
437.28	79.04317
437.491	45.31408
437.703	-20.01897
437.915	-1.05368
438.126	-20.01897
438.338	20.02115
438.55	38.99053
438.761	43.20621
438.973	41.09836
439.184	79.04317
439.396	41.09836
439.608	-76.90279
439.819	11.59093
440.031	110.66943
440.242	-5.26836
440.454	76.93493
440.665	3.16109
440.877	28.45175
441.088	108.56086
441.3	32.66719
441.511	85.36802
441.723	83.25972
441.934	116.99528
442.146	-5.26836
442.357	34.77495
442.569	-9.48295
442.78	7.37596
442.991	53.7458
443.203	17.91356
443.414	116.99528
443.626	60.06984
443.837	41.09836
444.048	45.31408
444.26	93.80147
444.471	91.69308
444.682	-43.19607
444.894	-1.05368
445.105	100.12679
445.316	100.12679
445.528	85.36802
445.739	104.34378
445.95	85.36802
446.161	26.34407
446.373	91.69308
446.584	91.69308
446.795	1.05369
447.006	116.99528
447.217	57.9618
447.429	116.99528
447.64	112.77803
447.851	22.12877
448.062	100.12679
448.273	125.43005
448.484	91.69308
448.695	32.66719
448.907	74.82672
449.118	70.61035
449.329	13.69845
449.54	83.25972
449.751	68.5022
449.962	108.56086
450.173	159.17255
450.384	36.88273
450.595	36.88273
450.806	49.5299
451.017	108.56086
451.228	159.17255
451.439	41.09836
451.65	100.12679
451.861	76.93493
452.072	11.59093
452.283	62.17789
452.494	112.77803
452.705	93.80147
452.915	83.25972
453.126	32.66719
453.337	41.09836
453.548	123.32132
453.759	51.63784
453.97	127.53879
454.181	26.34407
454.391	66.39408
454.602	159.17255
454.813	34.77495
455.024	74.82672
455.235	53.7458
455.445	119.10394
455.656	100.12679
455.867	74.82672
456.078	74.82672
456.288	131.75635
456.499	81.15143
456.71	110.66943
456.921	163.39074
457.131	53.7458
457.342	49.5299
457.553	66.39408
457.763	148.62743
457.974	100.12679
458.184	116.99528
458.395	20.02115
458.606	91.69308
458.816	110.66943
459.027	74.82672
459.237	144.40954
459.448	138.08285
459.659	199.24872
459.869	32.66719
460.08	190.81102
460.29	102.23527
460.501	100.12679
460.711	121.21262
460.922	81.15143
461.132	146.51847
461.343	62.17789
461.553	74.82672
461.764	140.19172
461.974	93.80147
462.184	76.93493
462.395	167.60902
462.605	116.99528
462.816	81.15143
463.026	146.51847
463.236	154.95444
463.447	112.77803
463.657	142.30062
463.867	142.30062
464.078	148.62743
464.288	106.45231
464.498	129.64756
464.709	178.15507
464.919	157.06349
465.129	192.92041
465.339	251.99156
465.55	243.55189
465.76	150.73642
465.97	180.26435
466.18	190.81102
466.391	277.31241
466.601	197.13926
466.811	304.74637
467.021	163.39074
467.231	260.43154
467.441	319.51977
467.651	376.51098
467.862	251.99156
468.072	482.08206
468.282	294.19448
468.492	287.86356
468.702	332.18339
468.912	378.62201
469.122	353.29082
469.332	344.84764
469.542	296.30482
469.752	342.73688
469.962	427.18015
470.172	412.40067
470.382	382.84411
470.592	393.39965
470.802	431.403
471.012	363.84518
471.222	484.19387
471.432	522.20909
471.642	412.40067
471.852	585.57789
472.062	441.9604
472.272	549.6674
472.482	566.56597
472.691	594.02798
472.901	530.65755
473.111	562.34125
473.321	581.35293
473.531	585.57789
473.741	646.84561
473.95	699.67076
474.16	653.18424
474.37	752.50288
474.58	632.05589
474.79	877.21119
474.999	699.67076
475.209	775.75109
475.419	813.79616
475.628	934.29112
475.838	853.9581
476.048	820.1373
476.258	978.69036
476.467	993.49078
476.677	991.37642
476.886	1137.28114
477.096	953.31898
477.306	1149.96963
477.515	1001.94831
477.725	1272.63175
477.935	1116.13401
478.144	1234.56305
478.354	1160.54348
478.563	1456.63844
478.773	1420.68257
478.982	1342.42626
479.192	1342.42626
479.401	1427.02772
479.611	1513.74475
479.82	1465.09865
480.03	1498.93944
480.239	1731.58495
480.449	1558.16039
480.658	1718.89597
480.868	1608.92038
481.077	1875.38344
481.287	1680.82833
481.496	1921.90178
481.705	1875.38344
481.915	2033.95705
482.124	1900.7574
482.333	2141.76576
482.543	2019.15832
482.752	2122.74211
482.961	2052.98349
483.171	2386.89654
483.38	2186.15174
483.589	2308.72183
483.799	2323.51267
484.008	2424.92245
484.217	2304.49579
484.426	2678.33533
484.636	2270.6861
484.845	2479.84265
485.054	2589.6602
485.263	2766.98791
485.472	2604.4409
485.682	2688.89041
485.891	2661.44653
486.1	2796.53355
486.309	2674.1132
486.518	2826.07651
486.727	3015.92853
486.936	2990.62184
487.146	2880.93473
487.355	3034.9071
487.564	3026.47233
487.773	3275.19091
487.982	3060.20992
488.191	3188.79739
488.4	3279.40451
488.609	3298.36485
488.818	3407.88614
489.027	3243.58678
489.236	3561.55605
489.445	3496.31078
489.654	3433.15355
489.863	3576.2864
490.072	3605.74437
490.281	3719.33328
490.49	3685.6831
490.698	3849.68074
490.907	3858.08765
491.116	3860.18933
491.325	3786.61879
491.534	4021.95814
491.743	3860.18933
491.952	4091.25054
492.16	4036.65841
492.369	4246.55068
492.578	4265.43062
492.787	4101.74741
492.996	4250.74637
493.204	4189.90051
493.413	4343.02988
493.622	4563.08172
493.831	4259.1375
494.039	4433.17558
494.248	4319.96291
494.457	4454.13391
494.665	4290.60117
494.874	4648.94054
495.083	4504.42493
495.291	4908.38048
495.5	4630.0967
495.709	4897.92596
495.917	4692.90243
496.126	5025.43179
496.335	4969.00535
496.543	4950.1928
496.752	4797.53354
496.96	5161.20405
497.169	4973.18566
497.377	5328.17335
497.586	5131.96908
497.794	5140.3224
498.003	5050.50481
498.211	5228.00971
498.42	5029.61086
498.628	5182.08338
498.837	5240.53311
499.045	5490.82405
499.254	5426.19794
499.462	5436.62303
499.671	5257.22967
499.879	5411.60182
500.087	5397.00455
500.296	5540.84164
500.504	5684.56659
500.713	5638.75344
500.921	5592.92887
501.129	5626.25696
501.338	5407.43129
501.546	5794.88775
501.754	5476.23303
501.962	5809.45351
502.171	5778.23974
502.379	6075.59506
502.587	5711.63264
502.795	6015.3312
503.004	5715.79629
503.212	6002.86034
503.42	6007.01739
503.628	6227.20622
503.837	5826.09868
504.045	6067.28398
504.253	6031.95769
504.461	6418.10001
504.669	6173.22207
504.877	6318.52792
505.085	6312.30288
505.294	6330.97737
505.502	6160.76194
505.71	6641.94147
505.918	6252.11663
506.126	6318.52792
506.334	6314.37792
506.542	6540.41724
506.75	6490.67083
506.958	6376.61817
507.166	6579.79036
507.374	6567.35765
507.582	6561.14098
507.79	6588.07838
507.998	6428.46901
508.206	6687.50577
508.414	6633.65585
508.622	6757.90147
508.83	6644.01282
509.037	7039.22105
509.245	6656.44041
509.453	7185.921
509.661	6892.40799
509.869	6797.22872
510.077	6964.79484
510.285	7053.68943
510.492	6954.45555
510.7	7078.48981
510.908	6975.13356
511.116	7241.6789
511.324	7233.41949
511.531	7245.80847
511.739	7287.09936
511.947	7324.25364
512.155	7150.80589
512.362	7274.71302
512.57	7357.27371
512.778	7379.97176
512.985	7493.42257
513.193	7210.70428
513.401	7320.12574
513.608	7367.59133
513.816	7235.48437
514.024	7274.71302
514.231	7243.7437
514.439	7509.91905
514.646	7456.30043
514.854	7602.68619
515.061	7468.67525
515.269	7674.80853
515.477	7499.60891
515.684	7967.15553
515.892	7629.47753
516.099	7862.20587
516.307	7697.4702
516.514	7662.44655
516.722	7810.74033
516.929	7998.01292
517.136	7755.14292
517.344	7728.36835
517.551	7707.77011
517.759	8154.28695
517.966	7991.84181
518.173	8000.06991
518.381	8078.22073
518.588	8045.31869
518.796	8063.82672
519.003	8337.14564
519.21	8135.78688
519.418	8191.28224
519.625	8154.28695
519.832	8287.85079
520.039	8185.11681
520.247	8396.69529
520.454	8263.19913
520.661	8608.06892
520.868	8505.48555
521.076	8437.75455
521.283	8365.89579
521.49	8571.14434
521.697	8468.54395
521.904	8536.26552
522.112	8509.5898
522.319	8601.91525
522.526	8423.38469
522.733	9073.22025
522.94	8714.70601
523.147	8706.50493
523.354	8595.7614
523.561	9042.51172
523.768	8893.00721
523.975	9085.50257
524.183	8909.39587
524.39	9187.83116
524.597	9112.11213
524.804	8999.51319
525.011	9042.51172
525.218	9052.74834
525.425	8880.71497
525.632	9320.795
525.838	9418.93869
526.045	9359.64807
526.252	9136.67222
526.459	9359.64807
526.666	9302.38883
526.873	9596.72921
527.08	9312.61465
527.287	9613.07174
527.494	9380.09466
527.701	9639.62622
527.907	9637.58366
528.114	9858.09154
528.321	9369.87157
528.528	9655.96613
528.735	9515.00144
528.941	9666.17807
529.148	9649.83878
529.355	9833.59936
529.562	9551.78207
529.768	9998.88045
529.975	9876.45927
530.182	9819.31127
530.388	9519.08843
530.595	10023.35843
530.802	9684.55859
531.008	9939.71676
531.215	10104.93688
531.422	10166.10596
531.628	10064.15048
531.835	10121.24986
532.042	10068.22938
532.248	10335.27609
532.455	10104.93688
532.661	10005.00014
532.868	10074.34761
533.074	10363.80169
533.281	10369.91398
533.487	10520.64679
533.694	10512.50087
533.9	10659.09677
534.107	10390.28743
534.313	10630.59705
534.52	10473.80496
534.726	10443.25229
534.933	10514.53737
535.139	10602.09491
535.345	10353.61428
535.552	10828.01082
535.758	10634.66858
535.965	10718.1243
536.171	10775.10681
536.377	10919.55689
536.584	10673.34573
536.79	10809.69879
536.996	10769.00199
537.203	10998.87817
537.409	10854.45986
537.615	11228.61247
537.821	10933.7953
538.028	11370.85874
538.234	11088.34858
538.44	11019.21422
538.646	11031.41532
538.853	11171.69986
539.059	11009.04634
539.265	11311.93417
539.471	10939.89731
539.677	11299.74182
539.883	11244.87172
540.09	11596.32199
540.296	11413.52305
540.502	11417.58609
540.708	11208.28748
540.914	11791.22553
541.12	11393.20725
541.326	11610.5365
541.532	11448.05766
541.738	11728.29685
541.944	11488.68304
542.15	11795.28515
542.356	11533.36656
542.562	11969.81744
542.768	11872.41165
542.974	11675.51146
543.18	11744.53731
543.386	12194.99855
543.592	12010.39768
543.798	11986.04991
544.004	12002.28188
544.21	11959.67188
544.415	11923.14618
544.621	12162.54579
544.827	11852.11639
545.033	12190.94206
545.239	12103.7203
545.445	12166.60249
545.651	12040.83078
545.856	12203.11144
546.062	12162.54579
546.268	12207.16784
546.474	12018.51334
546.679	12042.85959
546.885	11947.49694
547.091	12160.51743
547.297	12085.46281
547.502	12152.40392
547.708	12178.77241
547.914	12409.95169
548.119	12618.74893
548.325	12452.52757
548.531	12341.01301
548.736	12547.806
548.942	12835.58631
549.147	12576.18408
549.353	12205.13965
549.559	12675.49789
549.764	12734.26868
549.97	12561.99519
550.175	12470.77348
550.381	12865.97889
550.586	12612.66841
550.792	12770.74465
550.997	12918.6565
551.203	12987.53726
551.408	12843.69112
551.614	13121.23046
551.819	13021.97543
552.025	13159.71403
552.23	13094.89862
552.435	13021.97543
552.641	13260.97876
552.846	13082.74519
553.052	13084.77077
553.257	13024.00116
553.462	13378.43235
553.668	13390.58193
553.873	13070.59159
554.078	13214.39837
554.283	13184.01859
554.489	13516.11943
554.694	13433.10435
554.899	13234.651
555.105	13086.79635
555.31	13526.24279
555.515	13341.98273
555.72	13402.73137
555.925	13374.38245
556.131	13742.86204
556.336	13582.93196
556.541	13501.94657
556.746	13639.6184
556.951	13657.83848
557.156	13560.66155
557.361	14103.14389
557.567	13568.75993
557.772	13540.41535
557.977	13714.52148
558.182	13649.7407
558.387	13848.1218
558.592	14074.81002
558.797	13844.07349
559.002	13920.98941
559.207	14111.2392
559.412	14252.9017
559.617	13872.4114
559.822	14258.97274
560.027	13884.55605
560.232	14260.99641
560.437	13929.0856
560.642	14186.1192
560.847	14208.38027
561.051	14325.75301
561.256	13957.42191
561.461	14186.1192
561.666	14378.36645
561.871	14416.81405
562.076	14331.82385
562.281	14256.94906
562.485	14082.90546
562.69	14307.5404
562.895	14220.52257
563.1	14392.53142
563.305	14212.42771
563.509	14428.95528
563.714	14552.38824
563.919	14855.89456
564.123	14641.41897
564.328	14679.86342
564.533	14341.94188
564.737	14252.9017
564.942	14402.64921
565.147	14394.55498
565.351	14617.13808
565.556	14503.82505
565.761	14613.09125
565.965	14738.54113
566.17	14503.82505
566.374	14665.69972
566.579	14471.44917
566.784	14673.79327
566.988	14870.05775
567.193	14779.00811
567.397	14604.99757
567.602	14795.19481
567.806	14776.98477
568.011	15062.27033
568.215	15135.10814
568.42	15218.06225
568.624	14716.28416
568.828	15236.2717
569.033	14924.68696
569.237	15159.38739
569.442	14991.45555
569.646	14890.29083
569.85	14993.47883
570.055	14987.40898
570.259	15274.71391
570.463	15169.50374
570.668	15232.22515
570.872	15009.66509
571.076	15388.0178
571.281	15402.18086
571.485	15209.96916
571.689	15549.88286
571.893	15199.85281
572.098	15539.76618
572.302	15450.7401
572.506	15454.78672
572.71	15272.69064
572.914	15373.85476
573.119	15357.66845
573.323	15513.4629
573.527	15349.5753
573.731	15681.40137
573.935	15693.54172
574.139	15814.94717
574.343	15729.96297
574.547	15780.54858
574.751	15703.65871
574.955	15557.97621
575.159	15353.62187
575.364	15592.37309
575.568	15525.60286
575.772	15721.86934
575.976	15908.02737
576.18	15606.53658
576.383	15997.06311
576.587	16351.21183
576.791	16071.93616
576.995	15934.33312
577.199	15995.03954
577.403	15885.76883
577.607	16304.66357
577.811	16478.71886
578.015	15990.99241
578.219	16132.64555
578.422	15903.98035
578.626	16237.87862
578.83	16154.90602
579.034	16288.4731
579.238	16011.22813
579.442	16519.19897
579.645	15916.12142
579.849	16304.66357
580.053	16407.88065
580.257	16286.4493
580.46	16349.18798
580.664	16239.90237
580.868	16375.49828
581.071	16498.95881
581.275	16549.55961
581.479	16622.42715
581.682	16600.16176
581.886	16585.99302
582.09	16355.25956
582.293	16768.17109
582.497	16727.68544
582.7	16780.31697
582.904	16733.75822
583.107	16466.57499
583.311	16569.80031
583.515	16982.7617
583.718	16697.32182
583.922	16934.17262
584.125	16594.08943
584.329	16810.68207
584.532	17027.30304
584.735	16996.9338
584.939	16786.38995
585.142	16713.51569
585.346	16877.48725
585.549	17017.1799
585.753	17282.42945
585.956	17353.3061
586.159	17215.60623
586.363	17049.57421
586.566	17316.85479
586.769	17233.83043
586.973	17041.47556
587.176	17264.20462
587.379	17215.60623
587.582	17177.1337
587.786	17223.70584
587.989	17292.55446
588.192	17298.6295
588.395	17371.53212
588.599	17582.16222
588.802	17482.91879
589.005	17221.68094
589.208	17588.2386
589.411	17282.42945
589.615	17343.18064
589.818	17604.44242
590.021	17604.44242
590.224	17454.56493
590.427	17606.46791
590.63	17369.50699
590.833	17879.93992
591.036	17677.3622
591.239	17734.08055
591.442	17604.44242
591.645	17894.12164
591.848	18108.89455
592.051	17973.13723
592.254	17503.17193
592.457	18208.19004
592.66	17677.3622
592.863	18390.59263
593.066	18048.1057
593.269	18177.79253
593.472	18094.7102
593.675	18303.44095
593.878	18011.63395
594.081	18005.55543
594.284	17981.2417
594.486	17896.14762
594.689	18459.50822
594.892	18121.05271
595.095	17993.3985
595.298	18534.50961
595.5	17944.77205
595.703	18518.29265
595.906	18200.08395
596.109	18183.87196
596.311	18358.16329
596.514	18214.26964
596.717	18564.91709
596.92	18512.21135
597.122	18467.61622
597.325	19000.8547
597.528	18791.9873
597.73	18905.541
597.933	18862.95689
598.136	18893.37393
598.338	18686.55572
598.541	18828.48534
598.743	18747.38033
598.946	18931.90347
599.148	18919.73609
599.351	18593.29818
599.554	18672.36382
599.756	19002.88275
599.959	18781.84918
600.161	18791.9873
600.363	18927.84766
600.566	18741.2977
600.768	18741.2977
600.971	19065.75424
601.173	19039.3883
601.376	19282.7924
601.578	19116.4599
601.78	19282.7924
601.983	19333.50903
602.185	19138.7712
602.388	19037.36018
602.59	19258.44934
602.792	19144.85619
602.995	19207.73652
603.197	19150.94121
603.399	19181.36687
603.601	18925.81976
603.804	18558.83552
604.006	19037.36018
604.208	18976.51844
604.41	19069.8106
604.613	19351.76764
604.815	18990.71452
605.017	19471.47133
605.219	19345.6814
605.421	18960.29459
605.623	19108.34683
605.826	19357.85392
606.028	19207.73652
606.23	19134.71456
606.432	18974.49045
606.634	19615.54071
606.836	19353.7964
607.038	19658.15681
607.24	19339.5952
607.442	19721.06967
607.644	19244.24949
607.846	19639.89254
608.048	19372.05539
608.25	19290.90689
608.452	19254.39222
608.654	19662.21559
608.856	19392.34355
609.058	19542.48882
609.26	19613.51142
609.462	19345.6814
609.664	19560.75129
609.866	19264.53505
610.067	19250.33511
610.269	19165.13974
610.471	19266.56363
610.673	19777.89765
610.875	19639.89254
611.077	19228.02134
611.278	19329.4516
611.48	19666.27438
611.682	19639.89254
611.884	19812.40195
612.085	19790.0755
612.287	19786.0162
612.489	19376.11299
612.69	19633.80453
612.892	19637.8632
613.094	19674.392
613.295	19290.90689
613.497	19497.84866
613.699	19307.13606
613.9	19449.1526
614.102	19505.9649
614.304	19579.01409
614.505	19688.59802
614.707	20051.93589
614.908	19714.98115
615.11	19587.131
615.311	19723.09919
615.513	19857.05638
615.714	20072.23807
615.916	20053.96609
616.117	19487.70345
616.319	19704.83371
616.52	19623.65792
616.722	19708.89268
616.923	20001.18228
617.124	20307.77406
617.326	19534.37228
617.527	19842.84794
617.729	19881.4142
617.93	20131.11676
618.131	19818.49107
618.333	19643.95124
618.534	19792.10516
618.735	19930.13166
618.937	19645.9806
619.138	19944.34137
619.339	19964.64132
619.54	19954.49129
619.742	19372.05539
619.943	19911.86233
620.144	19871.26504
620.345	20058.0265
620.546	19796.16448
620.748	20222.48725
620.949	20183.90756
621.15	20435.71816
621.351	20374.79032
621.552	20200.15146
621.753	20135.17749
621.954	20183.90756
622.155	20183.90756
622.356	20389.00648
622.558	20527.11698
622.759	20070.20783
622.96	20055.99629
623.161	20068.1776
623.362	19932.1616
623.563	20626.64977
623.764	20120.96501
623.965	20575.86648
624.166	20393.06827
624.366	19960.5813
624.567	20060.05671
624.768	19907.80252
624.969	19755.57198
625.17	19899.68297
625.371	19875.32469
625.572	19712.95166
625.773	19609.45285
625.973	20120.96501
626.174	20143.299
626.375	19948.40133
626.576	20425.56325
626.777	20161.57264
626.977	19692.65692
627.178	20407.2847
627.379	20157.5118
627.58	20451.96622
627.78	20419.47036
627.981	20472.27667
628.182	20484.46314
628.382	20581.96034
628.583	20464.15244
628.784	20651.02668
628.984	20167.66393
629.185	20636.80674
629.386	20055.99629
629.586	20386.97558
629.787	20185.93803
629.987	20447.90418
630.188	20155.48139
630.388	20393.06827
630.589	19771.80878
630.79	20049.90569
630.99	20265.12973
631.191	20257.00721
631.391	20305.74333
631.591	20577.89777
631.792	20496.64976
631.992	20529.14816
632.193	20642.90098
632.393	20675.40418
632.594	20646.96382
632.794	20500.71201
632.994	20425.56325
633.195	20313.86626
633.395	20453.99724
633.595	20338.23543
633.796	20756.66686
633.996	20746.50866
634.196	20730.25576
634.397	20732.28736
634.597	20575.86648
634.797	20632.74394
634.997	20301.6819
635.198	20527.11698
635.398	20961.88459
635.598	20927.34005
635.798	20687.59316
635.998	20693.6877
636.199	20529.14816
636.399	20797.30068
636.599	20492.58754
636.799	20539.30413
636.999	20510.86768
637.199	21102.10698
637.399	20974.07707
637.599	20941.56413
637.799	21071.62219
637.999	21360.24809
638.199	20726.19257
638.399	20923.27606
638.599	20586.02293
638.799	21258.60995
638.999	21043.17056
639.199	21085.84831
639.399	21033.00945
639.599	20898.89249
639.799	20413.37751
639.999	20988.30181
640.199	20569.77266
640.399	20935.46807
640.599	19968.70136
640.799	21325.69
640.998	20959.85253
641.198	21191.5343
641.398	21041.13833
641.598	21146.81965
641.798	21093.97761
641.997	20919.21209
642.197	21171.20922
642.397	21240.31615
642.597	21024.88064
642.796	21331.7884
642.996	20988.30181
643.196	20907.02028
643.395	20809.49115
643.595	21264.70795
643.795	21051.29951
643.994	21226.08787
644.194	21033.00945
644.394	21331.7884
644.593	21283.00219
644.793	21600.15374
644.992	21299.264
645.192	21520.85677
645.392	21317.55885
645.591	21506.62462
645.791	21069.58991
645.99	21431.40077
646.19	21150.88454
646.389	21285.0349
646.589	21079.75138
646.788	21545.2552
646.987	20821.68177
647.187	21163.0793
647.386	20866.38199
647.586	21063.49307
647.785	21337.88684
647.984	21504.59147
648.184	21319.59163
648.383	21539.15554
648.582	21171.20922
648.782	21382.60983
648.981	21313.4933
649.18	20976.10916
649.38	21492.39266
649.579	21315.52607
649.778	21278.93677
649.977	21441.56583
650.177	21535.08912
650.376	21779.10216
650.575	21163.0793
650.774	21866.55382
650.973	21640.82117
651.173	21632.68756
651.372	21829.94528
651.571	21840.11419
651.77	21817.74271
651.969	21620.48726
652.168	21510.69093
652.367	21890.9602
652.566	21110.23641
652.765	21770.96749
652.964	21632.68756
653.163	21622.52063
653.362	21874.68922
653.561	21661.15548
653.76	21539.15554
653.959	21447.66492
654.158	21736.39582
654.357	21589.98712
654.556	22039.44422
654.755	21956.04659
654.954	21608.2871
655.153	21895.02798
655.352	21636.75436
655.551	21722.16075
655.749	21425.30177
655.948	21752.6647
656.147	21724.19432
656.346	21903.1636
656.545	21970.28475
656.743	21382.60983
656.942	21413.1039
657.141	21805.54028
657.34	21768.93383
657.538	21490.35954
657.737	21492.39266
657.936	21488.32643
658.135	21665.22239
658.333	21783.16952
658.532	21577.78732
658.731	21756.73196
658.929	21748.59745
659.128	21632.68756
659.326	22008.93215
659.525	22078.09406
659.724	22114.71095
659.922	22118.77956
660.121	21693.69119
660.319	21746.56384
660.518	21488.32643
660.716	21844.18178
660.915	21618.45389
661.113	22147.26031
661.312	21968.25072
661.51	22098.43662
661.709	21890.9602
661.907	22096.40235
662.105	22171.67297
662.304	22501.29566
662.502	22226.60339
662.701	21594.05376
662.899	21711.99296
663.097	21921.46896
663.296	21766.90017
663.494	22149.29468
663.692	21791.30429
663.891	21915.36714
664.089	21821.81022
664.287	22092.33381
664.485	21738.42941
664.684	22220.49988
664.882	21740.46301
665.08	21966.21669
665.278	22021.13687
665.476	22059.78607
665.675	21838.0804
665.873	22053.68347
666.071	22169.63856
666.269	22177.77621
666.467	21968.25072
666.665	22314.09075
666.863	21775.03482
667.061	22303.91745
667.259	21840.11419
667.457	21758.76559
667.655	21795.3717
667.853	21994.69348
668.051	21740.46301
668.249	22149.29468
668.447	21834.01283
668.645	22157.43219
668.843	21834.01283
669.041	21646.92142
669.239	21951.97857
669.437	22000.79574
669.635	21874.68922
669.833	21842.14799
670.031	21528.98952
670.229	21600.15374
670.426	21441.56583
670.624	21537.12233
670.822	21299.264
671.02	21545.2552
671.218	21498.49205
671.415	22126.91685
671.613	21838.0804
671.811	21537.12233
672.009	21821.81022
672.206	22025.20515
672.404	21876.72308
672.602	22008.93215
672.799	22120.81388
672.997	22041.47838
673.195	21559.48788
673.392	22041.47838
673.59	21547.28843
673.788	21394.80735
673.985	21467.99547
674.183	21655.05515
674.38	21730.29505
674.578	21941.8086
674.775	21728.26147
674.973	21364.31383
675.17	21461.89627
675.368	21382.60983
675.565	21695.7247
675.763	21994.69348
675.96	21526.95633
676.158	21842.14799
676.355	21846.21559
676.553	22041.47838
676.75	21638.78776
676.947	21740.46301
677.145	21657.08859
677.342	22088.26529
677.539	21425.30177
677.737	21467.99547
677.934	21620.48726
678.131	21600.15374
678.329	21364.31383
678.526	21614.38716
678.723	21585.92051
678.92	21738.42941
679.118	21232.18568
679.315	21500.52519
679.512	21524.92314
679.709	21752.6647
679.906	21390.7415
680.104	21472.06163
680.301	21268.77331
680.498	21356.18238
680.695	21181.37171
680.892	21356.18238
681.089	21533.05591
681.286	21848.24939
681.483	21270.80599
681.68	21691.65767
681.877	21242.34878
682.075	21293.16579
682.272	21219.9901
682.469	21683.52367
682.665	20963.91666
682.862	21333.82121
683.059	21299.264
683.256	21472.06163
683.453	21254.54463
683.65	21134.62509
683.847	21272.83868
684.044	21039.1061
684.241	21321.62441
684.438	21382.60983
684.635	21114.30115
684.831	21443.59886
685.028	21154.94944
685.225	21179.3392
685.422	21130.56027
685.619	21232.18568
685.815	21256.57729
686.012	21197.6319
686.209	20941.56413
686.405	21490.35954
686.602	21014.71972
686.799	21156.9819
686.996	21337.88684
687.192	20858.25453
687.389	21148.8521
687.586	20878.5733
687.782	20994.39819
687.979	20982.20547
688.175	20630.71255
688.372	20998.46246
688.568	20846.06346
688.765	20841.99981
688.962	20909.05224
689.158	21004.55891
689.355	20754.63521
689.551	20911.0842
689.748	20648.99525
689.944	20718.06626
690.14	20852.15898
690.337	20772.92019
690.533	20740.41379
690.73	20866.38199
690.926	20823.71356
691.123	20636.80674
691.319	20332.14308
691.515	20630.71255
691.712	20187.96851
691.908	20321.98925
692.104	20525.0858
692.301	20261.06846
692.497	20232.64005
692.693	20588.05424
692.889	20384.9447
693.086	20557.58514
693.282	20537.27293
693.478	20313.86626
693.674	20553.52266
693.87	20714.00312
694.067	20787.14207
694.263	20872.47763
694.459	20370.7286
694.655	20433.68717
694.851	20125.02569
695.047	20084.41957
695.243	20240.76237
695.439	20169.69437
695.635	20139.23823
695.831	20378.85206
696.027	20374.79032
696.224	20437.74915
696.42	20521.02346
696.615	20648.99525
696.811	20561.64763
697.007	20565.71014
697.203	20076.29855
697.399	20179.84663
697.595	20096.60123
697.791	20470.2456
697.987	20346.35862
698.183	20529.14816
698.379	19930.13166
698.575	20291.52838
698.77	20293.55908
698.966	20356.5127
699.162	20285.43632
699.358	20041.78496
699.554	20122.99535
699.749	20236.7012
699.945	19924.04184
700.141	20192.02947
700.337	20244.82356
700.532	20017.42315
700.728	20035.69445
700.924	20153.45098
701.119	20039.75478
701.315	19700.77476
701.511	19926.07178
701.706	20183.90756
701.902	19883.44405
702.097	19798.19415
702.293	19439.00789
702.489	19307.13606
702.684	19678.45084
702.88	19684.53914
703.075	19532.34315
703.271	19865.17559
703.466	19842.84794
703.662	19635.83386
703.857	19781.95692
704.053	19459.29741
704.248	19629.74587
704.443	19995.09203
704.639	19688.59802
704.834	19763.69035
705.03	19662.21559
705.225	20045.84532
705.42	20007.27258
705.616	19844.8777
705.811	19609.45285
706.006	19615.54071
706.202	19731.21728
706.397	19779.92728
706.592	19325.39419
706.787	19589.16024
706.983	19526.2558
707.178	20060.05671
707.373	19696.71583
707.568	19747.45368
707.763	19353.7964
707.959	19873.29486
708.154	19879.38436
708.349	19530.31403
708.544	19574.95566
708.739	19643.95124
708.934	19367.99781
709.129	19530.31403
709.324	19177.31006
709.519	19451.18155
709.714	19522.19759
709.909	19794.13482
710.104	19382.19942
710.299	19859.08618
710.494	19497.84866
710.689	19934.19155
710.884	19633.80453
711.079	19382.19942
711.274	19065.75424
711.469	19520.16849
711.664	19161.08299
711.859	19534.37228
712.054	19814.43166
712.249	19284.82102
712.443	19027.21964
712.638	19323.3655
712.833	19039.3883
713.028	19802.2535
713.223	19688.59802
713.417	19717.01066
713.612	19489.73248
713.807	19566.83885
714.002	19209.76498
714.196	19333.50903
714.391	18800.09786
714.586	19118.48818
714.78	19049.52897
714.975	19075.89517
715.17	19019.10728
715.364	19195.56583
715.559	19114.43163
715.754	18806.18082
715.948	19221.93585
716.143	18842.67937
716.337	18824.42993
716.532	18814.2915
716.726	19124.57305
716.921	19124.57305
717.115	19015.05112
717.31	19311.1934
717.504	18982.60245
717.699	19015.05112
717.893	18836.59619
718.088	19120.51647
718.282	18897.4296
718.476	18785.90441
718.671	18483.83242
718.865	18907.56886
719.059	18504.10301
719.254	18735.21512
719.448	18536.53675
719.642	18933.93138
719.837	18706.83019
720.031	18739.27017
720.225	18305.46765
720.419	18972.46245
720.614	18512.21135
720.808	18593.29818
721.002	18325.7349
721.196	18702.77527
721.39	18433.15762
721.585	18431.13068
721.779	18526.4011
721.973	18127.13184
722.167	17890.0697
722.361	18406.80767
722.555	18042.027
722.749	18335.86867
722.943	18386.53891
723.137	18455.45424
723.331	18165.63375
723.525	18090.65756
723.719	18169.68666
723.913	18358.16329
724.107	18139.2902
724.301	18568.97148
724.495	18102.81552
724.689	18418.96911
724.883	17969.08502
725.077	18106.86821
725.271	18157.52798
725.465	18082.55232
725.659	18104.84186
725.853	18309.52107
726.046	18279.12079
726.24	18333.84191
726.434	18234.53521
726.628	18471.67025
726.822	18143.34301
727.015	18646.00795
727.209	18096.73652
727.403	18370.32418
727.596	17918.43356
727.79	18127.13184
727.984	17918.43356
728.177	17934.64179
728.371	18001.50311
728.565	17831.31816
728.758	18013.66012
728.952	18159.55442
729.146	17865.75837
729.339	18447.34633
729.533	18017.71249
729.726	18212.2431
729.92	18133.211
730.113	18181.84548
730.307	18311.54779
730.5	18187.92494
730.694	18285.20078
730.887	18147.39584
731.081	17804.9822
731.274	17983.26782
731.468	17671.28539
731.661	18027.84347
731.854	17881.96587
732.048	18343.97575
732.241	18147.39584
732.435	18163.6073
732.628	17865.75837
732.821	17734.08055
733.014	17965.03282
733.208	17888.04374
733.401	17760.41496
733.594	18098.76285
733.788	17752.31201
733.981	17967.05892
734.174	17979.21557
734.367	18011.63395
734.56	18106.86821
734.754	17881.96587
734.947	17863.73244
735.14	18108.89455
735.333	17956.92847
735.526	18054.18444
735.719	17847.52519
735.912	18005.55543
736.105	18005.55543
736.298	17896.14762
736.491	17659.13185
736.684	17584.18768
736.877	17466.71651
737.07	17809.03385
737.263	17952.87631
737.456	17926.53765
737.649	18119.02634
737.842	18449.3733
738.035	18185.89845
738.228	18050.13195
738.421	17928.56368
738.614	17774.59527
738.807	17918.43356
739	17873.86209
739.192	17742.18339
739.385	17819.16303
739.578	17798.90475
739.771	17701.66974
739.964	17488.9947
740.156	17657.10627
740.349	17466.71651
740.542	17740.15767
740.735	17519.37467
740.927	17750.28627
741.12	17410.01009
741.313	17630.77407
741.505	17509.24793
741.698	17274.32949
741.891	17517.34932
742.083	17446.46394
742.276	17353.3061
742.468	17596.34048
742.661	17312.80471
742.854	17638.87623
743.046	17503.17193
743.239	17401.90937
743.431	17426.21168
743.624	17094.11753
743.816	17051.59887
744.009	16984.78628
744.201	17191.30767
744.393	16673.03131
744.586	16721.61267
744.778	17138.6622
744.971	17316.85479
745.163	17436.33777
745.355	17480.8935
745.548	17043.50022
745.74	17067.79631
745.932	17276.35448
746.125	17092.0928
746.317	16928.09909
746.509	17260.15469
746.702	17316.85479
746.894	17227.75567
747.086	17179.15854
747.278	17300.65452
747.471	16917.97659
747.663	17209.53155
747.855	17545.70456
748.047	17237.88028
748.239	17065.77162
748.431	16843.07212
748.623	17071.8457
748.815	16581.94483
749.008	16818.77952
749.2	16818.77952
749.392	17025.27841
749.584	16924.05008
749.776	17507.2226
749.968	17112.34018
750.16	16930.1236
750.352	16804.60901
750.544	17003.0076
750.736	16899.75626
750.928	16964.54062
751.12	16810.68207
751.311	16666.95874
751.503	16992.88462
751.695	16792.46295
751.887	16778.29265
752.079	16816.75516
752.271	16610.28236
752.463	16802.58466
752.654	16778.29265
752.846	17171.05918
753.038	16498.95881
753.23	16531.34317
753.421	16551.58367
753.613	16418.00025
753.805	16774.24402
753.997	16391.68941
754.188	16602.18588
754.38	16343.11641
754.572	16535.39125
754.763	16511.10288
754.955	16349.18798
755.146	16551.58367
755.338	16575.87256
755.53	16355.25956
755.721	16254.06873
755.913	16256.0925
756.104	16292.5207
756.296	16332.99718
756.487	16021.34604
756.679	16102.29068
756.87	16195.3801
757.062	15928.26254
757.253	16057.77083
757.445	16118.4799
757.636	16223.71236
757.827	16300.61594
758.019	16154.90602
758.21	16175.14298
758.401	16053.72361
758.593	15821.01754
758.784	16019.32246
758.975	16140.74024
759.167	16154.90602
759.358	16260.14005
759.549	16100.26703
759.74	16158.9534
759.932	16108.36163
760.123	16173.11927
760.314	16171.09557
760.505	15908.02737
760.696	15903.98035
760.888	16130.62188
761.079	15744.12688
761.27	15879.69834
761.461	15853.39303
761.652	15760.31426
761.843	15458.83334
762.034	15999.08668
762.225	15770.43141
762.416	15766.38454
762.607	15588.32639
762.798	15768.40798
762.989	15511.43958
763.18	15228.17861
763.371	14973.24597
763.562	14969.1994
763.753	15240.31825
763.944	15201.87608
764.135	15199.85281
764.326	15487.15972
764.517	15064.2936
764.708	15232.22515
764.899	15288.87685
765.089	15256.50444
765.28	15385.99451
765.471	15315.17948
765.662	15369.80818
765.853	15669.26106
766.043	15307.08636
766.234	15307.08636
766.425	14870.05775
766.615	14772.93808
766.806	14661.65294
766.997	14855.89456
767.187	14665.69972
767.378	14938.85003
767.569	14491.68414
767.759	14625.23173
767.95	14942.89662
768.141	14861.9645
768.331	14910.52387
768.522	15218.06225
768.712	15220.08552
768.903	15260.55098
769.093	14934.80344
769.284	14876.12768
769.474	14706.16732
769.665	14687.95694
769.855	15129.03833
770.046	15256.50444
770.236	14768.89139
770.426	14912.54717
770.617	14748.65791
770.807	14552.38824
770.998	14526.08327
771.188	14760.79801
771.378	14552.38824
771.569	14754.72796
771.759	14615.11466
771.949	14258.97274
772.139	14376.34288
772.33	14050.52349
772.52	14236.7122
772.71	14182.0717
772.9	14082.90546
773.09	14161.83411
773.281	14337.89468
773.471	14487.63715
773.661	14250.87802
773.851	14337.89468
774.041	14461.33163
774.231	14103.14389
774.421	13949.32588
774.611	13884.55605
774.802	13627.47153
774.992	13941.22979
775.182	13833.95267
775.372	13844.07349
775.562	13643.66733
775.752	13981.70979
775.942	13852.17009
776.131	14113.26303
776.321	13738.81342
776.511	14064.69067
776.701	14010.04518
776.891	13688.20468
777.081	13661.88735
777.271	13771.202
777.461	13580.9074
777.651	13700.35096
777.84	13742.86204
778.03	13680.1071
778.22	13755.00781
778.41	13734.7648
778.599	13629.49602
778.789	13775.25051
778.979	13416.90553
779.169	13827.88015
779.358	13702.37533
779.548	13526.24279
779.738	13532.31677
779.927	13647.71625
780.117	13311.60703
780.307	13192.11996
780.496	13435.12918
780.686	13378.43235
780.875	13070.59159
781.065	13524.21813
781.254	13333.88263
781.444	13621.39805
781.633	13623.42255
781.823	13584.95653
782.012	13550.53849
782.202	13425.00497
782.391	13311.60703
782.581	13177.94251
782.77	13019.9497
782.96	13362.23268
783.149	12778.85017
783.338	12817.35017
783.528	12951.07172
783.717	13137.43427
783.906	12975.38227
784.096	12811.27136
784.285	12904.47442
784.474	12770.74465
784.663	12874.08338
784.853	12841.66493
785.042	12961.2012
785.231	13054.38652
785.42	12965.25296
785.61	12859.90048
785.799	12851.79584
785.988	12766.69186
786.177	12434.28112
786.366	12807.21879
786.555	12673.47122
786.744	12827.48142
786.933	12533.61649
787.122	12795.06094
787.312	12942.96804
787.501	12928.7864
787.69	12628.88302
787.879	12855.84817
788.068	12659.28438
788.257	12740.34814
788.445	12375.48333
788.634	12572.13015
788.823	12379.53854
789.012	12359.26225
789.201	11984.02088
789.39	11923.14618
789.579	11833.84993
789.768	12109.80599
789.957	11906.91169
790.145	12107.77743
790.334	12026.62888
790.523	12148.34712
790.712	12089.52009
790.9	12016.48444
791.089	11663.32936
791.278	11957.64274
791.467	11896.76487
791.655	12000.25291
791.844	12065.17599
792.033	12158.48907
792.221	11716.11613
792.41	12089.52009
792.599	11707.99548
792.787	11943.43856
792.976	11929.23398
793.164	11726.26675
793.353	11677.54177
793.541	11981.99184
793.73	11864.29365
793.918	11943.43856
794.107	11752.65733
794.295	12079.37685
794.484	11764.8371
794.672	11961.701
794.861	11703.9351
795.049	11843.99805
795.238	11600.38333
795.426	11947.49694
795.614	11667.39009
795.803	11653.17736
795.991	11746.56732
796.179	11677.54177
796.368	11675.51146
796.556	11511.02537
796.744	11295.67762
796.932	11429.77498
797.121	11228.61247
797.309	11610.5365
797.497	11088.34858
797.685	11419.6176
797.874	11504.93213
798.062	11181.86343
798.25	11185.92879
798.438	11466.33956
798.626	11374.9222
798.814	11171.69986
799.002	10905.31792
799.19	11041.5826
799.378	10844.28739
799.566	11309.90213
799.755	10966.33817
799.943	10828.01082
800.131	11324.12615
800.318	11336.31777
800.506	11387.11232
800.694	11214.38509
800.882	11086.31539
801.07	11391.17562
801.258	11088.34858
801.446	11263.16258
801.634	10943.96526
801.822	11232.67735
802.01	11004.9791
802.197	11120.87805
802.385	10671.3102
802.573	10752.72194
802.761	10939.89731
802.949	10923.62507
803.136	10815.80291
803.324	10913.45454
803.512	10996.8445
803.699	10939.89731
803.887	10811.73351
804.075	11007.01272
804.262	10504.35474
804.45	11039.54917
804.638	10787.31613
804.825	11228.61247
805.013	10952.10102
805.201	11387.11232
805.388	11159.50323
805.576	11301.7739
805.763	11189.9941
805.951	10972.43964
806.138	11063.94966
806.326	11057.84968
806.513	11147.30622
806.701	11000.91183
806.888	11259.09802
807.075	11389.14398
807.263	11143.24047
807.45	11271.29159
807.638	10870.73522
807.825	11484.62068
808.012	10887.00985
808.2	11185.92879
808.387	11261.1303
808.574	11462.27698
808.761	11177.79804
808.949	11149.33908
809.136	11002.94547
809.323	11417.58609
809.51	11299.74182
809.698	11322.09418
809.885	10972.43964
810.072	10996.8445
810.259	10783.24641
810.446	10848.35641
810.633	10854.45986
810.82	11015.1471
811.008	10996.8445
811.195	11200.15719
811.382	10950.0671
811.569	11240.80697
811.756	11019.21422
811.943	11360.69993
812.13	11269.25935
812.317	11216.4176
812.504	11269.25935
812.691	11271.29159
812.878	11110.71288
813.064	11234.70977
813.251	11029.38183
813.438	11139.17467
813.625	11147.30622
813.812	11381.0173
813.999	11114.77898
814.186	11261.1303
814.372	11065.98296
814.559	11486.65187
814.746	10901.24954
814.933	11222.51508
815.12	11265.19485
815.306	11342.41345
815.493	11230.64491
815.68	11183.89611
815.866	11017.18067
816.053	11102.58056
816.24	10919.55689
816.426	10836.1492
816.613	10868.70084
816.799	10773.07188
816.986	10986.67601
817.173	11181.86343
817.359	11068.01625
817.546	11167.63436
817.732	10838.18376
817.919	11049.71623
818.105	10844.28739
818.292	11118.84504
818.478	10785.28128
818.665	10789.35098
818.851	10756.79202
819.037	10728.30044
819.224	10752.72194
819.41	10650.95424
819.597	10817.83759
819.783	10984.64227
819.969	11027.34833
820.156	11051.74961
820.342	10927.6932
820.528	10860.56321
820.714	10567.48191
820.901	10809.69879
821.087	10516.57385
821.273	11114.77898
821.459	11057.84968
821.646	11151.37193
821.832	10760.86206
822.018	10866.66645
822.204	10361.76423
822.39	10585.80689
822.576	10308.7857
822.762	10817.83759
822.948	10490.09854
823.134	10699.8065
823.32	10335.27609
823.507	10887.00985
823.693	10671.3102
823.879	10646.8829
824.065	10781.21153
824.25	10850.39091
824.436	10736.44113
824.622	10813.76822
824.808	10689.62952
824.994	10595.987
825.18	10681.48772
825.366	10836.1492
825.552	10520.64679
825.738	10483.98854
825.923	10351.57675
826.109	10661.13237
826.295	10296.55861
826.481	10705.91255
826.667	10565.44574
826.852	10371.95139
827.038	10109.01521
827.224	10296.55861
827.409	10194.64726
827.595	10257.83629
827.781	9990.72066
827.966	9974.4004
828.152	9929.5149
828.338	9764.19316
828.523	9731.52537
828.709	10113.09348
828.894	9735.60906
829.08	9811.14631
829.266	9802.98112
829.451	10196.68582
829.637	9962.1596
829.822	10153.87314
830.008	9862.17336
830.193	10039.67593
830.378	9966.23992
830.564	10015.19933
830.749	10102.89769
830.935	10182.4156
831.12	9919.31266
831.305	10049.87391
831.491	9608.9862
831.676	9615.11448
831.861	9384.18378
832.047	9625.32798
832.232	9568.12736
832.417	9733.56722
832.602	9512.95792
832.788	9635.54108
832.973	9388.27284
833.158	9884.62232
833.343	9762.15154
833.528	9729.48351
833.714	9666.17807
833.899	10029.4776
834.084	9625.32798
834.269	9884.62232
834.454	9367.8269
834.639	9455.73288
834.824	9353.51377
835.009	9349.42415
835.194	9134.62564
835.379	9161.22984
835.564	9230.79646
835.749	9302.38883
835.934	9369.87157
836.119	9173.50773
836.304	9062.98451
836.489	9308.52437
836.674	9048.65374
836.859	9167.36886
837.044	9298.29839
837.228	9553.82528
837.413	9150.99779
837.598	9437.33644
837.783	8970.84321
837.968	9198.06167
838.152	9058.89009
838.337	9238.97949
838.522	9034.32212
838.707	9294.20788
838.891	8603.96649
839.076	8954.45881
839.261	9005.65631
839.445	9378.05008
839.63	8997.46545
839.815	9087.54956
839.999	8845.88343
840.184	8841.78526
840.368	8888.90987
840.553	9142.81185
840.737	8808.99731
840.922	8854.07955
841.106	8722.90679
841.291	8882.76372
841.475	8817.19473
841.66	8704.45462
841.844	8546.52456
842.029	8601.91525
842.213	8649.08913
842.397	8355.62831
842.582	8230.32585
842.766	8519.85007
842.951	8345.36036
843.135	8411.06691
843.319	8450.07083
843.504	8382.32273
843.688	8423.38469
843.872	8714.70601
844.056	8757.75683
844.241	8763.90629
844.425	8263.19913
844.609	8632.68194
844.793	8164.56407
844.977	8394.64213
845.161	8283.74238
845.346	8603.96649
845.53	8443.91277
845.714	8665.49512
845.898	8267.30794
846.082	8400.80157
846.266	8306.33768
846.45	8388.48252
846.634	8263.19913
846.818	8427.49046
847.002	8189.22712
847.186	8146.0649
847.37	8035.03574
847.554	8119.34102
847.738	7716.00966
847.922	8041.20557
848.106	7829.26942
848.29	7777.79556
848.473	7954.81128
848.657	7905.42692
848.841	7833.38677
849.025	7971.27011
849.209	7773.67708
849.392	8082.33312
849.576	8018.58196
849.76	8133.73122
849.944	8067.93939
850.127	8088.50155
850.311	7911.60061
850.495	8222.10673
850.678	8125.50837
850.862	8041.20557
851.046	7829.26942
851.229	8082.33312
851.413	7505.79506
851.596	7954.81128
851.78	7767.49922
851.964	7709.83003
852.147	7551.15425
852.331	7672.74826
852.514	7631.53825
852.698	7680.98924
852.881	7357.27371
853.065	7825.15199
853.248	7668.62764
853.431	7501.67098
853.615	7218.96467
853.798	7674.80853
853.982	7522.29051
854.165	7435.67399
854.348	7262.32589
854.532	7483.11156
854.715	7092.95522
854.898	7183.85559
855.081	7101.22067
855.265	7268.51955
855.448	7043.35498
855.631	7082.6229
855.814	6884.13344
855.997	6952.38763
856.181	6863.44548
856.364	6863.44548
856.547	6726.84781
856.73	6776.5312
856.913	6948.25171
857.096	6923.43432
857.279	6989.60681
857.462	6985.47171
857.645	6977.20123
857.828	7064.02331
858.011	6882.06475
858.194	7072.29002
858.377	6745.48063
858.56	6670.93822
858.743	6745.48063
858.926	6948.25171
859.109	6646.08414
859.292	6546.63461
859.475	6486.52469
859.658	6670.93822
859.841	6299.85217
860.023	6786.88025
860.206	6652.29797
860.389	6832.40928
860.572	6577.7183
860.755	6803.43754
860.937	6673.00925
861.12	6890.33939
861.303	6813.7851
861.486	6730.9886
861.668	6384.91528
861.851	6563.21322
862.034	6330.97737
862.216	6447.13175
862.399	6281.17452
862.581	6364.1718
862.764	6040.27037
862.947	6312.30288
863.129	6345.50067
863.312	6204.36871
863.494	6351.72459
863.677	6281.17452
863.859	6281.17452
864.042	6411.87832
864.224	5915.54058
864.406	6254.19235
864.589	6085.98338
864.771	6229.28221
864.954	5944.65179
865.136	5977.91608
865.318	5824.01811
865.501	6085.98338
865.683	5876.02512
865.865	5898.90353
866.048	5736.61313
866.23	6250.04089
866.412	6031.95769
866.594	6214.74974
866.777	5832.34022
866.959	6019.48797
867.141	5844.82268
867.323	5824.01811
867.505	5738.69469
867.687	5940.49333
867.869	5948.81016
868.052	5942.57257
868.234	5801.13036
868.416	6021.56631
868.598	5542.92541
868.78	5749.10211
868.962	5803.21118
869.144	5948.81016
869.326	5647.08395
869.508	5636.67075
869.69	5526.25458
869.872	5776.15864
870.054	5640.8361
870.236	5776.15864
870.417	5386.57722
870.599	5584.5959
870.781	5480.40201
870.963	5534.59018
871.145	5230.097
871.327	5771.99635
871.508	5296.878
871.69	5649.16652
871.872	5324.00094
872.054	5661.66144
872.235	5430.36805
872.417	5557.51116
872.599	5311.48315
872.78	5615.84258
872.962	5200.87279
873.144	5542.92541
873.325	5278.09826
873.507	5449.13237
873.689	5530.42243
873.87	5586.67918
874.052	5305.22394
874.233	5540.84164
874.415	5223.83505
874.596	5517.9186
874.778	5457.47146
874.959	5361.54924
875.141	4969.00535
875.322	5328.17335
875.503	4964.82494
875.685	5190.43446
875.866	5182.08338
876.048	5524.17062
876.229	5328.17335
876.41	5215.48547
876.592	5261.40357
876.773	5467.89479
876.954	5265.57739
877.136	5570.0123
877.317	5451.21718
877.498	5584.5959
877.679	5545.00916
877.86	5694.97708
878.042	5490.82405
878.223	5682.48443
878.404	5328.17335
878.585	5303.13749
878.766	5106.90691
878.947	5459.55617
879.128	5138.2341
879.309	5432.45307
879.49	5265.57739
879.672	5340.69001
879.853	5399.08994
880.034	5419.9426
880.215	5434.53806
880.396	5505.41392
880.576	5382.40612
880.757	5517.9186
880.938	5263.49049
881.119	5736.61313
881.3	5480.40201
881.481	5682.48443
881.662	5382.40612
881.843	5534.59018
882.023	5374.06365
882.204	5536.67403
882.385	5349.03398
882.566	5259.31663
882.747	5202.96038
882.927	5315.65584
883.108	5276.01151
883.289	5340.69001
883.469	5311.48315
883.65	5545.00916
883.831	5324.00094
884.011	5463.72553
884.192	5513.75046
884.373	5582.5126
884.553	5424.11285
884.734	5699.14111
884.914	5609.59367
885.095	5632.50531
885.275	5311.48315
885.456	5624.17413
885.636	5499.16126
885.817	5597.09521
885.997	5478.31754
886.178	5744.93921
886.358	5557.51116
886.538	5442.87781
886.719	5399.08994
886.899	5676.23778
887.08	5447.04754
887.26	5326.08715
887.44	5444.96269
887.621	5428.283
887.801	5257.22967
887.981	5684.56659
888.161	5434.53806
888.342	5549.17659
888.522	5528.33852
888.702	5657.49656
888.882	5590.84566
889.062	5667.90859
889.242	5413.68705
889.423	5549.17659
889.603	5234.27151
889.783	5561.6783
889.963	5353.20583
890.143	5522.08664
890.323	5259.31663
890.503	5778.23974
890.683	5440.79291
890.863	5407.43129
891.043	5430.36805
891.223	5744.93921
891.403	5449.13237
891.583	5524.17062
891.763	5355.29172
891.943	5634.58804
892.122	5394.91913
892.302	5674.15552
892.482	5292.70489
892.662	5624.17413
892.842	5442.87781
893.022	5669.99092
893.201	5480.40201
893.381	5694.97708
893.561	5288.53168
893.741	5390.74822
893.92	5198.78517
894.1	5401.17531
894.28	5246.79449
894.459	5405.34598
894.639	5008.7146
894.819	5263.49049
894.998	4856.10218
895.178	4960.64445
895.357	4868.65027
895.537	5023.34223
895.716	5060.95092
895.896	5357.37758
896.075	4688.71601
896.255	4971.09552
896.434	4634.28437
896.614	5069.30739
896.793	4734.76166
896.973	5219.66031
897.152	4705.46114
897.331	5263.49049
897.511	4877.01521
897.69	4839.37011
897.87	4741.03976
898.049	4726.39053
898.228	4521.18579
898.407	4676.15621
898.587	4426.88765
898.766	4933.46897
898.945	4389.15597
899.124	4705.46114
899.304	4607.06287
899.483	4594.49783
899.662	4353.51401
899.841	4560.98713
900.02	4514.90063
900.199	4613.34509
900.378	4573.55431
900.557	4713.83317
900.737	4508.61528
900.916	4470.89899
901.095	4366.09424
901.274	4470.89899
901.453	4389.15597
901.632	4414.31121
901.811	4303.18529
901.989	4454.13391
902.168	4313.67147
902.347	4395.44507
902.526	3870.69743
902.705	4269.62593
902.884	3954.74414
903.063	4236.06108
903.242	3858.08765
903.42	4026.15832
903.599	3849.68074
903.778	4233.96309
903.957	4000.95602
904.135	4141.63078
904.314	3696.19931
904.493	3912.72481
904.672	3879.10354
904.85	3958.94562
905.029	3715.12728
905.207	3948.44175
905.386	3715.12728
905.565	3647.82079
905.743	3473.15501
905.922	3813.94782
906.1	3496.31078
906.279	3820.25404
906.457	3626.78352
906.636	3784.51642
906.814	3529.98796
906.993	3515.25477
907.171	3325.74957
907.35	3652.02802
907.528	3176.1521
907.707	3433.15355
907.885	3049.66735
908.063	3426.83693
908.242	3184.58236
908.42	3311.00431
908.598	3148.75196
908.777	3296.25821
908.955	2982.1858
909.133	3066.53527
909.311	3005.38434
909.49	3254.12191
909.668	2910.46977
909.846	3336.28138
910.024	3112.91689
910.202	3304.68466
910.38	3053.88442
910.559	3247.80088
910.737	2790.20257
910.915	3129.78103
911.093	3020.1461
911.271	3117.13302
911.449	2925.23623
911.627	3351.02519
911.805	3104.48444
911.983	3201.44209
912.161	3018.03732
912.339	3184.58236
912.517	3015.92853
912.695	3064.42684
912.872	2792.31291
913.05	3216.19349
913.228	2809.19515
913.406	3325.74957
913.584	3093.94352
913.762	3037.01575
913.939	3013.81972
914.117	3138.21272
914.295	3083.4022
914.473	3070.7521
914.65	3146.64414
914.828	3018.03732
915.006	3085.51049
915.184	3083.4022
915.361	2737.43963
915.539	3127.67307
915.716	3041.23301
915.894	2969.53128
916.072	2872.49563
916.249	2992.73082
916.427	2701.55609
916.604	3140.3206
916.782	2790.20257
916.959	2988.51285
917.137	2861.94643
917.314	2870.38581
917.492	2821.85625
917.669	2914.68883
917.847	2891.48328
918.024	2984.29483
918.201	2722.66451
918.379	2876.71521
918.556	2688.89041
918.733	2937.89262
918.911	2538.97908
919.088	2950.54848
919.265	2496.73968
919.442	2775.4298
919.62	2619.221
919.797	2876.71521
919.974	2591.77177
920.151	2695.22331
920.328	2361.54407
920.506	2712.11047
920.683	2496.73968
920.86	2657.2242
921.037	2526.30774
921.214	2762.76689
921.391	2579.1022
921.568	2395.34703
921.745	2319.28677
921.922	2566.4322
922.099	2344.64162
922.276	2498.85176
922.453	2471.39387
922.63	2800.75414
922.807	2300.26971
922.984	2357.31852
923.161	2315.06082
923.338	2424.92245
923.514	2120.62833
923.691	2408.02246
923.868	2399.57222
924.045	2255.89361
924.222	2258.00685
924.399	2129.0834
924.575	2052.98349
924.752	2230.53403
924.929	2120.62833
925.105	2376.33319
925.282	1900.7574
925.459	2158.67513
925.635	1852.12332
925.812	1795.02789
925.989	1693.51765
926.165	1938.81688
926.342	1877.49796
926.518	2097.37627
926.695	1807.71604
926.871	1943.0456
927.048	1773.88063
927.224	1898.64293
927.401	1727.35531
927.577	1765.42162
927.754	1505.28458
927.93	1716.78113
928.107	1682.94322
928.283	1917.67295
928.459	1799.25729
928.636	1866.92528
928.812	1661.79415
928.988	1940.93124
929.165	1608.92038
929.341	1706.20687
929.517	1596.23048
929.693	1932.47376
929.87	1604.69042
930.046	1640.64482
930.222	1543.35523
930.398	1509.51466
930.574	1401.64714
930.751	1528.55001
930.927	1333.96622
931.103	1515.85979
931.279	1342.42626
931.455	1530.66505
931.631	1327.6212
931.807	1397.41706
931.983	1380.49674
932.159	1632.18502
932.335	1213.41418
932.511	1452.40834
932.687	1344.54128
932.863	1388.95689
933.039	1084.41419
933.215	1314.93121
933.391	997.71953
933.566	1116.13401
933.742	1012.52036
933.918	1192.26563
934.094	982.91902
934.27	1004.06271
934.445	820.1373
934.621	1016.74922
934.797	883.55312
934.973	940.63367
935.148	746.16268
935.324	963.89027
935.5	777.86462
935.675	856.07198
935.851	760.95663
936.027	725.02935
936.202	737.70922
936.378	670.08778
936.553	577.12802
936.729	562.34125
936.904	566.56597
937.08	515.8729
937.255	387.06628
937.431	503.20089
937.606	503.20089
937.782	492.64129
937.957	408.17811
938.133	475.74669
938.308	294.19448
938.483	425.06875
938.659	306.8568
938.834	469.41147
939.009	302.63595
939.185	346.9584
939.36	372.28898
939.535	266.76173
939.71	268.87183
939.886	315.29871
940.061	228.7832
940.236	188.70164
940.411	201.3582
940.586	201.3582
940.761	167.60902
940.937	197.13926
941.112	233.00273
941.287	251.99156
941.462	211.90588
941.637	203.46769
941.812	180.26435
941.987	165.49987
942.162	228.7832
942.337	184.48295
942.512	195.02983
942.687	125.43005
942.862	131.75635
943.037	106.45231
943.212	140.19172
943.386	176.04582
943.561	142.30062
943.736	159.17255
943.911	125.43005
944.086	116.99528
944.26	163.39074
944.435	180.26435
944.61	129.64756
944.785	121.21262
944.959	144.40954
945.134	195.02983
945.309	190.81102
945.483	127.53879
945.658	116.99528
945.833	127.53879
946.007	116.99528
946.182	133.86516
946.357	157.06349
946.531	121.21262
946.706	121.21262
946.88	235.11252
947.055	110.66943
947.229	133.86516
947.404	178.15507
947.578	135.97399
947.752	127.53879
947.927	161.28164
948.101	133.86516
948.276	201.3582
948.45	138.08285
948.624	180.26435
948.799	216.12509
948.973	218.23472
949.147	112.77803
949.321	226.67346
949.496	135.97399
949.67	163.39074
949.844	195.02983
950.018	142.30062
950.193	152.84542
950.367	188.70164
950.541	184.48295
950.715	152.84542
950.889	184.48295
951.063	207.68674
951.237	100.12679
951.411	222.45405
951.585	180.26435
951.759	207.68674
951.933	163.39074
952.107	254.10153
952.281	144.40954
952.455	224.56375
952.629	207.68674
952.803	222.45405
952.977	228.7832
953.151	201.3582
953.325	154.95444
953.499	226.67346
953.672	140.19172
953.846	135.97399
954.02	228.7832
954.194	201.3582
954.368	178.15507
954.541	127.53879
954.715	110.66943
954.889	211.90588
955.062	104.34378
955.236	199.24872
955.41	167.60902
955.583	121.21262
955.757	123.32132
955.93	243.55189
956.104	176.04582
956.278	192.92041
956.451	249.88161
956.625	169.71819
956.798	163.39074
956.972	176.04582
957.145	171.82738
957.319	171.82738
957.492	192.92041
957.665	171.82738
957.839	186.59229
958.012	150.73642
958.185	157.06349
958.359	146.51847
958.532	184.48295
958.705	192.92041
958.879	169.71819
959.052	167.60902
959.225	258.32152
959.398	142.30062
959.572	201.3582
959.745	226.67346
959.918	121.21262
960.091	129.64756
960.264	245.66178
960.438	144.40954
960.611	159.17255
960.784	152.84542
960.957	159.17255
961.13	148.62743
961.303	180.26435
961.476	207.68674
961.649	188.70164
961.822	220.34438
961.995	209.7963
962.168	235.11252
962.341	133.86516
962.514	222.45405
962.686	110.66943
962.859	243.55189
963.032	167.60902
963.205	277.31241
963.378	197.13926
963.551	184.48295
963.723	186.59229
963.896	218.23472
964.069	192.92041
964.242	140.19172
964.414	211.90588
964.587	116.99528
964.76	146.51847
964.932	116.99528
965.105	129.64756
965.278	169.71819
965.45	123.32132
965.623	74.82672
965.795	218.23472
965.968	148.62743
966.14	131.75635
966.313	135.97399
966.485	169.71819
966.658	226.67346
966.83	171.82738
967.003	55.85379
967.175	131.75635
967.348	195.02983
967.52	95.90989
967.692	108.56086
967.865	157.06349
968.037	142.30062
968.209	176.04582
968.382	161.28164
968.554	127.53879
968.726	104.34378
968.898	135.97399
969.071	180.26435
969.243	36.88273
969.415	131.75635
969.587	133.86516
969.759	100.12679
969.932	70.61035
970.104	66.39408
970.276	150.73642
970.448	108.56086
970.62	70.61035
970.792	98.01833
970.964	163.39074
971.136	184.48295
971.308	106.45231
971.48	184.48295
971.652	100.12679
971.824	127.53879
971.996	138.08285
972.168	167.60902
972.339	93.80147
972.511	91.69308
972.683	98.01833
972.855	159.17255
973.027	68.5022
973.199	108.56086
973.37	133.86516
973.542	163.39074
973.714	79.04317
973.886	112.77803
974.057	146.51847
974.229	125.43005
974.401	66.39408
974.572	51.63784
974.744	125.43005
974.915	127.53879
975.087	51.63784
975.259	138.08285
975.43	144.40954
975.602	133.86516
975.773	62.17789
975.945	144.40954
976.116	81.15143
976.288	41.09836
976.459	142.30062
976.63	62.17789
976.802	114.88664
976.973	83.25972
977.145	127.53879
977.316	89.5847
977.487	146.51847
977.659	62.17789
977.83	57.9618
978.001	43.20621
978.172	150.73642
978.344	108.56086
978.515	106.45231
978.686	112.77803
978.857	62.17789
979.028	32.66719
979.2	119.10394
979.371	41.09836
979.542	41.09836
979.713	102.23527
979.884	104.34378
980.055	95.90989
980.226	70.61035
980.397	123.32132
980.568	100.12679
980.739	47.42198
980.91	131.75635
981.081	72.71852
981.252	142.30062
981.423	125.43005
981.594	74.82672
981.765	114.88664
981.936	85.36802
982.106	5.26851
982.277	108.56086
982.448	70.61035
982.619	62.17789
982.79	17.91356
982.96	93.80147
983.131	20.02115
983.302	9.48343
983.472	87.47635
983.643	5.26851
983.814	57.9618
983.984	79.04317
984.155	60.06984
984.326	3.16109
984.496	70.61035
984.667	74.82672
984.837	49.5299
985.008	83.25972
985.178	20.02115
985.349	125.43005
985.519	34.77495
985.69	57.9618
985.86	91.69308
986.031	49.5299
986.201	53.7458
986.371	7.37596
986.542	28.45175
986.712	-49.51657
986.882	74.82672
987.053	100.12679
987.223	43.20621
987.393	53.7458
987.563	68.5022
987.734	81.15143
987.904	55.85379
988.074	83.25972
988.244	43.20621
988.414	129.64756
988.585	24.2364
988.755	26.34407
988.925	53.7458
989.095	49.5299
989.265	24.2364
989.435	57.9618
989.605	93.80147
989.775	36.88273
989.945	81.15143
990.115	15.80599
990.285	72.71852
990.455	-1.05368
990.625	116.99528
990.795	74.82672
990.965	159.17255
991.134	51.63784
991.304	95.90989
991.474	76.93493
991.644	41.09836
991.814	45.31408
991.984	55.85379
992.153	32.66719
992.323	7.37596
992.493	26.34407
992.662	83.25972
992.832	45.31408
993.002	41.09836
993.171	1.05369
993.341	104.34378
993.511	-30.55439
993.68	22.12877
993.85	26.34407
994.019	32.66719
994.189	68.5022
994.358	15.80599
994.528	108.56086
994.697	36.88273
994.867	66.39408
995.036	-7.37567
995.206	55.85379
995.375	9.48343
995.544	57.9618
995.714	45.31408
995.883	79.04317
996.052	32.66719
996.222	15.80599
996.391	62.17789
996.56	-3.16104
996.73	32.66719
996.899	41.09836
997.068	74.82672
997.237	-9.48295
997.406	-5.26836
997.576	62.17789
997.745	7.37596
997.914	68.5022
998.083	-22.12611
998.252	57.9618
998.421	26.34407
998.59	-34.76838
998.759	9.48343
998.928	-9.48295
999.097	41.09836
999.266	87.47635
999.435	87.47635
999.604	53.7458
999.773	41.09836
999.942	116.99528
1000.111	49.5299
1000.28	17.91356
1000.448	26.34407
1000.617	74.82672
1000.786	91.69308
1000.955	55.85379
1001.124	-9.48295
1001.292	100.12679
1001.461	53.7458
1001.63	62.17789
1001.798	24.2364
1001.967	-38.98228
1002.136	60.06984
1002.304	68.5022
1002.473	34.77495
1002.642	24.2364
1002.81	13.69845
1002.979	22.12877
1003.147	81.15143
1003.316	45.31408
1003.484	41.09836
1003.653	76.93493
1003.821	3.16109
1003.99	34.77495
1004.158	24.2364
1004.327	28.45175
1004.495	43.20621
1004.663	20.02115
1004.832	32.66719
1005	32.66719
1005.168	-1.05368
1005.337	36.88273
1005.505	-1.05368
1005.673	36.88273
1005.842	66.39408
1006.01	32.66719
1006.178	17.91356
1006.346	83.25972
1006.514	43.20621
1006.683	72.71852
1006.851	32.66719
1007.019	45.31408
1007.187	41.09836
1007.355	-1.05368
1007.523	57.9618
1007.691	43.20621
1007.859	-13.69743
1008.027	36.88273
1008.195	-9.48295
1008.363	57.9618
1008.531	20.02115
1008.699	45.31408
1008.867	74.82672
1009.035	91.69308
1009.203	9.48343
1009.37	32.66719
1009.538	28.45175
1009.706	41.09836
1009.874	32.66719
1010.042	38.99053
1010.209	49.5299
1010.377	51.63784
1010.545	-3.16104
1010.713	51.63784
1010.88	-34.76838
1011.048	57.9618
1011.216	85.36802
1011.383	24.2364
1011.551	-51.62336
1011.718	57.9618
1011.886	28.45175
1012.054	36.88273
1012.221	20.02115
1012.389	41.09836
1012.556	15.80599
1012.724	74.82672
1012.891	66.39408
1013.058	36.88273
1013.226	-17.91182
1013.393	45.31408
1013.561	60.06984
1013.728	7.37596
1013.895	41.09836
1014.063	43.20621
1014.23	-9.48295
1014.397	-26.3403
1014.565	68.5022
1014.732	32.66719
1014.899	20.02115
1015.066	66.39408
1015.233	66.39408
1015.401	53.7458
1015.568	24.2364
1015.735	-17.91182
1015.902	9.48343
1016.069	64.28597
1016.236	-1.05368
1016.403	-9.48295
1016.57	53.7458
1016.737	91.69308
1016.904	-15.80464
1017.071	20.02115
1017.238	-20.01897
1017.405	7.37596
1017.572	11.59093
1017.739	-17.91182
1017.906	70.61035
1018.073	20.02115
1018.24	93.80147
1018.407	24.2364
1018.573	-38.98228
1018.74	55.85379
1018.907	11.59093
1019.074	-9.48295
1019.241	87.47635
1019.407	66.39408
1019.574	38.99053
1019.741	53.7458
1019.907	34.77495
1020.074	-17.91182
1020.241	-1.05368
1020.407	-30.55439
1020.574	95.90989
1020.74	-74.79631
1020.907	-43.19607
1021.073	-38.98228
1021.24	57.9618
1021.406	108.56086
1021.573	7.37596
1021.739	24.2364
1021.906	-7.37567
1022.072	17.91356
1022.239	66.39408
1022.405	102.23527
1022.571	15.80599
1022.738	-32.6614
1022.904	7.37596
1023.07	1.05369
1023.237	15.80599
1023.403	-7.37567
1023.569	15.80599
1023.735	-26.3403
1023.902	-9.48295
1024.068	34.77495
1024.234	26.34407
1024.4	51.63784
1024.566	104.34378
1024.732	-1.05368
1024.898	11.59093
1025.065	26.34407
1025.231	-55.83685
1025.397	28.45175
1025.563	74.82672
1025.729	15.80599
1025.895	-17.91182
1026.061	-24.23321
1026.227	32.66719
1026.392	13.69845
1026.558	32.66719
1026.724	-15.80464
1026.89	32.66719
1027.056	22.12877
1027.222	15.80599
1027.388	62.17789
1027.553	-76.90279
1027.719	28.45175
1027.885	-26.3403
1028.051	-57.94356
1028.216	20.02115
1028.382	-17.91182
1028.548	22.12877
1028.713	116.99528
1028.879	11.59093
1029.045	66.39408
1029.21	7.37596
1029.376	-15.80464
1029.541	32.66719
1029.707	20.02115
1029.873	-68.47672
1030.038	36.88273
1030.204	7.37596
1030.369	51.63784
1030.534	9.48343
1030.7	-15.80464
1030.865	-34.76838
1031.031	26.34407
1031.196	-7.37567
1031.361	47.42198
1031.527	9.48343
1031.692	43.20621
1031.857	24.2364
1032.023	47.42198
1032.188	9.48343
1032.353	24.2364
1032.518	-51.62336
1032.684	43.20621
1032.849	70.61035
1033.014	57.9618
1033.179	5.26851
1033.344	-7.37567
1033.509	-17.91182
1033.674	49.5299
1033.839	45.31408
1034.004	36.88273
1034.17	28.45175
1034.335	30.55946
1034.5	47.42198
1034.664	38.99053
1034.829	-24.23321
1034.994	32.66719
1035.159	5.26851
1035.324	-5.26836
1035.489	-24.23321
1035.654	7.37596
1035.819	3.16109
1035.984	62.17789
1036.148	-11.5902
1036.313	38.99053
1036.478	9.48343
1036.643	1.05369
1036.807	102.23527
1036.972	26.34407
1037.137	-26.3403
1037.301	3.16109
1037.466	53.7458
1037.631	60.06984
1037.795	20.02115
1037.96	43.20621
1038.124	-5.26836
1038.289	24.2364
1038.454	62.17789
1038.618	32.66719
1038.783	-11.5902
1038.947	-3.16104
1039.111	55.85379
1039.276	-3.16104
1039.44	-17.91182
1039.605	51.63784
1039.769	-32.6614
1039.933	7.37596
1040.098	45.31408
1040.262	36.88273
1040.426	32.66719
1040.591	34.77495
1040.755	-38.98228
1040.919	-5.26836
1041.083	5.26851
1041.248	32.66719
1041.412	43.20621
1041.576	-3.16104
1041.74	-60.05024
1041.904	64.28597
1042.068	91.69308
1042.232	7.37596
1042.397	57.9618
1042.561	7.37596
1042.725	20.02115
1042.889	-9.48295
1043.053	62.17789
1043.217	22.12877
1043.381	24.2364
1043.544	32.66719
1043.708	51.63784
1043.872	41.09836
1044.036	-34.76838
1044.2	79.04317
1044.364	-1.05368
1044.528	98.01833
1044.691	20.02115
1044.855	-22.12611
1045.019	-32.6614
1045.183	17.91356
1045.346	28.45175
1045.51	32.66719
1045.674	53.7458
1045.837	34.77495
1046.001	76.93493
1046.165	-28.44736
1046.328	17.91356
1046.492	15.80599
1046.655	-9.48295
1046.819	45.31408
1046.983	36.88273
1047.146	15.80599
1047.31	26.34407
1047.473	72.71852
1047.636	9.48343
1047.8	49.5299
1047.963	-30.55439
1048.127	24.2364
1048.29	34.77495
