Data from Scatter_Coeff_Baseline_USB4F045381__33__0033.txt Node

Date: Thu Feb 13 19:22:54 EST 2025
User: mmckonesweet
Spectrometer: USB4F04538
Trigger mode: 4
Integration Time (sec): 2.400000E-3
Scans to average: 1
Electric dark correction enabled: true
Nonlinearity correction enabled: true
Boxcar width: 0
XAxis mode: Wavelengths
Number of Pixels in Spectrum: 3648
>>>>>Begin Spectral Data<<<<<
345.52	16.68414
345.736	16.68414
345.952	16.68414
346.168	-42.31821
346.384	-35.99745
346.6	-50.74553
346.816	8.25407
347.032	-14.92664
347.248	-46.53192
347.464	-4.39031
347.68	-21.24814
347.896	50.4082
348.112	4.03918
348.328	25.11459
348.544	63.05626
348.76	33.54542
348.975	-46.53192
349.191	18.79172
349.407	-40.21131
349.623	-61.27913
349.839	-0.17561
350.055	-31.78348
350.27	25.11459
350.486	-50.74553
350.702	20.89932
350.918	33.54542
351.133	-31.78348
351.349	6.14661
351.565	-38.10439
351.781	-4.39031
351.996	-38.10439
352.212	-33.89048
352.428	12.46906
352.644	-25.46235
352.859	-23.35526
353.075	14.57659
353.291	-2.28298
353.506	65.16435
353.722	-59.17246
353.938	-92.87609
354.153	-67.59898
354.369	-42.31821
354.584	-21.24814
354.8	-63.38577
355.016	-17.03383
355.231	16.68414
355.447	20.89932
355.662	-23.35526
355.878	-67.59898
356.093	33.54542
356.309	-17.03383
356.524	-0.17561
356.74	-23.35526
356.955	-38.10439
357.171	-33.89048
357.386	-76.0251
357.602	4.03918
357.817	-38.10439
358.033	-21.24814
358.248	-23.35526
358.464	-25.46235
358.679	-27.56942
358.895	-33.89048
359.11	-40.21131
359.325	6.14661
359.541	-2.28298
359.756	-8.60492
359.972	-42.31821
360.187	-8.60492
360.402	-42.31821
360.618	54.62413
360.833	-57.06577
361.048	1.93177
361.264	-4.39031
361.479	10.36155
361.694	-59.17246
361.909	-86.55716
362.125	-6.49763
362.34	-0.17561
362.555	18.79172
362.77	23.00695
362.986	-10.71218
363.201	-33.89048
363.416	-33.89048
363.631	8.25407
363.847	-42.31821
364.062	-23.35526
364.277	-6.49763
364.492	37.76098
364.707	-33.89048
364.922	31.43768
365.138	-42.31821
365.353	75.70514
365.568	71.48875
365.783	14.57659
365.998	-59.17246
366.213	1.93177
366.428	-90.7698
366.643	-52.8523
366.858	27.22227
367.073	48.30027
367.288	-42.31821
367.503	35.65319
367.718	-50.74553
367.933	-35.99745
368.148	-42.31821
368.363	8.25407
368.578	-8.60492
368.793	41.97663
369.008	-0.17561
369.223	-46.53192
369.438	12.46906
369.653	27.22227
369.868	52.51615
370.083	12.46906
370.298	-67.59898
370.513	-12.81942
370.728	-92.87609
370.943	1.93177
371.157	-6.49763
371.372	-17.03383
371.587	105.22233
371.802	16.68414
372.017	-33.89048
372.232	-38.10439
372.446	-50.74553
372.661	12.46906
372.876	16.68414
373.091	-31.78348
373.306	-59.17246
373.52	1.93177
373.735	8.25407
373.95	1.93177
374.165	8.25407
374.379	18.79172
374.594	41.97663
374.809	-52.8523
375.023	35.65319
375.238	-50.74553
375.453	25.11459
375.667	20.89932
375.882	-25.46235
376.097	18.79172
376.311	-17.03383
376.526	-14.92664
376.741	-10.71218
376.955	-23.35526
377.17	-25.46235
377.384	75.70514
377.599	-10.71218
377.813	23.00695
378.028	-48.63874
378.242	-0.17561
378.457	-31.78348
378.672	-92.87609
378.886	35.65319
379.101	71.48875
379.315	1.93177
379.53	1.93177
379.744	-10.71218
379.958	1.93177
380.173	-38.10439
380.387	37.76098
380.602	-21.24814
380.816	16.68414
381.031	-21.24814
381.245	1.93177
381.459	63.05626
381.674	-17.03383
381.888	41.97663
382.103	-17.03383
382.317	-2.28298
382.531	18.79172
382.746	-8.60492
382.96	-63.38577
383.174	-33.89048
383.388	1.93177
383.603	18.79172
383.817	-12.81942
384.031	-6.49763
384.246	-57.06577
384.46	18.79172
384.674	-50.74553
384.888	50.4082
385.103	-0.17561
385.317	20.89932
385.531	-40.21131
385.745	1.93177
385.959	84.13817
386.174	-8.60492
386.388	58.84015
386.602	-12.81942
386.816	63.05626
387.03	-12.81942
387.244	12.46906
387.458	-4.39031
387.672	98.89685
387.887	4.03918
388.101	27.22227
388.315	-0.17561
388.529	12.46906
388.743	41.97663
388.957	50.4082
389.171	-25.46235
389.385	-50.74553
389.599	-33.89048
389.813	-54.95905
390.027	-31.78348
390.241	27.22227
390.455	33.54542
390.669	39.86879
390.883	-33.89048
391.097	58.84015
391.311	-50.74553
391.525	-42.31821
391.738	65.16435
391.952	-17.03383
392.166	14.57659
392.38	-0.17561
392.594	-50.74553
392.808	-38.10439
393.022	20.89932
393.236	-0.17561
393.449	-25.46235
393.663	29.32996
393.877	-17.03383
394.091	33.54542
394.305	-63.38577
394.518	-50.74553
394.732	-17.03383
394.946	-6.49763
395.16	-21.24814
395.373	-76.0251
395.587	-33.89048
395.801	-29.67646
396.015	-2.28298
396.228	8.25407
396.442	-21.24814
396.656	-17.03383
396.869	25.11459
397.083	12.46906
397.297	33.54542
397.51	-67.59898
397.724	29.32996
397.938	-12.81942
398.151	1.93177
398.365	-4.39031
398.578	-76.0251
398.792	8.25407
399.005	1.93177
399.219	-52.8523
399.433	-29.67646
399.646	-42.31821
399.86	-33.89048
400.073	10.36155
400.287	-21.24814
400.5	12.46906
400.714	-27.56942
400.927	44.08449
401.141	-33.89048
401.354	1.93177
401.567	-46.53192
401.781	-19.141
401.994	-8.60492
402.208	27.22227
402.421	-31.78348
402.635	4.03918
402.848	29.32996
403.061	-97.08857
403.275	20.89932
403.488	-27.56942
403.701	67.27246
403.915	-10.71218
404.128	-8.60492
404.341	4.03918
404.555	25.11459
404.768	46.19237
404.981	-0.17561
405.195	12.46906
405.408	52.51615
405.621	20.89932
405.834	-54.95905
406.048	-21.24814
406.261	-6.49763
406.474	25.11459
406.687	16.68414
406.9	20.89932
407.114	-21.24814
407.327	-54.95905
407.54	25.11459
407.753	25.11459
407.966	-59.17246
408.179	-17.03383
408.392	1.93177
408.605	-21.24814
408.819	-42.31821
409.032	-40.21131
409.245	41.97663
409.458	18.79172
409.671	-17.03383
409.884	54.62413
410.097	-71.81209
410.31	4.03918
410.523	-0.17561
410.736	4.03918
410.949	-4.39031
411.162	-23.35526
411.375	-10.71218
411.588	8.25407
411.801	-0.17561
412.014	-33.89048
412.227	8.25407
412.44	-50.74553
412.653	-35.99745
412.865	16.68414
413.078	-29.67646
413.291	8.25407
413.504	-42.31821
413.717	14.57659
413.93	-23.35526
414.143	37.76098
414.356	-25.46235
414.568	-40.21131
414.781	-65.49239
414.994	-29.67646
415.207	12.46906
415.42	-31.78348
415.632	-33.89048
415.845	-21.24814
416.058	4.03918
416.271	-8.60492
416.483	67.27246
416.696	-42.31821
416.909	65.16435
417.121	-12.81942
417.334	-46.53192
417.547	8.25407
417.759	-4.39031
417.972	-2.28298
418.185	-42.31821
418.397	58.84015
418.61	33.54542
418.823	48.30027
419.035	12.46906
419.248	10.36155
419.46	101.00532
419.673	12.46906
419.885	-8.60492
420.098	-82.34441
420.311	12.46906
420.523	35.65319
420.736	-23.35526
420.948	54.62413
421.161	-8.60492
421.373	12.46906
421.586	23.00695
421.798	12.46906
422.01	16.68414
422.223	-8.60492
422.435	-10.71218
422.648	50.4082
422.86	4.03918
423.073	-23.35526
423.285	-38.10439
423.497	-8.60492
423.71	54.62413
423.922	-38.10439
424.134	-42.31821
424.347	-10.71218
424.559	12.46906
424.771	18.79172
424.984	-80.238
425.196	-76.0251
425.408	27.22227
425.621	-8.60492
425.833	-25.46235
426.045	65.16435
426.257	84.13817
426.47	16.68414
426.682	-23.35526
426.894	-0.17561
427.106	-63.38577
427.318	8.25407
427.531	-67.59898
427.743	1.93177
427.955	25.11459
428.167	52.51615
428.379	-42.31821
428.591	33.54542
428.804	-31.78348
429.016	-59.17246
429.228	-54.95905
429.44	-25.46235
429.652	-14.92664
429.864	56.73213
430.076	6.14661
430.288	8.25407
430.5	-12.81942
430.712	-8.60492
430.924	-8.60492
431.136	-8.60492
431.348	-42.31821
431.56	-76.0251
431.772	31.43768
431.984	18.79172
432.196	-25.46235
432.408	18.79172
432.62	-21.24814
432.832	39.86879
433.044	-6.49763
433.256	37.76098
433.468	-57.06577
433.679	10.36155
433.891	71.48875
434.103	41.97663
434.315	-8.60492
434.527	16.68414
434.739	-54.95905
434.95	-33.89048
435.162	-4.39031
435.374	44.08449
435.586	-2.28298
435.798	-12.81942
436.009	35.65319
436.221	4.03918
436.433	-14.92664
436.645	-25.46235
436.856	27.22227
437.068	33.54542
437.28	-21.24814
437.491	67.27246
437.703	-31.78348
437.915	-54.95905
438.126	-29.67646
438.338	71.48875
438.55	-42.31821
438.761	60.94819
438.973	8.25407
439.184	4.03918
439.396	-31.78348
439.608	-42.31821
439.819	-14.92664
440.031	8.25407
440.242	29.32996
440.454	52.51615
440.665	-14.92664
440.877	-6.49763
441.088	-33.89048
441.3	-17.03383
441.511	-21.24814
441.723	16.68414
441.934	-48.63874
442.146	41.97663
442.357	54.62413
442.569	6.14661
442.78	10.36155
442.991	-82.34441
443.203	37.76098
443.414	16.68414
443.626	-4.39031
443.837	-82.34441
444.048	41.97663
444.26	-21.24814
444.471	8.25407
444.682	-38.10439
444.894	-84.4508
445.105	63.05626
445.316	-48.63874
445.528	1.93177
445.739	25.11459
445.95	-4.39031
446.161	39.86879
446.373	-31.78348
446.584	-14.92664
446.795	20.89932
447.006	-23.35526
447.217	16.68414
447.429	10.36155
447.64	58.84015
447.851	-82.34441
448.062	4.03918
448.273	44.08449
448.484	20.89932
448.695	-17.03383
448.907	-6.49763
449.118	-50.74553
449.329	23.00695
449.54	10.36155
449.751	31.43768
449.962	10.36155
450.173	-17.03383
450.384	29.32996
450.595	-0.17561
450.806	-31.78348
451.017	-21.24814
451.228	58.84015
451.439	-59.17246
451.65	-27.56942
451.861	-71.81209
452.072	8.25407
452.283	41.97663
452.494	-21.24814
452.705	16.68414
452.915	8.25407
453.126	58.84015
453.337	35.65319
453.548	69.38059
453.759	12.46906
453.97	-50.74553
454.181	-21.24814
454.391	-8.60492
454.602	44.08449
454.813	-19.141
455.024	-6.49763
455.235	-10.71218
455.445	-0.17561
455.656	33.54542
455.867	-57.06577
456.078	54.62413
456.288	-6.49763
456.499	39.86879
456.71	16.68414
456.921	14.57659
457.131	-8.60492
457.342	23.00695
457.553	71.48875
457.763	-21.24814
457.974	48.30027
458.184	101.00532
458.395	-4.39031
458.606	-50.74553
458.816	88.35483
459.027	8.25407
459.237	-4.39031
459.448	-42.31821
459.659	-67.59898
459.869	-2.28298
460.08	-33.89048
460.29	-12.81942
460.501	41.97663
460.711	27.22227
460.922	-57.06577
461.132	-69.70555
461.343	-17.03383
461.553	58.84015
461.764	29.32996
461.974	-73.91861
462.184	20.89932
462.395	1.93177
462.605	-0.17561
462.816	-48.63874
463.026	27.22227
463.236	50.4082
463.447	-38.10439
463.657	37.76098
463.867	16.68414
464.078	12.46906
464.288	33.54542
464.498	-14.92664
464.709	-42.31821
464.919	-42.31821
465.129	69.38059
465.339	-38.10439
465.55	18.79172
465.76	-0.17561
465.97	58.84015
466.18	16.68414
466.391	35.65319
466.601	12.46906
466.811	-8.60492
467.021	18.79172
467.231	14.57659
467.441	73.59693
467.651	54.62413
467.862	-33.89048
468.072	-31.78348
468.282	58.84015
468.492	23.00695
468.702	-0.17561
468.912	-6.49763
469.122	-48.63874
469.332	8.25407
469.542	33.54542
469.752	-31.78348
469.962	-76.0251
470.172	10.36155
470.382	-17.03383
470.592	-52.8523
470.802	35.65319
471.012	25.11459
471.222	8.25407
471.432	-4.39031
471.642	-8.60492
471.852	14.57659
472.062	58.84015
472.272	8.25407
472.482	4.03918
472.691	90.46319
472.901	-0.17561
473.111	29.32996
473.321	37.76098
473.531	29.32996
473.741	50.4082
473.95	16.68414
474.16	-2.28298
474.37	14.57659
474.58	46.19237
474.79	1.93177
474.999	46.19237
475.209	16.68414
475.419	58.84015
475.628	37.76098
475.838	-17.03383
476.048	41.97663
476.258	162.16043
476.467	-42.31821
476.677	-46.53192
476.886	-8.60492
477.096	27.22227
477.306	-10.71218
477.515	29.32996
477.725	-35.99745
477.935	10.36155
478.144	60.94819
478.354	33.54542
478.563	16.68414
478.773	69.38059
478.982	20.89932
479.192	27.22227
479.401	35.65319
479.611	-59.17246
479.82	67.27246
480.03	-8.60492
480.239	63.05626
480.449	-10.71218
480.658	94.67998
480.868	44.08449
481.077	-27.56942
481.287	25.11459
481.496	86.24649
481.705	46.19237
481.915	16.68414
482.124	-25.46235
482.333	65.16435
482.543	-17.03383
482.752	-59.17246
482.961	54.62413
483.171	12.46906
483.38	1.93177
483.589	25.11459
483.799	-25.46235
484.008	25.11459
484.217	8.25407
484.426	29.32996
484.636	-59.17246
484.845	-8.60492
485.054	41.97663
485.263	8.25407
485.472	-21.24814
485.682	29.32996
485.891	12.46906
486.1	-25.46235
486.309	27.22227
486.518	71.48875
486.727	69.38059
486.936	-48.63874
487.146	18.79172
487.355	103.11382
487.564	75.70514
487.773	-50.74553
487.982	-0.17561
488.191	20.89932
488.4	69.38059
488.609	-25.46235
488.818	-27.56942
489.027	4.03918
489.236	60.94819
489.445	8.25407
489.654	12.46906
489.863	27.22227
490.072	41.97663
490.281	8.25407
490.49	31.43768
490.698	-33.89048
490.907	-4.39031
491.116	84.13817
491.325	18.79172
491.534	-38.10439
491.743	10.36155
491.952	-33.89048
492.16	12.46906
492.369	8.25407
492.578	-0.17561
492.787	14.57659
492.996	58.84015
493.204	52.51615
493.413	84.13817
493.622	101.00532
493.831	48.30027
494.039	29.32996
494.248	-76.0251
494.457	-31.78348
494.665	-2.28298
494.874	50.4082
495.083	41.97663
495.291	10.36155
495.5	4.03918
495.709	48.30027
495.917	67.27246
496.126	27.22227
496.335	69.38059
496.543	75.70514
496.752	101.00532
496.96	31.43768
497.169	33.54542
497.377	16.68414
497.586	109.43943
497.794	35.65319
498.003	48.30027
498.211	71.48875
498.42	37.76098
498.628	84.13817
498.837	35.65319
499.045	-12.81942
499.254	35.65319
499.462	1.93177
499.671	58.84015
499.879	90.46319
500.087	96.7884
500.296	4.03918
500.504	35.65319
500.713	65.16435
500.921	33.54542
501.129	67.27246
501.338	75.70514
501.546	50.4082
501.754	8.25407
501.962	71.48875
502.171	41.97663
502.379	84.13817
502.587	101.00532
502.795	44.08449
503.004	65.16435
503.212	77.81336
503.42	37.76098
503.628	20.89932
503.837	1.93177
504.045	41.97663
504.253	126.30869
504.461	50.4082
504.669	111.54801
504.877	90.46319
505.085	122.09124
505.294	84.13817
505.502	113.65661
505.71	79.92161
505.918	16.68414
506.126	92.57157
506.334	162.16043
506.542	33.54542
506.75	29.32996
506.958	44.08449
507.166	96.7884
507.374	52.51615
507.582	94.67998
507.79	138.96154
507.998	187.47118
508.206	143.17933
508.414	71.48875
508.622	69.38059
508.83	37.76098
509.037	193.79933
509.245	33.54542
509.453	67.27246
509.661	168.48784
509.869	71.48875
510.077	69.38059
510.285	65.16435
510.492	71.48875
510.7	73.59693
510.908	69.38059
511.116	96.7884
511.324	75.70514
511.531	113.65661
511.739	54.62413
511.947	67.27246
512.155	88.35483
512.362	96.7884
512.57	94.67998
512.778	105.22233
512.985	69.38059
513.193	103.11382
513.401	84.13817
513.608	82.02988
513.816	98.89685
514.024	90.46319
514.231	113.65661
514.439	151.61516
514.646	145.28826
514.854	126.30869
515.061	103.11382
515.269	60.94819
515.477	160.05133
515.684	67.27246
515.892	98.89685
516.099	67.27246
516.307	90.46319
516.514	132.63502
516.722	84.13817
516.929	160.05133
517.136	141.07043
517.344	170.59702
517.551	82.02988
517.759	111.54801
517.966	128.41744
518.173	105.22233
518.381	130.52622
518.588	111.54801
518.796	84.13817
519.003	176.92467
519.21	162.16043
519.418	126.30869
519.625	84.13817
519.832	162.16043
520.039	206.45618
520.247	141.07043
520.454	113.65661
520.661	198.0182
520.868	41.97663
521.076	136.85268
521.283	130.52622
521.49	181.14322
521.697	128.41744
521.904	200.12766
522.112	160.05133
522.319	187.47118
522.526	219.11374
522.733	117.87389
522.94	124.19996
523.147	238.10143
523.354	166.37868
523.561	210.67529
523.768	193.79933
523.975	191.68993
524.183	204.34665
524.39	265.53084
524.597	164.26954
524.804	181.14322
525.011	168.48784
525.218	212.78487
525.425	54.62413
525.632	149.50617
525.838	223.33309
526.045	168.48784
526.252	195.90876
526.459	320.39917
526.666	191.68993
526.873	202.23715
527.08	214.89448
527.287	282.41208
527.494	149.50617
527.701	269.75104
527.907	231.77202
528.114	193.79933
528.321	252.87071
528.528	206.45618
528.735	147.39721
528.941	242.32113
529.148	210.67529
529.355	271.86117
529.562	204.34665
529.768	267.64093
529.975	189.58055
530.182	278.19166
530.388	149.50617
530.595	229.66226
530.802	225.4428
531.008	284.52232
531.215	227.55252
531.422	189.58055
531.628	240.21127
531.835	261.31072
532.042	257.09068
532.248	235.99161
532.455	269.75104
532.661	282.41208
532.868	221.22341
533.074	269.75104
533.281	316.17809
533.487	307.73615
533.694	269.75104
533.9	409.05781
534.107	269.75104
534.313	280.30186
534.52	299.2945
534.726	343.61636
534.933	244.431
535.139	339.39489
535.345	286.63257
535.552	337.28419
535.758	352.0595
535.965	352.0595
536.171	339.39489
536.377	326.73092
536.584	343.61636
536.79	303.51529
536.996	394.2793
537.203	428.0599
537.409	381.61266
537.615	349.94869
537.821	392.16815
538.028	398.50165
538.234	316.17809
538.44	394.2793
538.646	349.94869
538.853	421.72573
539.059	328.84154
539.265	366.83566
539.471	320.39917
539.677	404.83529
539.883	282.41208
540.09	413.28038
540.296	364.72473
540.502	421.72573
540.708	406.94654
540.914	466.06793
541.12	438.61718
541.326	404.83529
541.532	421.72573
541.738	461.84457
541.944	434.39422
542.15	546.32299
542.356	354.17033
542.562	510.41683
542.768	455.50964
542.974	548.43524
543.18	457.62127
543.386	539.98631
543.592	470.29135
543.798	535.76193
544.004	453.39803
544.21	539.98631
544.415	499.85698
544.621	527.31334
544.827	434.39422
545.033	575.89576
545.239	558.99671
545.445	489.29749
545.651	463.95624
545.856	582.23313
546.062	542.09852
546.268	628.71068
546.474	438.61718
546.679	504.08088
546.885	472.40309
547.091	561.10904
547.297	552.65979
547.502	620.25976
547.708	533.64976
547.914	580.12066
548.119	628.71068
548.325	647.72597
548.531	455.50964
548.736	597.02077
548.942	573.78333
549.147	607.58375
549.353	573.78333
549.559	531.53761
549.764	624.48519
549.97	677.30723
550.175	603.35852
550.381	702.6644
550.586	558.99671
550.792	730.13647
550.997	641.38743
551.203	734.3631
551.408	713.23036
551.614	725.90988
551.819	702.6644
552.025	785.08593
552.23	616.03437
552.435	709.00395
552.641	694.21183
552.846	778.74526
553.052	759.72379
553.257	740.70313
553.462	759.72379
553.668	842.15579
553.873	721.68333
554.078	793.54029
554.283	728.02317
554.489	675.19421
554.694	649.83884
554.899	776.63172
555.105	766.06419
555.31	941.51459
555.515	827.35926
555.72	835.81437
555.925	795.65391
556.131	808.3358
556.336	768.17767
556.541	787.19951
556.746	795.65391
556.951	865.40836
557.156	730.13647
557.361	1030.31699
557.567	785.08593
557.772	983.8
557.977	831.58679
558.182	861.18054
558.387	882.31996
558.592	933.05785
558.797	903.4602
559.002	920.37296
559.207	1021.85913
559.412	895.00401
559.617	998.60053
559.822	852.72501
560.027	863.29445
560.232	1026.08805
560.437	939.40039
560.642	979.57133
560.847	983.8
561.051	1032.43147
561.256	873.8641
561.461	981.68566
561.666	988.02869
561.871	1009.17253
562.076	992.2574
562.281	1110.67107
562.485	1004.94371
562.69	1064.14935
562.895	1081.06605
563.1	1121.24452
563.305	1026.08805
563.509	1218.52513
563.714	1045.11847
563.919	1207.95077
564.123	1117.01513
564.328	1081.06605
564.533	1038.77494
564.737	1140.27702
564.942	1049.34751
565.147	1207.95077
565.351	1030.31699
565.556	1207.95077
565.761	1127.58865
565.965	1152.96554
566.17	1106.44172
566.374	1110.67107
566.579	990.14304
566.784	1081.06605
566.988	1070.49307
567.193	1383.49304
567.397	1267.16813
567.602	1195.26165
567.806	1119.12982
568.011	1267.16813
568.215	1267.16813
568.42	1258.70837
568.624	1241.78899
568.828	1220.64001
569.033	1106.44172
569.237	1284.08777
569.442	1224.86978
569.646	1260.82331
569.85	1091.63916
570.055	1375.0329
570.259	1193.14681
570.463	1404.64346
570.668	1246.01882
570.872	1339.07749
571.076	1224.86978
571.281	1377.14793
571.485	1243.9039
571.689	1421.56384
571.893	1394.06824
572.098	1364.45774
572.302	1385.60808
572.506	1375.0329
572.71	1288.3177
572.914	1436.36919
573.119	1444.8294
573.323	1385.60808
573.527	1427.90899
573.731	1446.94445
573.935	1413.10364
574.139	1520.97113
574.343	1419.44879
574.547	1594.99673
574.751	1525.2012
574.955	1679.59464
575.159	1408.87355
575.364	1626.72138
575.568	1370.80283
575.772	1533.66134
575.976	1427.90899
576.18	1542.12146
576.383	1461.74982
576.587	1647.87087
576.791	1487.13043
576.995	1614.03157
577.199	1504.0508
577.403	1685.93932
577.607	1446.94445
577.811	1635.1812
578.015	1480.78528
578.219	1669.02012
578.422	1582.30675
578.626	1728.23648
578.83	1506.16584
579.034	1732.46613
579.238	1540.00643
579.442	1624.60641
579.645	1603.45668
579.849	1728.23648
580.053	1649.9858
580.257	1747.26977
580.46	1751.49935
580.664	1821.28515
580.868	1641.52605
581.071	1910.09624
581.275	1704.9732
581.479	1901.63843
581.682	1734.58094
581.886	1943.92658
582.09	1734.58094
582.293	1817.05584
582.497	1719.77715
582.7	1836.08759
582.904	1867.80634
583.107	1884.72255
583.311	1884.72255
583.515	1914.32511
583.718	1850.88981
583.922	1956.61257
584.125	1876.26449
584.329	1954.49825
584.532	1874.14996
584.735	1977.75541
584.939	1888.95155
585.142	2022.15333
585.346	1912.21067
585.549	2003.126
585.753	1844.54603
585.956	2121.50908
586.159	1884.72255
586.363	2045.40821
586.566	2015.81095
586.769	2132.07787
586.973	1918.55396
587.176	2172.23748
587.379	1914.32511
587.582	2134.19161
587.786	1988.3266
587.989	2254.66088
588.192	2007.35434
588.395	2036.95199
588.599	2066.54829
588.802	2235.64127
589.005	1971.41263
589.208	2081.34592
589.411	2089.80154
589.615	2239.86792
589.818	2138.41905
590.021	2330.73184
590.224	2142.64647
590.427	2214.50754
590.63	2113.0539
590.833	2206.0538
591.036	2062.32033
591.239	2296.92403
591.442	2096.14319
591.645	2400.45246
591.848	2055.97834
592.051	2275.79292
592.254	2089.80154
592.457	2413.12774
592.66	2189.14591
592.863	2444.81427
593.066	2134.19161
593.269	2385.66416
593.472	2324.39307
593.675	2569.42377
593.878	2294.81097
594.081	2472.27396
594.284	2313.82825
594.486	2653.88149
594.689	2385.66416
594.892	2628.54623
595.095	2392.00206
595.298	2330.73184
595.5	2341.29627
595.703	2472.27396
595.906	2375.10078
596.109	2436.36476
596.311	2366.6499
596.514	2630.65757
596.717	2461.71276
596.92	2620.10075
597.122	2577.87041
597.325	2584.20527
597.528	2537.74716
597.73	2708.76828
597.933	2366.6499
598.136	2636.99152
598.338	2548.30632
598.541	2715.10081
598.743	2495.50763
598.946	2626.43488
599.148	2537.74716
599.351	2605.32069
599.554	2491.28343
599.756	2852.27602
599.959	2632.7689
600.161	2890.25264
600.363	2632.7689
600.566	2860.71566
600.768	2824.84561
600.971	2788.97153
601.173	2392.00206
601.376	2803.74369
601.578	2721.43323
601.78	2907.12964
601.983	2672.88174
602.185	2748.87231
602.388	2639.10281
602.59	2778.41958
602.792	2693.99192
602.995	3006.26304
603.197	2799.52314
603.399	2932.44341
603.601	2852.27602
603.804	3042.1116
604.006	2873.37471
604.208	2987.2826
604.41	2894.47198
604.613	2989.3916
604.815	2670.77065
605.017	3077.9557
605.219	2742.54041
605.421	2957.75506
605.623	2886.03324
605.826	2991.50058
606.028	2826.95572
606.23	2942.99019
606.432	2856.49587
606.634	3223.39328
606.836	2801.63342
607.038	3164.38443
607.24	2957.75506
607.442	2953.5366
607.644	2723.544
607.846	2995.7185
608.048	2875.4845
608.25	2881.81379
608.452	2810.07441
608.654	3031.56837
608.856	2947.2088
609.058	3160.16902
609.26	2856.49587
609.462	3103.25469
609.664	3012.58958
609.866	2983.06456
610.067	3061.08845
610.269	2974.6283
610.471	2940.88086
610.673	3166.49211
610.875	3096.93015
611.077	3406.6578
611.278	2959.86426
611.48	2966.1918
611.682	3004.15416
611.884	3231.82206
612.085	3181.24541
612.287	3280.28233
612.489	3105.36283
612.69	3206.53492
612.892	3067.41378
613.094	3345.58412
613.295	3012.58958
613.497	3067.41378
613.699	3025.24224
613.9	3273.96193
614.102	3193.89046
614.304	3297.13598
614.505	3075.84735
614.707	3370.85777
614.908	3257.10679
615.11	3305.5624
615.311	3109.57908
615.513	3128.55139
615.714	3050.54591
615.916	3372.9638
616.117	3191.783
616.319	3368.75173
616.52	3050.54591
616.722	3257.10679
616.923	3265.53449
617.124	3415.08059
617.326	3084.28066
617.527	3417.18625
617.729	3265.53449
617.93	3530.86491
618.131	3404.55206
618.333	3320.30796
618.534	3075.84735
618.735	3404.55206
618.937	3195.99792
619.138	3457.19029
619.339	3210.74961
619.54	3509.81729
619.742	3450.87429
619.943	3387.70548
620.144	3177.03026
620.345	3396.12891
620.546	3223.39328
620.748	3492.97788
620.949	3391.91723
621.15	3587.68426
621.351	3406.6578
621.552	3408.76352
621.753	3326.62724
621.954	3509.81729
622.155	3398.23472
622.356	3514.02696
622.558	3412.97492
622.759	3589.78842
622.96	3404.55206
623.161	3499.2928
623.362	3438.24181
623.563	3753.85464
623.764	3459.29559
623.965	3541.38803
624.166	3252.89283
624.366	3421.3975
624.567	3339.26531
624.768	3478.24245
624.969	3379.28176
625.17	3690.766
625.371	3429.8198
625.572	3646.59367
625.773	3465.61137
625.973	3743.34107
626.174	3484.55774
626.375	3743.34107
626.576	3560.32848
626.777	3499.2928
626.977	3280.28233
627.178	3488.76785
627.379	3543.49259
627.58	3732.82702
627.78	3518.23656
627.981	3734.92987
628.182	3800.10853
628.382	3831.63983
628.583	3678.14619
628.784	3619.24471
628.984	3530.86491
629.185	3728.62127
629.386	3669.7326
629.586	3608.72503
629.787	3631.8677
629.987	3747.54656
630.188	3631.8677
630.388	3795.90402
630.589	3690.766
630.79	3892.58769
630.99	3783.29003
631.191	3884.18209
631.391	3650.80092
631.591	3800.10853
631.792	3858.96336
631.992	3810.61946
632.193	3795.90402
632.393	3762.26514
632.594	3560.32848
632.794	3884.18209
632.994	3776.98277
633.195	3758.05993
633.395	3678.14619
633.595	3823.23192
633.796	3722.31249
633.996	3732.82702
634.196	3768.57281
634.397	4033.33344
634.597	3659.21519
634.797	4010.23221
634.997	3682.35287
635.198	3959.82092
635.398	3749.64927
635.598	3936.71183
635.798	3825.33393
635.998	3907.29672
636.199	3865.26831
636.399	4165.59215
636.599	3869.47151
636.799	4077.42886
636.999	3779.08521
637.199	4006.03172
637.399	3993.42975
637.599	4203.36507
637.799	3943.01455
637.999	4033.33344
638.199	3913.60029
638.399	4077.42886
638.599	4001.83114
638.799	4052.23259
638.999	4001.83114
639.199	4215.95452
639.399	3814.82369
639.599	4125.71333
639.799	3932.50991
639.999	4071.13007
640.199	4113.11844
640.399	4291.4751
640.599	3783.29003
640.799	4383.74019
640.998	4037.53339
641.198	4129.91145
641.398	3978.72653
641.598	4228.5432
641.798	4014.43262
641.997	4098.42346
642.197	4073.22969
642.397	4241.13112
642.597	4098.42346
642.796	4406.7999
642.996	4171.88811
643.196	4075.32928
643.395	3779.08521
643.595	4245.32692
643.795	4148.80199
643.994	4450.81565
644.194	4104.72143
644.394	4163.49345
644.593	4199.16842
644.793	4289.37768
644.992	4098.42346
645.192	4276.79271
645.392	4218.05268
645.591	4522.05871
645.791	4150.90083
645.99	4534.62836
646.19	4199.16842
646.389	4574.427
646.589	4239.03318
646.788	4413.08846
646.987	4232.73926
647.187	4278.89026
647.386	4188.67641
647.586	4524.15371
647.785	4436.14481
647.984	4492.72642
648.184	4142.50533
648.383	4467.58101
648.582	4230.64124
648.782	4415.1846
648.981	4243.22903
649.18	4461.29417
649.38	4297.76723
649.579	4597.46465
649.778	4371.16106
649.977	4503.20273
650.177	4651.90653
650.376	4534.62836
650.575	4387.93306
650.774	4549.29195
650.973	4346.00044
651.173	4557.67066
651.372	4532.53348
651.571	4739.81904
651.77	4400.51115
651.969	4616.31163
652.168	4366.96784
652.367	4534.62836
652.566	4446.62409
652.765	4779.57589
652.964	4522.05871
653.163	4840.2416
653.362	4566.04901
653.561	4572.33254
653.76	4413.08846
653.959	4450.81565
654.158	4484.34497
654.357	4639.34436
654.556	4693.77459
654.755	4867.43036
654.954	4681.21511
655.153	4775.39135
655.352	4534.62836
655.551	4649.81289
655.749	4400.51115
655.948	4480.15411
656.147	4605.84131
656.346	4718.8911
656.545	4752.37472
656.743	4674.93507
656.942	4643.53184
657.141	4808.86518
657.34	4496.91701
657.538	4921.79626
657.737	4549.29195
657.936	4773.29904
658.135	4427.76099
658.333	4729.35535
658.532	4672.84168
658.731	4635.15679
658.929	4582.80464
659.128	4796.31317
659.326	4568.14354
659.525	4852.79074
659.724	4561.85988
659.922	4836.05838
660.121	4505.29793
660.319	4767.02198
660.518	4677.02844
660.716	4825.59991
660.915	4783.76035
661.113	4894.61525
661.312	4408.89611
661.51	4735.63363
661.709	4612.12357
661.907	4892.52424
662.105	4681.21511
662.304	4890.43321
662.502	4752.37472
662.701	4806.77323
662.899	4628.87527
663.097	4806.77323
663.296	4639.34436
663.494	4892.52424
663.692	4731.44813
663.891	4810.9571
664.089	4865.33905
664.287	5088.97845
664.485	4741.91171
664.684	4894.61525
664.882	4517.86865
665.08	4934.34004
665.278	4879.97771
665.476	4790.03686
665.675	4842.33318
665.873	5032.57098
666.071	4879.97771
666.269	4932.24947
666.467	4706.33325
666.665	5122.39712
666.863	4823.50815
667.061	5065.99966
667.259	4848.60778
667.457	5030.48149
667.655	4702.14712
667.853	4792.12899
668.051	4647.71923
668.249	4898.79719
668.447	4852.79074
668.645	5093.15611
668.843	4859.065
669.041	5091.06729
669.239	4917.61482
669.437	5080.62285
669.635	4888.34215
669.833	4994.95664
670.031	4823.50815
670.229	4925.97762
670.426	5076.44491
670.624	5109.86581
670.822	4714.70524
671.02	5028.39198
671.218	4932.24947
671.415	4934.34004
671.613	4831.87506
671.811	5020.0337
672.009	4934.34004
672.206	5139.10423
672.404	4915.52407
672.602	5088.97845
672.799	5040.9287
672.997	5099.42242
673.195	4760.74472
673.392	5153.72173
673.59	4930.15888
673.788	5105.68853
673.985	4863.24772
674.183	5001.22621
674.38	4800.49726
674.578	5017.94407
674.775	4708.42628
674.973	4838.15
675.17	4976.14666
675.368	5015.85442
675.565	4754.46725
675.763	5043.01808
675.96	4990.7768
676.158	5343.64521
676.355	5034.66044
676.553	5182.95331
676.75	4990.7768
676.947	5111.95442
677.145	4741.91171
677.342	5051.37534
677.539	4846.51627
677.737	5241.40276
677.934	4994.95664
678.131	5210.09283
678.329	5032.57098
678.526	4999.13638
678.723	4907.16081
678.92	5059.73224
679.118	4990.7768
679.315	5145.36901
679.512	4992.86673
679.709	5216.35523
679.906	4838.15
680.104	4982.41686
680.301	4888.34215
680.498	5036.74989
680.695	4848.60778
680.892	5166.25011
681.089	4932.24947
681.286	5145.36901
681.483	4865.33905
681.68	5061.8214
681.877	4898.79719
682.075	5253.92526
682.272	4930.15888
682.469	5132.83924
682.665	4877.88654
682.862	5065.99966
683.059	4882.06885
683.256	5013.76474
683.453	4919.70555
683.65	5276.88099
683.847	4829.78336
684.044	5047.19676
684.241	4940.61162
684.438	5051.37534
684.635	4821.41636
684.831	5141.19251
685.028	4886.25108
685.225	5017.94407
685.422	4712.61227
685.619	5191.30435
685.815	4909.25166
686.012	5036.74989
686.209	4580.71027
686.405	5065.99966
686.602	4741.91171
686.799	4994.95664
686.996	4865.33905
687.192	5122.39712
687.389	4616.31163
687.586	5003.31602
687.782	4890.43321
687.979	5088.97845
688.175	4563.95446
688.372	4915.52407
688.568	4923.88695
688.765	4892.52424
688.962	4794.22109
689.158	4980.32682
689.355	4951.06379
689.551	4815.14087
689.748	4744.00435
689.944	4969.87626
690.14	4965.69587
690.337	5091.06729
690.533	4869.52164
690.73	4976.14666
690.926	4831.87506
691.123	4934.34004
691.319	4888.34215
691.515	5101.51115
691.712	4882.06885
691.908	5061.8214
692.104	4779.57589
692.301	4884.15998
692.497	4723.07686
692.693	4873.70414
692.889	4760.74472
693.086	4888.34215
693.282	4817.23273
693.478	4825.59991
693.674	4879.97771
693.87	4994.95664
694.067	4934.34004
694.263	5003.31602
694.459	4773.29904
694.655	4907.16081
694.851	4764.92958
695.047	4894.61525
695.243	4760.74472
695.439	4978.23675
695.635	4624.68748
695.831	4813.049
696.027	4961.51539
696.224	4971.96641
696.42	4850.69927
696.615	4915.52407
696.811	4859.065
697.007	5078.53389
697.203	4785.85254
697.399	4923.88695
697.595	4882.06885
697.791	4867.43036
697.987	4919.70555
698.183	4905.06994
698.379	4882.06885
698.575	5091.06729
698.77	4821.41636
698.966	4940.61162
699.162	4833.96673
699.358	4961.51539
699.554	4677.02844
699.749	5024.21288
699.945	4896.70623
700.141	4846.51627
700.337	4800.49726
700.532	4806.77323
700.728	4856.9736
700.924	4815.14087
701.119	4827.69165
701.315	4963.60564
701.511	4779.57589
701.706	5061.8214
701.902	4831.87506
702.097	5065.99966
702.293	4848.60778
702.489	4888.34215
702.684	4923.88695
702.88	5139.10423
703.075	4693.77459
703.271	4825.59991
703.466	4647.71923
703.662	4863.24772
703.857	4800.49726
704.053	4915.52407
704.248	4775.39135
704.443	5070.17783
704.639	4783.76035
704.834	4944.79256
705.03	4702.14712
705.225	4948.97341
705.42	4633.06298
705.616	4969.87626
705.811	4771.20671
706.006	4967.78607
706.202	4764.92958
706.397	4902.97905
706.592	4892.52424
706.787	4813.049
706.983	4630.96914
707.178	4948.97341
707.373	4825.59991
707.568	4773.29904
707.763	4777.48363
707.959	4792.12899
708.154	4802.58928
708.349	4974.05655
708.544	4677.02844
708.739	4794.22109
708.934	4664.46789
709.129	4877.88654
709.324	4775.39135
709.519	4831.87506
709.714	4733.54089
709.909	4896.70623
710.104	4767.02198
710.299	5005.40581
710.494	4836.05838
710.689	4948.97341
710.884	4848.60778
711.079	4961.51539
711.274	4555.57602
711.469	4961.51539
711.664	4746.09698
711.859	5176.68978
712.054	4932.24947
712.249	4898.79719
712.443	4683.30841
712.638	4951.06379
712.833	4635.15679
713.028	4930.15888
713.223	4662.37439
713.417	4859.065
713.612	4645.62555
713.807	4896.70623
714.002	4656.09374
714.196	4836.05838
714.391	4647.71923
714.586	4681.21511
714.78	4620.4996
714.975	4691.6814
715.17	4800.49726
715.364	4712.61227
715.559	4654.00015
715.754	4710.51929
715.948	4429.85698
716.143	4894.61525
716.337	4689.58818
716.532	4940.61162
716.726	4821.41636
716.921	5036.74989
717.115	4840.2416
717.31	4856.9736
717.504	4538.81807
717.699	4886.25108
717.893	4597.46465
718.088	4674.93507
718.282	4618.40563
718.476	4702.14712
718.671	4413.08846
718.865	4769.11436
719.059	4656.09374
719.254	4695.86775
719.448	4373.25763
719.642	4733.54089
719.837	4471.77214
720.031	4810.9571
720.225	4473.86766
720.419	4810.9571
720.614	4478.05865
720.808	4844.42474
721.002	4513.6785
721.196	4859.065
721.39	4614.21761
721.585	4777.48363
721.779	4524.15371
721.973	4708.42628
722.167	4362.77453
722.361	4580.71027
722.555	4509.48826
722.749	4741.91171
722.943	4423.56895
723.137	4679.12179
723.331	4390.02946
723.525	4716.79818
723.719	4563.95446
723.913	4836.05838
724.107	4415.1846
724.301	4739.81904
724.495	4475.96317
724.689	4593.27619
724.883	4557.67066
725.077	4750.28216
725.271	4463.38981
725.465	4875.79535
725.659	4532.53348
725.853	4769.11436
726.046	4626.78139
726.24	4568.14354
726.434	4348.09728
726.628	4735.63363
726.822	4473.86766
727.015	4647.71923
727.209	4549.29195
727.403	4505.29793
727.596	4287.28024
727.79	4683.30841
727.984	4352.29089
728.177	4697.9609
728.371	4421.47289
728.565	4639.34436
728.758	4413.08846
728.952	4790.03686
729.146	4488.53574
729.339	4660.28086
729.533	4572.33254
729.726	4769.11436
729.92	4597.46465
730.113	4605.84131
730.307	4448.71988
730.5	4649.81289
730.694	4440.33659
730.887	4723.07686
731.081	4708.42628
731.274	4566.04901
731.468	4538.81807
731.661	4651.90653
731.854	4459.19851
732.048	4723.07686
732.241	4517.86865
732.435	4708.42628
732.628	4700.05402
732.821	4463.38981
733.014	4597.46465
733.208	4760.74472
733.401	4712.61227
733.594	4796.31317
733.788	4555.57602
733.981	4641.43811
734.174	4526.24868
734.367	4785.85254
734.56	4586.99333
734.754	4612.12357
734.947	4396.31854
735.14	4630.96914
735.333	4639.34436
735.526	4739.81904
735.719	4478.05865
735.912	4442.43244
736.105	4482.24955
736.298	4549.29195
736.491	4536.72323
736.684	4568.14354
736.877	4574.427
737.07	4790.03686
737.263	4752.37472
737.456	4480.15411
737.649	4630.96914
737.842	4628.87527
738.035	4656.09374
738.228	4582.80464
738.421	4530.43857
738.614	4599.55885
738.807	4654.00015
739	4540.91289
739.192	4463.38981
739.385	4446.62409
739.578	4683.30841
739.771	4513.6785
739.964	4513.6785
740.156	4475.96317
740.349	4515.77358
740.542	4614.21761
740.735	4633.06298
740.927	4614.21761
741.12	4597.46465
741.313	4758.65225
741.505	4612.12357
741.698	4507.39311
741.891	4264.20697
742.083	4586.99333
742.276	4501.10751
742.468	4635.15679
742.661	4415.1846
742.854	4475.96317
743.046	4325.03088
743.239	4400.51115
743.431	4362.77453
743.624	4373.25763
743.816	4381.64372
744.009	4559.76528
744.201	4465.48542
744.393	4484.34497
744.586	4396.31854
744.778	4429.85698
744.971	4356.48441
745.163	4651.90653
745.355	4522.05871
745.548	4605.84131
745.74	4381.64372
745.932	4404.70367
746.125	4540.91289
746.317	4589.08764
746.509	4446.62409
746.702	4463.38981
746.894	4318.73959
747.086	4383.74019
747.278	4532.53348
747.471	4511.58339
747.663	4540.91289
747.855	4366.96784
748.047	4442.43244
748.239	4547.19722
748.431	4356.48441
748.623	4249.52264
748.815	4404.70367
749.008	4501.10751
749.2	4398.41486
749.392	4616.31163
749.584	4417.28072
749.776	4626.78139
749.968	4352.29089
750.16	4574.427
750.352	4280.98779
750.544	4295.66987
750.736	4410.99229
750.928	4509.48826
751.12	4188.67641
751.311	4387.93306
751.503	4413.08846
751.695	4423.56895
751.887	4369.06446
752.079	4505.29793
752.271	4440.33659
752.463	4563.95446
752.654	4446.62409
752.846	4425.66498
753.038	4180.28243
753.23	4362.77453
753.421	4392.12585
753.613	4408.89611
753.805	4438.24071
753.997	4446.62409
754.188	4289.37768
754.38	4245.32692
754.572	4224.34706
754.763	4442.43244
754.955	4385.83664
755.146	4620.4996
755.338	4373.25763
755.53	4379.54723
755.721	4257.91381
755.913	4295.66987
756.104	4289.37768
756.296	4117.31682
756.487	4163.49345
756.679	4255.81605
756.87	4262.10927
757.062	4222.24895
757.253	4297.76723
757.445	4272.59755
757.636	4320.83671
757.827	4354.38766
758.019	4197.07006
758.21	4513.6785
758.401	4144.60424
758.593	4232.73926
758.784	4173.98672
758.975	4079.52841
759.167	4106.82072
759.358	4260.01155
759.549	4268.4023
759.74	4213.85633
759.932	4077.42886
760.123	4232.73926
760.314	4318.73959
760.505	4314.54529
760.696	4081.62794
760.888	3999.73083
761.079	4194.97168
761.27	4010.23221
761.461	3856.86167
761.652	4138.30746
761.843	3821.12989
762.034	4215.95452
762.225	4041.73327
762.416	4165.59215
762.607	3945.11542
762.798	4125.71333
762.989	3943.01455
763.18	4096.32409
763.371	3732.82702
763.562	3810.61946
763.753	3840.04743
763.944	3831.63983
764.135	3751.75196
764.326	4008.13197
764.517	3936.71183
764.708	3991.32935
764.899	4022.83319
765.089	3997.63049
765.28	4001.83114
765.471	4060.63168
765.662	3867.36992
765.853	4024.93328
766.043	3922.00477
766.234	4037.53339
766.425	3814.82369
766.615	3976.62599
766.806	3652.90452
766.997	3976.62599
767.187	3770.67533
767.378	4003.93144
767.569	3737.0327
767.759	4024.93328
767.95	3692.86923
768.141	3886.28352
768.331	3804.31296
768.522	3913.60029
768.712	3837.94556
768.903	3945.11542
769.093	3760.16254
769.284	3919.90368
769.474	3768.57281
769.665	3684.45618
769.855	3669.7326
770.046	3947.21627
770.236	3476.13731
770.426	3800.10853
770.617	3753.85464
770.807	3741.2383
770.998	3476.13731
771.188	3865.26831
771.378	3678.14619
771.569	3758.05993
771.759	3758.05993
771.949	3562.43288
772.139	3694.97244
772.33	3705.48823
772.52	3673.93944
772.71	3589.78842
772.9	3833.74176
773.09	3640.28266
773.281	3665.5257
773.471	3747.54656
773.661	3673.93944
773.851	3638.17895
774.041	3526.65553
774.231	3608.72503
774.421	3450.87429
774.611	3690.766
774.802	3404.55206
774.992	3564.53727
775.182	3587.68426
775.372	3530.86491
775.562	3541.38803
775.752	3610.829
775.942	3417.18625
776.131	3539.28344
776.321	3547.70168
776.511	3718.10654
776.701	3657.11165
776.891	3703.38511
777.081	3463.50613
777.271	3465.61137
777.461	3242.35766
777.651	3585.58008
777.84	3471.92699
778.03	3537.17883
778.22	3446.66354
778.41	3471.92699
778.599	3356.11511
778.789	3446.66354
778.979	3381.38772
779.169	3539.28344
779.358	3191.783
779.548	3450.87429
779.738	3332.94635
779.927	3564.53727
780.117	3383.49366
780.307	3431.92533
780.496	3278.17555
780.686	3341.3716
780.875	3126.44342
781.065	3377.17579
781.254	3288.70929
781.444	3623.45245
781.633	3345.58412
781.823	3305.5624
782.012	3278.17555
782.202	3193.89046
782.391	3139.091
782.581	3145.41458
782.77	3244.46472
782.96	3343.47787
783.149	3054.76297
783.338	3193.89046
783.528	3006.26304
783.717	3099.03835
783.906	3143.30673
784.096	3177.03026
784.285	3136.98311
784.474	3217.07152
784.663	2926.11516
784.853	3160.16902
785.042	3134.8752
785.231	3170.70742
785.42	2995.7185
785.61	3307.66896
785.799	3031.56837
785.988	3170.70742
786.177	3008.3719
786.366	3113.79526
786.555	3113.79526
786.744	3088.49722
786.933	3048.43736
787.122	3303.45582
787.312	3179.13785
787.501	3295.02933
787.69	2839.61612
787.879	3280.28233
788.068	3088.49722
788.257	3195.99792
788.445	2983.06456
788.634	3010.48075
788.823	2748.87231
789.012	2877.59428
789.201	2831.17591
789.39	2945.0995
789.579	2649.65907
789.768	2907.12964
789.957	2639.10281
790.145	3067.41378
790.334	2881.81379
790.523	2797.41285
790.712	2829.06582
790.9	2799.52314
791.089	2563.08866
791.278	2928.22459
791.467	2753.09351
791.655	2860.71566
791.844	2746.76169
792.033	2721.43323
792.221	2573.64711
792.41	2755.20409
792.599	2639.10281
792.787	3115.90332
792.976	2995.7185
793.164	2955.64583
793.353	2940.88086
793.541	3136.98311
793.73	2708.76828
793.918	3128.55139
794.107	2831.17591
794.295	3065.30536
794.484	2763.64628
794.672	2873.37471
794.861	2506.06794
795.049	2649.65907
795.238	2645.4366
795.426	2942.99019
795.614	2611.65507
795.803	2727.76552
795.991	2729.87626
796.179	2843.83614
796.368	2666.54844
796.556	2795.30254
796.744	2674.99282
796.932	2763.64628
797.121	2636.99152
797.309	2653.88149
797.497	2609.54362
797.685	2689.76999
797.874	2434.25236
798.062	2740.42976
798.25	2290.5848
798.438	2801.63342
798.626	2666.54844
798.814	2666.54844
799.002	2634.88022
799.19	2915.5678
799.378	2495.50763
799.566	2658.10385
799.755	2529.29962
799.943	2841.72614
800.131	2552.52991
800.318	2797.41285
800.506	2478.61055
800.694	2560.97693
800.882	2658.10385
801.07	2805.85395
801.258	2501.84385
801.446	2772.08824
801.634	2455.3759
801.822	2569.42377
802.01	2522.96385
802.197	2674.99282
802.385	2442.70191
802.573	2672.88174
802.761	2541.97086
802.949	2535.63529
803.136	2573.64711
803.324	2704.54653
803.512	2605.32069
803.699	2670.77065
803.887	2594.76313
804.075	2788.97153
804.262	2569.42377
804.45	2674.99282
804.638	2459.60048
804.825	2647.54784
805.013	2468.04951
805.201	2729.87626
805.388	2432.13994
805.576	2658.10385
805.763	2472.27396
805.951	2776.30915
806.138	2620.10075
806.326	2755.20409
806.513	2544.08269
806.701	2565.20037
806.888	2358.19885
807.075	2721.43323
807.263	2689.76999
807.45	2531.41152
807.638	2506.06794
807.825	2630.65757
808.012	2461.71276
808.2	2569.42377
808.387	2522.96385
808.574	2746.76169
808.761	2662.32617
808.949	2788.97153
809.136	2577.87041
809.323	2924.00572
809.51	2696.10287
809.698	2639.10281
809.885	2518.73994
810.072	2588.42845
810.259	2508.17997
810.446	2683.43699
810.633	2554.64168
810.82	2679.21493
811.008	2628.54623
811.195	2687.659
811.382	2527.18771
811.569	2579.98204
811.756	2478.61055
811.943	2759.42521
812.13	2647.54784
812.317	2750.98292
812.504	2763.64628
812.691	2905.02007
812.878	2875.4845
813.064	2791.08188
813.251	2725.65477
813.438	2940.88086
813.625	2664.43731
813.812	2883.92352
813.999	2649.65907
814.186	2995.7185
814.372	2793.19222
814.559	3077.9557
814.746	2738.31908
814.933	2793.19222
815.12	2685.548
815.306	2731.98699
815.493	2522.96385
815.68	2848.05611
815.866	2461.71276
816.053	2636.99152
816.24	2560.97693
816.426	2700.32472
816.613	2596.87467
816.799	2691.88096
816.986	2573.64711
817.173	2778.41958
817.359	2468.04951
817.546	2679.21493
817.732	2446.92661
817.919	2890.25264
818.105	2801.63342
818.292	2795.30254
818.478	2742.54041
818.665	2772.08824
818.851	2603.2092
819.037	2924.00572
819.224	2653.88149
819.41	2731.98699
819.597	2489.17131
819.783	2826.95572
819.969	2685.548
820.156	2772.08824
820.342	2620.10075
820.528	2489.17131
820.714	2567.31208
820.901	2670.77065
821.087	2353.97326
821.273	2731.98699
821.459	2434.25236
821.646	2721.43323
821.832	2358.19885
822.018	2651.77028
822.204	2470.16174
822.39	2755.20409
822.576	2552.52991
822.762	2850.16607
822.948	2463.82502
823.134	2679.21493
823.32	2446.92661
823.507	2774.1987
823.693	2476.49836
823.879	2510.29198
824.065	2434.25236
824.25	2649.65907
824.436	2375.10078
824.622	2658.10385
824.808	2516.62797
824.994	2601.0977
825.18	2341.29627
825.366	2708.76828
825.552	2294.81097
825.738	2575.75877
825.923	2358.19885
826.109	2514.51598
826.295	2267.34022
826.481	2565.20037
826.667	2343.40913
826.852	2453.2636
827.038	2377.21348
827.224	2537.74716
827.409	2396.22728
827.595	2501.84385
827.781	2290.5848
827.966	2484.94704
828.152	2299.03709
828.338	2432.13994
828.523	2337.07053
828.709	2491.28343
828.894	2250.43437
829.08	2315.94123
829.266	2003.126
829.451	2497.61971
829.637	2231.4146
829.822	2404.67759
830.008	2148.98753
830.193	2311.71525
830.378	2392.00206
830.564	2480.72272
830.749	2366.6499
830.935	2423.69018
831.12	2222.96114
831.305	2440.58953
831.491	2151.1012
831.676	2155.32852
831.861	2079.23199
832.047	2375.10078
832.232	2176.46464
832.417	2290.5848
832.602	2142.64647
832.788	2248.32109
832.973	2225.07451
833.158	2400.45246
833.343	2007.35434
833.528	2512.40399
833.714	2180.69176
833.899	2372.98808
834.084	2045.40821
834.269	2172.23748
834.454	2184.91885
834.639	2197.59992
834.824	2058.09234
835.009	2206.0538
835.194	1808.59716
835.379	2206.0538
835.564	2079.23199
835.749	2159.55581
835.934	2115.16771
836.119	2330.73184
836.304	2028.49565
836.489	2227.18788
836.674	2066.54829
836.859	2318.0542
837.044	2075.00412
837.228	2453.2636
837.413	2163.78307
837.598	2258.88736
837.783	2216.62095
837.968	2231.4146
838.152	1994.66924
838.337	1901.63843
838.522	2024.26744
838.707	2189.14591
838.891	2087.68765
839.076	2206.0538
839.261	1994.66924
839.445	2087.68765
839.63	1956.61257
839.815	1981.98391
839.999	1774.76177
840.184	2068.66226
840.368	1825.51444
840.553	2028.49565
840.737	1903.75289
840.922	2096.14319
841.106	1745.15498
841.291	1931.24037
841.475	1853.0044
841.66	2132.07787
841.844	1776.87652
842.029	1918.55396
842.213	1702.85834
842.397	1914.32511
842.582	1893.18053
842.766	1819.17049
842.951	1713.43262
843.135	1825.51444
843.319	1690.16909
843.504	1759.95847
843.688	1876.26449
843.872	1819.17049
844.056	1658.44552
844.241	1857.23355
844.425	1804.3678
844.609	1853.0044
844.793	1664.79029
844.977	1842.43143
845.161	1647.87087
845.346	1783.22072
845.53	1647.87087
845.714	1724.00682
845.898	1573.84674
846.082	1616.14654
846.266	1717.66231
846.45	1825.51444
846.634	1664.79029
846.818	1829.74372
847.002	1673.24993
847.186	1755.72892
847.37	1717.66231
847.554	1692.28397
847.738	1548.46654
847.922	1698.6286
848.106	1463.86487
848.29	1707.08806
848.473	1586.53675
848.657	1487.13043
848.841	1544.23649
849.025	1491.36052
849.209	1419.44879
849.392	1732.46613
849.576	1404.64346
849.76	1702.85834
849.944	1575.96174
850.127	1759.95847
850.311	1499.82071
850.495	1620.37648
850.678	1400.41337
850.862	1554.81161
851.046	1385.60808
851.229	1548.46654
851.413	1394.06824
851.596	1556.92663
851.78	1427.90899
851.964	1495.59062
852.147	1372.91786
852.331	1575.96174
852.514	1438.48424
852.698	1470.21003
852.881	1237.55917
853.065	1548.46654
853.248	1301.00754
853.431	1468.09497
853.615	1336.96248
853.798	1336.96248
853.982	1301.00754
854.165	1324.27245
854.348	1256.59344
854.532	1472.32508
854.715	1271.39803
854.898	1478.67023
855.081	1252.36358
855.265	1387.72312
855.448	1237.55917
855.631	1246.01882
855.814	1191.03198
855.997	1364.45774
856.181	1214.29538
856.364	1347.53755
856.547	1169.8838
856.73	1368.6878
856.913	1191.03198
857.096	1520.97113
857.279	1203.72105
857.462	1265.05319
857.645	1273.51298
857.828	1309.46748
858.011	1169.8838
858.194	1303.12252
858.377	1146.62126
858.56	1152.96554
858.743	1131.81809
858.926	1275.62793
859.109	1193.14681
859.292	1341.19251
859.475	1030.31699
859.658	1224.86978
859.841	1002.82931
860.023	1119.12982
860.206	1074.72225
860.389	1224.86978
860.572	1021.85913
860.755	1152.96554
860.937	1097.98309
861.12	1269.28308
861.303	1081.06605
861.486	1138.16228
861.668	1062.03478
861.851	1174.11341
862.034	1133.93281
862.216	1076.83684
862.399	968.99979
862.581	1095.86844
862.764	977.45701
862.947	1007.05811
863.129	1043.00395
863.312	1108.5564
863.494	924.60123
863.677	1091.63916
863.859	943.62879
864.042	1083.18066
864.224	988.02869
864.406	1019.74468
864.589	988.02869
864.771	1032.43147
864.954	903.4602
865.136	977.45701
865.318	979.57133
865.501	865.40836
865.683	920.37296
865.865	924.60123
866.048	755.4969
866.23	875.97805
866.412	856.95276
866.594	916.14472
866.777	911.91652
866.959	1023.97359
867.141	793.54029
867.323	928.82952
867.505	856.95276
867.687	1030.31699
867.869	954.19992
868.052	971.11408
868.234	863.29445
868.416	890.77596
868.598	801.99481
868.78	1072.60766
868.962	890.77596
869.144	966.8855
869.326	903.4602
869.508	878.09201
869.69	772.40468
869.872	933.05785
870.054	810.44948
870.236	869.63621
870.417	717.45683
870.599	903.4602
870.781	702.6644
870.963	954.19992
871.145	759.72379
871.327	935.17202
871.508	776.63172
871.69	801.99481
871.872	772.40468
872.054	821.01802
872.235	757.61034
872.417	903.4602
872.599	835.81437
872.78	903.4602
872.962	825.2455
873.144	844.26962
873.325	799.88117
873.507	924.60123
873.689	818.90429
873.87	835.81437
874.052	679.42027
874.233	772.40468
874.415	668.85521
874.596	844.26962
874.778	789.31309
874.959	770.29117
875.141	761.83724
875.322	831.58679
875.503	635.049
875.685	823.13176
875.866	709.00395
876.048	842.15579
876.229	789.31309
876.41	920.37296
876.592	907.68835
876.773	966.8855
876.954	768.17767
877.136	1051.46204
877.317	698.43809
877.498	907.68835
877.679	704.77757
877.86	852.72501
878.042	785.08593
878.223	895.00401
878.404	780.85881
878.585	837.92817
878.766	700.55124
878.947	808.3358
879.128	755.4969
879.309	884.43395
879.49	742.8165
879.672	928.82952
879.853	747.04326
880.034	844.26962
880.215	766.06419
880.396	833.70058
880.576	797.76753
880.757	846.38345
880.938	687.87252
881.119	920.37296
881.3	755.4969
881.481	852.72501
881.662	837.92817
881.843	833.70058
882.023	759.72379
882.204	878.09201
882.385	801.99481
882.566	856.95276
882.747	806.22212
882.927	905.57427
883.108	763.95071
883.289	979.57133
883.469	850.61115
883.65	975.34269
883.831	852.72501
884.011	840.04198
884.192	755.4969
884.373	1049.34751
884.553	880.20598
884.734	880.20598
884.914	861.18054
885.095	821.01802
885.275	734.3631
885.456	958.42842
885.636	878.09201
885.817	1002.82931
885.997	886.54795
886.178	928.82952
886.358	801.99481
886.538	905.57427
886.719	844.26962
886.899	1026.08805
887.08	837.92817
887.26	947.85722
887.44	751.27006
887.621	935.17202
887.801	863.29445
887.981	1021.85913
888.161	899.23209
888.342	954.19992
888.522	778.74526
888.702	821.01802
888.882	821.01802
889.062	825.2455
889.242	780.85881
889.423	865.40836
889.603	865.40836
889.783	899.23209
889.963	791.42669
890.143	954.19992
890.323	856.95276
890.503	1032.43147
890.683	687.87252
890.863	888.66195
891.043	852.72501
891.223	1002.82931
891.403	702.6644
891.583	856.95276
891.763	776.63172
891.943	901.34614
892.122	742.8165
892.302	810.44948
892.482	787.19951
892.662	947.85722
892.842	821.01802
893.022	823.13176
893.201	785.08593
893.381	837.92817
893.561	867.52228
893.741	922.48709
893.92	844.26962
894.1	899.23209
894.28	664.62926
894.459	869.63621
894.639	778.74526
894.819	734.3631
894.998	643.50026
895.178	751.27006
895.357	742.8165
895.537	846.38345
895.716	730.13647
895.896	797.76753
896.075	704.77757
896.255	852.72501
896.434	751.27006
896.614	730.13647
896.793	751.27006
896.973	823.13176
897.152	662.51631
897.331	689.98561
897.511	613.9217
897.69	814.67687
897.87	740.70313
898.049	808.3358
898.228	675.19421
898.407	795.65391
898.587	575.89576
898.766	742.8165
898.945	624.48519
899.124	679.42027
899.304	442.8402
899.483	700.55124
899.662	637.1618
899.841	542.09852
900.02	711.11715
900.199	721.68333
900.378	683.64637
900.557	670.9682
900.737	506.19285
900.916	601.24592
901.095	660.40337
901.274	618.14706
901.453	569.55852
901.632	573.78333
901.811	438.61718
901.989	578.0082
902.168	554.77208
902.347	616.03437
902.526	582.23313
902.705	651.95172
902.884	565.33375
903.063	681.53331
903.242	455.50964
903.42	548.43524
903.599	472.40309
903.778	660.40337
903.957	447.06329
904.135	482.96198
904.314	491.40936
904.493	582.23313
904.672	466.06793
904.85	510.41683
905.029	506.19285
905.207	404.83529
905.386	468.17963
905.565	478.73838
905.743	506.19285
905.922	512.52884
906.1	432.28277
906.279	406.94654
906.457	373.16856
906.636	430.17133
906.814	318.28862
906.993	394.2793
907.171	409.05781
907.35	326.73092
907.528	354.17033
907.707	415.39169
907.885	330.95217
908.063	235.99161
908.242	244.431
908.42	375.27956
908.598	337.28419
908.777	330.95217
908.955	297.18413
909.133	311.95708
909.311	404.83529
909.49	326.73092
909.668	311.95708
909.846	354.17033
910.024	278.19166
910.202	343.61636
910.38	314.06758
910.559	430.17133
910.737	314.06758
910.915	341.50562
911.093	295.07378
911.271	379.50161
911.449	297.18413
911.627	314.06758
911.805	269.75104
911.983	292.96345
912.161	303.51529
912.339	358.39204
912.517	324.62032
912.695	371.05758
912.872	185.36184
913.05	413.28038
913.228	330.95217
913.406	398.50165
913.584	356.28118
913.762	375.27956
913.939	333.06283
914.117	373.16856
914.295	227.55252
914.473	379.50161
914.65	322.50973
914.828	383.72372
915.006	316.17809
915.184	373.16856
915.361	198.0182
915.539	307.73615
915.716	202.23715
915.894	316.17809
916.072	295.07378
916.249	259.20069
916.427	273.97131
916.604	311.95708
916.782	278.19166
916.959	444.95174
917.137	314.06758
917.314	311.95708
917.492	379.50161
917.669	286.63257
917.847	316.17809
918.024	324.62032
918.201	248.65082
918.379	337.28419
918.556	320.39917
918.733	278.19166
918.911	295.07378
919.088	271.86117
919.265	202.23715
919.442	362.61382
919.62	124.19996
919.797	265.53084
919.974	235.99161
920.151	198.0182
920.328	170.59702
920.506	354.17033
920.683	202.23715
920.86	265.53084
921.037	231.77202
921.214	219.11374
921.391	305.62571
921.568	309.84661
921.745	181.14322
921.922	368.94661
922.099	195.90876
922.276	238.10143
922.453	278.19166
922.63	286.63257
922.807	235.99161
922.984	183.25252
923.161	122.09124
923.338	235.99161
923.514	210.67529
923.691	193.79933
923.868	280.30186
924.045	214.89448
924.222	153.72418
924.399	238.10143
924.575	132.63502
924.752	189.58055
924.929	143.17933
925.105	233.8818
925.282	109.43943
925.459	193.79933
925.635	202.23715
925.812	210.67529
925.989	240.21127
926.165	221.22341
926.342	122.09124
926.518	263.42077
926.695	168.48784
926.871	225.4428
927.048	202.23715
927.224	198.0182
927.401	160.05133
927.577	136.85268
927.754	119.98255
927.93	176.92467
928.107	101.00532
928.283	105.22233
928.459	147.39721
928.636	202.23715
928.812	160.05133
928.988	143.17933
929.165	105.22233
929.341	145.28826
929.517	162.16043
929.693	187.47118
929.87	168.48784
930.046	132.63502
930.222	109.43943
930.398	164.26954
930.574	109.43943
930.751	94.67998
930.927	202.23715
931.103	189.58055
931.279	92.57157
931.455	130.52622
931.631	172.70621
931.807	119.98255
931.983	176.92467
932.159	84.13817
932.335	128.41744
932.511	130.52622
932.687	75.70514
932.863	141.07043
933.039	31.43768
933.215	69.38059
933.391	113.65661
933.566	82.02988
933.742	88.35483
933.918	77.81336
934.094	109.43943
934.27	160.05133
934.445	103.11382
934.621	136.85268
934.797	35.65319
934.973	73.59693
935.148	128.41744
935.324	84.13817
935.5	4.03918
935.675	58.84015
935.851	111.54801
936.027	168.48784
936.202	60.94819
936.378	33.54542
936.553	79.92161
936.729	79.92161
936.904	58.84015
937.08	16.68414
937.255	-6.49763
937.431	46.19237
937.606	27.22227
937.782	50.4082
937.957	41.97663
938.133	50.4082
938.308	18.79172
938.483	69.38059
938.659	63.05626
938.834	37.76098
939.009	75.70514
939.185	-0.17561
939.36	16.68414
939.535	63.05626
939.71	-17.03383
939.886	96.7884
940.061	16.68414
940.236	-2.28298
940.411	-4.39031
940.586	25.11459
940.761	10.36155
940.937	16.68414
941.112	-2.28298
941.287	-4.39031
941.462	-33.89048
941.637	10.36155
941.812	29.32996
941.987	6.14661
942.162	46.19237
942.337	-0.17561
942.512	31.43768
942.687	58.84015
942.862	-19.141
943.037	-8.60492
943.212	33.54542
943.386	25.11459
943.561	25.11459
943.736	37.76098
943.911	25.11459
944.086	8.25407
944.26	-25.46235
944.435	8.25407
944.61	8.25407
944.785	16.68414
944.959	33.54542
945.134	-17.03383
945.309	50.4082
945.483	25.11459
945.658	-8.60492
945.833	-4.39031
946.007	94.67998
946.182	12.46906
946.357	-54.95905
946.531	-12.81942
946.706	-2.28298
946.88	18.79172
947.055	35.65319
947.229	41.97663
947.404	27.22227
947.578	46.19237
947.752	29.32996
947.927	-33.89048
948.101	16.68414
948.276	-14.92664
948.45	50.4082
948.624	50.4082
948.799	52.51615
948.973	-38.10439
949.147	-38.10439
949.321	20.89932
949.496	50.4082
949.67	-48.63874
949.844	18.79172
950.018	48.30027
950.193	-14.92664
950.367	14.57659
950.541	101.00532
950.715	-14.92664
950.889	92.57157
951.063	-59.17246
951.237	-4.39031
951.411	63.05626
951.585	-0.17561
951.759	-10.71218
951.933	77.81336
952.107	-48.63874
952.281	35.65319
952.455	94.67998
952.629	-50.74553
952.803	-23.35526
952.977	67.27246
953.151	-2.28298
953.325	10.36155
953.499	-10.71218
953.672	-0.17561
953.846	82.02988
954.02	31.43768
954.194	-10.71218
954.368	31.43768
954.541	115.76524
954.715	88.35483
954.889	25.11459
955.062	8.25407
955.236	-4.39031
955.41	16.68414
955.583	-57.06577
955.757	31.43768
955.93	-0.17561
956.104	31.43768
956.278	82.02988
956.451	37.76098
956.625	37.76098
956.798	-0.17561
956.972	8.25407
957.145	-17.03383
957.319	-40.21131
957.492	-78.13156
957.665	58.84015
957.839	-35.99745
958.012	10.36155
958.185	37.76098
958.359	50.4082
958.532	10.36155
958.705	-6.49763
958.879	-50.74553
959.052	8.25407
959.225	-50.74553
959.398	-14.92664
959.572	18.79172
959.745	60.94819
959.918	67.27246
960.091	-42.31821
960.264	-33.89048
960.438	-0.17561
960.611	-27.56942
960.784	-12.81942
960.957	31.43768
961.13	58.84015
961.303	25.11459
961.476	-8.60492
961.649	60.94819
961.822	10.36155
961.995	115.76524
962.168	73.59693
962.341	33.54542
962.514	71.48875
962.686	54.62413
962.859	-52.8523
963.032	-10.71218
963.205	18.79172
963.378	16.68414
963.551	27.22227
963.723	48.30027
963.896	71.48875
964.069	67.27246
964.242	25.11459
964.414	50.4082
964.587	73.59693
964.76	37.76098
964.932	54.62413
965.105	71.48875
965.278	10.36155
965.45	35.65319
965.623	37.76098
965.795	25.11459
965.968	-23.35526
966.14	-4.39031
966.313	77.81336
966.485	16.68414
966.658	27.22227
966.83	18.79172
967.003	-50.74553
967.175	27.22227
967.348	33.54542
967.52	12.46906
967.692	50.4082
967.865	18.79172
968.037	8.25407
968.209	52.51615
968.382	33.54542
968.554	29.32996
968.726	94.67998
968.898	4.03918
969.071	-44.42508
969.243	35.65319
969.415	-12.81942
969.587	33.54542
969.759	46.19237
969.932	-21.24814
970.104	31.43768
970.276	48.30027
970.448	-63.38577
970.62	41.97663
970.792	20.89932
970.964	18.79172
971.136	25.11459
971.308	52.51615
971.48	58.84015
971.652	84.13817
971.824	27.22227
971.996	12.46906
972.168	6.14661
972.339	27.22227
972.511	77.81336
972.683	63.05626
972.855	25.11459
973.027	90.46319
973.199	10.36155
973.37	-29.67646
973.542	46.19237
973.714	10.36155
973.886	-82.34441
974.057	52.51615
974.229	29.32996
974.401	18.79172
974.572	33.54542
974.744	58.84015
974.915	58.84015
975.087	12.46906
975.259	44.08449
975.43	46.19237
975.602	27.22227
975.773	44.08449
975.945	-14.92664
976.116	8.25407
976.288	71.48875
976.459	18.79172
976.63	12.46906
976.802	10.36155
976.973	52.51615
977.145	-10.71218
977.316	46.19237
977.487	31.43768
977.659	143.17933
977.83	41.97663
978.001	-19.141
978.172	-10.71218
978.344	-0.17561
978.515	6.14661
978.686	37.76098
978.857	-42.31821
979.028	-54.95905
979.2	25.11459
979.371	-29.67646
979.542	14.57659
979.713	-27.56942
979.884	90.46319
980.055	50.4082
980.226	-12.81942
980.397	96.7884
980.568	46.19237
980.739	-21.24814
980.91	23.00695
981.081	50.4082
981.252	8.25407
981.423	-23.35526
981.594	56.73213
981.765	25.11459
981.936	27.22227
982.106	-12.81942
982.277	1.93177
982.448	4.03918
982.619	-12.81942
982.79	-57.06577
982.96	-14.92664
983.131	-31.78348
983.302	16.68414
983.472	-0.17561
983.643	-0.17561
983.814	18.79172
983.984	-12.81942
984.155	90.46319
984.326	25.11459
984.496	27.22227
984.667	-25.46235
984.837	37.76098
985.008	29.32996
985.178	90.46319
985.349	50.4082
985.519	65.16435
985.69	41.97663
985.86	35.65319
986.031	46.19237
986.201	-59.17246
986.371	52.51615
986.542	33.54542
986.712	-42.31821
986.882	33.54542
987.053	31.43768
987.223	37.76098
987.393	41.97663
987.563	25.11459
987.734	-63.38577
987.904	84.13817
988.074	58.84015
988.244	-38.10439
988.414	33.54542
988.585	-27.56942
988.755	-4.39031
988.925	-0.17561
989.095	-46.53192
989.265	-31.78348
989.435	-8.60492
989.605	-69.70555
989.775	82.02988
989.945	6.14661
990.115	20.89932
990.285	-12.81942
990.455	18.79172
990.625	-33.89048
990.795	-25.46235
990.965	-40.21131
991.134	56.73213
991.304	-8.60492
991.474	4.03918
991.644	-17.03383
991.814	82.02988
991.984	8.25407
992.153	8.25407
992.323	84.13817
992.493	-14.92664
992.662	-4.39031
992.832	-17.03383
993.002	-40.21131
993.171	41.97663
993.341	1.93177
993.511	-17.03383
993.68	-8.60492
993.85	-35.99745
994.019	1.93177
994.189	8.25407
994.358	16.68414
994.528	-10.71218
994.697	63.05626
994.867	27.22227
995.036	10.36155
995.206	-23.35526
995.375	-4.39031
995.544	-46.53192
995.714	-0.17561
995.883	-10.71218
996.052	31.43768
996.222	33.54542
996.391	23.00695
996.56	77.81336
996.73	-17.03383
996.899	-17.03383
997.068	1.93177
997.237	-76.0251
997.406	6.14661
997.576	75.70514
997.745	-46.53192
997.914	60.94819
998.083	41.97663
998.252	-67.59898
998.421	-42.31821
998.59	27.22227
998.759	-0.17561
998.928	33.54542
999.097	-42.31821
999.266	-33.89048
999.435	-67.59898
999.604	-17.03383
999.773	4.03918
999.942	16.68414
1000.111	-25.46235
1000.28	63.05626
1000.448	-27.56942
1000.617	12.46906
1000.786	46.19237
1000.955	-4.39031
1001.124	-44.42508
1001.292	109.43943
1001.461	44.08449
1001.63	-8.60492
1001.798	-6.49763
1001.967	39.86879
1002.136	54.62413
1002.304	46.19237
1002.473	16.68414
1002.642	-4.39031
1002.81	-29.67646
1002.979	-23.35526
1003.147	-0.17561
1003.316	39.86879
1003.484	-59.17246
1003.653	37.76098
1003.821	20.89932
1003.99	-27.56942
1004.158	-33.89048
1004.327	-29.67646
1004.495	4.03918
1004.663	60.94819
1004.832	29.32996
1005	8.25407
1005.168	-33.89048
1005.337	71.48875
1005.505	16.68414
1005.673	-31.78348
1005.842	-31.78348
1006.01	-8.60492
1006.178	27.22227
1006.346	16.68414
1006.514	-38.10439
1006.683	-8.60492
1006.851	-12.81942
1007.019	-25.46235
1007.187	27.22227
1007.355	50.4082
1007.523	1.93177
1007.691	-40.21131
1007.859	-42.31821
1008.027	4.03918
1008.195	48.30027
1008.363	35.65319
1008.531	-2.28298
1008.699	16.68414
1008.867	-33.89048
1009.035	-8.60492
1009.203	-40.21131
1009.37	35.65319
1009.538	-0.17561
1009.706	29.32996
1009.874	-25.46235
1010.042	4.03918
1010.209	25.11459
1010.377	-4.39031
1010.545	12.46906
1010.713	25.11459
1010.88	10.36155
1011.048	39.86879
1011.216	33.54542
1011.383	-6.49763
1011.551	27.22227
1011.718	92.57157
1011.886	-0.17561
1012.054	-27.56942
1012.221	20.89932
1012.389	31.43768
1012.556	-0.17561
1012.724	14.57659
1012.891	-14.92664
1013.058	25.11459
1013.226	-17.03383
1013.393	16.68414
1013.561	37.76098
1013.728	12.46906
1013.895	-33.89048
1014.063	-50.74553
1014.23	50.4082
1014.397	18.79172
1014.565	-50.74553
1014.732	-8.60492
1014.899	71.48875
1015.066	27.22227
1015.233	-67.59898
1015.401	58.84015
1015.568	-40.21131
1015.735	8.25407
1015.902	35.65319
1016.069	48.30027
1016.236	-21.24814
1016.403	67.27246
1016.57	46.19237
1016.737	33.54542
1016.904	-0.17561
1017.071	-59.17246
1017.238	46.19237
1017.405	77.81336
1017.572	33.54542
1017.739	67.27246
1017.906	25.11459
1018.073	63.05626
1018.24	-6.49763
1018.407	16.68414
1018.573	12.46906
1018.74	111.54801
1018.907	8.25407
1019.074	79.92161
1019.241	12.46906
1019.407	67.27246
1019.574	-50.74553
1019.741	20.89932
1019.907	-8.60492
1020.074	-25.46235
1020.241	-0.17561
1020.407	27.22227
1020.574	10.36155
1020.74	-6.49763
1020.907	46.19237
1021.073	31.43768
1021.24	-4.39031
1021.406	4.03918
1021.573	-8.60492
1021.739	-21.24814
1021.906	67.27246
1022.072	-31.78348
1022.239	25.11459
1022.405	1.93177
1022.571	-10.71218
1022.738	41.97663
1022.904	-4.39031
1023.07	33.54542
1023.237	37.76098
1023.403	14.57659
1023.569	4.03918
1023.735	-48.63874
1023.902	12.46906
1024.068	20.89932
1024.234	56.73213
1024.4	29.32996
1024.566	-29.67646
1024.732	-33.89048
1024.898	52.51615
1025.065	-4.39031
1025.231	10.36155
1025.397	12.46906
1025.563	14.57659
1025.729	-38.10439
1025.895	25.11459
1026.061	10.36155
1026.227	20.89932
1026.392	71.48875
1026.558	-8.60492
1026.724	-8.60492
1026.89	29.32996
1027.056	-54.95905
1027.222	-46.53192
1027.388	6.14661
1027.553	20.89932
1027.719	-31.78348
1027.885	-4.39031
1028.051	67.27246
1028.216	60.94819
1028.382	16.68414
1028.548	-0.17561
1028.713	41.97663
1028.879	-44.42508
1029.045	-33.89048
1029.21	-67.59898
1029.376	-6.49763
1029.541	67.27246
1029.707	12.46906
1029.873	96.7884
1030.038	58.84015
1030.204	12.46906
1030.369	-84.4508
1030.534	-25.46235
1030.7	-6.49763
1030.865	-31.78348
1031.031	-6.49763
1031.196	27.22227
1031.361	-29.67646
1031.527	84.13817
1031.692	-59.17246
1031.857	-21.24814
1032.023	16.68414
1032.188	-6.49763
1032.353	-33.89048
1032.518	-67.59898
1032.684	-14.92664
1032.849	-10.71218
1033.014	18.79172
1033.179	1.93177
1033.344	25.11459
1033.509	33.54542
1033.674	23.00695
1033.839	20.89932
1034.004	58.84015
1034.17	-0.17561
1034.335	-17.03383
1034.5	1.93177
1034.664	-14.92664
1034.829	10.36155
1034.994	-14.92664
1035.159	-71.81209
1035.324	-29.67646
1035.489	-42.31821
1035.654	-19.141
1035.819	-25.46235
1035.984	-6.49763
1036.148	84.13817
1036.313	-25.46235
1036.478	1.93177
1036.643	46.19237
1036.807	1.93177
1036.972	-0.17561
1037.137	12.46906
1037.301	-61.27913
1037.466	-46.53192
1037.631	54.62413
1037.795	-29.67646
1037.96	10.36155
1038.124	1.93177
1038.289	-25.46235
1038.454	4.03918
1038.618	-0.17561
1038.783	-42.31821
1038.947	-23.35526
1039.111	-8.60492
1039.276	-27.56942
1039.44	37.76098
1039.605	27.22227
1039.769	-0.17561
1039.933	50.4082
1040.098	16.68414
1040.262	-17.03383
1040.426	-12.81942
1040.591	35.65319
1040.755	-14.92664
1040.919	-25.46235
1041.083	-78.13156
1041.248	23.00695
1041.412	6.14661
1041.576	-40.21131
1041.74	8.25407
1041.904	-29.67646
1042.068	-6.49763
1042.232	-31.78348
1042.397	20.89932
1042.561	-25.46235
1042.725	1.93177
1042.889	-46.53192
1043.053	-12.81942
1043.217	14.57659
1043.381	-4.39031
1043.544	-50.74553
1043.708	-8.60492
1043.872	69.38059
1044.036	4.03918
1044.2	25.11459
1044.364	52.51615
1044.528	25.11459
1044.691	-4.39031
1044.855	20.89932
1045.019	-31.78348
1045.183	-82.34441
1045.346	35.65319
1045.51	-42.31821
1045.674	29.32996
1045.837	-17.03383
1046.001	31.43768
1046.165	-50.74553
1046.328	-12.81942
1046.492	-4.39031
1046.655	-65.49239
1046.819	31.43768
1046.983	-27.56942
1047.146	-23.35526
1047.31	8.25407
1047.473	-0.17561
1047.636	-0.17561
1047.8	-14.92664
1047.963	35.65319
1048.127	-25.46235
1048.29	-4.39031
