Data from Scatter_Coeff_Baseline_USB4F045381__34__0034.txt Node

Date: Thu Feb 13 19:22:59 EST 2025
User: mmckonesweet
Spectrometer: USB4F04538
Trigger mode: 4
Integration Time (sec): 2.400000E-3
Scans to average: 1
Electric dark correction enabled: true
Nonlinearity correction enabled: true
Boxcar width: 0
XAxis mode: Wavelengths
Number of Pixels in Spectrum: 3648
>>>>>Begin Spectral Data<<<<<
345.52	-32.6614
345.736	-32.6614
345.952	-32.6614
346.168	-38.98228
346.384	24.2364
346.6	15.80599
346.816	24.2364
347.032	34.77495
347.248	41.09836
347.464	-64.26353
347.68	15.80599
347.896	28.45175
348.112	-28.44736
348.328	-30.55439
348.544	-38.98228
348.76	-70.58328
348.975	72.71852
349.191	-83.22208
349.407	41.09836
349.623	-30.55439
349.839	-34.76838
350.055	-81.11567
350.27	-1.05368
350.486	-1.05368
350.702	26.34407
350.918	-15.80464
351.133	-102.17852
351.349	53.7458
351.565	74.82672
351.781	-30.55439
351.996	-20.01897
352.212	17.91356
352.428	-22.12611
352.644	-5.26836
352.859	-43.19607
353.075	-28.44736
353.291	-55.83685
353.506	-13.69743
353.722	-26.3403
353.938	3.16109
354.153	7.37596
354.369	53.7458
354.584	3.16109
354.8	28.45175
355.016	-45.30293
355.231	36.88273
355.447	-43.19607
355.662	-70.58328
355.878	-62.1569
356.093	-68.47672
356.309	3.16109
356.524	-20.01897
356.74	-11.5902
356.955	-36.87534
357.171	-28.44736
357.386	-20.01897
357.602	70.61035
357.817	-24.23321
358.033	11.59093
358.248	-26.3403
358.464	22.12877
358.679	-5.26836
358.895	-47.40976
359.11	-26.3403
359.325	26.34407
359.541	-5.26836
359.756	-3.16104
359.972	-28.44736
360.187	-34.76838
360.402	-5.26836
360.618	-5.26836
360.833	28.45175
361.048	36.88273
361.264	22.12877
361.479	5.26851
361.694	41.09836
361.909	15.80599
362.125	24.2364
362.34	-47.40976
362.555	-11.5902
362.77	-62.1569
362.986	-1.05368
363.201	-45.30293
363.416	-30.55439
363.631	-3.16104
363.847	5.26851
364.062	-13.69743
364.277	-13.69743
364.492	-79.00925
364.707	-57.94356
364.922	-13.69743
365.138	-9.48295
365.353	-30.55439
365.568	20.02115
365.783	7.37596
365.998	45.31408
366.213	30.55946
366.428	-49.51657
366.643	5.26851
366.858	-28.44736
367.073	-11.5902
367.288	47.42198
367.503	24.2364
367.718	-64.26353
367.933	9.48343
368.148	-13.69743
368.363	-30.55439
368.578	-1.05368
368.793	-3.16104
369.008	11.59093
369.223	-38.98228
369.438	68.5022
369.653	-53.73012
369.868	-32.6614
370.083	-30.55439
370.298	-47.40976
370.513	-55.83685
370.728	-62.1569
370.943	28.45175
371.157	-32.6614
371.372	-30.55439
371.587	-7.37567
371.802	45.31408
372.017	22.12877
372.232	22.12877
372.446	-1.05368
372.661	-20.01897
372.876	-43.19607
373.091	3.16109
373.306	-81.11567
373.52	-24.23321
373.735	-26.3403
373.95	-22.12611
374.165	-30.55439
374.379	-26.3403
374.594	-13.69743
374.809	-36.87534
375.023	7.37596
375.238	36.88273
375.453	32.66719
375.667	-43.19607
375.882	-13.69743
376.097	95.90989
376.311	-34.76838
376.526	-13.69743
376.741	1.05369
376.955	3.16109
377.17	-43.19607
377.384	-34.76838
377.599	38.99053
377.813	9.48343
378.028	-13.69743
378.242	17.91356
378.457	-79.00925
378.672	70.61035
378.886	38.99053
379.101	-1.05368
379.315	-53.73012
379.53	13.69845
379.744	-38.98228
379.958	28.45175
380.173	-38.98228
380.387	-22.12611
380.602	-26.3403
380.816	-13.69743
381.031	11.59093
381.245	-9.48295
381.459	20.02115
381.674	-22.12611
381.888	9.48343
382.103	-85.32845
382.317	15.80599
382.531	-49.51657
382.746	-22.12611
382.96	15.80599
383.174	-1.05368
383.388	-45.30293
383.603	-7.37567
383.817	-85.32845
384.031	-11.5902
384.246	7.37596
384.46	-47.40976
384.674	-30.55439
384.888	20.02115
385.103	28.45175
385.317	-13.69743
385.531	-34.76838
385.745	5.26851
385.959	-5.26836
386.174	-74.79631
386.388	1.05369
386.602	11.59093
386.816	-38.98228
387.03	20.02115
387.244	15.80599
387.458	1.05369
387.672	11.59093
387.887	-70.58328
388.101	24.2364
388.315	20.02115
388.529	5.26851
388.743	-47.40976
388.957	-5.26836
389.171	-55.83685
389.385	-72.68981
389.599	-7.37567
389.813	-87.4348
390.027	-9.48295
390.241	-5.26836
390.455	-89.54113
390.669	-5.26836
390.883	-30.55439
391.097	20.02115
391.311	22.12877
391.525	-13.69743
391.738	-7.37567
391.952	-13.69743
392.166	-38.98228
392.38	-51.62336
392.594	30.55946
392.808	-13.69743
393.022	17.91356
393.236	-1.05368
393.449	17.91356
393.663	22.12877
393.877	-5.26836
394.091	64.28597
394.305	-3.16104
394.518	-7.37567
394.732	-28.44736
394.946	-43.19607
395.16	26.34407
395.373	-64.26353
395.587	85.36802
395.801	30.55946
396.015	3.16109
396.228	-1.05368
396.442	-24.23321
396.656	81.15143
396.869	-49.51657
397.083	11.59093
397.297	-13.69743
397.51	-5.26836
397.724	-24.23321
397.938	-9.48295
398.151	11.59093
398.365	-45.30293
398.578	-5.26836
398.792	-1.05368
399.005	-64.26353
399.219	-13.69743
399.433	11.59093
399.646	-131.6621
399.86	43.20621
400.073	-70.58328
400.287	-51.62336
400.5	49.5299
400.714	49.5299
400.927	-22.12611
401.141	-3.16104
401.354	-13.69743
401.567	-13.69743
401.781	-1.05368
401.994	79.04317
402.208	51.63784
402.421	7.37596
402.635	11.59093
402.848	22.12877
403.061	-60.05024
403.275	-13.69743
403.488	-22.12611
403.701	60.06984
403.915	-57.94356
404.128	-83.22208
404.341	-79.00925
404.555	66.39408
404.768	38.99053
404.981	-30.55439
405.195	72.71852
405.408	7.37596
405.621	-17.91182
405.834	-81.11567
406.048	-9.48295
406.261	-28.44736
406.474	26.34407
406.687	-9.48295
406.9	30.55946
407.114	36.88273
407.327	-38.98228
407.54	15.80599
407.753	-24.23321
407.966	-1.05368
408.179	41.09836
408.392	17.91356
408.605	-5.26836
408.819	-17.91182
409.032	-30.55439
409.245	11.59093
409.458	-5.26836
409.671	13.69845
409.884	-32.6614
410.097	64.28597
410.31	32.66719
410.523	45.31408
410.736	-51.62336
410.949	41.09836
411.162	1.05369
411.375	28.45175
411.588	24.2364
411.801	-51.62336
412.014	9.48343
412.227	24.2364
412.44	30.55946
412.653	-1.05368
412.865	22.12877
413.078	-85.32845
413.291	-51.62336
413.504	-34.76838
413.717	-85.32845
413.93	15.80599
414.143	5.26851
414.356	-5.26836
414.568	-34.76838
414.781	-26.3403
414.994	-95.85994
415.207	-53.73012
415.42	-11.5902
415.632	-1.05368
415.845	-55.83685
416.058	-17.91182
416.271	-87.4348
416.483	15.80599
416.696	1.05369
416.909	-30.55439
417.121	13.69845
417.334	55.85379
417.547	32.66719
417.759	3.16109
417.972	15.80599
418.185	20.02115
418.397	28.45175
418.61	-3.16104
418.823	-11.5902
419.035	36.88273
419.248	-26.3403
419.46	-43.19607
419.673	-38.98228
419.885	55.85379
420.098	-66.37014
420.311	22.12877
420.523	47.42198
420.736	-70.58328
420.948	-9.48295
421.161	-24.23321
421.373	-15.80464
421.586	49.5299
421.798	-28.44736
422.01	-9.48295
422.223	7.37596
422.435	32.66719
422.648	-43.19607
422.86	-60.05024
423.073	30.55946
423.285	3.16109
423.497	-22.12611
423.71	-20.01897
423.922	-9.48295
424.134	5.26851
424.347	-32.6614
424.559	-5.26836
424.771	-38.98228
424.984	17.91356
425.196	-72.68981
425.408	-5.26836
425.621	5.26851
425.833	-28.44736
426.045	38.99053
426.257	-53.73012
426.47	-5.26836
426.682	-30.55439
426.894	-34.76838
427.106	26.34407
427.318	-47.40976
427.531	28.45175
427.743	-47.40976
427.955	20.02115
428.167	-13.69743
428.379	-24.23321
428.591	-26.3403
428.804	-9.48295
429.016	-55.83685
429.228	-15.80464
429.44	45.31408
429.652	-22.12611
429.864	-51.62336
430.076	-74.79631
430.288	-22.12611
430.5	-30.55439
430.712	-28.44736
430.924	-34.76838
431.136	-28.44736
431.348	-47.40976
431.56	11.59093
431.772	-26.3403
431.984	20.02115
432.196	-5.26836
432.408	9.48343
432.62	-83.22208
432.832	9.48343
433.044	-7.37567
433.256	-17.91182
433.468	7.37596
433.679	-51.62336
433.891	-55.83685
434.103	22.12877
434.315	-28.44736
434.527	-13.69743
434.739	-9.48295
434.95	-68.47672
435.162	-38.98228
435.374	41.09836
435.586	-17.91182
435.798	17.91356
436.009	-3.16104
436.221	5.26851
436.433	-26.3403
436.645	20.02115
436.856	-17.91182
437.068	7.37596
437.28	-34.76838
437.491	-13.69743
437.703	-64.26353
437.915	47.42198
438.126	20.02115
438.338	-28.44736
438.55	-20.01897
438.761	32.66719
438.973	-30.55439
439.184	-30.55439
439.396	41.09836
439.608	-20.01897
439.819	7.37596
440.031	-13.69743
440.242	-72.68981
440.454	20.02115
440.665	-24.23321
440.877	-51.62336
441.088	-13.69743
441.3	70.61035
441.511	-51.62336
441.723	95.90989
441.934	-47.40976
442.146	-28.44736
442.357	17.91356
442.569	26.34407
442.78	20.02115
442.991	-22.12611
443.203	24.2364
443.414	-72.68981
443.626	1.05369
443.837	-3.16104
444.048	7.37596
444.26	36.88273
444.471	28.45175
444.682	-36.87534
444.894	36.88273
445.105	-13.69743
445.316	32.66719
445.528	28.45175
445.739	15.80599
445.95	-28.44736
446.161	-100.07236
446.373	-20.01897
446.584	-5.26836
446.795	-11.5902
447.006	-72.68981
447.217	-26.3403
447.429	3.16109
447.64	-30.55439
447.851	-22.12611
448.062	-30.55439
448.273	-28.44736
448.484	-24.23321
448.695	5.26851
448.907	7.37596
449.118	-7.37567
449.329	-11.5902
449.54	13.69845
449.751	-55.83685
449.962	20.02115
450.173	-43.19607
450.384	-45.30293
450.595	-47.40976
450.806	-28.44736
451.017	-5.26836
451.228	-9.48295
451.439	-28.44736
451.65	-3.16104
451.861	-5.26836
452.072	5.26851
452.283	-47.40976
452.494	43.20621
452.705	-30.55439
452.915	-30.55439
453.126	-13.69743
453.337	-45.30293
453.548	3.16109
453.759	3.16109
453.97	-43.19607
454.181	-20.01897
454.391	5.26851
454.602	-36.87534
454.813	9.48343
455.024	-15.80464
455.235	45.31408
455.445	-17.91182
455.656	-36.87534
455.867	-5.26836
456.078	3.16109
456.288	-45.30293
456.499	-34.76838
456.71	-47.40976
456.921	-45.30293
457.131	-30.55439
457.342	-24.23321
457.553	30.55946
457.763	-85.32845
457.974	-17.91182
458.184	20.02115
458.395	32.66719
458.606	20.02115
458.816	-85.32845
459.027	-49.51657
459.237	-30.55439
459.448	-68.47672
459.659	32.66719
459.869	-1.05368
460.08	32.66719
460.29	-81.11567
460.501	-13.69743
460.711	-1.05368
460.922	3.16109
461.132	-24.23321
461.343	45.31408
461.553	-17.91182
461.764	-38.98228
461.974	45.31408
462.184	49.5299
462.395	-22.12611
462.605	15.80599
462.816	49.5299
463.026	-3.16104
463.236	60.06984
463.447	36.88273
463.657	3.16109
463.867	53.7458
464.078	45.31408
464.288	-87.4348
464.498	-64.26353
464.709	57.9618
464.919	-43.19607
465.129	66.39408
465.339	-45.30293
465.55	-36.87534
465.76	-11.5902
465.97	3.16109
466.18	3.16109
466.391	13.69845
466.601	-1.05368
466.811	-17.91182
467.021	15.80599
467.231	17.91356
467.441	-30.55439
467.651	-15.80464
467.862	5.26851
468.072	-36.87534
468.282	-47.40976
468.492	-51.62336
468.702	1.05369
468.912	-93.7537
469.122	-22.12611
469.332	-38.98228
469.542	62.17789
469.752	-38.98228
469.962	-83.22208
470.172	-30.55439
470.382	-51.62336
470.592	-66.37014
470.802	22.12877
471.012	28.45175
471.222	-13.69743
471.432	-30.55439
471.642	-66.37014
471.852	-3.16104
472.062	34.77495
472.272	-45.30293
472.482	-28.44736
472.691	45.31408
472.901	1.05369
473.111	24.2364
473.321	-7.37567
473.531	-32.6614
473.741	36.88273
473.95	11.59093
474.16	38.99053
474.37	-11.5902
474.58	64.28597
474.79	-22.12611
474.999	11.59093
475.209	53.7458
475.419	43.20621
475.628	-9.48295
475.838	-11.5902
476.048	-64.26353
476.258	26.34407
476.467	7.37596
476.677	49.5299
476.886	1.05369
477.096	-53.73012
477.306	60.06984
477.515	70.61035
477.725	-41.08919
477.935	22.12877
478.144	-38.98228
478.354	24.2364
478.563	36.88273
478.773	43.20621
478.982	13.69845
479.192	-72.68981
479.401	-43.19607
479.611	-11.5902
479.82	-28.44736
480.03	-55.83685
480.239	7.37596
480.449	-30.55439
480.658	49.5299
480.868	-24.23321
481.077	64.28597
481.287	49.5299
481.496	-51.62336
481.705	13.69845
481.915	-38.98228
482.124	-22.12611
482.333	41.09836
482.543	45.31408
482.752	3.16109
482.961	-7.37567
483.171	-53.73012
483.38	-9.48295
483.589	62.17789
483.799	32.66719
484.008	-41.08919
484.217	-55.83685
484.426	20.02115
484.636	3.16109
484.845	-30.55439
485.054	-9.48295
485.263	-43.19607
485.472	-72.68981
485.682	-20.01897
485.891	70.61035
486.1	-30.55439
486.309	51.63784
486.518	20.02115
486.727	123.32132
486.936	11.59093
487.146	20.02115
487.355	5.26851
487.564	24.2364
487.773	-11.5902
487.982	15.80599
488.191	55.85379
488.4	7.37596
488.609	-7.37567
488.818	76.93493
489.027	5.26851
489.236	36.88273
489.445	-17.91182
489.654	5.26851
489.863	5.26851
490.072	51.63784
490.281	89.5847
490.49	28.45175
490.698	72.71852
490.907	3.16109
491.116	22.12877
491.325	-17.91182
491.534	43.20621
491.743	41.09836
491.952	53.7458
492.16	38.99053
492.369	30.55946
492.578	38.99053
492.787	-24.23321
492.996	15.80599
493.204	45.31408
493.413	22.12877
493.622	79.04317
493.831	66.39408
494.039	22.12877
494.248	20.02115
494.457	-47.40976
494.665	81.15143
494.874	45.31408
495.083	68.5022
495.291	41.09836
495.5	87.47635
495.709	81.15143
495.917	36.88273
496.126	43.20621
496.335	38.99053
496.543	108.56086
496.752	15.80599
496.96	-9.48295
497.169	64.28597
497.377	55.85379
497.586	30.55946
497.794	9.48343
498.003	-36.87534
498.211	-38.98228
498.42	62.17789
498.628	41.09836
498.837	45.31408
499.045	-45.30293
499.254	11.59093
499.462	55.85379
499.671	72.71852
499.879	45.31408
500.087	7.37596
500.296	11.59093
500.504	102.23527
500.713	-38.98228
500.921	70.61035
501.129	9.48343
501.338	108.56086
501.546	49.5299
501.754	32.66719
501.962	53.7458
502.171	41.09836
502.379	-38.98228
502.587	100.12679
502.795	3.16109
503.004	30.55946
503.212	72.71852
503.42	28.45175
503.628	-20.01897
503.837	57.9618
504.045	9.48343
504.253	123.32132
504.461	-1.05368
504.669	45.31408
504.877	11.59093
505.085	192.92041
505.294	83.25972
505.502	53.7458
505.71	87.47635
505.918	30.55946
506.126	-9.48295
506.334	72.71852
506.542	125.43005
506.75	66.39408
506.958	91.69308
507.166	129.64756
507.374	41.09836
507.582	20.02115
507.79	102.23527
507.998	30.55946
508.206	74.82672
508.414	87.47635
508.622	95.90989
508.83	74.82672
509.037	57.9618
509.245	89.5847
509.453	79.04317
509.661	146.51847
509.869	62.17789
510.077	89.5847
510.285	108.56086
510.492	95.90989
510.7	91.69308
510.908	163.39074
511.116	64.28597
511.324	47.42198
511.531	53.7458
511.739	28.45175
511.947	28.45175
512.155	62.17789
512.362	49.5299
512.57	142.30062
512.778	95.90989
512.985	74.82672
513.193	91.69308
513.401	201.3582
513.608	138.08285
513.816	51.63784
514.024	81.15143
514.231	87.47635
514.439	163.39074
514.646	24.2364
514.854	188.70164
515.061	102.23527
515.269	72.71852
515.477	142.30062
515.684	95.90989
515.892	140.19172
516.099	121.21262
516.307	72.71852
516.514	157.06349
516.722	190.81102
516.929	116.99528
517.136	53.7458
517.344	95.90989
517.551	87.47635
517.759	146.51847
517.966	127.53879
518.173	91.69308
518.381	135.97399
518.588	163.39074
518.796	184.48295
519.003	104.34378
519.21	176.04582
519.418	100.12679
519.625	138.08285
519.832	112.77803
520.039	104.34378
520.247	91.69308
520.454	190.81102
520.661	180.26435
520.868	110.66943
521.076	87.47635
521.283	157.06349
521.49	138.08285
521.697	125.43005
521.904	108.56086
522.112	163.39074
522.319	144.40954
522.526	121.21262
522.733	167.60902
522.94	205.57721
523.147	154.95444
523.354	171.82738
523.561	233.00273
523.768	207.68674
523.975	129.64756
524.183	89.5847
524.39	226.67346
524.597	135.97399
524.804	233.00273
525.011	207.68674
525.218	197.13926
525.425	180.26435
525.632	233.00273
525.838	171.82738
526.045	287.86356
526.252	214.01547
526.459	150.73642
526.666	199.24872
526.873	233.00273
527.08	157.06349
527.287	247.77168
527.494	197.13926
527.701	184.48295
527.907	251.99156
528.114	182.37364
528.321	256.21151
528.528	173.93659
528.735	216.12509
528.941	311.07772
529.148	233.00273
529.355	171.82738
529.562	209.7963
529.768	245.66178
529.975	197.13926
530.182	294.19448
530.388	182.37364
530.595	243.55189
530.802	239.33216
531.008	197.13926
531.215	237.22233
531.422	237.22233
531.628	199.24872
531.835	338.51543
532.042	243.55189
532.248	273.09208
532.455	334.29405
532.661	317.40923
532.868	306.8568
533.074	273.09208
533.281	302.63595
533.487	264.65165
533.694	319.51977
533.9	317.40923
534.107	264.65165
534.313	391.28851
534.52	279.42261
534.726	344.84764
534.933	349.06919
535.139	243.55189
535.345	264.65165
535.552	325.8515
535.758	315.29871
535.965	311.07772
536.171	260.43154
536.377	361.73427
536.584	281.53282
536.79	319.51977
536.996	355.40166
537.203	332.18339
537.409	300.52556
537.615	414.51198
537.821	275.20224
538.028	344.84764
538.234	384.95518
538.44	357.51251
538.646	368.06705
538.853	365.95611
539.059	323.7409
539.265	429.29157
539.471	277.31241
539.677	315.29871
539.883	359.62338
540.09	391.28851
540.296	410.28938
540.502	488.41755
540.708	359.62338
540.914	357.51251
541.12	399.73318
541.326	391.28851
541.532	380.73305
541.738	450.40661
541.944	391.28851
542.15	479.97025
542.356	401.84439
542.562	501.08894
542.768	408.17811
542.974	427.18015
543.18	387.06628
543.386	494.75318
543.592	437.73739
543.798	596.14053
544.004	378.62201
544.21	530.65755
544.415	465.18806
544.621	507.42484
544.827	473.63494
545.033	558.11657
545.239	382.84411
545.445	536.99404
545.651	498.97701
545.856	547.55513
546.062	564.4536
546.268	553.89196
546.474	492.64129
546.679	547.55513
546.885	490.52941
547.091	551.77967
547.297	467.29976
547.502	640.50708
547.708	467.29976
547.914	670.08778
548.119	644.73275
548.325	498.97701
548.531	536.99404
548.736	596.14053
548.942	661.63592
549.147	670.08778
549.353	517.98495
549.559	682.76593
549.764	625.71762
549.97	632.05589
550.175	560.2289
550.381	701.78392
550.586	509.53683
550.792	716.57631
550.997	706.01026
551.203	750.38947
551.408	697.55762
551.614	748.27607
551.819	695.44449
552.025	860.29975
552.23	678.53983
552.435	788.43243
552.641	725.02935
552.846	686.99207
553.052	746.16268
553.257	697.55762
553.462	741.93593
553.668	765.18357
553.873	627.83037
554.078	885.66711
554.283	708.12345
554.489	771.52405
554.694	779.97816
554.899	801.11412
555.105	746.16268
555.31	822.25103
555.515	845.50269
555.72	866.64148
555.925	847.61653
556.131	830.70605
556.336	815.90986
556.541	951.20475
556.746	763.0701
556.951	872.98328
557.156	756.72974
557.361	830.70605
557.567	885.66711
557.772	957.54748
557.977	839.16122
558.182	936.4053
558.387	792.65962
558.592	930.06278
558.797	830.70605
559.002	1109.78996
559.207	923.72034
559.412	1046.35194
559.617	820.1373
559.822	985.03336
560.027	940.63367
560.232	1118.2487
560.437	864.52756
560.642	1010.40594
560.847	961.776
561.051	913.14974
561.256	919.49208
561.461	1230.33325
561.666	936.4053
561.871	1122.4781
562.076	959.66174
562.281	991.37642
562.485	1018.86366
562.69	1035.77941
562.895	1071.72658
563.1	1067.49742
563.305	1050.58099
563.509	1270.5168
563.714	949.09052
563.919	1171.11744
564.123	999.83392
564.328	1133.05168
564.533	1139.39587
564.737	1084.41419
564.942	999.83392
565.147	1107.67528
565.351	1006.17711
565.556	1207.06958
565.761	1109.78996
565.965	1194.38047
566.17	1166.88784
566.374	1247.25252
566.579	1023.09256
566.784	1054.81006
566.988	1126.70752
567.193	1154.19916
567.397	1194.38047
567.602	1194.38047
567.806	1092.8727
568.011	1357.2314
568.215	1308.58624
568.42	1416.45247
568.624	1319.1612
568.828	1245.1376
569.033	1262.05702
569.237	1298.01132
569.442	1285.32149
569.646	1289.55143
569.85	1128.82223
570.055	1348.77131
570.259	1395.30201
570.463	1202.83986
570.668	1257.82715
570.872	1321.2762
571.076	1388.95689
571.281	1321.2762
571.485	1314.93121
571.689	1513.74475
571.893	1262.05702
572.098	1501.05449
572.302	1357.2314
572.506	1452.40834
572.71	1380.49674
572.914	1545.47026
573.119	1465.09865
573.323	1547.58528
573.527	1458.75349
573.731	1592.00049
573.935	1482.01906
574.139	1630.07006
574.343	1399.5321
574.547	1666.02399
574.751	1564.50544
574.955	1634.29997
575.159	1534.89511
575.364	1549.7003
575.568	1344.54128
575.772	1513.74475
575.976	1507.39962
576.18	1587.7705
576.383	1657.56431
576.587	1649.10458
576.791	1492.5943
576.995	1727.35531
577.199	1575.08049
577.403	1587.7705
577.607	1693.51765
577.811	1592.00049
578.015	1545.47026
578.219	1608.92038
578.422	1547.58528
578.626	1744.27381
578.83	1589.8855
579.034	1847.89414
579.238	1560.27541
579.442	1761.19208
579.645	1608.92038
579.849	1875.38344
580.053	1786.56903
580.257	1704.09201
580.46	1680.82833
580.664	1786.56903
580.868	1634.29997
581.071	1771.76588
581.275	1619.49525
581.479	1706.20687
581.682	1668.1389
581.886	1913.44409
582.09	1627.9551
582.293	1926.13059
582.497	1604.69042
582.7	1799.25729
582.904	1877.49796
583.107	1981.10297
583.311	1721.01081
583.515	2004.35927
583.718	1693.51765
583.922	1978.98873
584.125	1947.27429
584.329	1998.01672
584.532	1983.21721
584.735	2014.93006
584.939	1822.51869
585.142	2143.87946
585.346	1811.94539
585.549	2095.26241
585.753	1824.63334
585.956	2072.00936
586.159	1947.27429
586.363	2122.74211
586.566	1911.32966
586.769	2103.71784
586.973	2036.07112
587.176	2055.0975
587.379	1981.10297
587.582	2105.83168
587.786	2025.50067
587.989	2131.19714
588.192	1888.07051
588.395	2192.4923
588.599	2135.42461
588.802	2323.51267
589.005	2124.85588
589.208	2114.28695
589.411	2145.99315
589.615	2211.51352
589.818	2251.6671
590.021	2251.6671
590.224	2099.49014
590.427	2357.31852
590.63	2196.7193
590.833	2306.60881
591.036	2188.26527
591.239	2446.04647
591.442	2061.4395
591.645	2312.94783
591.848	2171.35682
592.051	2312.94783
592.254	2124.85588
592.457	2378.44588
592.66	2272.79927
592.863	2367.88233
593.066	2196.7193
593.269	2323.51267
593.472	2321.39972
593.675	2505.18792
593.878	2386.89654
594.081	2593.88332
594.284	2342.52877
594.486	2534.75534
594.689	2448.15881
594.892	2397.45963
595.095	2348.8673
595.298	2408.02246
595.5	2524.19581
595.703	2665.6688
595.906	2331.96437
596.109	2695.22331
596.311	2498.85176
596.514	2555.87354
596.717	2365.76959
596.92	2557.9853
597.122	2545.31459
597.325	2686.77942
597.528	2541.09093
597.73	2752.2141
597.933	2570.65558
598.136	2733.21824
598.338	2460.83265
598.541	2707.88875
598.743	2528.41966
598.946	2712.11047
599.148	2638.22311
599.351	2598.10639
599.554	2703.66699
599.756	2775.4298
599.959	2648.77939
600.161	2834.51686
600.363	2707.88875
600.566	2796.53355
600.768	2688.89041
600.971	2908.36022
601.173	2745.88226
601.376	2783.87146
601.578	2545.31459
601.78	3037.01575
601.983	2726.88604
602.185	2921.01732
602.388	2722.66451
602.59	2961.09463
602.792	2813.41558
602.995	2918.90784
603.197	2657.2242
603.399	2914.68883
603.601	2952.65774
603.804	3087.61877
604.006	2864.0563
604.208	3083.4022
604.41	2940.00197
604.613	2963.20381
604.815	2726.88604
605.017	2963.20381
605.219	2834.51686
605.421	3015.92853
605.623	2885.15419
605.826	3121.34909
606.028	2758.54581
606.23	3045.45021
606.432	2861.94643
606.634	3157.18306
606.836	2800.75414
607.038	3252.01492
607.24	2990.62184
607.442	3096.05173
607.644	2716.33212
607.846	3140.3206
608.048	2904.14107
608.25	3292.04489
608.452	2883.04447
608.654	3053.88442
608.856	2861.94643
609.058	3096.05173
609.26	2878.82497
609.462	3015.92853
609.664	3112.91689
609.866	3106.59258
610.067	2876.71521
610.269	3230.94407
610.471	3028.58105
610.673	3277.29772
610.875	2944.22062
611.077	3260.44279
611.278	2982.1858
611.48	3203.54948
611.682	3024.3636
611.884	3367.87421
612.085	3081.29389
612.287	3243.58678
612.489	3281.51128
612.69	3131.88898
612.892	3235.15838
613.094	3083.4022
613.295	3062.31839
613.497	3220.40802
613.699	3018.03732
613.9	3369.98026
614.102	2977.96768
614.304	3146.64414
614.505	3190.90488
614.707	3157.18306
614.908	3201.44209
615.11	3285.72477
615.311	3184.58236
615.513	3275.19091
615.714	3195.11981
615.916	3323.64315
616.117	3110.8088
616.319	3502.6256
616.52	3218.30076
616.722	3165.61391
616.923	3258.33585
617.124	3306.79123
617.326	3182.47482
617.527	3511.04512
617.729	3302.57807
617.93	3407.88614
618.131	3311.00431
618.333	3308.89778
618.534	3374.1923
618.735	3483.68063
618.937	3311.00431
619.138	3437.36453
619.339	3241.4797
619.54	3372.08629
619.742	3441.57544
619.943	3557.34721
620.144	3420.52016
620.345	3399.4631
620.546	3443.68087
620.748	3405.78041
620.949	3460.52367
621.15	3546.82479
621.351	3353.13137
621.552	3374.1923
621.753	3273.08409
621.954	3525.77857
622.155	3340.49398
622.356	3542.61569
622.558	3391.03978
622.759	3620.47197
622.96	3492.1008
623.161	3639.40611
623.362	3403.67466
623.563	3710.9212
623.764	3311.00431
623.965	3458.41838
624.166	3344.70652
624.366	3708.81813
624.567	3477.36531
624.768	3626.78352
624.969	3475.26017
625.17	3572.07782
625.371	3525.77857
625.572	3508.94027
625.773	3580.49491
625.973	3664.64925
626.174	3483.68063
626.375	3725.64214
626.576	3761.38906
626.777	3702.50881
626.977	3420.52016
627.178	3595.22409
627.379	3534.19728
627.58	3572.07782
627.78	3492.1008
627.981	3862.29099
628.182	3811.8457
628.382	3887.50934
628.583	3475.26017
628.784	3870.69743
628.984	3700.40566
629.185	3889.61074
629.386	3407.88614
629.586	3799.2326
629.787	3635.19866
629.987	3734.05369
630.188	3458.41838
630.388	3828.66206
630.589	3475.26017
630.79	3877.00205
630.99	3618.36809
631.191	3900.11744
631.391	3569.9735
631.591	3824.45809
631.792	3769.79928
631.992	3927.43249
632.193	3759.28646
632.393	3841.27351
632.594	3668.85617
632.794	3921.12932
632.994	3864.39263
633.195	3858.08765
633.395	3769.79928
633.595	3975.75076
633.796	3853.88424
633.996	4026.15832
634.196	3652.02802
634.397	4141.63078
634.597	3677.26979
634.797	4162.61899
634.997	3889.61074
635.198	3948.44175
635.398	3837.06977
635.598	3906.42121
635.798	3811.8457
635.998	3746.67042
636.199	3721.43626
636.399	3963.14703
636.599	3593.11997
636.799	4028.25838
636.999	3889.61074
637.199	4217.17845
637.399	3830.76402
637.599	3931.63451
637.799	3864.39263
637.999	4252.84418
638.199	3889.61074
638.399	4194.09735
638.599	3845.47716
638.799	4063.95622
638.999	3906.42121
639.199	4137.43289
639.399	3822.35608
639.599	4191.99894
639.799	3870.69743
639.999	4278.01628
640.199	3820.25404
640.399	4015.65772
640.599	3925.33145
640.799	4158.42152
640.998	4097.54873
641.198	4345.12675
641.398	4147.92747
641.598	4248.64854
641.798	3931.63451
641.997	4361.90091
642.197	3904.31997
642.397	4105.94602
642.597	4147.92747
642.796	4303.18529
642.996	3988.35375
643.196	4110.14454
643.395	3971.5496
643.595	4208.78562
643.795	4177.30948
643.994	4410.11889
644.194	4248.64854
644.394	4422.69559
644.593	4183.60509
644.793	4309.47706
644.992	4099.64808
645.192	4223.47285
645.392	4259.1375
645.591	4588.21501
645.791	4156.32275
645.99	4452.03817
646.19	4269.62593
646.389	4510.71042
646.589	4101.74741
646.788	4433.17558
646.987	4408.02269
647.187	4449.94242
647.386	4401.73398
647.586	4651.03418
647.785	4493.94868
647.984	4493.94868
648.184	4198.2941
648.383	4558.89252
648.582	4112.24377
648.782	4491.85337
648.981	4240.25698
649.18	4328.3512
649.38	4382.86667
649.579	4529.56568
649.778	4298.99067
649.977	4621.72107
650.177	4458.32531
650.376	4596.59206
650.575	4101.74741
650.774	4688.71601
650.973	4537.94522
651.173	4701.27499
651.372	4387.05955
651.571	4408.02269
651.77	4596.59206
651.969	4533.7555
652.168	4336.73915
652.367	4537.94522
652.566	4464.61225
652.765	4550.51387
652.964	4479.28101
653.163	4686.62276
653.362	4506.52012
653.561	4697.08876
653.76	4441.55917
653.959	4592.40358
654.158	4445.75084
654.357	4594.49783
654.556	4558.89252
654.755	4692.90243
654.954	4640.56572
655.153	4615.43912
655.352	4565.17628
655.551	4573.55431
655.749	4751.50282
655.948	4548.41915
656.147	4653.12781
656.346	4845.6448
656.545	4630.0967
656.743	4684.5295
656.942	4621.72107
657.141	4864.46767
657.34	4449.94242
657.538	4897.92596
657.737	4680.3429
657.936	4868.65027
658.135	4655.22141
658.333	4692.90243
658.532	4611.25104
658.731	4745.22506
658.929	4447.84664
659.128	4697.08876
659.326	4642.65946
659.525	4904.19874
659.724	4674.06283
659.922	4766.15015
660.121	4694.9956
660.319	4753.59537
660.518	4405.92648
660.716	4902.10784
660.915	4667.78256
661.113	4778.70412
661.312	4694.9956
661.51	4998.2656
661.709	4588.21501
661.907	4910.47131
662.105	4638.47196
662.304	5129.8807
662.502	4663.5956
662.701	4897.92596
662.899	4671.96943
663.097	4843.55326
663.296	4619.62711
663.494	4845.6448
663.692	4567.27082
663.891	4912.56212
664.089	4659.40855
664.287	4943.92154
664.485	4703.36808
664.684	5119.43842
664.882	4745.22506
665.08	5079.75245
665.278	4881.19755
665.476	4987.81603
665.675	4795.44147
665.873	5069.30739
666.071	4793.34938
666.269	4971.09552
666.467	4943.92154
666.665	5033.78984
666.863	4778.70412
667.061	5075.5745
667.259	4787.07298
667.457	5027.52134
667.655	4569.36534
667.853	4994.08584
668.051	4883.28868
668.249	4946.01198
668.447	4893.744
668.645	5077.66349
668.843	5060.95092
669.041	4946.01198
669.239	4803.80961
669.437	4931.37839
669.635	4920.92514
669.833	4979.45596
670.031	4822.63657
670.229	5054.68332
670.426	4837.27849
670.624	4902.10784
670.822	4879.10639
671.02	5165.38011
671.218	4918.83442
671.415	5207.1355
671.613	4814.26926
671.811	5014.98372
672.009	4801.71761
672.206	5111.08417
672.404	4958.55416
672.602	5046.32621
672.799	5000.35545
672.997	5115.26134
673.195	4738.94709
673.392	5058.86174
673.59	4828.91182
673.788	5121.52692
673.985	4866.55898
674.183	4956.46386
674.38	4893.744
674.578	4849.82782
674.775	4996.17574
674.973	4902.10784
675.17	4906.28962
675.368	4902.10784
675.565	5012.89404
675.763	5019.16302
675.96	4906.28962
676.158	5171.64401
676.355	4977.36588
676.553	5336.51788
676.75	4807.99354
676.947	5040.05813
677.145	4872.83279
677.342	4973.18566
677.539	4908.38048
677.737	5111.08417
677.934	4902.10784
678.131	5054.68332
678.329	4914.65291
678.526	5186.25897
678.723	4839.37011
678.92	5198.78517
679.118	4931.37839
679.315	5144.49892
679.512	4977.36588
679.709	5278.09826
679.906	4793.34938
680.104	5200.87279
680.301	4985.72605
680.498	5228.00971
680.695	4843.55326
680.892	5188.34673
681.089	4891.65298
681.286	5081.8414
681.483	5035.87929
681.68	5081.8414
681.877	4918.83442
682.075	4904.19874
682.272	4948.1024
682.469	5102.72956
682.665	4939.74058
682.862	5108.99555
683.059	5083.93032
683.256	5081.8414
683.453	4707.55418
683.65	4885.37979
683.847	4707.55418
684.044	5146.58714
684.241	4977.36588
684.438	5271.83793
684.635	4954.37353
684.831	5023.34223
685.028	4849.82782
685.225	5040.05813
685.422	4738.94709
685.619	5119.43842
685.815	4833.0952
686.012	5200.87279
686.209	4837.27849
686.405	4960.64445
686.602	4860.28497
686.799	5019.16302
686.996	4872.83279
687.192	5046.32621
687.389	4994.08584
687.586	5202.96038
687.782	4822.63657
687.979	4991.99593
688.175	4694.9956
688.372	5144.49892
688.568	4743.13242
688.765	5008.7146
688.962	4864.46767
689.158	4854.01075
689.355	4841.46169
689.551	4860.28497
689.748	4831.00352
689.944	5138.2341
690.14	4910.47131
690.337	5144.49892
690.533	5165.38011
690.73	5008.7146
690.926	4985.72605
691.123	4996.17574
691.319	4847.73632
691.515	4979.45596
691.712	4979.45596
691.908	5190.43446
692.104	4722.20484
692.301	4787.07298
692.497	4881.19755
692.693	4914.65291
692.889	4787.07298
693.086	4920.92514
693.282	4862.37633
693.478	5152.85167
693.674	4889.56194
693.87	5004.53507
694.067	4868.65027
694.263	5040.05813
694.459	4889.56194
694.655	5042.14751
694.851	4889.56194
695.047	4998.2656
695.243	4847.73632
695.439	4987.81603
695.635	4651.03418
695.831	4889.56194
696.027	5012.89404
696.224	4904.19874
696.42	4906.28962
696.615	4981.54601
696.811	4985.72605
697.007	4889.56194
697.203	4914.65291
697.399	5031.70036
697.595	4818.45296
697.791	4874.92401
697.987	4828.91182
698.183	4874.92401
698.379	4730.57614
698.575	5023.34223
698.77	4772.42724
698.966	5031.70036
699.162	4787.07298
699.358	5014.98372
699.554	4776.61185
699.749	5173.73193
699.945	4803.80961
700.141	4960.64445
700.337	4927.19716
700.532	4851.9193
700.728	4634.28437
700.924	5083.93032
701.119	4868.65027
701.315	5014.98372
701.511	4602.87462
701.706	5200.87279
701.902	4904.19874
702.097	4866.55898
702.293	4962.73471
702.489	4989.90599
702.684	5004.53507
702.88	4868.65027
703.075	4774.51955
703.271	4856.10218
703.466	4856.10218
703.662	4738.94709
703.857	4923.01584
704.053	5056.77255
704.248	4843.55326
704.443	4862.37633
704.639	4743.13242
704.834	5021.25263
705.03	4835.18686
705.225	4866.55898
705.42	4544.22965
705.616	4941.83107
705.811	4807.99354
706.006	4973.18566
706.202	4642.65946
706.397	4935.55953
706.592	4820.54478
706.787	4946.01198
706.983	4768.24254
707.178	4837.27849
707.373	4682.43621
707.568	4778.70412
707.763	4648.94054
707.959	5046.32621
708.154	4826.82009
708.349	4799.62559
708.544	4751.50282
708.739	4860.28497
708.934	4663.5956
709.129	4877.01521
709.324	4705.46114
709.519	4877.01521
709.714	4743.13242
709.909	4929.28779
710.104	5023.34223
710.299	5088.10809
710.494	4927.19716
710.689	5046.32621
710.884	4617.53313
711.079	4920.92514
711.274	4671.96943
711.469	5008.7146
711.664	4998.2656
711.859	5119.43842
712.054	4705.46114
712.249	4893.744
712.443	4713.83317
712.638	4975.27578
712.833	4778.70412
713.028	5060.95092
713.223	4743.13242
713.417	4960.64445
713.612	4701.27499
713.807	4904.19874
714.002	4793.34938
714.196	4881.19755
714.391	4812.17737
714.586	4948.1024
714.78	4818.45296
714.975	5077.66349
715.17	4789.16514
715.364	4927.19716
715.559	4780.79637
715.754	4715.92612
715.948	4703.36808
716.143	4814.26926
716.337	4770.3349
716.532	4923.01584
716.726	4732.66891
716.921	5037.96872
717.115	4569.36534
717.31	4833.0952
717.504	4584.02635
717.699	4665.68909
717.893	4376.57717
718.088	4893.744
718.282	4761.96531
718.476	4833.0952
718.671	4609.15697
718.865	4778.70412
719.059	4510.71042
719.254	4680.3429
719.448	4533.7555
719.642	4648.94054
719.837	4529.56568
720.031	4709.6472
720.225	4548.41915
720.419	4814.26926
720.614	4598.68627
720.808	4634.28437
721.002	4854.01075
721.196	4766.15015
721.39	4674.06283
721.585	4801.71761
721.779	4688.71601
721.973	4584.02635
722.167	4470.89899
722.361	4598.68627
722.555	4663.5956
722.749	4604.96876
722.943	4424.79163
723.137	4847.73632
723.331	4412.21506
723.525	4705.46114
723.719	4496.04398
723.913	4498.13925
724.107	4384.96312
724.301	4630.0967
724.495	4372.38406
724.689	4588.21501
724.883	4577.74319
725.077	4535.85037
725.271	4697.08876
725.465	4797.53354
725.659	4531.6606
725.853	4592.40358
726.046	4384.96312
726.24	4715.92612
726.434	4573.55431
726.628	4646.84687
726.822	4529.56568
727.015	4759.87286
727.209	4410.11889
727.403	4743.13242
727.596	4470.89899
727.79	4814.26926
727.984	4734.76166
728.177	4774.51955
728.371	4552.60857
728.565	4556.79789
728.758	4544.22965
728.952	4688.71601
729.146	4317.86579
729.339	4764.05774
729.533	4579.8376
729.726	4776.61185
729.92	4445.75084
730.113	4726.39053
730.307	4609.15697
730.5	4628.00282
730.694	4575.64876
730.887	4755.68789
731.081	4743.13242
731.274	4678.24956
731.468	4357.7075
731.661	4751.50282
731.854	4607.06287
732.048	4705.46114
732.241	4621.72107
732.435	4747.31767
732.628	4554.70324
732.821	4734.76166
733.014	4617.53313
733.208	4789.16514
733.401	4697.08876
733.594	4611.25104
733.788	4445.75084
733.981	4659.40855
734.174	4382.86667
734.367	4558.89252
734.56	4590.30931
734.754	4579.8376
734.947	4577.74319
735.14	4826.82009
735.333	4590.30931
735.526	4692.90243
735.719	4418.50344
735.912	4667.78256
736.105	4525.37578
736.298	4858.19358
736.491	4678.24956
736.684	4655.22141
736.877	4686.62276
737.07	4684.5295
737.263	4667.78256
737.456	4793.34938
737.649	4665.68909
737.842	4548.41915
738.035	4382.86667
738.228	4311.57428
738.421	4560.98713
738.614	4682.43621
738.807	4718.01905
739	4512.80554
739.192	4594.49783
739.385	4479.28101
739.578	4338.83608
739.771	4575.64876
739.964	4248.64854
740.156	4657.31499
740.349	4594.49783
740.542	4542.13486
740.735	4579.8376
740.927	4692.90243
741.12	4554.70324
741.313	4519.09076
741.505	4787.07298
741.698	4546.32441
741.891	4498.13925
742.083	4600.78045
742.276	4772.42724
742.468	4697.08876
742.661	4586.12069
742.854	4598.68627
743.046	4496.04398
743.239	4540.04005
743.431	4596.59206
743.624	4485.56729
743.816	4454.13391
744.009	4456.22962
744.201	4238.15904
744.393	4537.94522
744.586	4395.44507
744.778	4531.6606
744.971	4401.73398
745.163	4621.72107
745.355	4454.13391
745.548	4514.90063
745.74	4462.51663
745.932	4602.87462
746.125	4477.18554
746.317	4621.72107
746.509	4315.76864
746.702	4584.02635
746.894	4401.73398
747.086	4343.02988
747.278	4405.92648
747.471	4412.21506
747.663	4366.09424
747.855	4491.85337
748.047	4275.91873
748.239	4426.88765
748.431	4508.61528
748.623	4527.47074
748.815	4252.84418
749.008	4452.03817
749.2	4315.76864
749.392	4477.18554
749.584	4426.88765
749.776	4642.65946
749.968	4370.28748
750.16	4418.50344
750.352	4198.2941
750.544	4340.933
750.736	4575.64876
750.928	4554.70324
751.12	4389.15597
751.311	4257.03975
751.503	4311.57428
751.695	4380.77019
751.887	4374.48063
752.079	4667.78256
752.271	4577.74319
752.463	4640.56572
752.654	4489.75803
752.846	4600.78045
753.038	4231.86509
753.23	4558.89252
753.421	4307.37983
753.613	4542.13486
753.805	4380.77019
753.997	4445.75084
754.188	4483.47188
754.38	4456.22962
754.572	4215.08027
754.763	4326.25416
754.955	4349.32042
755.146	4380.77019
755.338	4309.47706
755.53	4328.3512
755.721	4240.25698
755.913	4269.62593
756.104	4223.47285
756.296	4351.41723
756.487	4282.21133
756.679	4233.96309
756.87	4227.66901
757.062	4292.69858
757.253	4263.33293
757.445	4290.60117
757.636	4355.61077
757.827	4399.6377
758.019	4208.78562
758.21	4112.24377
758.401	4070.25522
758.593	4219.2766
758.784	4185.70358
758.975	4166.81638
759.167	4097.54873
759.358	4298.99067
759.549	4120.64048
759.74	4496.04398
759.932	4131.13589
760.123	4301.08799
760.314	4053.45748
760.505	4152.12515
760.696	3963.14703
760.888	4158.42152
761.079	3887.50934
761.27	3895.91482
761.461	3942.13919
761.652	4129.03685
761.843	3906.42121
762.034	4063.95622
762.225	4101.74741
762.416	4210.88386
762.607	3780.31162
762.798	3931.63451
762.989	4103.84673
763.18	3912.72481
763.371	3887.50934
763.562	3969.44899
763.753	3704.61193
763.944	3933.73548
764.135	3996.75534
764.326	3967.34835
764.517	3950.54257
764.708	4074.45445
764.899	4045.05811
765.089	3988.35375
765.28	3963.14703
765.471	4124.83871
765.662	3971.5496
765.853	4028.25838
766.043	3935.83644
766.234	3988.35375
766.425	3828.66206
766.615	3940.03829
766.806	3830.76402
766.997	3984.15284
767.187	3782.41403
767.378	3828.66206
767.569	3624.67969
767.759	3755.08119
767.95	3630.99113
768.141	3954.74414
768.331	3656.23517
768.522	4015.65772
768.712	3797.13035
768.903	3860.18933
769.093	3742.46492
769.284	3801.33483
769.474	3565.76481
769.665	3786.61879
769.855	3713.02425
770.046	3895.91482
770.236	3727.74506
770.426	3858.08765
770.617	3757.18383
770.807	3742.46492
770.998	3691.99288
771.188	3807.64141
771.378	3637.3024
771.569	3673.06302
771.759	3710.9212
771.949	3540.51112
772.139	3818.15199
772.33	3597.32818
772.52	3639.40611
772.71	3746.67042
772.9	3551.03381
773.09	3755.08119
773.281	3689.88964
773.471	3866.49425
773.661	3664.64925
773.851	3811.8457
774.041	3603.64035
774.231	3687.78638
774.421	3359.44984
774.611	3742.46492
774.802	3515.25477
774.992	3614.16026
775.182	3433.15355
775.372	3820.25404
775.562	3622.57584
775.752	3633.0949
775.942	3397.3573
776.131	3536.30191
776.321	3306.79123
776.511	3647.82079
776.701	3401.56889
776.891	3635.19866
777.081	3635.19866
777.271	3487.89075
777.461	3578.39066
777.651	3348.91898
777.84	3361.55596
778.03	3494.2058
778.22	3319.43028
778.41	3325.74957
778.599	3338.38769
778.789	3481.57554
778.979	3306.79123
779.169	3437.36453
779.358	3323.64315
779.548	3559.45164
779.738	3273.08409
779.927	3422.62577
780.117	3129.78103
780.307	3401.56889
780.496	3487.89075
780.686	3376.2983
780.875	3393.14564
781.065	3433.15355
781.254	3384.72211
781.444	3435.25905
781.633	3374.1923
781.823	3500.52068
782.012	3311.00431
782.202	3365.76814
782.391	3365.76814
782.581	3178.25969
782.77	3275.19091
782.96	3344.70652
783.149	2937.89262
783.338	3361.55596
783.528	3081.29389
783.717	3146.64414
783.906	3108.7007
784.096	3218.30076
784.285	3193.01236
784.474	3296.25821
784.663	3062.31839
784.853	3011.7109
785.042	3142.42846
785.231	3319.43028
785.42	3226.7297
785.61	3239.37261
785.799	3131.88898
785.988	3146.64414
786.177	2878.82497
786.366	3184.58236
786.555	3011.7109
786.744	3325.74957
786.933	3121.34909
787.122	3323.64315
787.312	3133.99691
787.501	3315.21733
787.69	3102.37629
787.879	3218.30076
788.068	3115.02497
788.257	3079.18556
788.445	2952.65774
788.634	3007.49321
788.823	2766.98791
789.012	2927.34567
789.201	2836.62691
789.39	2940.00197
789.579	2659.33537
789.768	2904.14107
789.957	2758.54581
790.145	2942.1113
790.334	2716.33212
790.523	2868.27599
790.712	2779.65066
790.9	2821.85625
791.089	2699.44518
791.278	2902.03148
791.467	2836.62691
791.655	2931.56449
791.844	2640.33439
792.033	2754.32468
792.221	2595.99486
792.41	2914.68883
792.599	2667.77992
792.787	2923.12678
792.976	2986.40385
793.164	2954.76699
793.353	2904.14107
793.541	3007.49321
793.73	2880.93473
793.918	2940.00197
794.107	2720.55373
794.295	2910.46977
794.484	2836.62691
794.672	2937.89262
794.861	2830.29671
795.049	2741.66097
795.238	2682.5574
795.426	2868.27599
795.614	2811.30537
795.803	2842.95698
795.991	2653.00182
796.179	2781.76107
796.368	2600.21791
796.556	2853.50681
796.744	2600.21791
796.932	2826.07651
797.121	2503.07588
797.309	2581.21382
797.497	2591.77177
797.685	2792.31291
797.874	2678.33533
798.062	2733.21824
798.25	2420.69751
798.438	2707.88875
798.626	2661.44653
798.814	2709.99962
799.002	2619.221
799.19	2659.33537
799.378	2538.97908
799.566	2714.2213
799.755	2602.32941
799.943	2697.33425
800.131	2680.44637
800.318	2750.1035
800.506	2331.96437
800.694	2589.6602
800.882	2566.4322
801.07	2699.44518
801.258	2505.18792
801.446	2665.6688
801.634	2557.9853
801.822	2653.00182
802.01	2386.89654
802.197	2663.55767
802.385	2325.62561
802.573	2579.1022
802.761	2475.61828
802.949	2663.55767
803.136	2467.16941
803.324	2623.44378
803.512	2437.59699
803.699	2650.89061
803.887	2517.85995
804.075	2663.55767
804.262	2471.39387
804.45	2634.0005
804.638	2492.51549
804.825	2766.98791
805.013	2437.59699
805.201	2517.85995
805.388	2684.66842
805.576	2695.22331
805.763	2509.41198
805.951	2623.44378
806.138	2583.32544
806.326	2760.65636
806.513	2536.86722
806.701	2644.55692
806.888	2456.60808
807.075	2619.221
807.263	2473.50608
807.45	2707.88875
807.638	2617.1096
807.825	2754.32468
808.012	2750.1035
808.2	2686.77942
808.387	2661.44653
808.574	2695.22331
808.761	2707.88875
808.949	2817.63594
809.136	2640.33439
809.323	3007.49321
809.51	2602.32941
809.698	2669.89103
809.885	2566.4322
810.072	2657.2242
810.259	2589.6602
810.446	2610.7753
810.633	2522.08387
810.82	2522.08387
811.008	2593.88332
811.195	2549.53821
811.382	2522.08387
811.569	2623.44378
811.756	2477.73047
811.943	2773.31935
812.13	2570.65558
812.317	2925.23623
812.504	2686.77942
812.691	2910.46977
812.878	2800.75414
813.064	2866.16615
813.251	2619.221
813.438	3007.49321
813.625	2798.64386
813.812	2918.90784
813.999	2538.97908
814.186	2918.90784
814.372	2766.98791
814.559	2935.78326
814.746	2665.6688
814.933	2657.2242
815.12	2705.77788
815.306	2703.66699
815.493	2712.11047
815.68	2842.95698
815.866	2612.88675
816.053	2623.44378
816.24	2566.4322
816.426	2712.11047
816.613	2557.9853
816.799	2870.38581
816.986	2579.1022
817.173	2783.87146
817.359	2522.08387
817.546	2747.99289
817.732	2564.32049
817.919	2610.7753
818.105	2500.96382
818.292	2766.98791
818.478	2716.33212
818.665	2796.53355
818.851	2551.65
819.037	2973.74951
819.224	2631.88918
819.41	2851.39687
819.597	2566.4322
819.783	2699.44518
819.969	2450.27115
820.156	2741.66097
820.342	2549.53821
820.528	2834.51686
820.714	2507.29996
820.901	2627.66651
821.087	2526.30774
821.273	2636.11181
821.459	2538.97908
821.646	2674.1132
821.832	2507.29996
822.018	2893.59295
822.204	2462.94491
822.39	2716.33212
822.576	2433.37218
822.762	2576.99056
822.948	2439.70938
823.134	2674.1132
823.32	2382.67123
823.507	2695.22331
823.693	2545.31459
823.879	2564.32049
824.065	2500.96382
824.25	2764.87741
824.436	2589.6602
824.622	2568.5439
824.808	2576.99056
824.994	2631.88918
825.18	2408.02246
825.366	2583.32544
825.552	2285.47813
825.738	2424.92245
825.923	2439.70938
826.109	2498.85176
826.295	2293.93052
826.481	2412.24752
826.667	2310.83484
826.852	2509.41198
827.038	2270.6861
827.224	2743.77163
827.409	2247.44056
827.595	2498.85176
827.781	2473.50608
827.966	2522.08387
828.152	2219.96717
828.338	2724.77529
828.523	2369.99506
828.709	2363.65683
828.894	2196.7193
829.08	2374.22049
829.266	2129.0834
829.451	2589.6602
829.637	2340.41591
829.822	2530.53157
830.008	2133.31088
830.193	2433.37218
830.378	2209.40008
830.564	2547.4264
830.749	2327.73854
830.935	2277.0256
831.12	2219.96717
831.305	2412.24752
831.491	2110.05933
831.676	2272.79927
831.861	2040.29926
832.047	2361.54407
832.232	2291.81743
832.417	2551.65
832.602	2162.90239
832.788	2462.94491
832.973	2215.74036
833.158	2238.98737
833.343	2264.34651
833.528	2270.6861
833.714	2129.0834
833.899	2505.18792
834.084	2095.26241
834.269	2393.23442
834.454	2107.94551
834.639	2293.93052
834.824	2082.57904
835.009	2219.96717
835.194	1945.15995
835.379	2179.81111
835.564	2082.57904
835.749	2209.40008
835.934	2050.86947
836.119	2167.12962
836.304	2057.21151
836.489	2126.96964
836.674	2103.71784
836.859	2167.12962
837.044	2023.38656
837.228	2312.94783
837.413	2198.83278
837.598	2135.42461
837.783	2027.61478
837.968	2238.98737
838.152	2012.81591
838.337	2099.49014
838.522	1911.32966
838.707	2150.22051
838.891	1957.84592
839.076	2327.73854
839.261	1896.52846
839.445	2236.87405
839.63	1932.47376
839.815	2091.03465
839.999	1782.33958
840.184	1970.53168
840.368	1856.35248
840.553	1841.55035
840.737	1828.86262
840.922	2080.46512
841.106	1786.56903
841.291	2143.87946
841.475	2008.5876
841.66	2190.37879
841.844	1902.87186
842.029	1904.98632
842.213	1788.68375
842.397	1981.10297
842.582	1847.89414
842.766	1930.35937
842.951	1759.07731
843.135	1795.02789
843.319	1756.96254
843.504	1816.17473
843.688	1704.09201
843.872	1735.81459
844.056	1896.52846
844.241	1858.46705
844.425	1613.15033
844.609	1750.61819
844.793	1756.96254
844.977	1740.04421
845.161	1575.08049
845.346	1712.55143
845.53	1699.86227
845.714	1850.00874
845.898	1651.21952
846.082	1674.48363
846.266	1640.64482
846.45	1981.10297
846.634	1689.28789
846.818	1837.32112
847.002	1765.42162
847.186	1900.7574
847.37	1685.05812
847.554	1869.03983
847.738	1490.47925
847.922	1729.47013
848.106	1594.11548
848.29	1828.86262
848.473	1617.38028
848.657	1608.92038
848.841	1528.55001
849.025	1695.63253
849.209	1393.18697
849.392	1549.7003
849.576	1532.78008
849.76	1608.92038
849.944	1553.93035
850.127	1562.39042
850.311	1517.97483
850.495	1600.46045
850.678	1462.9836
850.862	1642.75976
851.046	1418.56752
851.229	1627.9551
851.413	1346.6563
851.596	1634.29997
851.78	1336.08123
851.964	1501.05449
852.147	1528.55001
852.331	1433.37287
852.514	1429.14277
852.698	1460.86855
852.881	1348.77131
853.065	1469.32875
853.248	1270.5168
853.431	1372.0366
853.615	1249.36744
853.798	1522.2049
853.982	1312.81621
854.165	1482.01906
854.348	1240.90777
854.532	1374.15163
854.715	1363.57648
854.898	1505.28458
855.081	1262.05702
855.265	1414.33742
855.448	1304.35626
855.631	1384.72681
855.814	1213.41418
855.997	1348.77131
856.181	1215.52905
856.364	1422.79762
856.547	1314.93121
856.73	1456.63844
856.913	1240.90777
857.096	1450.29329
857.279	1312.81621
857.462	1232.44815
857.645	1276.86165
857.828	1130.93695
858.011	1236.67796
858.194	1281.09157
858.377	1232.44815
858.56	1416.45247
858.743	1295.89635
858.926	1382.61177
859.109	1114.01932
859.292	1202.83986
859.475	1054.81006
859.658	1295.89635
859.841	1046.35194
860.023	1194.38047
860.206	1050.58099
860.389	1211.29931
860.572	978.69036
860.755	1223.98858
860.937	1069.612
861.12	1194.38047
861.303	1164.77305
861.486	1211.29931
861.668	1025.20702
861.851	1251.48236
862.034	1088.64343
862.216	1240.90777
862.399	949.09052
862.581	982.91902
862.764	1027.32149
862.947	1198.61016
863.129	1073.84117
863.312	1014.63479
863.494	1067.49742
863.677	1107.67528
863.859	978.69036
864.042	1050.58099
864.224	957.54748
864.406	1050.58099
864.589	970.23313
864.771	1063.26828
864.954	993.49078
865.136	1035.77941
865.318	932.17695
865.501	966.00455
865.683	872.98328
865.865	974.46173
866.048	756.72974
866.23	949.09052
866.412	921.6062
866.594	1063.26828
866.777	999.83392
866.959	1059.03916
867.141	858.18586
867.323	959.66174
867.505	815.90986
867.687	1050.58099
867.869	796.88685
868.052	974.46173
868.234	908.92156
868.416	974.46173
868.598	826.47853
868.78	847.61653
868.962	953.31898
869.144	1001.94831
869.326	849.73038
869.508	951.20475
869.69	841.27503
869.872	915.26385
870.054	775.75109
870.236	870.86934
870.417	777.86462
870.599	832.81983
870.781	771.52405
870.963	940.63367
871.145	775.75109
871.327	841.27503
871.508	763.0701
871.69	883.55312
871.872	712.34986
872.054	982.91902
872.235	739.82257
872.417	794.77323
872.599	636.28146
872.78	898.35124
872.962	885.66711
873.144	856.07198
873.325	741.93593
873.507	889.89512
873.689	828.59229
873.87	763.0701
874.052	763.0701
874.233	834.93362
874.415	746.16268
874.596	870.86934
874.778	672.20078
874.959	815.90986
875.141	712.34986
875.322	771.52405
875.503	663.74887
875.685	864.52756
875.866	763.0701
876.048	796.88685
876.229	811.68246
876.41	765.18357
876.592	813.79616
876.773	927.94863
876.954	779.97816
877.136	849.73038
877.317	708.12345
877.498	885.66711
877.679	754.61631
877.86	822.25103
878.042	678.53983
878.223	839.16122
878.404	805.34143
878.585	813.79616
878.766	718.68955
878.947	898.35124
879.128	841.27503
879.309	940.63367
879.49	748.27607
879.672	970.23313
879.853	758.84318
880.034	858.18586
880.215	691.21826
880.396	799.00048
880.576	678.53983
880.757	860.29975
880.938	765.18357
881.119	932.17695
881.3	739.82257
881.481	913.14974
881.662	847.61653
881.843	974.46173
882.023	841.27503
882.204	930.06278
882.385	858.18586
882.566	847.61653
882.747	786.31885
882.927	908.92156
883.108	744.0493
883.289	898.35124
883.469	697.55762
883.65	834.93362
883.831	796.88685
884.011	936.4053
884.192	987.14771
884.373	949.09052
884.553	818.02358
884.734	940.63367
884.914	824.36477
885.095	957.54748
885.275	805.34143
885.456	892.00914
885.636	881.43914
885.817	944.86208
885.997	788.43243
886.178	923.72034
886.358	805.34143
886.538	980.80469
886.719	866.64148
886.899	959.66174
887.08	911.03565
887.26	949.09052
887.44	883.55312
887.621	1099.21663
887.801	839.16122
887.981	889.89512
888.161	908.92156
888.342	968.11884
888.522	896.2372
888.702	898.35124
888.882	919.49208
889.062	881.43914
889.242	701.78392
889.423	773.63756
889.603	765.18357
889.783	911.03565
889.963	701.78392
890.143	1006.17711
890.323	839.16122
890.503	987.14771
890.683	813.79616
890.863	1008.29152
891.043	722.91607
891.223	832.81983
891.403	737.70922
891.583	917.37796
891.763	758.84318
891.943	801.11412
892.122	915.26385
892.302	841.27503
892.482	815.90986
892.662	858.18586
892.842	725.02935
893.022	896.2372
893.201	640.50708
893.381	832.81983
893.561	847.61653
893.741	936.4053
893.92	788.43243
894.1	864.52756
894.28	765.18357
894.459	839.16122
894.639	703.89708
894.819	722.91607
894.998	706.01026
895.178	875.09723
895.357	788.43243
895.537	750.38947
895.716	638.39427
895.896	682.76593
896.075	703.89708
896.255	801.11412
896.434	665.86183
896.614	803.22777
896.793	703.89708
896.973	832.81983
897.152	610.92877
897.331	750.38947
897.511	752.50288
897.69	733.48255
897.87	733.48255
898.049	788.43243
898.228	733.48255
898.407	710.23665
898.587	583.4654
898.766	720.80281
898.945	568.67835
899.124	608.81612
899.304	695.44449
899.483	680.65288
899.662	577.12802
899.841	632.05589
900.02	568.67835
900.199	720.80281
900.378	608.81612
900.557	799.00048
900.737	610.92877
900.916	634.16867
901.095	551.77967
901.274	638.39427
901.453	589.80291
901.632	636.28146
901.811	441.9604
901.989	670.08778
902.168	602.47827
902.347	564.4536
902.526	435.62591
902.705	602.47827
902.884	568.67835
903.063	621.49217
903.242	528.54541
903.42	596.14053
903.599	534.88186
903.778	530.65755
903.957	380.73305
904.135	591.91544
904.314	361.73427
904.493	549.6674
904.672	431.403
904.85	450.40661
905.029	452.5182
905.207	454.6298
905.386	458.85306
905.565	517.98495
905.743	435.62591
905.922	406.06685
906.1	439.84889
906.279	368.06705
906.457	365.95611
906.636	382.84411
906.814	431.403
906.993	254.10153
907.171	317.40923
907.35	403.95561
907.528	315.29871
907.707	334.29405
907.885	251.99156
908.063	349.06919
908.242	275.20224
908.42	266.76173
908.598	332.18339
908.777	273.09208
908.955	327.96211
909.133	327.96211
909.311	306.8568
909.49	306.8568
909.668	298.41518
909.846	308.96725
910.024	283.64305
910.202	281.53282
910.38	239.33216
910.559	382.84411
910.737	372.28898
910.915	327.96211
911.093	235.11252
911.271	315.29871
911.449	374.39997
911.627	273.09208
911.805	302.63595
911.983	319.51977
912.161	336.40473
912.339	323.7409
912.517	323.7409
912.695	395.51081
912.872	292.08415
913.05	414.51198
913.228	300.52556
913.406	340.62615
913.584	260.43154
913.762	319.51977
913.939	342.73688
914.117	382.84411
914.295	285.7533
914.473	395.51081
914.65	344.84764
914.828	433.51445
915.006	340.62615
915.184	281.53282
915.361	323.7409
915.539	399.73318
915.716	159.17255
915.894	357.51251
916.072	268.87183
916.249	338.51543
916.427	251.99156
916.604	289.97385
916.782	237.22233
916.959	300.52556
917.137	249.88161
917.314	251.99156
917.492	294.19448
917.669	359.62338
917.847	273.09208
918.024	344.84764
918.201	285.7533
918.379	256.21151
918.556	262.54158
918.733	306.8568
918.911	264.65165
919.088	224.56375
919.265	222.45405
919.442	289.97385
919.62	256.21151
919.797	281.53282
919.974	169.71819
920.151	332.18339
920.328	283.64305
920.506	275.20224
920.683	226.67346
920.86	235.11252
921.037	243.55189
921.214	319.51977
921.391	342.73688
921.568	262.54158
921.745	256.21151
921.922	235.11252
922.099	275.20224
922.276	327.96211
922.453	247.77168
922.63	264.65165
922.807	142.30062
922.984	249.88161
923.161	205.57721
923.338	249.88161
923.514	254.10153
923.691	239.33216
923.868	224.56375
924.045	247.77168
924.222	279.42261
924.399	226.67346
924.575	197.13926
924.752	203.46769
924.929	133.86516
925.105	205.57721
925.282	205.57721
925.459	205.57721
925.635	184.48295
925.812	159.17255
925.989	148.62743
926.165	222.45405
926.342	186.59229
926.518	133.86516
926.695	247.77168
926.871	209.7963
927.048	201.3582
927.224	184.48295
927.401	167.60902
927.577	125.43005
927.754	197.13926
927.93	144.40954
928.107	138.08285
928.283	138.08285
928.459	243.55189
928.636	184.48295
928.812	138.08285
928.988	129.64756
929.165	140.19172
929.341	142.30062
929.517	64.28597
929.693	184.48295
929.87	89.5847
930.046	173.93659
930.222	140.19172
930.398	125.43005
930.574	95.90989
930.751	108.56086
930.927	119.10394
931.103	100.12679
931.279	159.17255
931.455	100.12679
931.631	146.51847
931.807	138.08285
931.983	138.08285
932.159	140.19172
932.335	87.47635
932.511	135.97399
932.687	79.04317
932.863	112.77803
933.039	131.75635
933.215	127.53879
933.391	79.04317
933.566	20.02115
933.742	104.34378
933.918	32.66719
934.094	53.7458
934.27	125.43005
934.445	112.77803
934.621	3.16109
934.797	70.61035
934.973	108.56086
935.148	148.62743
935.324	28.45175
935.5	146.51847
935.675	64.28597
935.851	53.7458
936.027	41.09836
936.202	95.90989
936.378	51.63784
936.553	154.95444
936.729	70.61035
936.904	45.31408
937.08	180.26435
937.255	55.85379
937.431	17.91356
937.606	72.71852
937.782	15.80599
937.957	60.06984
938.133	53.7458
938.308	43.20621
938.483	76.93493
938.659	66.39408
938.834	66.39408
939.009	20.02115
939.185	7.37596
939.36	38.99053
939.535	57.9618
939.71	45.31408
939.886	57.9618
940.061	-3.16104
940.236	22.12877
940.411	3.16109
940.586	38.99053
940.761	30.55946
940.937	34.77495
941.112	-17.91182
941.287	24.2364
941.462	53.7458
941.637	45.31408
941.812	36.88273
941.987	-22.12611
942.162	81.15143
942.337	11.59093
942.512	98.01833
942.687	45.31408
942.862	5.26851
943.037	9.48343
943.212	68.5022
943.386	30.55946
943.561	-22.12611
943.736	79.04317
943.911	55.85379
944.086	13.69845
944.26	43.20621
944.435	-112.70897
944.61	11.59093
944.785	-43.19607
944.959	36.88273
945.134	-34.76838
945.309	49.5299
945.483	-43.19607
945.658	72.71852
945.833	-53.73012
946.007	108.56086
946.182	53.7458
946.357	7.37596
946.531	51.63784
946.706	3.16109
946.88	-5.26836
947.055	72.71852
947.229	-30.55439
947.404	11.59093
947.578	7.37596
947.752	45.31408
947.927	51.63784
948.101	-17.91182
948.276	72.71852
948.45	47.42198
948.624	-1.05368
948.799	5.26851
948.973	-13.69743
949.147	15.80599
949.321	47.42198
949.496	-17.91182
949.67	30.55946
949.844	20.02115
950.018	62.17789
950.193	13.69845
950.367	57.9618
950.541	-7.37567
950.715	53.7458
950.889	60.06984
951.063	68.5022
951.237	3.16109
951.411	-22.12611
951.585	-20.01897
951.759	11.59093
951.933	-1.05368
952.107	24.2364
952.281	53.7458
952.455	-22.12611
952.629	36.88273
952.803	83.25972
952.977	5.26851
953.151	-3.16104
953.325	41.09836
953.499	24.2364
953.672	-1.05368
953.846	62.17789
954.02	-47.40976
954.194	20.02115
954.368	22.12877
954.541	20.02115
954.715	91.69308
954.889	-34.76838
955.062	3.16109
955.236	-7.37567
955.41	43.20621
955.583	-5.26836
955.757	74.82672
955.93	20.02115
956.104	45.31408
956.278	-5.26836
956.451	-43.19607
956.625	-11.5902
956.798	66.39408
956.972	11.59093
957.145	49.5299
957.319	34.77495
957.492	13.69845
957.665	26.34407
957.839	-3.16104
958.012	49.5299
958.185	-5.26836
958.359	-41.08919
958.532	5.26851
958.705	66.39408
958.879	-11.5902
959.052	45.31408
959.225	47.42198
959.398	20.02115
959.572	36.88273
959.745	22.12877
959.918	26.34407
960.091	-68.47672
960.264	30.55946
960.438	11.59093
960.611	13.69845
960.784	-1.05368
960.957	15.80599
961.13	62.17789
961.303	24.2364
961.476	66.39408
961.649	38.99053
961.822	9.48343
961.995	-17.91182
962.168	22.12877
962.341	51.63784
962.514	5.26851
962.686	98.01833
962.859	-1.05368
963.032	-5.26836
963.205	55.85379
963.378	108.56086
963.551	43.20621
963.723	-5.26836
963.896	7.37596
964.069	-5.26836
964.242	7.37596
964.414	20.02115
964.587	-1.05368
964.76	123.32132
964.932	-26.3403
965.105	28.45175
965.278	1.05369
965.45	41.09836
965.623	-13.69743
965.795	28.45175
965.968	38.99053
966.14	3.16109
966.313	-3.16104
966.485	55.85379
966.658	-3.16104
966.83	34.77495
967.003	3.16109
967.175	51.63784
967.348	-38.98228
967.52	36.88273
967.692	-9.48295
967.865	22.12877
968.037	-22.12611
968.209	24.2364
968.382	-43.19607
968.554	28.45175
968.726	53.7458
968.898	74.82672
969.071	95.90989
969.243	3.16109
969.415	-13.69743
969.587	32.66719
969.759	-5.26836
969.932	-49.51657
970.104	66.39408
970.276	-22.12611
970.448	-20.01897
970.62	89.5847
970.792	28.45175
970.964	51.63784
971.136	91.69308
971.308	53.7458
971.48	83.25972
971.652	-13.69743
971.824	30.55946
971.996	20.02115
972.168	45.31408
972.339	32.66719
972.511	36.88273
972.683	-22.12611
972.855	-5.26836
973.027	11.59093
973.199	-7.37567
973.37	47.42198
973.542	38.99053
973.714	-17.91182
973.886	-11.5902
974.057	100.12679
974.229	-3.16104
974.401	-3.16104
974.572	-38.98228
974.744	20.02115
974.915	7.37596
975.087	-1.05368
975.259	-30.55439
975.43	-49.51657
975.602	26.34407
975.773	3.16109
975.945	30.55946
976.116	-38.98228
976.288	36.88273
976.459	-17.91182
976.63	49.5299
976.802	-26.3403
976.973	24.2364
977.145	60.06984
977.316	36.88273
977.487	-55.83685
977.659	-5.26836
977.83	41.09836
978.001	47.42198
978.172	20.02115
978.344	-5.26836
978.515	-53.73012
978.686	55.85379
978.857	-22.12611
979.028	15.80599
979.2	-22.12611
979.371	66.39408
979.542	45.31408
979.713	20.02115
979.884	-70.58328
980.055	38.99053
980.226	49.5299
980.397	32.66719
980.568	51.63784
980.739	13.69845
980.91	3.16109
981.081	34.77495
981.252	-45.30293
981.423	45.31408
981.594	24.2364
981.765	-13.69743
981.936	-7.37567
982.106	-22.12611
982.277	91.69308
982.448	13.69845
982.619	-9.48295
982.79	9.48343
982.96	70.61035
983.131	-7.37567
983.302	-13.69743
983.472	45.31408
983.643	15.80599
983.814	15.80599
983.984	-32.6614
984.155	24.2364
984.326	-17.91182
984.496	28.45175
984.667	3.16109
984.837	-11.5902
985.008	20.02115
985.178	-34.76838
985.349	-22.12611
985.519	-26.3403
985.69	79.04317
985.86	36.88273
986.031	-26.3403
986.201	45.31408
986.371	45.31408
986.542	-45.30293
986.712	-26.3403
986.882	-11.5902
987.053	55.85379
987.223	28.45175
987.393	36.88273
987.563	26.34407
987.734	49.5299
987.904	7.37596
988.074	9.48343
988.244	-36.87534
988.414	11.59093
988.585	-26.3403
988.755	138.08285
988.925	24.2364
989.095	-38.98228
989.265	5.26851
989.435	3.16109
989.605	-11.5902
989.775	-9.48295
989.945	30.55946
990.115	-11.5902
990.285	62.17789
990.455	11.59093
990.625	3.16109
990.795	-43.19607
990.965	47.42198
991.134	30.55946
991.304	28.45175
991.474	-47.40976
991.644	36.88273
991.814	62.17789
991.984	-32.6614
992.153	28.45175
992.323	-97.96616
992.493	11.59093
992.662	24.2364
992.832	-5.26836
993.002	-22.12611
993.171	32.66719
993.341	34.77495
993.511	5.26851
993.68	47.42198
993.85	102.23527
994.019	-22.12611
994.189	66.39408
994.358	11.59093
994.528	20.02115
994.697	-9.48295
994.867	15.80599
995.036	1.05369
995.206	-68.47672
995.375	-30.55439
995.544	-38.98228
995.714	-13.69743
995.883	28.45175
996.052	22.12877
996.222	55.85379
996.391	22.12877
996.56	-24.23321
996.73	3.16109
996.899	-87.4348
997.068	32.66719
997.237	-30.55439
997.406	-9.48295
997.576	1.05369
997.745	-36.87534
997.914	-26.3403
998.083	-26.3403
998.252	9.48343
998.421	11.59093
998.59	53.7458
998.759	79.04317
998.928	57.9618
999.097	7.37596
999.266	55.85379
999.435	53.7458
999.604	-13.69743
999.773	-22.12611
999.942	5.26851
1000.111	9.48343
1000.28	-62.1569
1000.448	-68.47672
1000.617	-7.37567
1000.786	17.91356
1000.955	-13.69743
1001.124	38.99053
1001.292	3.16109
1001.461	20.02115
1001.63	-5.26836
1001.798	-43.19607
1001.967	-30.55439
1002.136	-13.69743
1002.304	-9.48295
1002.473	-13.69743
1002.642	24.2364
1002.81	-95.85994
1002.979	57.9618
1003.147	-76.90279
1003.316	-5.26836
1003.484	-5.26836
1003.653	30.55946
1003.821	11.59093
1003.99	-7.37567
1004.158	-38.98228
1004.327	-13.69743
1004.495	13.69845
1004.663	43.20621
1004.832	43.20621
1005	-38.98228
1005.168	43.20621
1005.337	-47.40976
1005.505	13.69845
1005.673	28.45175
1005.842	34.77495
1006.01	15.80599
1006.178	-34.76838
1006.346	-1.05368
1006.514	-17.91182
1006.683	57.9618
1006.851	5.26851
1007.019	-15.80464
1007.187	30.55946
1007.355	13.69845
1007.523	49.5299
1007.691	-30.55439
1007.859	24.2364
1008.027	-36.87534
1008.195	-47.40976
1008.363	38.99053
1008.531	-55.83685
1008.699	3.16109
1008.867	45.31408
1009.035	7.37596
1009.203	-3.16104
1009.37	22.12877
1009.538	-81.11567
1009.706	-17.91182
1009.874	-45.30293
1010.042	-5.26836
1010.209	-51.62336
1010.377	-5.26836
1010.545	13.69845
1010.713	-34.76838
1010.88	-5.26836
1011.048	-64.26353
1011.216	70.61035
1011.383	28.45175
1011.551	-1.05368
1011.718	26.34407
1011.886	-1.05368
1012.054	-5.26836
1012.221	11.59093
1012.389	83.25972
1012.556	-5.26836
1012.724	-47.40976
1012.891	-51.62336
1013.058	-47.40976
1013.226	11.59093
1013.393	-13.69743
1013.561	-22.12611
1013.728	15.80599
1013.895	-34.76838
1014.063	41.09836
1014.23	-43.19607
1014.397	-5.26836
1014.565	28.45175
1014.732	11.59093
1014.899	20.02115
1015.066	15.80599
1015.233	-60.05024
1015.401	83.25972
1015.568	-62.1569
1015.735	62.17789
1015.902	-24.23321
1016.069	-3.16104
1016.236	-17.91182
1016.403	28.45175
1016.57	7.37596
1016.737	66.39408
1016.904	-47.40976
1017.071	70.61035
1017.238	-36.87534
1017.405	15.80599
1017.572	11.59093
1017.739	11.59093
1017.906	-13.69743
1018.073	-38.98228
1018.24	-28.44736
1018.407	15.80599
1018.573	7.37596
1018.74	28.45175
1018.907	60.06984
1019.074	-26.3403
1019.241	104.34378
1019.407	-68.47672
1019.574	3.16109
1019.741	36.88273
1019.907	-45.30293
1020.074	-89.54113
1020.241	-47.40976
1020.407	9.48343
1020.574	64.28597
1020.74	-3.16104
1020.907	47.42198
1021.073	5.26851
1021.24	-89.54113
1021.406	3.16109
1021.573	-53.73012
1021.739	22.12877
1021.906	-5.26836
1022.072	-30.55439
1022.239	-30.55439
1022.405	-36.87534
1022.571	-26.3403
1022.738	-13.69743
1022.904	-3.16104
1023.07	11.59093
1023.237	30.55946
1023.403	-93.7537
1023.569	-9.48295
1023.735	-43.19607
1023.902	-5.26836
1024.068	-3.16104
1024.234	17.91356
1024.4	-13.69743
1024.566	5.26851
1024.732	-45.30293
1024.898	-36.87534
1025.065	-1.05368
1025.231	-30.55439
1025.397	1.05369
1025.563	3.16109
1025.729	11.59093
1025.895	-5.26836
1026.061	-47.40976
1026.227	22.12877
1026.392	7.37596
1026.558	-38.98228
1026.724	-13.69743
1026.89	-5.26836
1027.056	13.69845
1027.222	-20.01897
1027.388	13.69845
1027.553	-3.16104
1027.719	-26.3403
1027.885	-28.44736
1028.051	3.16109
1028.216	-64.26353
1028.382	-26.3403
1028.548	-9.48295
1028.713	20.02115
1028.879	-5.26836
1029.045	22.12877
1029.21	30.55946
1029.376	3.16109
1029.541	34.77495
1029.707	-11.5902
1029.873	-28.44736
1030.038	30.55946
1030.204	-20.01897
1030.369	36.88273
1030.534	-17.91182
1030.7	15.80599
1030.865	13.69845
1031.031	7.37596
1031.196	15.80599
1031.361	11.59093
1031.527	-17.91182
1031.692	-9.48295
1031.857	-22.12611
1032.023	-5.26836
1032.188	15.80599
1032.353	28.45175
1032.518	-64.26353
1032.684	-26.3403
1032.849	22.12877
1033.014	36.88273
1033.179	32.66719
1033.344	74.82672
1033.509	30.55946
1033.674	-17.91182
1033.839	1.05369
1034.004	43.20621
1034.17	-30.55439
1034.335	-13.69743
1034.5	13.69845
1034.664	-41.08919
1034.829	-38.98228
1034.994	60.06984
1035.159	66.39408
1035.324	20.02115
1035.489	-3.16104
1035.654	-22.12611
1035.819	60.06984
1035.984	-74.79631
1036.148	70.61035
1036.313	-13.69743
1036.478	-26.3403
1036.643	1.05369
1036.807	-36.87534
1036.972	-47.40976
1037.137	15.80599
1037.301	3.16109
1037.466	28.45175
1037.631	-38.98228
1037.795	-11.5902
1037.96	-24.23321
1038.124	100.12679
1038.289	-5.26836
1038.454	-22.12611
1038.618	-11.5902
1038.783	-22.12611
1038.947	36.88273
1039.111	-62.1569
1039.276	-64.26353
1039.44	-34.76838
1039.605	15.80599
1039.769	-3.16104
1039.933	32.66719
1040.098	-22.12611
1040.262	-13.69743
1040.426	-5.26836
1040.591	7.37596
1040.755	-22.12611
1040.919	9.48343
1041.083	5.26851
1041.248	-45.30293
1041.412	5.26851
1041.576	38.99053
1041.74	-64.26353
1041.904	34.77495
1042.068	5.26851
1042.232	9.48343
1042.397	-47.40976
1042.561	-3.16104
1042.725	-45.30293
1042.889	45.31408
1043.053	-64.26353
1043.217	-7.37567
1043.381	-32.6614
1043.544	-24.23321
1043.708	13.69845
1043.872	20.02115
1044.036	-20.01897
1044.2	-9.48295
1044.364	28.45175
1044.528	-60.05024
1044.691	7.37596
1044.855	-9.48295
1045.019	-7.37567
1045.183	7.37596
1045.346	20.02115
1045.51	7.37596
1045.674	45.31408
1045.837	-17.91182
1046.001	-9.48295
1046.165	3.16109
1046.328	34.77495
1046.492	-68.47672
1046.655	-20.01897
1046.819	-24.23321
1046.983	-22.12611
1047.146	53.7458
1047.31	32.66719
1047.473	3.16109
1047.636	-22.12611
1047.8	-11.5902
1047.963	26.34407
1048.127	-68.47672
1048.29	20.02115
