Data from Scatter_Coeff_Baseline_USB4F045381__36__0036.txt Node

Date: Thu Feb 13 19:23:26 EST 2025
User: mmckonesweet
Spectrometer: USB4F04538
Trigger mode: 4
Integration Time (sec): 2.400000E-3
Scans to average: 1
Electric dark correction enabled: true
Nonlinearity correction enabled: true
Boxcar width: 0
XAxis mode: Wavelengths
Number of Pixels in Spectrum: 3648
>>>>>Begin Spectral Data<<<<<
345.52	66.92111
345.736	66.92111
345.952	66.92111
346.168	-48.98987
346.384	-95.33338
346.6	-19.49219
346.816	47.94895
347.032	33.19413
347.248	-2.6342
347.464	14.22533
347.68	-11.06339
347.896	16.33288
348.112	26.87099
348.328	-11.06339
348.544	-0.52684
348.76	-32.13465
348.975	-61.63024
349.191	64.813
349.407	47.94895
349.623	-25.81353
349.839	24.76332
350.055	33.19413
350.27	50.05688
350.486	52.16483
350.702	-2.6342
350.918	-11.06339
351.133	-17.38502
351.349	75.35377
351.565	35.30189
351.781	1.58054
351.996	-8.95613
352.212	-27.92059
352.428	31.08639
352.644	47.94895
352.859	-17.38502
353.075	66.92111
353.291	-27.92059
353.506	39.51749
353.722	66.92111
353.938	-15.27784
354.153	60.59685
354.369	14.22533
354.584	-11.06339
354.8	-13.17063
355.016	47.94895
355.231	22.65567
355.447	33.19413
355.662	-19.49219
355.878	-48.98987
356.093	5.79537
356.309	-0.52684
356.524	-48.98987
356.74	-4.74153
356.955	-8.95613
357.171	-6.84884
357.386	58.48881
357.602	1.58054
357.817	-8.95613
358.033	-0.52684
358.248	-30.02763
358.464	-8.95613
358.679	24.76332
358.895	-0.52684
359.11	33.19413
359.325	18.44046
359.541	28.97868
359.756	5.79537
359.972	-8.95613
360.187	-25.81353
360.402	14.22533
360.618	-8.95613
360.833	71.13739
361.048	-86.90822
361.264	-2.6342
361.479	-19.49219
361.694	-15.27784
361.909	-4.74153
362.125	14.22533
362.34	-15.27784
362.555	-27.92059
362.77	85.8951
362.986	22.65567
363.201	-2.6342
363.416	-25.81353
363.631	94.32857
363.847	31.08639
364.062	10.01031
364.277	14.22533
364.492	18.44046
364.707	41.62532
364.922	-19.49219
365.138	-27.92059
365.353	14.22533
365.568	-0.52684
365.783	22.65567
365.998	62.70491
366.213	-15.27784
366.428	39.51749
366.643	31.08639
366.858	-6.84884
367.073	92.22017
367.288	73.24557
367.503	37.40968
367.718	-19.49219
367.933	24.76332
368.148	-21.59933
368.363	7.90283
368.578	-57.41689
368.793	52.16483
369.008	54.2728
369.223	-53.20343
369.438	16.33288
369.653	81.6785
369.868	3.68794
370.083	52.16483
370.298	31.08639
370.513	-53.20343
370.728	16.33288
370.943	50.05688
371.157	-2.6342
371.372	66.92111
371.587	60.59685
371.802	12.11781
372.017	14.22533
372.232	35.30189
372.446	85.8951
372.661	39.51749
372.876	45.84105
373.091	31.08639
373.306	12.11781
373.52	31.08639
373.735	18.44046
373.95	5.79537
374.165	18.44046
374.379	75.35377
374.594	90.11179
374.809	-11.06339
375.023	-13.17063
375.238	81.6785
375.453	5.79537
375.667	-2.6342
375.882	37.40968
376.097	14.22533
376.311	-23.70644
376.526	56.38079
376.741	-4.74153
376.955	-40.56246
377.17	-40.56246
377.384	-19.49219
377.599	5.79537
377.813	62.70491
378.028	75.35377
378.242	58.48881
378.457	-82.69548
378.672	22.65567
378.886	-19.49219
379.101	7.90283
379.315	24.76332
379.53	-19.49219
379.744	-2.6342
379.958	26.87099
380.173	94.32857
380.387	22.65567
380.602	5.79537
380.816	31.08639
381.031	75.35377
381.245	-15.27784
381.459	54.2728
381.674	41.62532
381.888	33.19413
382.103	-53.20343
382.317	73.24557
382.531	41.62532
382.746	-23.70644
382.96	-23.70644
383.174	52.16483
383.388	-19.49219
383.603	-44.77622
383.817	7.90283
384.031	-17.38502
384.246	35.30189
384.46	-11.06339
384.674	52.16483
384.888	14.22533
385.103	-46.88306
385.317	-44.77622
385.531	69.02924
385.745	54.2728
385.959	66.92111
386.174	16.33288
386.388	24.76332
386.602	-36.3486
386.816	22.65567
387.03	1.58054
387.244	-82.69548
387.458	31.08639
387.672	58.48881
387.887	41.62532
388.101	-44.77622
388.315	-19.49219
388.529	20.54805
388.743	22.65567
388.957	1.58054
389.171	-6.84884
389.385	-38.45555
389.599	-8.95613
389.813	71.13739
390.027	-15.27784
390.241	39.51749
390.455	47.94895
390.669	-15.27784
390.883	10.01031
391.097	10.01031
391.311	14.22533
391.525	28.97868
391.738	56.38079
391.952	-19.49219
392.166	14.22533
392.38	31.08639
392.594	14.22533
392.808	-36.3486
393.022	16.33288
393.236	60.59685
393.449	39.51749
393.663	45.84105
393.877	54.2728
394.091	35.30189
394.305	22.65567
394.518	16.33288
394.732	18.44046
394.946	1.58054
395.16	37.40968
395.373	81.6785
395.587	-23.70644
395.801	69.02924
396.015	10.01031
396.228	31.08639
396.442	45.84105
396.656	-23.70644
396.869	-8.95613
397.083	31.08639
397.297	14.22533
397.51	43.73317
397.724	-13.17063
397.938	-11.06339
398.151	45.84105
398.365	33.19413
398.578	22.65567
398.792	41.62532
399.005	-8.95613
399.219	10.01031
399.433	-40.56246
399.646	-8.95613
399.86	39.51749
400.073	37.40968
400.287	35.30189
400.5	-27.92059
400.714	-0.52684
400.927	41.62532
401.141	-42.66935
401.354	33.19413
401.567	12.11781
401.781	-36.3486
401.994	10.01031
402.208	73.24557
402.421	37.40968
402.635	111.19658
402.848	10.01031
403.061	43.73317
403.275	16.33288
403.488	-2.6342
403.701	-2.6342
403.915	41.62532
404.128	24.76332
404.341	-17.38502
404.555	58.48881
404.768	26.87099
404.981	-11.06339
405.195	-15.27784
405.408	-23.70644
405.621	14.22533
405.834	-42.66935
406.048	33.19413
406.261	-30.02763
406.474	81.6785
406.687	16.33288
406.9	-91.12085
407.114	-8.95613
407.327	-11.06339
407.54	-44.77622
407.753	83.78679
407.966	85.8951
408.179	64.813
408.392	10.01031
408.605	5.79537
408.819	22.65567
409.032	1.58054
409.245	-19.49219
409.458	14.22533
409.671	-2.6342
409.884	-13.17063
410.097	16.33288
410.31	102.7624
410.523	75.35377
410.736	-40.56246
410.949	28.97868
411.162	24.76332
411.375	5.79537
411.588	7.90283
411.801	52.16483
412.014	66.92111
412.227	1.58054
412.44	45.84105
412.653	-8.95613
412.865	77.46199
413.078	-11.06339
413.291	-30.02763
413.504	50.05688
413.717	12.11781
413.93	-44.77622
414.143	-23.70644
414.356	-13.17063
414.568	-11.06339
414.781	-48.98987
414.994	31.08639
415.207	-19.49219
415.42	37.40968
415.632	33.19413
415.845	-19.49219
416.058	-61.63024
416.271	81.6785
416.483	-30.02763
416.696	111.19658
416.909	56.38079
417.121	-23.70644
417.334	64.813
417.547	-19.49219
417.759	69.02924
417.972	14.22533
418.185	-11.06339
418.397	-19.49219
418.61	22.65567
418.823	-13.17063
419.035	7.90283
419.248	-11.06339
419.46	-0.52684
419.673	-25.81353
419.885	39.51749
420.098	10.01031
420.311	14.22533
420.523	71.13739
420.736	31.08639
420.948	28.97868
421.161	26.87099
421.373	47.94895
421.586	58.48881
421.798	50.05688
422.01	-44.77622
422.223	43.73317
422.435	43.73317
422.648	24.76332
422.86	-11.06339
423.073	56.38079
423.285	52.16483
423.497	-17.38502
423.71	5.79537
423.922	106.97945
424.134	56.38079
424.347	14.22533
424.559	41.62532
424.771	-34.24164
424.984	24.76332
425.196	39.51749
425.408	-19.49219
425.621	54.2728
425.833	85.8951
426.045	-2.6342
426.257	24.76332
426.47	5.79537
426.682	-44.77622
426.894	37.40968
427.106	-19.49219
427.318	81.6785
427.531	47.94895
427.743	41.62532
427.955	130.17476
428.167	64.813
428.379	41.62532
428.591	-4.74153
428.804	5.79537
429.016	47.94895
429.228	24.76332
429.44	50.05688
429.652	31.08639
429.864	64.813
430.076	81.6785
430.288	-23.70644
430.5	39.51749
430.712	39.51749
430.924	56.38079
431.136	43.73317
431.348	106.97945
431.56	5.79537
431.772	24.76332
431.984	-15.27784
432.196	22.65567
432.408	22.65567
432.62	-11.06339
432.832	64.813
433.044	31.08639
433.256	16.33288
433.468	10.01031
433.679	50.05688
433.891	-17.38502
434.103	81.6785
434.315	58.48881
434.527	-2.6342
434.739	18.44046
434.95	-48.98987
435.162	31.08639
435.374	73.24557
435.586	-27.92059
435.798	5.79537
436.009	-2.6342
436.221	-27.92059
436.433	-11.06339
436.645	39.51749
436.856	39.51749
437.068	85.8951
437.28	37.40968
437.491	20.54805
437.703	14.22533
437.915	64.813
438.126	7.90283
438.338	-0.52684
438.55	20.54805
438.761	115.4138
438.973	58.48881
439.184	104.87091
439.396	16.33288
439.608	-19.49219
439.819	-23.70644
440.031	60.59685
440.242	24.76332
440.454	64.813
440.665	75.35377
440.877	-19.49219
441.088	-17.38502
441.3	10.01031
441.511	14.22533
441.723	3.68794
441.934	33.19413
442.146	24.76332
442.357	16.33288
442.569	90.11179
442.78	83.78679
442.991	47.94895
443.203	69.02924
443.414	3.68794
443.626	-15.27784
443.837	69.02924
444.048	-19.49219
444.26	22.65567
444.471	10.01031
444.682	33.19413
444.894	47.94895
445.105	-11.06339
445.316	52.16483
445.528	43.73317
445.739	-8.95613
445.95	69.02924
446.161	14.22533
446.373	58.48881
446.584	18.44046
446.795	62.70491
447.006	22.65567
447.217	71.13739
447.429	7.90283
447.64	18.44046
447.851	10.01031
448.062	41.62532
448.273	37.40968
448.484	56.38079
448.695	28.97868
448.907	1.58054
449.118	-27.92059
449.329	24.76332
449.54	26.87099
449.751	-15.27784
449.962	24.76332
450.173	10.01031
450.384	39.51749
450.595	73.24557
450.806	7.90283
451.017	60.59685
451.228	26.87099
451.439	-19.49219
451.65	-6.84884
451.861	31.08639
452.072	37.40968
452.283	-0.52684
452.494	66.92111
452.705	16.33288
452.915	90.11179
453.126	77.46199
453.337	-0.52684
453.548	-34.24164
453.759	-27.92059
453.97	37.40968
454.181	10.01031
454.391	66.92111
454.602	16.33288
454.813	10.01031
455.024	14.22533
455.235	31.08639
455.445	41.62532
455.656	-27.92059
455.867	26.87099
456.078	39.51749
456.288	-15.27784
456.499	37.40968
456.71	92.22017
456.921	41.62532
457.131	-11.06339
457.342	28.97868
457.553	35.30189
457.763	35.30189
457.974	20.54805
458.184	98.54544
458.395	64.813
458.606	47.94895
458.816	73.24557
459.027	60.59685
459.237	73.24557
459.448	66.92111
459.659	26.87099
459.869	85.8951
460.08	-23.70644
460.29	22.65567
460.501	16.33288
460.711	43.73317
460.922	-15.27784
461.132	-21.59933
461.343	5.79537
461.553	45.84105
461.764	-11.06339
461.974	81.6785
462.184	5.79537
462.395	31.08639
462.605	35.30189
462.816	85.8951
463.026	56.38079
463.236	41.62532
463.447	64.813
463.657	47.94895
463.867	62.70491
464.078	43.73317
464.288	52.16483
464.498	47.94895
464.709	7.90283
464.919	98.54544
465.129	94.32857
465.339	119.63111
465.55	50.05688
465.76	117.52244
465.97	83.78679
466.18	104.87091
466.391	58.48881
466.601	98.54544
466.811	69.02924
467.021	43.73317
467.231	47.94895
467.441	33.19413
467.651	18.44046
467.862	64.813
468.072	56.38079
468.282	45.84105
468.492	54.2728
468.702	54.2728
468.912	73.24557
469.122	98.54544
469.332	64.813
469.542	45.84105
469.752	90.11179
469.962	60.59685
470.172	132.28355
470.382	98.54544
470.592	56.38079
470.802	56.38079
471.012	39.51749
471.222	81.6785
471.432	66.92111
471.642	47.94895
471.852	62.70491
472.062	134.39237
472.272	60.59685
472.482	85.8951
472.691	77.46199
472.901	123.8485
473.111	83.78679
473.321	100.65391
473.531	106.97945
473.741	83.78679
473.95	69.02924
474.16	113.30518
474.37	117.52244
474.58	115.4138
474.79	123.8485
474.999	77.46199
475.209	140.71894
475.419	140.71894
475.628	174.4639
475.838	166.02716
476.048	92.22017
476.258	98.54544
476.467	77.46199
476.677	161.80891
476.886	144.93677
477.096	151.26366
477.306	229.31064
477.515	174.4639
477.725	161.80891
477.935	142.82785
478.144	195.55718
478.354	254.62902
478.563	233.53017
478.773	201.88557
478.982	292.61173
479.192	174.4639
479.401	235.63997
479.611	301.05315
479.82	201.88557
480.03	157.59075
480.239	254.62902
480.449	277.83996
480.658	191.33836
480.868	254.62902
481.077	326.37915
481.287	241.96948
481.496	286.28086
481.705	301.05315
481.915	292.61173
482.124	330.6004
482.333	372.81673
482.543	377.03874
482.752	328.48976
482.961	246.18925
483.171	305.27397
483.38	415.03981
483.589	353.81853
483.799	267.28925
484.008	436.15378
484.217	402.37219
484.426	415.03981
484.636	461.49263
484.845	404.48342
485.054	385.48296
485.263	436.15378
485.472	446.71136
485.682	537.52208
485.891	493.16926
486.1	531.18558
486.309	469.9394
486.518	503.72888
486.727	554.42003
486.936	531.18558
487.146	541.74649
487.355	550.19546
487.564	571.31885
487.773	638.92247
487.982	484.72183
488.191	524.84921
488.4	596.66867
488.609	708.65175
488.818	662.16415
489.027	683.29419
489.236	748.80442
489.445	757.2581
489.654	704.42538
489.863	672.72903
490.072	712.87816
490.281	856.60045
490.49	772.05243
490.698	833.34828
490.907	846.03115
491.116	875.62572
491.325	803.75619
491.534	955.96179
491.743	850.25884
491.952	907.336
492.16	900.9938
492.369	1010.93454
492.578	873.51177
492.787	884.08162
492.996	1000.36252
493.204	1093.40136
493.413	1087.05747
493.622	1068.02606
493.831	1074.36982
494.039	1036.30803
494.248	1078.59901
494.457	1154.72785
494.665	1163.18696
494.874	1207.59829
495.083	1131.46563
495.291	1173.76094
495.5	1171.64614
495.709	1129.35091
495.917	1146.2688
496.126	1328.14995
496.335	1264.7007
496.543	1338.72499
496.752	1349.30007
496.96	1408.52104
497.169	1256.24095
497.377	1419.09628
497.586	1133.58036
497.794	1467.74247
498.003	1309.11498
498.211	1402.1759
498.42	1372.56536
498.628	1531.1938
498.837	1385.25557
499.045	1672.89745
499.254	1476.20267
499.462	1611.5641
499.671	1622.13896
499.879	1630.5988
500.087	1522.73366
500.296	1742.68771
500.504	1679.24216
500.713	1687.70173
500.921	1533.30884
501.129	1681.35705
501.338	1658.09304
501.546	1901.28602
501.754	1795.55657
501.962	1797.67127
502.171	1668.66763
502.379	1907.62938
502.587	1670.78254
502.795	2011.2303
503.004	1791.32715
503.212	2004.88781
503.42	1856.88112
503.628	1920.31597
503.837	1850.53738
504.045	2051.39797
504.253	2059.85401
504.461	2095.79087
504.669	1939.34547
504.877	2091.56312
505.085	2066.19596
505.294	2182.45305
505.502	2106.36013
505.71	2102.13245
505.918	1924.54479
506.126	2125.38432
506.334	2093.677
506.542	2298.68492
506.75	2148.63525
506.958	2296.57186
507.166	2129.61184
507.374	2262.76161
507.582	2296.57186
507.79	2305.02405
507.998	2275.44073
508.206	2664.08545
508.414	2300.79797
508.622	2440.23747
508.83	2279.66703
509.037	2490.93141
509.245	2243.74231
509.453	2427.56301
509.661	2524.72379
509.869	2467.69747
510.077	2385.31205
510.285	2609.19171
510.492	2408.5506
510.7	2628.19434
510.908	2594.41121
511.116	2562.7367
511.324	2642.97347
511.531	2735.85661
511.739	2634.52833
511.947	2691.52913
512.155	2619.74885
512.362	2862.4739
512.57	2873.02308
512.778	2807.61248
512.985	2672.52989
513.193	2837.15442
513.401	2723.19221
513.608	2883.5719
513.816	2666.19658
514.024	2759.07345
514.231	2649.3072
514.439	2898.33965
514.646	2879.35241
514.854	2940.5293
515.061	2771.7365
515.269	2894.12037
515.477	2803.39198
515.684	3014.34692
515.892	2902.55888
516.099	3075.49595
516.307	3005.91156
516.514	3195.64668
516.722	2963.73111
516.929	3107.11961
517.136	3212.50571
517.344	3166.14083
517.551	2974.27678
517.759	3096.57878
517.966	3233.57802
518.173	3305.2113
518.381	3100.79516
518.588	3307.31787
518.796	3067.06238
519.003	3519.99053
519.21	3242.00648
519.418	3366.29466
519.625	3290.46487
519.832	3431.57441
520.039	3395.77794
520.247	3541.03726
520.454	3421.04657
520.661	3620.99794
520.868	3391.56625
521.076	3444.20723
521.283	3273.61079
521.49	3568.39525
521.697	3471.57613
521.904	3597.8542
522.112	3439.99636
522.319	3742.99061
522.526	3461.04999
522.733	3766.11985
522.94	3610.47834
523.147	3602.06232
523.354	3427.36332
523.561	3730.37367
523.768	3587.33357
523.975	3879.62892
524.183	3587.33357
524.39	3734.5794
524.597	3890.13609
524.804	3913.2501
525.011	3679.89898
525.218	4003.58139
525.425	3984.67796
525.632	3864.91804
525.838	3932.15975
526.045	4024.58326
526.252	3852.30793
526.459	3990.97929
526.666	4016.18276
526.873	4226.09546
527.08	4024.58326
527.287	4200.91703
527.494	3999.38077
527.701	4471.42288
527.907	4242.87938
528.114	4326.77843
528.321	4203.01535
528.528	4236.58557
528.735	4175.73555
528.941	4356.13495
529.148	3936.36167
529.355	4295.32031
529.562	4203.01535
529.768	4507.04391
529.975	4504.94873
530.182	4421.12355
530.388	4322.58429
530.595	4479.80487
530.802	4312.09858
531.008	4620.15061
531.215	4630.62016
531.422	4486.09113
531.628	4670.39936
531.835	4777.13492
532.042	4511.2342
532.248	4716.44936
532.455	4538.46893
532.661	4699.70517
532.868	4603.39815
533.074	4871.26436
533.281	4695.51889
533.487	4791.7803
533.694	4636.90163
533.9	4846.16769
534.107	4678.7729
534.313	4856.62503
534.52	4720.63518
534.726	4881.72033
534.933	4919.3571
535.139	4973.70819
535.345	4731.09934
535.552	5205.56985
535.758	4881.72033
535.965	5122.04904
536.171	5057.29485
536.377	5167.99009
536.584	4925.62917
536.79	5124.13751
536.996	5393.35505
537.203	5090.71915
537.409	4975.79831
537.615	5157.54993
537.821	5034.3122
538.028	5253.57742
538.234	5124.13751
538.44	5403.78199
538.646	5318.26372
538.853	5391.26959
539.059	5138.75618
539.265	5476.75416
539.471	5364.15648
539.677	5326.6087
539.883	5405.86731
540.09	5472.5851
540.296	5324.52249
540.502	5455.90791
540.708	5457.99264
540.914	5751.70387
541.12	5403.78199
541.326	5714.23493
541.532	5595.53284
541.738	5539.2788
541.944	5430.8893
542.15	5853.66391
542.356	5905.66251
542.562	5990.90831
542.768	5747.54103
542.974	5953.48821
543.18	5959.72542
543.386	6028.32078
543.592	5843.26242
543.798	6113.50959
544.004	5874.46512
544.21	6013.77239
544.415	5882.78495
544.621	5928.53723
544.827	6036.63362
545.033	6308.67151
545.239	5984.67216
545.445	6358.46693
545.651	5643.4394
545.856	6275.46708
546.062	6142.5894
546.268	6256.78696
546.474	6080.26988
546.679	6171.6646
546.885	5957.64637
547.091	5972.19921
547.297	5926.45783
547.502	6007.53701
547.708	6132.20428
547.914	6138.43542
548.119	6074.03677
548.325	6250.55983
548.531	6115.58687
548.736	6227.72522
548.942	6134.28135
549.147	6155.05076
549.353	6354.31783
549.559	6319.04666
549.764	6258.86262
549.97	6462.16426
550.175	6254.71127
550.381	6892.92514
550.586	6269.24058
550.792	6482.89674
550.997	6329.42124
551.203	6569.94786
551.408	6741.85773
551.614	6596.88399
551.819	6603.09946
552.025	6545.08028
552.23	6543.00783
552.435	6694.23592
552.641	6729.43582
552.846	6690.09432
553.052	6596.88399
553.257	6847.41075
553.462	6644.53065
553.668	7021.13402
553.873	6899.13079
554.078	7149.25655
554.283	7043.87172
554.489	7050.07244
554.694	6719.08359
554.899	7099.67092
555.105	7008.7305
555.31	7099.67092
555.515	6934.29233
555.72	7165.78224
555.925	6988.05616
556.131	7198.82936
556.336	7178.17557
556.541	7066.6067
556.746	7161.65095
556.951	6990.1237
557.156	7202.95985
557.361	7277.29357
557.567	7134.7954
557.772	7079.00645
557.977	6882.58192
558.182	6994.2587
558.387	7337.15277
558.592	7291.74404
558.797	7083.13953
559.002	7549.60808
559.207	7273.16467
559.412	7430.00134
559.617	7256.64818
559.822	7103.80355
560.027	7260.77744
560.232	7310.32162
560.437	7281.42239
560.642	7483.62713
560.847	7285.55111
561.051	7520.74412
561.256	7256.64818
561.461	7339.21655
561.666	7681.50429
561.871	7531.05316
562.076	7720.64426
562.281	7728.88328
562.485	7450.62837
562.69	7714.46477
562.895	7547.54651
563.1	7588.77388
563.305	7312.38569
563.509	7743.30076
563.714	7580.52909
563.919	7671.20303
564.123	7506.31056
564.328	7621.74962
564.533	7677.38385
564.737	7803.01938
564.942	7638.23545
565.147	8136.3008
565.351	7842.13586
565.556	7969.72715
565.761	7772.13264
565.965	7856.5453
566.17	7768.01405
566.374	7883.303
566.579	7813.31392
566.784	8101.35188
566.988	8121.91077
567.193	8095.18382
567.397	7912.11508
567.602	7903.88347
567.806	7938.86554
568.011	8047.88934
568.215	8234.94896
568.42	8204.12632
568.624	7924.46188
568.828	8142.46765
569.033	7763.89538
569.237	8111.63157
569.442	8288.36433
569.646	7973.84168
569.85	7936.80794
570.055	8458.79444
570.259	8095.18382
570.463	8540.88215
570.668	8113.68745
570.872	8224.67524
571.076	8177.40977
571.281	8495.73767
571.485	8214.40103
571.689	8352.03458
571.893	8331.49784
572.098	8354.08815
572.302	8542.93395
572.506	8553.19269
572.71	8150.68984
572.914	8464.95207
573.119	8514.20698
573.323	8663.95711
573.527	8261.65831
573.731	8561.39933
573.935	8401.31485
574.139	8715.21856
574.343	8458.79444
574.547	8458.79444
574.751	8524.46704
574.955	8614.73521
575.159	8430.05653
575.364	8647.551
575.568	8702.91687
575.772	8704.9672
575.976	8723.41933
576.18	8643.44929
576.383	8789.01487
576.587	8813.60839
576.791	8780.81645
576.995	8901.71383
577.199	8676.26092
577.403	8862.78762
577.607	9225.17048
577.811	9094.20217
578.015	8704.9672
578.219	9004.12055
578.422	8979.54696
578.626	9018.45397
578.83	8715.21856
579.034	9018.45397
579.238	8731.6198
579.442	8897.61664
579.645	9104.43659
579.849	9300.85493
580.053	9192.43494
580.257	9259.94726
580.46	9057.35467
580.664	9153.55585
580.868	8971.35521
581.071	9147.41648
581.275	9057.35467
581.479	9065.54349
581.682	9216.987
581.886	9356.06974
582.09	9401.05072
582.293	9298.8097
582.497	9331.53131
582.7	9527.77307
582.904	9466.46354
583.107	9392.87295
583.311	9264.03833
583.515	9376.51663
583.718	9304.94533
583.922	9364.24869
584.125	9343.80082
584.329	9584.98239
584.532	9272.22026
584.735	9621.7533
584.939	9206.75727
585.142	9940.22685
585.346	9319.26121
585.549	9823.90395
585.753	9554.33609
585.956	9584.98239
586.159	9540.03326
586.363	9813.69789
586.566	9519.5993
586.769	9964.70981
586.973	9601.32565
587.176	9850.43797
587.379	9578.85342
587.582	9887.17323
587.786	9927.98458
587.989	9754.49532
588.192	9725.91021
588.395	9756.53699
588.599	9783.07745
588.802	10038.14621
589.005	9691.19569
589.208	10178.84794
589.411	9899.41725
589.615	9713.65853
589.818	9752.45362
590.021	9868.8062
590.224	9868.8062
590.427	9795.32603
590.63	9983.07065
590.833	10231.84884
591.036	9785.11892
591.239	10217.58028
591.442	9836.15073
591.645	9864.72447
591.848	9976.9505
592.051	10441.72458
592.254	10011.62965
592.457	10160.49931
592.66	10154.38285
592.863	10268.53636
593.066	10233.88715
593.269	10193.11833
593.472	10150.30514
593.675	10400.98297
593.878	10201.27253
594.081	10500.79075
594.284	10156.42169
594.486	10714.56259
594.689	10494.68096
594.892	10307.25734
595.095	10527.2652
595.298	10372.46074
595.5	10331.71021
595.703	10647.39182
595.906	10588.35195
596.109	10635.17752
596.311	10537.44711
596.514	10824.45022
596.717	10602.6039
596.92	10865.14065
597.122	11023.78968
597.325	10749.16058
597.528	10745.09041
597.73	10991.25187
597.933	10793.92934
598.136	11027.85671
598.338	10905.82646
598.541	11084.7905
598.743	10854.96848
598.946	10820.38093
599.148	10777.65045
599.351	10724.73883
599.554	10694.2092
599.756	10895.65544
599.959	11066.49129
600.161	10651.46315
600.363	10905.82646
600.566	10985.15071
600.768	11212.86069
600.971	10942.43979
601.173	10850.89953
601.376	11218.95823
601.578	11174.24078
601.78	11060.39135
601.983	10983.11697
602.185	11373.39841
602.388	11125.45228
602.59	11379.49354
602.792	11137.64998
602.995	11223.0232
603.197	11040.05753
603.399	11414.03093
603.601	11200.66534
603.804	11184.40428
604.006	11186.43695
604.208	11166.10979
604.41	11267.73517
604.613	11383.55691
604.815	11294.15354
605.017	11340.88953
605.219	11131.55118
605.421	11383.55691
605.623	11017.68906
605.826	11344.95328
606.028	11332.76192
606.23	11357.14429
606.432	11123.4193
606.634	11724.74417
606.836	11375.43013
607.038	11517.6263
607.24	11277.89628
607.442	11714.59352
607.644	11391.68353
607.846	11639.47181
608.048	11418.09397
608.25	11430.28285
608.452	11505.4399
608.654	11615.10536
608.856	11233.18545
609.058	11430.28285
609.26	11399.81
609.462	11590.7376
609.664	11544.029
609.866	11621.19709
610.067	11281.96066
610.269	11507.47099
610.471	11296.18565
610.673	11682.10996
610.875	11635.41082
611.077	11237.25028
611.278	11448.5655
611.48	11466.84738
611.682	11125.45228
611.884	11771.43434
612.085	11483.09728
612.287	11477.00364
612.489	11560.27602
612.69	11584.64545
612.892	11682.10996
613.094	11619.16653
613.295	11233.18545
613.497	11669.92803
613.699	11359.17609
613.9	11807.97128
614.102	11365.27143
614.304	11633.38032
614.505	11405.90474
614.707	11872.91902
614.908	11724.74417
615.11	11887.1252
615.311	11633.38032
615.513	11680.07966
615.714	11633.38032
615.916	11895.24283
616.117	11613.07476
616.319	11927.71204
616.52	11627.28875
616.722	11710.5332
616.923	11803.91175
617.124	11830.29804
617.326	11574.49168
617.527	11669.92803
617.729	11676.01904
617.93	11631.3498
618.131	11521.68836
618.333	11897.27222
618.534	11712.56337
618.735	11580.58397
618.937	11848.56463
619.138	11734.8946
619.339	11799.8522
619.54	11917.56564
619.742	11828.26838
619.943	12041.33798
620.144	11751.13483
620.345	11966.26651
620.546	11698.35202
620.748	12077.85534
620.949	11860.74198
621.15	12092.05587
621.351	11688.2008
621.552	11939.88745
621.753	11836.38698
621.954	12167.10958
622.155	11682.10996
622.356	12181.30777
622.558	12029.16496
622.759	12087.99861
622.96	11716.62367
623.161	12047.42438
623.362	11994.67321
623.563	11901.33097
623.764	11714.59352
623.965	12039.30916
624.166	12002.78912
624.366	12090.02724
624.567	11860.74198
624.768	11852.62378
624.969	11820.14964
625.17	12227.95645
625.371	12085.96997
625.572	12087.99861
625.773	12161.02452
625.973	12225.92833
626.174	12201.59028
626.375	12065.68317
626.576	12047.42438
626.777	12043.36679
626.977	11887.1252
627.178	12313.13114
627.379	12171.16624
627.58	12146.82581
627.78	11901.33097
627.981	12315.15896
628.182	12298.93623
628.382	12197.53384
628.583	11868.86004
628.784	12244.18117
628.984	11885.09577
629.185	12323.27016
629.386	12142.76896
629.586	12136.68364
629.787	12092.05587
629.987	12327.32571
630.188	12292.85259
630.388	12313.13114
630.589	11933.79978
630.79	12163.05288
630.99	11943.94586
631.191	12483.44394
631.391	12270.54537
631.591	12227.95645
631.792	12319.21457
631.992	12290.8247
632.193	12355.71383
632.393	12331.38124
632.594	12152.91102
632.794	12515.87917
632.994	12225.92833
633.195	12515.87917
633.395	12298.93623
633.595	12410.45856
633.796	12426.67828
633.996	12809.75165
634.196	12467.22571
634.397	12639.52365
634.597	12426.67828
634.797	12396.26596
634.997	12079.88401
635.198	12227.95645
635.398	12266.48942
635.598	12453.03441
635.798	12487.49844
635.998	12511.82486
636.199	12465.1984
636.399	12592.90631
636.599	12477.36215
636.799	12939.42266
636.999	12349.63078
637.199	12830.0142
637.399	12724.64276
637.599	12825.96174
637.799	12294.88048
637.999	12909.03298
638.199	12787.46219
638.399	13099.45611
638.599	13058.94423
638.799	13077.17481
638.999	12923.21497
639.199	13022.48187
639.399	12688.16442
639.599	13042.73893
639.799	12534.12326
639.999	12696.27088
640.199	12521.96059
640.399	12923.21497
640.599	12479.38942
640.799	13225.03105
640.998	12676.00455
641.198	12836.09286
641.398	12659.79106
641.598	12957.6559
641.798	12840.14528
641.997	12919.163
642.197	12477.36215
642.397	13283.76181
642.597	12862.43316
642.796	13144.01699
642.996	12748.96061
643.196	12848.25004
643.395	12750.98706
643.595	13129.83877
643.795	13006.27586
643.994	13028.55904
644.194	13038.68756
644.394	13174.39811
644.593	12880.66821
644.793	13060.96987
644.992	13089.32832
645.192	13016.40465
645.392	13077.17481
645.591	13210.85411
645.791	13435.63539
645.99	13299.96276
646.19	13295.91255
646.389	13544.97077
646.589	13393.11307
646.788	13178.44885
646.987	13030.58475
647.187	13247.30867
647.386	13014.3789
647.586	13259.45987
647.785	13200.72759
647.984	13417.41175
648.184	13119.71134
648.383	12943.47452
648.582	13046.79028
648.782	13062.9955
648.981	12945.50045
649.18	13028.55904
649.38	13360.71394
649.579	13273.63607
649.778	13237.18254
649.977	13474.10649
650.177	13393.11307
650.376	13423.48633
650.575	13385.01339
650.774	13573.31525
650.973	13354.63899
651.173	13447.78431
651.372	13490.30444
651.571	13449.80911
651.77	13382.98846
651.969	13595.58542
652.168	13117.68583
652.367	13630.00214
652.566	12973.86288
652.765	13364.76389
652.964	13366.78886
653.163	13368.81382
653.362	13344.51399
653.561	13449.80911
653.76	13218.95525
653.959	13433.61055
654.158	13409.31225
654.357	13421.46147
654.556	13433.61055
654.755	13779.80508
654.954	13223.00579
655.153	13382.98846
655.352	13409.31225
655.551	13593.56088
655.749	13451.83391
655.948	13494.35389
656.147	13279.71153
656.346	13563.1923
656.545	13652.27126
656.743	13567.24149
656.942	13644.17345
657.141	13652.27126
657.34	13613.80616
657.538	13800.04742
657.737	13463.98265
657.936	13484.23024
658.135	13609.75713
658.333	13648.22236
658.532	13542.94614
658.731	13644.17345
658.929	13745.39242
659.128	13437.66022
659.326	13538.89687
659.525	13613.80616
659.724	13358.68896
659.922	13832.43454
660.121	13595.58542
660.319	13581.41354
660.518	13725.14926
660.716	13587.48722
660.915	13696.80831
661.113	13909.35107
661.312	13619.87968
661.51	13662.39346
661.709	13680.6132
661.907	13666.44231
662.105	13567.24149
662.304	14049.00557
662.502	13743.36811
662.701	13636.07558
662.899	13611.78165
663.097	13923.51947
663.296	13650.24681
663.494	13921.49542
663.692	13836.48288
663.891	13812.19268
664.089	13567.24149
664.287	13559.1431
664.485	13603.68356
664.684	13919.47137
664.882	13858.74855
665.08	13795.99897
665.278	13990.31165
665.476	14324.2353
665.675	14008.52723
665.873	14142.10226
666.071	14243.2892
666.269	13961.97592
666.467	13915.42326
666.665	13943.75982
666.863	13783.85357
667.061	13862.79681
667.259	13642.14898
667.457	14057.10112
667.655	13702.88142
667.853	13725.14926
668.051	13192.62629
668.249	13883.03797
668.447	13844.57953
668.645	14024.71868
668.843	14146.14983
669.041	14077.33985
669.239	13949.83188
669.437	14018.6469
669.635	13595.58542
669.833	13951.85589
670.031	13804.09585
670.229	13684.662
670.426	13862.79681
670.624	13749.44101
670.822	13753.48959
671.02	13986.26372
671.218	13692.75955
671.415	13856.72441
671.613	13844.57953
671.811	13565.2169
672.009	13686.68639
672.206	13739.3195
672.404	13745.39242
672.602	13777.78083
672.799	13889.11027
672.997	13947.80786
673.195	13617.85517
673.392	14123.88806
673.59	13646.1979
673.788	13779.80508
673.985	13749.44101
674.183	13749.44101
674.38	13555.09388
674.578	13856.72441
674.775	13781.82933
674.973	13694.78393
675.17	13470.05696
675.368	13789.92628
675.565	13652.27126
675.763	13955.90391
675.96	13939.71178
676.158	13858.74855
676.355	13974.11987
676.553	14297.92813
676.75	13627.97765
676.947	13723.12493
677.145	13601.65903
677.342	13692.75955
677.539	13674.53998
677.737	13901.25478
677.934	13599.6345
678.131	13834.45872
678.329	13634.0511
678.526	13931.61565
678.723	13777.78083
678.92	13798.0232
679.118	13579.38897
679.315	13937.68775
679.512	13840.53121
679.709	13692.75955
679.906	13297.93766
680.104	13846.60368
680.301	13540.92151
680.498	13704.90579
680.695	13542.94614
680.892	13557.11849
681.089	13524.72429
681.286	13911.37514
681.483	13461.95787
681.68	13929.59161
681.877	13696.80831
682.075	13559.1431
682.272	13660.36902
682.469	13909.35107
682.665	13401.2127
682.862	13613.80616
683.059	13370.83878
683.256	13798.0232
683.453	13455.88351
683.65	13524.72429
683.847	13652.27126
684.044	13579.38897
684.241	13267.56058
684.438	13411.33713
684.635	13220.98052
684.831	13490.30444
685.028	13267.56058
685.225	13360.71394
685.422	13223.00579
685.619	13532.82293
685.815	13182.49957
686.012	13745.39242
686.209	13425.51118
686.405	13425.51118
686.602	13498.40332
686.799	13352.614
686.996	13310.08822
687.192	13401.2127
687.389	13117.68583
687.586	13308.06313
687.782	13198.70227
687.979	13293.88743
688.175	13184.52492
688.372	13245.28345
688.568	13237.18254
688.765	13166.29658
688.962	13192.62629
689.158	13229.08157
689.355	13549.02003
689.551	13354.63899
689.748	13308.06313
689.944	13599.6345
690.14	13498.40332
690.337	13522.69963
690.533	13468.0322
690.73	13180.47421
690.926	13196.67695
691.123	13225.03105
691.319	13285.78694
691.515	13257.43468
691.712	13362.73892
691.908	13135.91518
692.104	13056.91858
692.301	12979.94041
692.497	12880.66821
692.693	13502.45274
692.889	13099.45611
693.086	13115.66033
693.282	13101.48165
693.478	13020.45613
693.674	12907.00696
693.87	13040.71325
694.067	13073.1236
694.263	13101.48165
694.459	12947.52637
694.655	13127.81329
694.851	12963.73356
695.047	13146.04243
695.243	13154.14414
695.439	12925.24095
695.635	13065.02113
695.831	13362.73892
696.027	13135.91518
696.224	13216.92997
696.42	13081.226
696.615	13168.32197
696.811	12967.7853
697.007	13040.71325
697.203	12975.88873
697.399	12917.13701
697.595	13172.37273
697.791	12791.51487
697.987	12688.16442
698.183	13024.5076
698.379	12825.96174
698.575	13200.72759
698.77	12874.5899
698.966	13069.07238
699.162	13291.86232
699.358	12953.6041
699.554	13018.43039
699.749	13077.17481
699.945	13107.55826
700.141	13259.45987
700.337	13103.50719
700.532	12799.62016
700.728	12576.69082
700.924	12815.83047
701.119	12598.98702
701.315	12619.25564
701.511	12761.11923
701.706	12979.94041
701.902	12793.5412
702.097	12909.03298
702.293	12955.63
702.489	12986.0179
702.684	12740.85476
702.88	12965.75943
703.075	12755.03995
703.271	12898.90282
703.466	12560.47494
703.662	12718.56317
703.857	12909.03298
704.053	12921.18899
704.248	12801.64647
704.443	12771.25125
704.639	12694.24428
704.834	12925.24095
705.03	13008.30163
705.225	12957.6559
705.42	12789.48853
705.616	13067.04676
705.811	12588.85248
706.006	12811.77793
706.202	12763.14564
706.397	12919.163
706.592	12615.20197
706.787	12821.90925
706.983	12706.40383
707.178	13020.45613
707.373	12420.59593
707.568	12643.57718
707.763	12607.09454
707.959	12880.66821
708.154	12767.19846
708.349	12817.85674
708.544	12740.85476
708.739	12696.27088
708.934	12489.52567
709.129	12446.95232
709.324	12444.92495
709.519	12716.53663
709.714	12598.98702
709.909	12753.01351
710.104	12479.38942
710.299	12596.96012
710.494	12698.29749
710.689	12815.83047
710.884	12572.63689
711.079	12649.65743
711.274	12309.07549
711.469	12854.32855
711.664	12842.17148
711.859	12925.24095
712.054	12507.77052
712.249	12426.67828
712.443	12104.22744
712.638	12667.89785
712.833	12246.20923
713.028	12902.9549
713.223	12471.2803
713.417	12692.21767
713.612	12736.80179
713.807	12836.09286
714.002	12469.25301
714.196	12838.11907
714.391	12163.05288
714.586	12315.15896
714.78	12317.18677
714.975	12378.01784
715.17	12096.11309
715.364	12690.19105
715.559	12673.97789
715.754	12457.0891
715.948	12574.66386
716.143	12375.99024
716.337	12444.92495
716.532	12444.92495
716.726	12311.10332
716.921	12274.60129
717.115	12475.33488
717.31	12331.38124
717.504	12307.04765
717.699	12406.40357
717.893	12163.05288
718.088	12302.99196
718.282	12219.84391
718.476	12331.38124
718.671	12104.22744
718.865	12323.27016
719.059	12286.76889
719.254	12187.3926
719.448	11950.03341
719.642	12315.15896
719.837	12148.85422
720.031	12144.79739
720.225	11960.17916
720.419	12274.60129
720.614	12158.99616
720.808	12418.56847
721.002	11830.29804
721.196	12193.47737
721.39	12100.17028
721.585	12154.9394
721.779	12019.02057
721.973	11956.12088
722.167	12136.68364
722.361	12173.19456
722.555	11929.7413
722.749	11935.82901
722.943	12041.33798
723.137	11870.88954
723.331	12063.65445
723.525	12037.28034
723.719	11793.7628
723.913	12031.19382
724.107	11763.31464
724.301	11807.97128
724.495	11633.38032
724.689	11860.74198
724.883	11649.62411
725.077	11897.27222
725.271	11893.21344
725.465	11832.32769
725.659	11907.41903
725.853	11950.03341
726.046	11740.98475
726.24	12049.45317
726.434	11799.8522
726.628	11824.20902
726.822	11576.52245
727.015	11933.79978
727.209	11568.39931
727.403	12049.45317
727.596	11820.14964
727.79	11860.74198
727.984	11919.59493
728.177	11889.15462
728.371	11716.62367
728.565	11909.44837
728.758	11558.24518
728.952	11552.15258
729.146	11779.5539
729.339	12128.56977
729.533	11812.03076
729.726	11941.91666
729.92	11840.44623
730.113	12090.02724
730.307	11834.35734
730.5	11915.53633
730.694	11791.73298
730.887	11722.71406
731.081	11921.62422
731.274	12181.30777
731.468	11799.8522
731.661	12144.79739
731.854	11787.67332
732.048	11982.4991
732.241	11671.95838
732.435	11943.94586
732.628	12031.19382
732.821	11899.3016
733.014	11765.34458
733.208	11629.31928
733.401	11799.8522
733.594	11361.20788
733.788	11682.10996
733.981	11824.20902
734.174	11724.74417
734.367	11836.38698
734.56	11836.38698
734.754	11801.88198
734.947	11712.56337
735.14	11846.53504
735.333	11716.62367
735.526	12087.99861
735.719	11606.98292
735.912	11747.07483
736.105	11820.14964
736.298	11558.24518
736.491	11617.13595
736.684	11641.50229
736.877	11552.15258
737.07	11659.77618
737.263	11501.37769
737.456	11619.16653
737.649	11570.43011
737.842	11637.44132
738.035	11493.25316
738.228	11361.20788
738.421	11580.58397
738.614	11592.76829
738.807	11704.44265
739	11578.55322
739.192	11491.222
739.385	11625.25821
739.578	11428.25139
739.771	11535.90526
739.964	11245.37981
740.156	11527.78137
740.349	11239.28268
740.542	11515.59526
740.735	11283.99283
740.927	11090.89004
741.12	11261.63837
741.313	11048.19119
741.505	11218.95823
741.698	11300.24984
741.891	11505.4399
742.083	11604.95229
742.276	11781.58377
742.468	11562.30686
742.661	11519.65733
742.854	11943.94586
743.046	11726.77428
743.239	11539.96715
743.431	11667.89768
743.624	11497.31544
743.816	11645.56322
744.009	11462.78481
744.201	11210.82816
744.393	11139.6829
744.586	11196.60014
744.778	11407.9363
744.971	11521.68836
745.163	11442.47137
745.355	11253.50917
745.548	11283.99283
745.74	11180.33891
745.932	11265.70291
746.125	11084.7905
746.317	11351.04883
746.509	11255.54149
746.702	11162.04423
746.894	11176.2735
747.086	11310.41014
747.278	11470.90991
747.471	11304.31399
747.663	11340.88953
747.855	11334.79384
748.047	11245.37981
748.239	11405.90474
748.431	11109.18809
748.623	11377.46184
748.815	10797.99895
749.008	11196.60014
749.2	11151.88015
749.392	11399.81
749.584	11162.04423
749.776	11235.21787
749.968	11064.45799
750.16	11397.77839
750.352	11109.18809
750.544	11170.17531
750.736	10983.11697
750.928	11056.32468
751.12	10783.75513
751.311	11206.76306
751.503	11170.17531
751.695	11153.91298
751.887	10985.15071
752.079	11269.76741
752.271	10861.07182
752.463	11326.6661
752.654	11009.55474
752.846	11060.39135
753.038	10673.85461
753.23	10977.01568
753.421	10964.81279
753.613	10926.16765
753.805	10747.1255
753.997	10814.27689
754.188	11019.72261
754.38	11017.68906
754.572	11044.12438
754.763	11056.32468
754.955	10926.16765
755.146	10983.11697
755.338	11155.94581
755.53	10924.13358
755.721	10708.4567
755.913	10918.03131
756.104	10865.14065
756.296	10926.16765
756.487	10869.20944
756.679	10861.07182
756.87	10590.38798
757.062	10665.71243
757.253	10427.46561
757.445	10706.42138
757.636	10806.13801
757.827	10588.35195
758.019	10572.06325
758.21	10702.3507
758.401	10494.68096
758.593	10624.9986
758.784	10728.80924
758.975	10877.34688
759.167	10624.9986
759.358	10728.80924
759.549	10857.00294
759.74	10702.3507
759.932	10667.74799
760.123	10655.53443
760.314	10360.23613
760.505	10292.99228
760.696	10455.98292
760.888	10409.13171
761.079	10215.54186
761.27	10205.34955
761.461	10272.61249
761.652	10380.61021
761.843	10182.92526
762.034	10535.41075
762.225	10303.18168
762.416	10466.16707
762.607	10250.19315
762.798	10551.70125
762.989	10105.44667
763.18	10498.75416
763.371	10201.27253
763.562	10127.87675
763.753	10176.80926
763.944	10282.80255
764.135	10187.00253
764.326	10323.55947
764.517	10158.46051
764.708	10472.2774
764.899	9907.57964
765.089	10199.234
765.28	10250.19315
765.471	10335.7855
765.662	9934.10578
765.853	10176.80926
766.043	10009.58982
766.234	9991.23066
766.425	9913.70128
766.615	9825.94512
766.806	9854.5199
766.997	10064.66035
767.187	9384.69492
767.378	9727.9521
767.569	9813.69789
767.759	10087.09352
767.95	10119.72056
768.141	9805.53277
768.331	10099.32908
768.522	9946.34778
768.712	9915.74179
768.903	10242.04026
769.093	9785.11892
769.284	9740.20313
769.474	10087.09352
769.665	9958.58926
769.855	9915.74179
770.046	10013.66947
770.236	9654.4343
770.426	9856.56084
770.617	9689.15352
770.807	9887.17323
770.998	9636.05173
771.188	9670.77332
771.378	9515.51232
771.569	9866.76534
771.759	9531.85987
771.949	9347.89053
772.139	9625.83864
772.33	9474.63897
772.52	9292.67393
772.71	9501.20737
772.9	9280.40193
773.09	9417.40548
773.281	9229.26212
773.471	9286.538
773.661	9439.89158
773.851	9139.23042
774.041	9024.59661
774.231	9298.8097
774.421	9206.75727
774.611	9343.80082
774.802	9394.91742
774.992	9139.23042
775.182	9486.90165
775.372	9380.60581
775.562	9012.31118
775.752	9413.31689
775.942	8993.88186
776.131	9272.22026
776.321	9036.8814
776.511	9351.98017
776.701	8938.58535
776.891	9102.38974
777.081	8993.88186
777.271	8946.77824
777.461	8875.0808
777.651	8873.03198
777.84	8836.15016
778.03	9112.62382
778.22	9302.90014
778.41	9016.40639
778.599	9094.20217
778.789	9014.3588
778.979	8832.05182
779.169	8850.49379
779.358	9043.02357
779.548	8905.81095
779.738	8776.71713
779.927	8723.41933
780.117	8784.9157
780.307	8684.46308
780.496	8590.12023
780.686	8758.26929
780.875	8598.32552
781.065	8981.59486
781.254	8711.11807
781.444	8778.7668
781.633	8743.91995
781.823	8766.46851
782.012	8557.29605
782.202	8762.36894
782.391	8503.94644
782.581	8553.19269
782.77	8499.8421
782.96	8940.6336
783.149	8208.23627
783.338	8534.72662
783.528	8680.36203
783.717	8600.3768
783.906	8436.21497
784.096	8376.67611
784.285	8438.26774
784.474	8586.01747
784.663	8306.85118
784.853	8310.95915
785.042	8189.7409
785.231	8234.94896
785.42	8327.39026
785.61	8160.96714
785.799	8154.80082
785.988	8345.87377
786.177	8206.1813
786.366	8602.42806
786.555	8436.21497
786.744	8458.79444
786.933	8485.47628
787.122	8633.19468
787.312	8362.30223
787.501	8676.26092
787.69	8288.36433
787.879	8366.40915
788.068	8323.2826
788.257	8158.91172
788.445	7899.76754
788.634	8148.63433
788.823	7942.98069
789.012	8239.0583
789.201	8072.56606
789.39	7811.25505
789.579	7743.30076
789.768	7811.25505
789.957	7776.25114
790.145	8006.75501
790.334	7875.07023
790.523	7899.76754
790.712	7714.46477
790.9	7838.01869
791.089	7891.53544
791.278	7940.92313
791.467	7656.78039
791.655	7916.23076
791.844	7825.66668
792.033	7969.72715
792.221	7502.1865
792.41	7835.96007
792.599	7611.44529
792.787	7800.96041
792.976	7895.65153
793.164	8119.85497
793.353	8000.58416
793.541	8023.20972
793.73	7780.36956
793.918	7743.30076
794.107	7693.8651
794.295	7973.84168
794.484	7726.82355
794.672	7683.56448
794.861	7506.31056
795.049	7776.25114
795.238	7619.6888
795.426	7572.28396
795.614	7615.56709
795.803	7730.94298
795.991	7496.00023
796.179	7798.90142
796.368	7543.4233
796.556	7549.60808
796.744	7248.38941
796.932	7275.22913
797.121	7093.47182
797.309	7378.42425
797.497	7601.14042
797.685	7559.91562
797.874	7438.25241
798.062	7444.44049
798.25	7423.8128
798.438	7768.01405
798.626	7629.99271
798.814	7564.03848
799.002	7171.97901
799.19	7289.67975
799.378	7264.9066
799.566	7262.84203
799.755	7072.80668
799.943	7351.59878
800.131	7246.32466
800.318	7396.99357
800.506	7304.12929
800.694	7456.81606
800.882	7291.74404
801.07	7207.09025
801.258	6990.1237
801.446	7473.31561
801.634	7041.80477
801.822	7157.51957
802.01	7072.80668
802.197	7260.77744
802.385	6926.01962
802.573	7291.74404
802.761	7217.41587
802.949	7134.7954
803.136	7101.73725
803.324	7157.51957
803.512	7089.33897
803.699	7153.3881
803.887	6975.65048
804.075	7207.09025
804.262	7207.09025
804.45	7223.61098
804.638	7054.20613
804.825	7283.48676
805.013	7132.72943
805.201	7452.69096
805.388	7058.33975
805.576	7289.67975
805.763	7277.29357
805.951	7157.51957
806.138	7236.00059
806.326	7219.48093
806.513	7091.4054
806.701	7110.00232
806.888	6959.1083
807.075	7407.30909
807.263	7190.56811
807.45	7411.43515
807.638	7050.07244
807.825	7184.37194
808.012	7037.6708
808.2	7064.53999
808.387	7134.7954
808.574	7318.57775
808.761	7335.08897
808.949	7411.43515
809.136	7283.48676
809.323	7520.74412
809.51	7438.25241
809.698	7442.37782
809.885	7264.9066
810.072	7512.4965
810.259	7167.84785
810.446	7427.93851
810.633	7066.6067
810.82	7223.61098
811.008	7085.20603
811.195	7306.19342
811.382	7285.55111
811.569	7260.77744
811.756	7054.20613
811.943	7326.83354
812.13	7252.51884
812.317	7361.91671
812.504	7140.99317
812.691	7561.97706
812.878	7372.23408
813.064	7627.93197
813.251	7730.94298
813.438	7557.85416
813.625	7207.09025
813.812	7409.37213
813.999	7448.56577
814.186	7399.05671
814.372	7359.85316
814.559	7516.62036
814.746	7132.72943
814.933	7363.98022
815.12	7217.41587
815.306	7531.05316
815.493	7240.13029
815.68	7427.93851
815.866	7167.84785
816.053	7392.8672
816.24	7333.02514
816.426	7504.24854
816.613	7297.93676
816.799	7405.24603
816.986	7236.00059
817.173	7481.56487
817.359	7285.55111
817.546	7465.06601
817.732	7066.6067
817.919	7483.62713
818.105	7132.72943
818.292	7285.55111
818.478	7029.40259
818.665	7025.26835
818.851	6969.44733
819.037	7107.93609
819.224	6934.29233
819.41	7122.39926
819.597	6905.33625
819.783	7343.34405
819.969	7062.47327
820.156	7070.74004
820.342	6797.74613
820.528	7112.06853
820.714	6985.9886
820.901	7174.04455
821.087	6950.83667
821.273	7112.06853
821.459	6764.62909
821.646	7200.89462
821.832	6847.41075
822.018	7266.97115
822.204	6799.81575
822.39	7310.32162
822.576	7037.6708
822.762	7000.46103
822.948	6967.37957
823.134	6880.51321
823.32	6845.34165
823.507	7190.56811
823.693	6930.15602
823.879	7002.52843
824.065	6652.81578
824.25	6741.85773
824.436	6754.27881
824.622	6894.99371
824.808	6983.92102
824.994	6770.83898
825.18	6623.81621
825.366	6892.92514
825.552	6685.95263
825.738	6851.54888
825.923	6487.04296
826.109	6725.295
826.295	6576.16424
826.481	6832.92659
826.667	6781.18834
826.852	6959.1083
827.038	6828.78806
827.224	6795.67649
827.409	6787.39768
827.595	6899.13079
827.781	6739.78746
827.966	6735.64687
828.152	6596.88399
828.338	6578.23632
828.523	6491.18909
828.709	6572.02001
828.894	6565.8035
829.08	6578.23632
829.266	6350.16863
829.451	6576.16424
829.637	6654.88701
829.822	6615.52979
830.008	6431.06117
830.193	6572.02001
830.378	6412.3968
830.564	6615.52979
830.749	6360.54145
830.935	6412.3968
831.12	6171.6646
831.305	6428.98744
831.491	5980.5146
831.676	5984.67216
831.861	6013.77239
832.047	6325.27148
832.232	6121.81858
832.417	6229.80121
832.602	6229.80121
832.788	6300.37096
832.973	6123.89576
833.158	6246.40829
833.343	6165.43459
833.528	6229.80121
833.714	6142.5894
833.899	6254.71127
834.084	6005.45851
834.269	5957.64637
834.454	5924.3784
834.639	6206.96402
834.824	5978.43579
835.009	6211.11645
835.194	5932.69596
835.379	6113.50959
835.564	5932.69596
835.749	6076.11449
835.934	6132.20428
836.119	6090.65794
836.304	6005.45851
836.489	6273.39161
836.674	5893.18419
836.859	6117.66413
837.044	6229.80121
837.228	6379.21105
837.413	6179.97096
837.598	6084.42517
837.783	5722.56202
837.968	5957.64637
838.152	5963.88345
838.337	6150.89707
838.522	5732.97036
838.707	6138.43542
838.891	5895.26397
839.076	6040.7899
839.261	5870.30507
839.445	5957.64637
839.63	5651.7697
839.815	5714.23493
839.999	5560.11563
840.184	5697.57961
840.368	5753.78525
840.553	5735.05195
840.737	5620.52912
840.922	5922.29895
841.106	5528.8595
841.291	5751.70387
841.475	5389.18411
841.66	5560.11563
841.844	5322.43626
842.029	5424.63412
842.213	5138.75618
842.397	5535.11115
842.582	5151.28556
842.766	5422.54902
842.951	5190.95639
843.135	5595.53284
843.319	5257.75141
843.504	5243.14204
843.688	5447.56875
843.872	5622.61199
844.056	5539.2788
844.241	5487.17641
844.425	5372.4994
844.609	5660.09963
844.793	5205.56985
844.977	5435.05931
845.161	5272.35963
845.346	5368.32798
845.53	5301.57264
845.714	5382.92752
845.898	5249.40334
846.082	5341.21152
846.266	5186.78091
846.45	5560.11563
846.634	4998.78807
846.818	5230.61882
847.002	5105.34042
847.186	5234.79332
847.37	4990.42848
847.554	5053.11639
847.738	4729.00655
847.922	4923.53851
848.106	5051.02713
848.29	5209.74491
848.473	5040.58047
848.657	5063.56236
848.841	4812.70035
849.025	5005.05752
849.209	4737.37756
849.392	5051.02713
849.576	4940.26321
849.76	5032.22273
849.944	4860.80781
850.127	5107.42907
850.311	4804.3326
850.495	4988.33852
850.678	4804.3326
850.862	5040.58047
851.046	4770.85798
851.229	4890.0847
851.413	4862.89917
851.596	4877.53801
851.78	4724.82091
851.964	5117.87202
852.147	4643.18289
852.331	4754.1185
852.514	4542.65856
852.698	4900.53964
852.881	4787.59602
853.065	4772.95032
853.248	4607.5864
853.431	4620.15061
853.615	4454.65784
853.798	4879.62918
853.982	4490.28187
854.165	4540.56376
854.348	4439.98728
854.532	4647.37029
854.715	4469.32733
854.898	4726.91374
855.081	4200.91703
855.265	4540.56376
855.448	4310.00137
855.631	4488.18651
855.814	4597.11562
855.997	4523.80454
856.181	4569.88897
856.364	4446.27479
856.547	4502.85353
856.73	4571.98346
856.913	4276.44312
857.096	4601.304
857.279	4125.36348
857.462	4322.58429
857.645	4196.72033
857.828	4337.26339
858.011	4133.75966
858.194	4318.39007
858.377	4009.88217
858.56	4284.8332
858.743	4203.01535
858.926	4184.12971
859.109	4211.40841
859.292	4150.55103
859.475	3927.95775
859.658	4196.72033
859.841	4123.26438
860.023	4236.58557
860.206	4062.38145
860.389	4167.34105
860.572	3932.15975
860.755	4035.08343
860.937	4093.8748
861.12	4347.74781
861.303	4083.37754
861.486	4137.95763
861.668	3980.47697
861.851	3965.77287
862.034	3721.962
862.216	4074.97935
862.399	3633.62084
862.581	3980.47697
862.764	3852.30793
862.947	3906.94652
863.129	3684.10563
863.312	3831.28951
863.494	3570.49959
863.677	4053.98243
863.859	3669.38203
864.042	3917.45239
864.224	3658.8646
864.406	3696.72511
864.589	3399.98955
864.771	3852.30793
864.954	3515.78097
865.136	3650.45032
865.318	3461.04999
865.501	3627.30948
865.683	3437.8909
865.865	3700.93145
866.048	3498.94197
866.23	3810.2691
866.412	3353.65792
866.594	3642.03573
866.777	3469.47093
866.959	3389.46038
867.141	3290.46487
867.323	3568.39525
867.505	3349.44553
867.687	3519.99053
867.869	3406.30684
868.052	3570.49959
868.234	3288.35817
868.416	3587.33357
868.598	3423.15217
868.78	3446.31264
868.962	3290.46487
869.144	3381.03673
869.326	3284.14472
869.508	3404.2011
869.69	3402.09533
869.872	3503.15183
870.054	3111.33583
870.236	3444.20723
870.417	3199.86153
870.599	3618.89406
870.781	3345.23308
870.963	3437.8909
871.145	3233.57802
871.327	3461.04999
871.508	3159.81773
871.69	3225.1493
871.872	2997.47595
872.054	3370.50677
872.235	3069.1708
872.417	3239.89939
872.599	3010.12927
872.78	3294.67822
872.962	3134.52389
873.144	3113.44391
873.325	3172.46378
873.507	3307.31787
873.689	3191.43175
873.87	3364.18858
874.052	3307.31787
874.233	3086.03757
874.415	3256.75563
874.596	3364.18858
874.778	3275.71761
874.959	3300.99812
875.141	3001.69379
875.322	3155.60225
875.503	2972.16768
875.685	3024.89079
875.866	2913.10669
876.048	3121.87609
876.229	2887.79133
876.41	3191.43175
876.592	2993.25806
876.773	3260.96952
876.954	3136.63179
877.136	3267.29023
877.317	3237.79228
877.498	3296.78487
877.679	3193.53922
877.86	3368.40072
878.042	3197.75411
878.223	3161.92545
878.404	3229.36369
878.585	3191.43175
878.766	3008.02042
878.947	3385.24859
879.128	2974.27678
879.309	3216.72031
879.49	3145.06327
879.672	3254.64866
879.853	3183.00171
880.034	3334.70163
880.215	3077.60431
880.396	3355.76409
880.576	3132.41596
880.757	3549.45544
880.938	3115.55198
881.119	3303.10472
881.3	3062.8455
881.481	3225.1493
881.662	3064.95395
881.843	3115.55198
882.023	2955.2943
882.204	3250.43466
882.385	3183.00171
882.566	3250.43466
882.747	3090.2541
882.927	3250.43466
883.108	3147.1711
883.289	3311.53094
883.469	3183.00171
883.65	3458.94471
883.831	3229.36369
884.011	3484.2069
884.192	3183.00171
884.373	3404.2011
884.553	2980.60401
884.734	3298.89151
884.914	3195.64668
885.095	3402.09533
885.275	3174.5714
885.456	3418.94094
885.636	3142.95543
885.817	3469.47093
885.997	3233.57802
886.178	3334.70163
886.358	3145.06327
886.538	3446.31264
886.719	3300.99812
886.899	3332.59529
887.08	3279.9312
887.26	3351.55173
887.44	3216.72031
887.621	3248.32764
887.801	3058.62856
887.981	3168.2485
888.161	3326.27617
888.342	3583.12518
888.522	3351.55173
888.702	3347.33931
888.882	3119.76807
889.062	3168.2485
889.242	3176.679
889.423	3288.35817
889.603	3256.75563
889.783	3393.6721
889.963	3250.43466
890.143	3465.2605
890.323	3098.68698
890.503	3442.1018
890.683	3290.46487
890.863	3389.46038
891.043	3166.14083
891.223	3393.6721
891.403	3210.39839
891.583	3473.6813
891.763	3077.60431
891.943	3416.83531
892.122	3086.03757
892.302	3326.27617
892.482	3098.68698
892.662	3328.38256
892.842	3026.99951
893.022	2919.43521
893.201	2993.25806
893.381	3250.43466
893.561	3159.81773
893.741	3341.02055
893.92	3001.69379
894.1	3225.1493
894.28	2896.23002
894.459	3210.39839
894.639	2963.73111
894.819	3107.11961
894.998	2828.71414
895.178	3212.50571
895.357	2957.40352
895.537	3064.95395
895.716	3031.21692
895.896	3132.41596
896.075	3081.82097
896.255	2991.14909
896.434	3001.69379
896.614	3077.60431
896.793	2837.15442
896.973	3058.62856
897.152	2832.93431
897.331	3031.21692
897.511	2617.63745
897.69	2695.75104
897.87	2716.85983
898.049	2940.5293
898.228	2868.80345
898.407	2721.08143
898.587	2638.75093
898.766	2841.37447
898.945	2676.75204
899.124	2685.19617
899.304	2674.64097
899.483	2805.50224
899.662	2619.74885
899.841	2788.6198
900.02	2649.3072
900.199	2735.85661
900.378	2450.79923
900.557	2685.19617
900.737	2564.84842
900.916	2731.6352
901.095	2539.50704
901.274	2678.86309
901.453	2402.21294
901.632	2516.27597
901.811	2385.31205
901.989	2450.79923
902.168	2340.94413
902.347	2693.6401
902.526	2480.37069
902.705	2514.16399
902.884	2298.68492
903.063	2465.58523
903.242	2368.41051
903.42	2476.14633
903.599	2131.72558
903.778	2300.79797
903.957	2036.59964
904.135	2383.19939
904.314	2087.33533
904.493	2178.22594
904.672	2085.22143
904.85	2169.77162
905.029	2087.33533
905.207	2173.9988
905.386	2026.0292
905.565	2004.88781
905.743	1983.74577
905.922	1850.53738
906.1	1823.04736
906.279	2078.87967
906.457	1780.75353
906.636	1916.08713
906.814	1729.99884
906.993	1856.88112
907.171	1681.35705
907.35	1749.0321
907.528	1450.82205
907.707	1818.81805
907.885	1482.54782
908.063	1717.30984
908.242	1510.04342
908.42	1675.01235
908.598	1554.4591
908.777	1696.16125
908.955	1632.71376
909.133	1814.58873
909.311	1554.4591
909.49	1746.91731
909.668	1605.21917
909.846	1729.99884
910.024	1459.28226
910.202	1744.80251
910.38	1387.37061
910.559	1655.97811
910.737	1461.39731
910.915	1675.01235
911.093	1357.76016
911.271	1501.58325
911.449	1416.98123
911.627	1584.06925
911.805	1457.16721
911.983	1757.49123
912.161	1603.10418
912.339	1749.0321
912.517	1584.06925
912.695	1806.13003
912.872	1526.96373
913.05	1696.16125
913.228	1520.61862
913.406	1795.55657
913.584	1691.93149
913.762	1729.99884
913.939	1755.37645
914.117	1736.34329
914.295	1471.97257
914.473	1736.34329
914.65	1461.39731
914.828	1662.32288
915.006	1605.21917
915.184	1825.162
915.361	1419.09628
915.539	1596.75922
915.716	1397.94582
915.894	1554.4591
916.072	1450.82205
916.249	1510.04342
916.427	1408.52104
916.604	1586.18425
916.782	1482.54782
916.959	1488.89297
917.137	1543.88399
917.314	1594.64423
917.492	1404.29095
917.669	1503.69829
917.847	1353.53011
918.024	1491.00802
918.201	1366.22027
918.379	1412.75114
918.556	1374.68039
918.733	1433.90163
918.911	1254.12602
919.088	1562.91918
919.265	1222.40241
919.442	1391.60069
919.62	1222.40241
919.797	1300.65505
919.974	1154.72785
920.151	1450.82205
920.328	1165.30175
920.506	1457.16721
920.683	1290.08017
920.86	1294.31011
921.037	1222.40241
921.214	1364.10524
921.391	1087.05747
921.568	1319.68995
921.745	1218.17265
921.922	1205.48343
922.099	1108.20395
922.276	1359.87518
922.453	1245.66633
922.63	1395.83077
922.807	1089.17209
922.984	1148.38356
923.161	1218.17265
923.338	1239.32159
923.514	1137.80982
923.691	1213.9429
923.868	1095.516
924.045	1258.35589
924.222	920.02061
924.399	1114.54799
924.575	985.56195
924.752	1013.04897
924.929	941.16222
925.105	968.64741
925.282	955.96179
925.459	1046.88057
925.635	875.62572
925.812	1087.05747
925.989	810.0972
926.165	1108.20395
926.342	888.30962
926.518	998.24813
926.695	968.64741
926.871	1010.93454
927.048	786.84724
927.224	1023.62118
927.401	795.30164
927.577	856.60045
927.754	839.68967
927.93	898.87975
928.107	772.05243
928.283	924.24887
928.459	810.0972
928.636	947.50485
928.812	791.07442
928.988	875.62572
929.165	719.21786
929.341	782.6201
929.517	634.69687
929.693	909.45008
929.87	695.97277
930.046	812.21088
930.222	575.54369
930.398	662.16415
930.574	664.2771
930.751	649.48669
930.927	613.56959
931.103	702.31221
931.279	609.34428
931.455	698.0859
931.631	550.19546
931.807	630.47131
931.983	622.02035
932.159	605.11903
932.335	583.99353
932.511	571.31885
932.687	503.72888
932.863	695.97277
933.039	455.15771
933.215	567.09406
933.391	457.26933
933.566	554.42003
933.742	556.53234
933.918	459.38097
934.094	480.4982
934.27	503.72888
934.445	311.60534
934.621	512.17684
934.797	398.14978
934.973	398.14978
935.148	322.15797
935.324	385.48296
935.5	360.15111
935.675	326.37915
935.851	301.05315
936.027	404.48342
936.202	241.96948
936.378	294.72206
936.553	254.62902
936.729	275.72978
936.904	170.24549
937.08	275.72978
937.255	229.31064
937.431	142.82785
937.606	157.59075
937.782	271.50948
937.957	203.99507
938.133	218.76214
938.308	147.04571
938.483	172.35468
938.659	151.26366
938.834	210.32369
939.009	155.4817
939.185	98.54544
939.36	149.15468
939.535	185.01029
939.71	193.44776
939.886	104.87091
940.061	117.52244
940.236	147.04571
940.411	142.82785
940.586	79.57023
940.761	159.69982
940.937	102.7624
941.112	191.33836
941.287	178.68239
941.462	56.38079
941.637	104.87091
941.812	134.39237
941.987	128.06598
942.162	104.87091
942.337	75.35377
942.512	111.19658
942.687	130.17476
942.862	149.15468
943.037	64.813
943.212	39.51749
943.386	98.54544
943.561	73.24557
943.736	16.33288
943.911	54.2728
944.086	134.39237
944.26	58.48881
944.435	73.24557
944.61	58.48881
944.785	81.6785
944.959	47.94895
945.134	90.11179
945.309	157.59075
945.483	128.06598
945.658	64.813
945.833	94.32857
946.007	94.32857
946.182	106.97945
946.357	77.46199
946.531	54.2728
946.706	75.35377
946.88	98.54544
947.055	81.6785
947.229	128.06598
947.404	83.78679
947.578	140.71894
947.752	83.78679
947.927	138.61006
948.101	81.6785
948.276	94.32857
948.45	41.62532
948.624	31.08639
948.799	109.088
948.973	83.78679
949.147	83.78679
949.321	140.71894
949.496	111.19658
949.67	73.24557
949.844	182.90097
950.018	106.97945
950.193	69.02924
950.367	106.97945
950.541	115.4138
950.715	109.088
950.889	170.24549
951.063	54.2728
951.237	37.40968
951.411	144.93677
951.585	41.62532
951.759	71.13739
951.933	102.7624
952.107	52.16483
952.281	125.95723
952.455	77.46199
952.629	43.73317
952.803	176.57313
952.977	58.48881
953.151	140.71894
953.325	31.08639
953.499	85.8951
953.672	88.00344
953.846	24.76332
954.02	16.33288
954.194	85.8951
954.368	119.63111
954.541	14.22533
954.715	151.26366
954.889	125.95723
955.062	98.54544
955.236	66.92111
955.41	142.82785
955.583	157.59075
955.757	81.6785
955.93	149.15468
956.104	163.91802
956.278	132.28355
956.451	142.82785
956.625	58.48881
956.798	109.088
956.972	159.69982
957.145	83.78679
957.319	71.13739
957.492	163.91802
957.665	58.48881
957.839	66.92111
958.012	117.52244
958.185	50.05688
958.359	90.11179
958.532	85.8951
958.705	73.24557
958.879	73.24557
959.052	119.63111
959.225	157.59075
959.398	130.17476
959.572	132.28355
959.745	39.51749
959.918	157.59075
960.091	104.87091
960.264	92.22017
960.438	174.4639
960.611	102.7624
960.784	132.28355
960.957	73.24557
961.13	149.15468
961.303	111.19658
961.476	92.22017
961.649	52.16483
961.822	109.088
961.995	90.11179
962.168	113.30518
962.341	138.61006
962.514	88.00344
962.686	151.26366
962.859	115.4138
963.032	39.51749
963.205	81.6785
963.378	128.06598
963.551	43.73317
963.723	26.87099
963.896	37.40968
964.069	14.22533
964.242	140.71894
964.414	92.22017
964.587	125.95723
964.76	96.437
964.932	79.57023
965.105	102.7624
965.278	134.39237
965.45	98.54544
965.623	18.44046
965.795	73.24557
965.968	83.78679
966.14	123.8485
966.313	92.22017
966.485	147.04571
966.658	73.24557
966.83	119.63111
967.003	24.76332
967.175	85.8951
967.348	77.46199
967.52	58.48881
967.692	144.93677
967.865	73.24557
968.037	50.05688
968.209	39.51749
968.382	121.73979
968.554	144.93677
968.726	69.02924
968.898	73.24557
969.071	60.59685
969.243	14.22533
969.415	100.65391
969.587	77.46199
969.759	111.19658
969.932	98.54544
970.104	73.24557
970.276	98.54544
970.448	73.24557
970.62	102.7624
970.792	56.38079
970.964	-17.38502
971.136	106.97945
971.308	90.11179
971.48	26.87099
971.652	119.63111
971.824	81.6785
971.996	75.35377
972.168	98.54544
972.339	106.97945
972.511	22.65567
972.683	90.11179
972.855	-27.92059
973.027	14.22533
973.199	136.50121
973.37	100.65391
973.542	90.11179
973.714	81.6785
973.886	115.4138
974.057	43.73317
974.229	77.46199
974.401	71.13739
974.572	39.51749
974.744	111.19658
974.915	73.24557
975.087	47.94895
975.259	83.78679
975.43	-25.81353
975.602	47.94895
975.773	47.94895
975.945	73.24557
976.116	62.70491
976.288	83.78679
976.459	60.59685
976.63	69.02924
976.802	98.54544
976.973	-32.13465
977.145	155.4817
977.316	26.87099
977.487	58.48881
977.659	7.90283
977.83	90.11179
978.001	62.70491
978.172	115.4138
978.344	3.68794
978.515	92.22017
978.686	43.73317
978.857	81.6785
979.028	5.79537
979.2	64.813
979.371	26.87099
979.542	43.73317
979.713	85.8951
979.884	24.76332
980.055	5.79537
980.226	128.06598
980.397	94.32857
980.568	54.2728
980.739	41.62532
980.91	90.11179
981.081	115.4138
981.252	115.4138
981.423	-4.74153
981.594	5.79537
981.765	-8.95613
981.936	26.87099
982.106	56.38079
982.277	73.24557
982.448	1.58054
982.619	47.94895
982.79	37.40968
982.96	60.59685
983.131	3.68794
983.302	50.05688
983.472	-17.38502
983.643	20.54805
983.814	50.05688
983.984	22.65567
984.155	75.35377
984.326	26.87099
984.496	92.22017
984.667	52.16483
984.837	-6.84884
985.008	16.33288
985.178	66.92111
985.349	66.92111
985.519	12.11781
985.69	45.84105
985.86	71.13739
986.031	33.19413
986.201	56.38079
986.371	33.19413
986.542	66.92111
986.712	60.59685
986.882	37.40968
987.053	50.05688
987.223	98.54544
987.393	43.73317
987.563	-8.95613
987.734	5.79537
987.904	73.24557
988.074	56.38079
988.244	45.84105
988.414	31.08639
988.585	16.33288
988.755	41.62532
988.925	62.70491
989.095	14.22533
989.265	-34.24164
989.435	7.90283
989.605	-19.49219
989.775	73.24557
989.945	22.65567
990.115	85.8951
990.285	64.813
990.455	-8.95613
990.625	90.11179
990.795	85.8951
990.965	62.70491
991.134	41.62532
991.304	39.51749
991.474	24.76332
991.644	-36.3486
991.814	52.16483
991.984	41.62532
992.153	54.2728
992.323	56.38079
992.493	31.08639
992.662	66.92111
992.832	39.51749
993.002	-19.49219
993.171	16.33288
993.341	54.2728
993.511	79.57023
993.68	10.01031
993.85	47.94895
994.019	88.00344
994.189	77.46199
994.358	-2.6342
994.528	64.813
994.697	71.13739
994.867	58.48881
995.036	94.32857
995.206	81.6785
995.375	14.22533
995.544	5.79537
995.714	12.11781
995.883	3.68794
996.052	24.76332
996.222	75.35377
996.391	71.13739
996.56	35.30189
996.73	31.08639
996.899	31.08639
997.068	10.01031
997.237	60.59685
997.406	41.62532
997.576	62.70491
997.745	66.92111
997.914	58.48881
998.083	18.44046
998.252	31.08639
998.421	-6.84884
998.59	119.63111
998.759	75.35377
998.928	43.73317
999.097	62.70491
999.266	39.51749
999.435	5.79537
999.604	16.33288
999.773	54.2728
999.942	18.44046
1000.111	1.58054
1000.28	106.97945
1000.448	-0.52684
1000.617	-19.49219
1000.786	75.35377
1000.955	7.90283
1001.124	12.11781
1001.292	47.94895
1001.461	22.65567
1001.63	-76.37618
1001.798	18.44046
1001.967	58.48881
1002.136	5.79537
1002.304	100.65391
1002.473	35.30189
1002.642	54.2728
1002.81	-11.06339
1002.979	41.62532
1003.147	77.46199
1003.316	14.22533
1003.484	10.01031
1003.653	-0.52684
1003.821	14.22533
1003.99	-17.38502
1004.158	16.33288
1004.327	-2.6342
1004.495	66.92111
1004.663	31.08639
1004.832	12.11781
1005	3.68794
1005.168	35.30189
1005.337	14.22533
1005.505	-42.66935
1005.673	5.79537
1005.842	66.92111
1006.01	56.38079
1006.178	-4.74153
1006.346	47.94895
1006.514	-2.6342
1006.683	22.65567
1006.851	-27.92059
1007.019	14.22533
1007.187	5.79537
1007.355	58.48881
1007.523	45.84105
1007.691	60.59685
1007.859	20.54805
1008.027	64.813
1008.195	81.6785
1008.363	-36.3486
1008.531	94.32857
1008.699	22.65567
1008.867	-11.06339
1009.035	-38.45555
1009.203	5.79537
1009.37	22.65567
1009.538	52.16483
1009.706	66.92111
1009.874	60.59685
1010.042	-2.6342
1010.209	50.05688
1010.377	-27.92059
1010.545	39.51749
1010.713	96.437
1010.88	-6.84884
1011.048	58.48881
1011.216	14.22533
1011.383	-23.70644
1011.551	60.59685
1011.718	41.62532
1011.886	5.79537
1012.054	90.11179
1012.221	62.70491
1012.389	31.08639
1012.556	-65.84349
1012.724	56.38079
1012.891	14.22533
1013.058	-25.81353
1013.226	14.22533
1013.393	-21.59933
1013.561	45.84105
1013.728	-21.59933
1013.895	-25.81353
1014.063	43.73317
1014.23	33.19413
1014.397	-6.84884
1014.565	-8.95613
1014.732	50.05688
1014.899	52.16483
1015.066	7.90283
1015.233	5.79537
1015.401	-8.95613
1015.568	-0.52684
1015.735	79.57023
1015.902	-8.95613
1016.069	56.38079
1016.236	-11.06339
1016.403	58.48881
1016.57	20.54805
1016.737	-59.52357
1016.904	14.22533
1017.071	58.48881
1017.238	-6.84884
1017.405	-32.13465
1017.572	-8.95613
1017.739	31.08639
1017.906	41.62532
1018.073	22.65567
1018.24	-0.52684
1018.407	14.22533
1018.573	31.08639
1018.74	-48.98987
1018.907	22.65567
1019.074	31.08639
1019.241	10.01031
1019.407	45.84105
1019.574	47.94895
1019.741	98.54544
1019.907	24.76332
1020.074	-15.27784
1020.241	64.813
1020.407	66.92111
1020.574	-30.02763
1020.74	39.51749
1020.907	-34.24164
1021.073	41.62532
1021.24	64.813
1021.406	-11.06339
1021.573	-44.77622
1021.739	39.51749
1021.906	43.73317
1022.072	24.76332
1022.239	43.73317
1022.405	75.35377
1022.571	1.58054
1022.738	35.30189
1022.904	14.22533
1023.07	69.02924
1023.237	14.22533
1023.403	41.62532
1023.569	47.94895
1023.735	1.58054
1023.902	-11.06339
1024.068	14.22533
1024.234	-30.02763
1024.4	14.22533
1024.566	31.08639
1024.732	43.73317
1024.898	47.94895
1025.065	39.51749
1025.231	12.11781
1025.397	-38.45555
1025.563	60.59685
1025.729	26.87099
1025.895	79.57023
1026.061	16.33288
1026.227	60.59685
1026.392	39.51749
1026.558	39.51749
1026.724	35.30189
1026.89	-13.17063
1027.056	-6.84884
1027.222	31.08639
1027.388	52.16483
1027.553	16.33288
1027.719	1.58054
1027.885	64.813
1028.051	33.19413
1028.216	-27.92059
1028.382	-38.45555
1028.548	-6.84884
1028.713	-8.95613
1028.879	16.33288
1029.045	18.44046
1029.21	-42.66935
1029.376	1.58054
1029.541	58.48881
1029.707	31.08639
1029.873	60.59685
1030.038	77.46199
1030.204	56.38079
1030.369	5.79537
1030.534	-23.70644
1030.7	73.24557
1030.865	-48.98987
1031.031	-13.17063
1031.196	79.57023
1031.361	-2.6342
1031.527	-40.56246
1031.692	26.87099
1031.857	54.2728
1032.023	47.94895
1032.188	64.813
1032.353	-34.24164
1032.518	83.78679
1032.684	-11.06339
1032.849	-27.92059
1033.014	-21.59933
1033.179	18.44046
1033.344	41.62532
1033.509	56.38079
1033.674	-2.6342
1033.839	18.44046
1034.004	-19.49219
1034.17	43.73317
1034.335	31.08639
1034.5	56.38079
1034.664	7.90283
1034.829	5.79537
1034.994	-32.13465
1035.159	35.30189
1035.324	37.40968
1035.489	14.22533
1035.654	39.51749
1035.819	-42.66935
1035.984	-53.20343
1036.148	-34.24164
1036.313	37.40968
1036.478	-11.06339
1036.643	-57.41689
1036.807	81.6785
1036.972	-53.20343
1037.137	14.22533
1037.301	18.44046
1037.466	-0.52684
1037.631	39.51749
1037.795	20.54805
1037.96	106.97945
1038.124	83.78679
1038.289	71.13739
1038.454	37.40968
1038.618	28.97868
1038.783	-21.59933
1038.947	-63.73688
1039.111	43.73317
1039.276	5.79537
1039.44	-2.6342
1039.605	-25.81353
1039.769	-30.02763
1039.933	33.19413
1040.098	-27.92059
1040.262	1.58054
1040.426	7.90283
1040.591	50.05688
1040.755	58.48881
1040.919	26.87099
1041.083	43.73317
1041.248	-8.95613
1041.412	3.68794
1041.576	-8.95613
1041.74	-8.95613
1041.904	-25.81353
1042.068	-32.13465
1042.232	28.97868
1042.397	-36.3486
1042.561	-11.06339
1042.725	-8.95613
1042.889	73.24557
1043.053	83.78679
1043.217	14.22533
1043.381	75.35377
1043.544	43.73317
1043.708	-19.49219
1043.872	31.08639
1044.036	-40.56246
1044.2	14.22533
1044.364	16.33288
1044.528	41.62532
1044.691	24.76332
1044.855	-97.43961
1045.019	-23.70644
1045.183	-40.56246
1045.346	37.40968
1045.51	14.22533
1045.674	33.19413
1045.837	-0.52684
1046.001	-17.38502
1046.165	-2.6342
1046.328	-11.06339
1046.492	43.73317
1046.655	50.05688
1046.819	1.58054
1046.983	-32.13465
1047.146	47.94895
1047.31	22.65567
1047.473	-38.45555
1047.636	-40.56246
1047.8	26.87099
1047.963	-27.92059
1048.127	56.38079
1048.29	5.79537
