Data from Scatter_Coeff_Baseline_USB4F045381__37__0037.txt Node

Date: Thu Feb 13 19:23:31 EST 2025
User: mmckonesweet
Spectrometer: USB4F04538
Trigger mode: 4
Integration Time (sec): 2.400000E-3
Scans to average: 1
Electric dark correction enabled: true
Nonlinearity correction enabled: true
Boxcar width: 0
XAxis mode: Wavelengths
Number of Pixels in Spectrum: 3648
>>>>>Begin Spectral Data<<<<<
345.52	-1.75614
345.736	-1.75614
345.952	-1.75614
346.168	19.31862
346.384	61.47521
346.6	6.67348
346.816	2.45862
347.032	17.21104
347.248	10.88843
347.464	-69.17891
347.68	-20.72135
347.896	-35.47071
348.112	-52.32561
348.328	46.71934
348.544	36.18013
348.76	19.31862
348.975	38.28793
349.191	-33.36373
349.407	-50.21884
349.623	23.53386
349.839	-22.82848
350.055	-54.43236
350.27	-12.29261
350.486	-10.18537
350.702	-35.47071
350.918	-31.25673
351.133	-24.93558
351.349	50.93519
351.565	55.15113
351.781	10.88843
351.996	48.82725
352.212	6.67348
352.428	-41.79148
352.644	15.10348
352.859	-16.50703
353.075	61.47521
353.291	31.96461
353.506	29.85689
353.722	-35.47071
353.938	-35.47071
354.153	-16.50703
354.369	10.88843
354.584	61.47521
354.8	-69.17891
355.016	-39.68458
355.231	-27.04265
355.447	-18.61421
355.662	-10.18537
355.878	15.10348
356.093	-20.72135
356.309	-64.96574
356.524	-75.49848
356.74	36.18013
356.955	-8.0781
357.171	10.88843
357.386	-60.75247
357.602	-35.47071
357.817	-43.89836
358.033	-14.39983
358.248	-1.75614
358.464	23.53386
358.679	-5.9708
358.895	10.88843
359.11	-29.1497
359.325	15.10348
359.541	-8.0781
359.756	-64.96574
359.972	-43.89836
360.187	2.45862
360.402	6.67348
360.618	-18.61421
360.833	-22.82848
361.048	48.82725
361.264	-43.89836
361.479	46.71934
361.694	31.96461
361.909	-3.86348
362.125	-27.04265
362.34	0.35123
362.555	-8.0781
362.77	-81.81781
362.986	-18.61421
363.201	80.44868
363.416	-54.43236
363.631	53.04315
363.847	-35.47071
364.062	-16.50703
364.277	0.35123
364.492	36.18013
364.707	-10.18537
364.922	17.21104
365.138	10.88843
365.353	19.31862
365.568	-18.61421
365.783	-27.04265
365.998	-69.17891
366.213	76.23219
366.428	-18.61421
366.643	4.56604
366.858	10.88843
367.073	-48.11204
367.288	-1.75614
367.503	-8.0781
367.718	-14.39983
367.933	12.99594
368.148	-5.9708
368.363	-83.9242
368.578	2.45862
368.793	72.0158
369.008	-18.61421
369.223	65.69137
369.438	21.42623
369.653	-16.50703
369.868	-64.96574
370.083	72.0158
370.298	46.71934
370.513	-48.11204
370.728	-12.29261
370.943	-22.82848
371.157	48.82725
371.372	-35.47071
371.587	-10.18537
371.802	59.36716
372.017	-22.82848
372.232	4.56604
372.446	-10.18537
372.661	-77.60495
372.876	-41.79148
373.091	53.04315
373.306	31.96461
373.52	-43.89836
373.735	-20.72135
373.95	-33.36373
374.165	48.82725
374.379	0.35123
374.594	40.39575
374.809	-8.0781
375.023	-24.93558
375.238	27.74919
375.453	57.25913
375.667	44.61145
375.882	-37.57766
376.097	-14.39983
376.311	-54.43236
376.526	61.47521
376.741	2.45862
376.955	4.56604
377.17	-14.39983
377.384	27.74919
377.599	-20.72135
377.813	-50.21884
378.028	-22.82848
378.242	-29.1497
378.457	0.35123
378.672	6.67348
378.886	107.85801
379.101	90.99028
379.315	10.88843
379.53	10.88843
379.744	40.39575
379.958	19.31862
380.173	-52.32561
380.387	48.82725
380.602	-39.68458
380.816	36.18013
381.031	-35.47071
381.245	-10.18537
381.459	-56.53909
381.674	-31.25673
381.888	17.21104
382.103	48.82725
382.317	-5.9708
382.531	42.50359
382.746	-22.82848
382.96	15.10348
383.174	-37.57766
383.388	-35.47071
383.603	-50.21884
383.817	23.53386
384.031	48.82725
384.246	48.82725
384.46	-37.57766
384.674	-31.25673
384.888	-88.13691
385.103	63.58328
385.317	0.35123
385.531	6.67348
385.745	6.67348
385.959	27.74919
386.174	2.45862
386.388	40.39575
386.602	-20.72135
386.816	67.79949
387.03	-60.75247
387.244	10.88843
387.458	23.53386
387.672	-18.61421
387.887	-10.18537
388.101	-14.39983
388.315	-27.04265
388.529	0.35123
388.743	40.39575
388.957	23.53386
389.171	0.35123
389.385	-39.68458
389.599	2.45862
389.813	-8.0781
390.027	-8.0781
390.241	-1.75614
390.455	31.96461
390.669	-56.53909
390.883	6.67348
391.097	38.28793
391.311	-22.82848
391.525	15.10348
391.738	-10.18537
391.952	-48.11204
392.166	-27.04265
392.38	-27.04265
392.594	8.78094
392.808	19.31862
393.022	65.69137
393.236	72.0158
393.449	19.31862
393.663	-50.21884
393.877	-27.04265
394.091	-46.00521
394.305	-3.86348
394.518	-29.1497
394.732	34.07236
394.946	65.69137
395.16	-16.50703
395.373	6.67348
395.587	63.58328
395.801	-56.53909
396.015	-33.36373
396.228	6.67348
396.442	-69.17891
396.656	-20.72135
396.869	-39.68458
397.083	10.88843
397.297	-22.82848
397.51	-8.0781
397.724	44.61145
397.938	23.53386
398.151	-5.9708
398.365	23.53386
398.578	-54.43236
398.792	-5.9708
399.005	-43.89836
399.219	-5.9708
399.433	40.39575
399.646	63.58328
399.86	6.67348
400.073	-10.18537
400.287	23.53386
400.5	-5.9708
400.714	48.82725
400.927	-35.47071
401.141	36.18013
401.354	12.99594
401.567	46.71934
401.781	34.07236
401.994	-22.82848
402.208	40.39575
402.421	-35.47071
402.635	-14.39983
402.848	0.35123
403.061	-33.36373
403.275	6.67348
403.488	-24.93558
403.701	17.21104
403.915	0.35123
404.128	-41.79148
404.341	8.78094
404.555	-14.39983
404.768	-1.75614
404.981	-39.68458
405.195	0.35123
405.408	-24.93558
405.621	-46.00521
405.834	2.45862
406.048	-48.11204
406.261	10.88843
406.474	44.61145
406.687	31.96461
406.9	-83.9242
407.114	-3.86348
407.327	-31.25673
407.54	-1.75614
407.753	-27.04265
407.966	-50.21884
408.179	21.42623
408.392	15.10348
408.605	29.85689
408.819	-22.82848
409.032	-33.36373
409.245	-1.75614
409.458	-3.86348
409.671	40.39575
409.884	-50.21884
410.097	-18.61421
410.31	40.39575
410.523	53.04315
410.736	23.53386
410.949	50.93519
411.162	59.36716
411.375	-1.75614
411.588	31.96461
411.801	-67.07234
412.014	74.12398
412.227	-20.72135
412.44	23.53386
412.653	-94.45578
412.865	-60.75247
413.078	-1.75614
413.291	2.45862
413.504	42.50359
413.717	40.39575
413.93	15.10348
414.143	6.67348
414.356	-52.32561
414.568	-73.39198
414.781	-22.82848
414.994	34.07236
415.207	-5.9708
415.42	12.99594
415.632	-10.18537
415.845	-3.86348
416.058	63.58328
416.271	38.28793
416.483	-41.79148
416.696	42.50359
416.909	21.42623
417.121	-24.93558
417.334	-8.0781
417.547	-18.61421
417.759	23.53386
417.972	-37.57766
418.185	36.18013
418.397	48.82725
418.61	48.82725
418.823	36.18013
419.035	-54.43236
419.248	-24.93558
419.46	8.78094
419.673	-22.82848
419.885	105.74946
420.098	40.39575
420.311	-27.04265
420.523	23.53386
420.736	-20.72135
420.948	48.82725
421.161	10.88843
421.373	65.69137
421.586	8.78094
421.798	-10.18537
422.01	67.79949
422.223	-27.04265
422.435	40.39575
422.648	-14.39983
422.86	15.10348
423.073	-52.32561
423.285	23.53386
423.497	44.61145
423.71	6.67348
423.922	-18.61421
424.134	-35.47071
424.347	-14.39983
424.559	-37.57766
424.771	6.67348
424.984	-8.0781
425.196	6.67348
425.408	-1.75614
425.621	-1.75614
425.833	27.74919
426.045	67.79949
426.257	-33.36373
426.47	2.45862
426.682	-60.75247
426.894	29.85689
427.106	-22.82848
427.318	27.74919
427.531	25.64151
427.743	-3.86348
427.955	-41.79148
428.167	27.74919
428.379	8.78094
428.591	-107.09281
428.804	-14.39983
429.016	-1.75614
429.228	-62.85911
429.44	34.07236
429.652	-22.82848
429.864	8.78094
430.076	10.88843
430.288	-41.79148
430.5	-56.53909
430.712	15.10348
430.924	-41.79148
431.136	86.77357
431.348	44.61145
431.56	57.25913
431.772	-52.32561
431.984	34.07236
432.196	-35.47071
432.408	6.67348
432.62	4.56604
432.832	50.93519
433.044	-43.89836
433.256	-1.75614
433.468	19.31862
433.679	-50.21884
433.891	44.61145
434.103	-18.61421
434.315	-48.11204
434.527	29.85689
434.739	-31.25673
434.95	-27.04265
435.162	6.67348
435.374	6.67348
435.586	-33.36373
435.798	97.31551
436.009	-39.68458
436.221	31.96461
436.433	76.23219
436.645	2.45862
436.856	15.10348
437.068	12.99594
437.28	-22.82848
437.491	59.36716
437.703	-16.50703
437.915	15.10348
438.126	34.07236
438.338	15.10348
438.55	-18.61421
438.761	31.96461
438.973	23.53386
439.184	21.42623
439.396	82.55695
439.608	-1.75614
439.819	-27.04265
440.031	107.85801
440.242	6.67348
440.454	-77.60495
440.665	6.67348
440.877	55.15113
441.088	34.07236
441.3	23.53386
441.511	-3.86348
441.723	27.74919
441.934	-16.50703
442.146	116.2924
442.357	44.61145
442.569	29.85689
442.78	23.53386
442.991	29.85689
443.203	-96.56202
443.414	-1.75614
443.626	12.99594
443.837	63.58328
444.048	-3.86348
444.26	8.78094
444.471	65.69137
444.682	50.93519
444.894	99.42397
445.105	42.50359
445.316	40.39575
445.528	-14.39983
445.739	6.67348
445.95	8.78094
446.161	-22.82848
446.373	-1.75614
446.584	-1.75614
446.795	-16.50703
447.006	-1.75614
447.217	-43.89836
447.429	-52.32561
447.64	34.07236
447.851	44.61145
448.062	4.56604
448.273	8.78094
448.484	57.25913
448.695	2.45862
448.907	82.55695
449.118	21.42623
449.329	55.15113
449.54	23.53386
449.751	36.18013
449.962	-35.47071
450.173	57.25913
450.384	2.45862
450.595	-5.9708
450.806	-12.29261
451.017	74.12398
451.228	34.07236
451.439	17.21104
451.65	57.25913
451.861	101.53244
452.072	-24.93558
452.283	-16.50703
452.494	2.45862
452.705	48.82725
452.915	8.78094
453.126	-1.75614
453.337	19.31862
453.548	72.0158
453.759	6.67348
453.97	-62.85911
454.181	34.07236
454.391	-10.18537
454.602	-8.0781
454.813	74.12398
455.024	126.83588
455.235	17.21104
455.445	15.10348
455.656	36.18013
455.867	38.28793
456.078	31.96461
456.288	48.82725
456.499	0.35123
456.71	-18.61421
456.921	53.04315
457.131	6.67348
457.342	6.67348
457.553	8.78094
457.763	19.31862
457.974	25.64151
458.184	29.85689
458.395	10.88843
458.606	57.25913
458.816	40.39575
459.027	116.2924
459.237	107.85801
459.448	31.96461
459.659	-35.47071
459.869	15.10348
460.08	17.21104
460.29	76.23219
460.501	46.71934
460.711	48.82725
460.922	-8.0781
461.132	69.90763
461.343	19.31862
461.553	-18.61421
461.764	-24.93558
461.974	25.64151
462.184	27.74919
462.395	-14.39983
462.605	-27.04265
462.816	-69.17891
463.026	15.10348
463.236	38.28793
463.447	23.53386
463.657	80.44868
463.867	40.39575
464.078	42.50359
464.288	4.56604
464.498	74.12398
464.709	36.18013
464.919	2.45862
465.129	48.82725
465.339	-10.18537
465.55	15.10348
465.76	-37.57766
465.97	27.74919
466.18	27.74919
466.391	31.96461
466.601	42.50359
466.811	-48.11204
467.021	124.72714
467.231	25.64151
467.441	15.10348
467.651	-10.18537
467.862	46.71934
468.072	27.74919
468.282	90.99028
468.492	34.07236
468.702	34.07236
468.912	15.10348
469.122	-5.9708
469.332	59.36716
469.542	72.0158
469.752	61.47521
469.962	69.90763
470.172	120.50972
470.382	-10.18537
470.592	67.79949
470.802	17.21104
471.012	72.0158
471.222	19.31862
471.432	86.77357
471.642	99.42397
471.852	90.99028
472.062	78.34042
472.272	118.40105
472.482	-33.36373
472.691	-52.32561
472.901	40.39575
473.111	118.40105
473.321	93.09867
473.531	-37.57766
473.741	86.77357
473.95	116.2924
474.16	15.10348
474.37	116.2924
474.58	82.55695
474.79	88.88192
474.999	150.03342
475.209	120.50972
475.419	122.61842
475.628	162.68771
475.838	95.20708
476.048	116.2924
476.258	97.31551
476.467	109.96657
476.677	160.57861
476.886	103.64094
477.096	135.27105
477.306	126.83588
477.515	242.84859
477.725	88.88192
477.935	162.68771
478.144	109.96657
478.354	103.64094
478.563	152.14241
478.773	223.86052
478.982	196.43612
479.192	301.93248
479.401	251.28824
479.611	135.27105
479.82	194.32669
480.03	120.50972
480.239	244.95848
480.449	194.32669
480.658	268.16846
480.868	166.90597
481.077	293.49103
481.287	234.40925
481.496	228.07995
481.705	282.93964
481.915	255.50818
482.124	320.92681
482.333	280.82941
482.543	230.1897
482.752	316.70572
482.961	287.16014
483.171	293.49103
483.38	274.49885
483.589	358.91976
483.799	295.60137
484.008	439.14506
484.217	386.36258
484.426	487.7136
484.636	380.02937
484.845	508.83283
485.054	399.02945
485.263	339.92257
485.472	382.14042
485.682	475.04277
485.891	382.14042
486.1	542.62658
486.309	439.14506
486.518	565.86185
486.727	481.37812
486.936	447.59118
487.146	565.86185
487.355	610.22455
487.564	496.16112
487.773	580.64877
487.982	491.93733
488.191	646.14132
488.4	637.69
488.609	658.81867
488.818	605.99929
489.027	707.41905
489.236	707.41905
489.445	726.4382
489.654	633.46441
489.863	635.5772
490.072	724.32492
490.281	842.68425
490.49	608.11191
490.698	855.36735
490.907	732.77811
491.116	876.50654
491.325	762.36561
491.534	853.25348
491.743	935.70057
491.952	965.29979
492.16	965.29979
492.369	977.98559
492.578	952.61424
492.787	927.24391
492.996	842.68425
493.204	946.27156
493.413	1087.93856
493.622	1024.5022
493.831	1011.81555
494.039	1166.18291
494.248	1126.00261
494.457	1128.11733
494.665	1202.13491
494.874	1168.2977
495.083	1210.59435
495.291	1197.90521
495.5	1106.97039
495.709	1257.12217
495.917	1085.82394
496.126	1299.42131
496.335	1295.19135
496.543	1345.95129
496.752	1274.04171
496.96	1350.18133
497.169	1244.43263
497.377	1400.94213
497.586	1257.12217
497.794	1544.76525
498.003	1312.11122
498.211	1439.01301
498.42	1329.0312
498.628	1667.43393
498.837	1584.9505
499.045	1616.67529
499.254	1510.92469
499.462	1519.38485
499.671	1540.53519
499.879	1608.21539
500.087	1639.93984
500.296	1678.00847
500.504	1555.34036
500.713	1620.90523
500.921	1680.12336
501.129	1900.05258
501.338	1587.0655
501.546	1916.96814
501.754	1650.51454
501.962	1739.33927
502.171	1688.58293
502.379	1881.02216
502.587	1532.07507
502.795	1887.36568
503.004	1842.96008
503.212	1969.82692
503.42	1950.79818
503.628	1980.39823
503.837	1739.33927
504.045	1895.82363
504.253	1950.79818
504.461	2052.27882
504.669	1997.31199
504.877	2031.13827
505.085	1929.65458
505.294	2020.56774
505.502	1919.08256
505.71	2176.99303
505.918	1976.16972
506.126	2138.94748
506.334	1955.02683
506.542	2324.9213
506.75	2170.65229
506.958	2314.35649
507.166	2238.28293
507.374	2335.48587
507.582	2365.06534
507.79	2312.2435
507.998	2185.44723
508.206	2415.76837
508.414	2407.31828
508.622	2434.78046
508.83	2238.28293
509.037	2460.12855
509.245	2263.64211
509.453	2466.46533
509.661	2432.66805
509.869	2407.31828
510.077	2466.46533
510.285	2493.92356
510.492	2726.18246
510.7	2601.62558
510.908	2417.88087
511.116	2538.27512
511.324	2491.81145
511.531	2656.52047
511.739	2660.74281
511.947	2753.62116
512.155	2426.33075
512.362	2726.18246
512.57	2694.51966
512.778	2681.85372
512.985	2800.05071
513.193	2964.60993
513.401	2654.40929
513.608	2816.93255
513.816	2745.17872
514.024	2854.91343
514.231	2869.68254
514.439	2867.57271
514.646	2778.94718
514.854	2960.39156
515.061	2922.42363
515.269	2905.54746
515.477	2696.6306
515.684	3107.99799
515.892	2979.37373
516.099	2992.02783
516.307	3040.53014
516.514	3063.72402
516.722	3017.33439
516.929	3112.2142
517.136	3061.61557
517.344	3167.01903
517.551	3141.72584
517.759	2989.91885
517.966	3259.74048
518.173	3318.72812
518.381	3021.55194
518.588	3240.77734
518.796	3202.84702
519.003	3297.66264
519.21	3291.34266
519.418	3512.44834
519.625	3360.85392
519.832	3287.12926
520.039	3230.24168
520.247	3537.70499
520.454	3386.12605
520.661	3529.2864
520.868	3312.40866
521.076	3562.95898
521.283	3411.39565
521.49	3560.85458
521.697	3388.23195
521.904	3459.82191
522.112	3449.29527
522.319	3815.34921
522.526	3470.3481
522.733	3684.982
522.94	3611.35499
523.147	3691.29181
523.354	3466.13768
523.561	3800.63409
523.768	3701.80776
523.975	3697.60144
524.183	3769.09844
524.39	3800.63409
524.597	3802.73631
524.804	3886.80887
525.011	3756.48295
525.218	3882.606
525.425	4008.65703
525.632	3731.24987
525.838	3855.28538
526.045	3983.45268
526.252	3928.83317
526.459	4090.55073
526.666	4105.24626
526.873	4143.03006
527.08	4071.65498
527.287	4138.8322
527.494	4119.94076
527.701	4279.41464
527.907	4245.85139
528.114	4346.52465
528.321	4203.88964
528.528	4352.81508
528.735	4151.42554
528.941	4390.55356
529.148	4105.24626
529.355	4587.51691
529.562	4075.85418
529.768	4507.9169
529.975	4294.09684
530.182	4445.05223
530.388	4260.53599
530.595	4447.14804
530.802	4268.92671
531.008	4650.3363
531.215	4507.9169
531.422	4533.0572
531.628	4595.89399
531.835	4621.02309
532.042	4386.36075
532.248	4886.77385
532.455	4419.90084
532.661	4554.00502
532.868	4524.67745
533.074	4748.71273
533.281	4696.39104
533.487	4830.30629
533.694	4821.93931
533.9	5064.43283
534.107	4748.71273
534.313	4872.13571
534.52	4982.93937
534.726	4997.56898
534.933	4849.13066
535.139	4980.84933
535.345	5058.16535
535.552	5091.58949
535.758	4832.39798
535.965	5062.34369
536.171	4782.19119
536.377	5018.46648
536.584	4604.27071
536.79	4980.84933
536.996	5064.43283
537.203	5152.15562
537.409	5191.82627
537.615	5244.01168
537.821	5005.92826
538.028	5162.59608
538.234	5218.96451
538.44	5415.07719
538.646	5131.27296
538.853	5125.0077
539.059	5173.03596
539.265	5406.73619
539.471	5120.83075
539.677	5460.94597
539.883	5440.09793
540.09	5517.22391
540.296	5383.7965
540.502	5683.87254
540.708	5473.45366
540.914	5642.22453
541.12	5398.39481
541.326	5810.84066
541.532	5758.81517
541.738	5792.11318
541.944	5713.02053
542.15	5806.67917
542.356	5575.5681
542.562	6006.32456
542.768	5500.55076
542.974	5787.95126
543.18	5706.77492
543.386	6093.60111
543.592	6060.3578
543.798	6074.90249
544.004	5983.45955
544.21	6039.57766
544.415	5927.32425
544.621	6122.68407
544.827	5738.00084
545.033	5981.38077
545.239	5954.3545
545.445	6155.9161
545.651	5804.59838
545.856	6155.9161
546.062	6257.65182
546.268	6120.60687
546.474	6106.0658
546.679	5941.87949
546.885	5914.8474
547.091	5964.74969
547.297	6118.52965
547.502	6068.66919
547.708	6049.96802
547.914	6460.95479
548.119	6068.66919
548.325	6351.03305
548.531	6170.45323
548.736	6371.77801
548.942	6205.75288
549.147	6373.85238
549.353	6404.9651
549.559	6247.2732
549.764	6184.9892
549.97	6564.59471
550.175	6529.36364
550.381	6794.46919
550.586	6330.28576
550.792	6566.66692
550.997	6305.38592
551.203	6456.80799
551.408	6608.10622
551.614	6765.49159
551.819	6489.97981
552.025	6498.27184
552.23	6695.09874
552.435	6703.38163
552.641	6726.15767
552.846	6713.73472
553.052	6724.08724
553.257	7030.26388
553.462	6746.86076
553.668	6850.34193
553.873	6618.4646
554.078	7050.93363
554.283	6777.91111
554.489	7009.59188
554.694	6885.51256
554.899	6970.30889
555.105	6835.858
555.31	7063.3344
555.515	7092.26641
555.72	7199.68989
555.925	7053.00048
556.131	7212.08104
556.336	7005.45721
556.541	7129.45827
556.746	6964.10557
556.951	7170.7741
557.156	6939.29025
557.361	7119.12792
557.567	7162.51164
557.772	7104.6645
557.977	7061.26766
558.182	7245.12022
558.387	7321.50172
558.592	7360.71298
558.797	7251.31443
559.002	7331.82123
559.207	7271.96039
559.412	7439.11188
559.617	7174.90519
559.822	7529.85047
560.027	6968.24114
560.232	7298.79685
560.437	7228.60133
560.642	7556.65162
560.847	7467.98778
561.051	7670.00119
561.256	7325.62959
561.461	7486.54862
561.666	7632.91205
561.871	7571.08151
562.076	7556.65162
562.281	7822.40699
562.485	7560.77456
562.69	7323.56566
562.895	7381.34731
563.1	7756.51588
563.305	7439.11188
563.509	7719.4427
563.714	7494.79733
563.919	7569.02017
564.123	7616.42578
564.328	7721.5025
564.533	7527.78869
564.737	7758.5753
564.942	7702.96355
565.147	7783.28672
565.351	7785.34587
565.556	7842.99359
565.761	7711.20329
565.965	7929.43469
566.17	7653.51798
566.374	7793.58226
566.579	7828.58319
566.784	7908.85677
566.988	8054.91565
567.193	8091.92838
567.397	7912.97252
567.602	8001.44123
567.806	7770.93139
568.011	8221.42179
568.215	8270.73188
568.42	8283.05763
568.624	7915.03036
568.828	8184.43175
569.033	7970.58435
569.237	8135.10167
569.442	8186.48692
569.646	7772.99066
569.85	7950.01054
570.055	8266.62314
570.259	8223.47661
570.463	8330.29981
570.668	8476.06959
570.872	8336.46107
571.076	8196.76248
571.281	8231.69567
571.485	8408.32953
571.689	8266.62314
571.893	8264.56874
572.098	8172.10031
572.302	8459.64968
572.506	8459.64968
572.71	8198.81753
572.914	8603.28274
573.119	8398.06406
573.323	8640.20205
573.527	8250.18739
573.731	8599.18022
573.935	8422.70038
574.139	8537.63342
574.343	8313.86892
574.547	8779.62083
574.751	8453.49189
574.955	8549.94414
575.159	8685.31745
575.364	8625.84526
575.568	8646.35468
575.772	8535.58157
575.976	8393.95774
576.18	8736.5741
576.383	8750.92391
576.587	8711.97235
576.791	8703.77117
576.995	8699.67048
577.199	8812.41294
577.403	8937.39053
577.607	9015.21196
577.811	9035.68708
578.015	8791.91841
578.219	8890.27566
578.422	8912.81003
578.626	9358.96648
578.83	8945.58346
579.034	8902.5674
579.238	9060.25491
579.442	9066.39647
579.645	8882.0808
579.849	9252.61726
580.053	9070.49076
580.257	9060.25491
580.46	9140.08314
580.664	9250.57164
580.868	9230.11453
581.071	9123.71026
581.275	9279.20878
581.479	9021.35468
581.682	9070.49076
581.886	9111.42987
582.09	8957.87232
582.293	9324.2034
582.497	9473.44674
582.7	9757.38769
582.904	9248.52601
583.107	9176.91814
583.311	9326.24842
583.515	9559.27379
583.718	8986.54387
583.922	9434.61093
584.125	9234.20609
584.329	9426.43423
584.532	9428.47843
584.735	9634.86022
584.939	9361.01122
585.142	9741.05388
585.346	9448.91954
585.549	9624.64709
585.753	9432.56678
585.956	9732.88661
586.159	9657.32774
586.363	9881.90133
586.566	9747.17917
586.769	9747.17917
586.973	9583.79066
587.176	9632.81763
587.379	9391.68034
587.582	9926.79434
587.786	9743.09566
587.989	9704.29924
588.192	9728.80288
588.395	9845.16538
588.599	9869.65655
588.802	10043.0753
589.005	9655.28532
589.208	10038.99605
589.411	9800.25933
589.615	9830.87788
589.818	9837.00118
590.021	9947.1979
590.224	9871.69738
590.427	9659.37015
590.63	10181.73605
590.833	10024.71825
591.036	10022.67851
591.239	10218.42961
591.442	10089.98252
591.645	10085.90393
591.848	10185.81333
592.051	10124.64828
592.254	9988.00068
592.457	10322.3708
592.66	10136.88229
592.863	10369.23485
593.066	10102.21796
593.269	10100.17875
593.472	10249.0042
593.675	10414.05481
593.878	10165.42637
594.081	10401.83181
594.284	10189.89056
594.486	10603.45221
594.689	10377.3844
594.892	10242.88953
595.095	10169.50387
595.298	10530.15011
595.5	10485.34633
595.703	10654.34698
595.906	10509.78551
596.109	10711.34005
596.311	10519.96797
596.514	10731.69242
596.717	10609.55999
596.92	10611.59589
597.122	10847.67825
597.325	10621.77522
597.528	10758.14871
597.73	10988.03182
597.933	10857.85063
598.136	10841.57468
598.338	10833.43643
598.541	11022.60346
598.743	10841.57468
598.946	10882.26316
599.148	10609.55999
599.351	10666.56058
599.554	10929.04923
599.756	10959.55865
599.959	10754.07864
600.161	10853.78171
600.363	10912.7765
600.566	11040.90479
600.768	10910.74235
600.971	11244.19426
601.173	10839.54013
601.376	11061.23857
601.578	11110.0352
601.78	11042.93822
601.983	11008.36847
602.185	11280.77522
602.388	10965.66023
602.59	11136.46411
602.792	11105.96905
602.995	11349.86359
603.197	11231.99987
603.399	11418.94043
603.601	11284.83956
603.804	11215.7401
604.006	11248.25898
604.208	11429.09783
604.41	11191.34919
604.613	11550.9679
604.815	11221.83759
605.017	11390.49841
605.219	10902.60567
605.421	11321.41685
605.623	10939.21932
605.826	11400.65649
606.028	11189.31655
606.23	11333.60855
606.432	11292.96813
606.634	11538.78243
606.836	11231.99987
607.038	11396.59329
607.24	11317.35287
607.442	11534.72053
607.644	11518.47256
607.846	11386.4351
608.048	11447.38054
608.25	11463.63118
608.452	11278.74303
608.654	11457.53726
608.856	11040.90479
609.058	11355.95907
609.26	11589.55302
609.462	11457.53726
609.664	11449.4119
609.866	11583.46085
610.067	11179.15317
610.269	11490.03716
610.471	11341.73615
610.673	11445.34917
610.875	11429.09783
611.077	11729.65024
611.278	11177.12047
611.48	11567.21468
611.682	11366.11799
611.884	12021.89483
612.085	11372.21323
612.287	11727.62015
612.489	11431.12928
612.69	11674.83468
612.892	11638.28736
613.094	11820.99535
613.295	11292.96813
613.497	11611.89024
613.699	11451.44326
613.9	11806.78725
614.102	11587.52231
614.304	11699.19795
614.505	11575.33784
614.707	11772.28013
614.908	11723.55994
615.11	11841.2919
615.311	11664.68294
615.513	11526.59662
615.714	11749.95067
615.916	11754.01065
616.117	11536.75149
616.319	11847.3807
616.52	11689.04674
616.722	11914.35257
616.923	11853.46943
617.124	11587.52231
617.326	11465.66247
617.527	11894.05902
617.729	11589.55302
617.93	11561.12221
618.131	11488.00599
618.333	11498.16175
618.534	11709.34893
618.735	11861.58761
618.937	11561.12221
619.138	11776.33992
619.339	11938.70374
619.54	11814.90621
619.742	11910.29392
619.943	11989.43162
620.144	11892.02962
620.345	12007.69243
620.546	11768.22031
620.748	12060.44228
620.949	11887.97079
621.15	12178.09631
621.351	11879.85304
621.552	11965.08287
621.753	12155.78456
621.954	12163.89803
622.155	11906.23525
622.356	11802.72772
622.558	11961.02463
622.759	12032.03917
622.96	11804.75749
623.161	11987.4026
623.362	11804.75749
623.563	12269.36239
623.764	11904.2059
623.965	12125.358
624.166	11837.23266
624.366	11859.55808
624.567	12060.44228
624.768	11979.28644
624.969	11774.31003
625.17	12178.09631
625.371	11825.05472
625.572	12157.81294
625.773	11904.2059
625.973	12354.53102
626.174	11991.46063
626.375	12431.5779
626.576	12204.46358
626.777	12389.00057
626.977	12044.21212
627.178	12395.08323
627.379	11879.85304
627.58	12180.1246
627.78	12072.61458
627.981	11948.84972
628.182	12309.92042
628.382	12111.15836
628.583	12186.20945
628.784	12090.8725
628.984	12167.95472
629.185	12263.27844
629.386	12157.81294
629.586	12251.11034
629.787	12316.00388
629.987	12395.08323
630.188	12218.66083
630.388	12066.52847
630.589	11695.13749
630.79	12032.03917
630.99	11916.38188
631.191	12236.91391
631.391	12301.80904
631.591	12672.79566
631.792	12214.60451
631.992	12723.46063
632.193	12125.358
632.393	12198.37893
632.594	12153.75618
632.794	12453.87913
632.994	12226.77338
633.195	12603.88533
633.395	12348.44796
633.595	12585.64317
633.796	12425.4956
633.996	12539.02205
634.196	12370.75223
634.397	12832.88469
634.597	12366.69697
634.797	12378.86267
634.997	12318.03169
635.198	12261.25044
635.398	12123.3295
635.598	12403.19334
635.798	12403.19334
635.998	12678.87565
636.199	12482.26138
636.399	12703.19508
636.599	12682.92895
636.799	12494.4248
636.999	12583.61624
637.199	12743.72559
637.399	12763.98998
637.599	12924.05913
637.799	12565.37353
637.999	12792.35917
638.199	12768.04279
638.399	12871.38189
638.599	12877.46022
638.799	13005.09416
638.999	12828.83224
639.199	12956.47413
639.399	12786.28015
639.599	12581.5893
639.799	12721.4341
639.999	12891.64279
640.199	12486.31588
640.399	12772.09558
640.599	12445.76969
640.799	13351.43275
640.998	12678.87565
641.198	12774.12196
641.398	12547.13031
641.598	12838.96333
641.798	12822.75352
641.997	12984.83617
642.197	12757.91072
642.397	12778.17472
642.597	12859.22509
642.796	13225.87491
642.996	12956.47413
643.196	13021.30019
643.395	12660.63552
643.595	13159.03889
643.795	12826.806
643.994	12974.70698
644.194	13110.42775
644.394	13150.93722
644.593	13088.14674
644.793	12865.30352
644.992	12966.60354
645.192	13011.17146
645.392	13337.25768
645.591	13434.45424
645.791	13442.55354
645.99	13438.5039
646.19	13323.0824
646.389	13612.62519
646.589	13408.13107
646.788	13393.95679
646.987	13029.40309
647.187	13349.40775
647.386	13025.35165
647.586	13412.18083
647.785	13080.04441
647.984	13114.47878
648.184	13306.88183
648.383	13483.04914
648.582	13223.84965
648.782	12942.29273
648.981	13023.32592
649.18	13175.24202
649.38	13029.40309
649.579	13294.73123
649.778	13106.3767
649.977	13371.68251
650.177	13306.88183
650.376	13582.25711
650.575	13242.07685
650.774	13446.60317
650.973	13317.00722
651.173	13549.86362
651.372	13568.08507
651.571	13535.69118
651.77	13199.54616
651.969	13600.47805
652.168	13288.65587
652.367	13329.15754
652.566	13404.0813
652.765	13541.76511
652.964	13373.70747
653.163	13446.60317
653.362	13146.88636
653.561	13282.58048
653.76	13337.25768
653.959	13426.35487
654.158	13533.66653
654.357	13545.81437
654.556	13353.45775
654.755	13802.91506
654.954	13071.942
655.153	13760.40589
655.352	13448.62798
655.551	13456.72717
655.749	13588.33079
655.948	13612.62519
656.147	13464.82631
656.346	13628.82119
656.545	13539.74047
656.743	13734.09002
656.942	13576.1834
657.141	13659.1881
657.34	13632.87016
657.538	13586.30623
657.737	13422.30517
657.936	13555.93747
658.135	13515.44453
658.333	13865.66433
658.532	13559.98668
658.731	13817.08449
658.929	13434.45424
659.128	13732.06571
659.326	13551.88824
659.525	13764.45444
659.724	13359.53271
659.922	13614.6497
660.121	13578.20797
660.319	13857.5678
660.518	13248.1525
660.716	13562.01128
660.915	13636.91911
661.113	13845.42293
661.312	13624.77221
661.51	14009.37053
661.709	13742.18727
661.907	13764.45444
662.105	13466.85108
662.304	13968.89123
662.502	13792.79395
662.701	13989.13101
662.899	13665.2614
663.097	13804.93927
663.296	13778.62427
663.494	13811.01189
663.692	13721.94406
663.891	13825.18124
664.089	13527.59257
664.287	13920.31473
664.485	13444.57835
664.684	13780.64852
664.882	13677.4079
665.08	14025.56198
665.278	13831.25378
665.476	14112.58842
665.675	14068.0638
665.873	14319.00762
666.071	13914.24256
666.269	13806.96348
666.467	13758.38161
666.665	14264.36919
666.863	13908.17036
667.061	13851.49538
667.259	13681.4567
667.457	13653.11478
667.655	13507.34577
667.853	13669.31024
668.051	13794.81817
668.249	13770.52724
668.447	13691.57866
668.645	13681.4567
668.843	13851.49538
669.041	14037.70546
669.239	13576.1834
669.437	13875.78492
669.635	13942.57914
669.833	13989.13101
670.031	13590.35534
670.229	13999.2508
670.426	13487.09861
670.624	14070.08767
670.822	13683.4811
671.02	14165.20706
671.218	13898.04999
671.415	13861.61607
671.613	13466.85108
671.811	13495.19752
672.009	13713.84669
672.206	13794.81817
672.404	13657.16367
672.602	13922.33878
672.799	13780.64852
672.997	13944.60317
673.195	13638.94358
673.392	13499.24695
673.59	13713.84669
673.788	13576.1834
673.985	13568.08507
674.183	13497.22224
674.38	13685.5055
674.578	13806.96348
674.775	13525.5679
674.973	13736.11434
675.17	13608.57616
675.368	13827.20542
675.565	13780.64852
675.763	13746.23587
675.96	14027.5859
676.158	14021.51413
676.355	13325.10745
676.553	13875.78492
676.75	13792.79395
676.947	13768.50298
677.145	13608.57616
677.342	13590.35534
677.539	13762.43017
677.737	13891.97773
677.934	13442.55354
678.131	13849.47123
678.329	13732.06571
678.526	13620.72322
678.723	13987.10704
678.92	14033.65764
679.118	13472.92538
679.315	13750.28447
679.512	13922.33878
679.709	13849.47123
679.906	13835.30212
680.104	13618.69872
680.301	13774.57576
680.498	13614.6497
680.695	13786.72124
680.892	13701.70054
681.089	13434.45424
681.286	13711.82234
681.483	13626.7967
681.68	13717.89538
681.877	13533.66653
682.075	13584.28167
682.272	13515.44453
682.469	14031.63373
682.665	13636.91911
682.862	13580.23254
683.059	13557.96208
683.256	13602.50258
683.453	13557.96208
683.65	13778.62427
683.847	13614.6497
684.044	13499.24695
684.241	13240.05162
684.438	13667.28582
684.635	13238.02639
684.831	13503.29637
685.028	13284.60561
685.225	13602.50258
685.422	13432.4294
685.619	13474.95014
685.815	13233.97591
686.012	13325.10745
686.209	13136.75912
686.405	13383.83218
686.602	13317.00722
686.799	13365.60763
686.996	13092.19787
687.192	13406.10619
687.389	13351.43275
687.586	13483.04914
687.782	13347.38275
687.979	13503.29637
688.175	13229.92542
688.372	13126.63176
688.568	13069.91638
688.765	13104.35117
688.962	13440.52872
689.158	13268.4044
689.355	13084.09558
689.551	13562.01128
689.748	13213.72327
689.944	13474.95014
690.14	13290.681
690.337	13398.0066
690.533	13252.20292
690.73	13157.01348
690.926	13094.22343
691.123	13088.14674
691.319	13055.73695
691.515	13410.15595
691.712	13094.22343
691.908	13260.3037
692.104	13126.63176
692.301	13104.35117
692.497	12950.39642
692.693	13381.80724
692.889	13150.93722
693.086	13207.64739
693.282	12897.72096
693.478	13053.7113
693.674	12913.92917
693.87	13102.32563
694.067	13031.4288
694.263	13191.44485
694.459	12999.01681
694.655	13086.12116
694.851	13039.53159
695.047	13242.07685
695.243	13217.77383
695.439	13067.89077
695.635	12936.21491
695.831	13197.52084
696.027	13211.69798
696.224	13288.65587
696.42	13098.27454
696.615	12934.18896
696.811	12808.56965
697.007	13013.19721
697.203	13167.14049
697.399	13353.45775
697.595	12980.78451
697.791	12934.18896
697.987	12366.69697
698.183	12895.69491
698.379	12707.24824
698.575	13116.50429
698.77	12891.64279
698.966	13055.73695
699.162	12964.57767
699.358	13236.00116
699.554	12614.01964
699.749	13531.64188
699.945	12996.99102
700.141	12826.806
700.337	12869.35577
700.532	12686.98222
700.728	12597.80466
700.924	12703.19508
701.119	12435.63273
701.315	12780.20108
701.511	12743.72559
701.706	13073.96761
701.902	12770.06919
702.097	13183.34347
702.293	12889.61673
702.489	13114.47878
702.684	12828.83224
702.88	12999.01681
703.075	12686.98222
703.271	12952.42233
703.466	12974.70698
703.662	12885.56458
703.857	12893.66886
704.053	12996.99102
704.248	12763.98998
704.443	12834.91091
704.639	12731.56668
704.834	12986.86199
705.03	13088.14674
705.225	12992.93942
705.42	12697.1153
705.616	12616.04648
705.811	12607.93907
706.006	12634.28781
706.202	12551.18441
706.397	12999.01681
706.592	12551.18441
706.787	12861.25124
706.983	12885.56458
707.178	12640.36814
707.373	12638.34137
707.568	12913.92917
707.763	12776.14834
707.959	12895.69491
708.154	12464.0158
708.349	12786.28015
708.544	12970.65527
708.739	12737.64616
708.934	12393.05568
709.129	12555.23847
709.324	12271.39035
709.519	12725.48715
709.714	12504.56081
709.909	12847.0681
710.104	12429.55047
710.299	12699.1419
710.494	12607.93907
710.689	12808.56965
710.884	12539.02205
711.079	12731.56668
711.274	12559.29251
711.469	12753.85786
711.664	12628.20742
711.859	12812.62221
712.054	12741.69912
712.249	12534.96789
712.443	12194.32247
712.638	12658.60881
712.833	12472.12501
713.028	12948.3705
713.223	12520.7781
713.417	12713.32793
713.612	12709.27481
713.807	12727.51367
714.002	12676.84899
714.196	12447.79706
714.391	12405.22085
714.586	12153.75618
714.78	12307.89259
714.975	12423.46816
715.17	12437.66013
715.364	12634.28781
715.559	12342.36483
715.754	12269.36239
715.948	12180.1246
716.143	12364.66933
716.337	12289.64176
716.532	12689.00885
716.726	12113.1869
716.921	12437.66013
717.115	12139.55727
717.31	12457.93382
717.504	12159.84131
717.699	12543.0762
717.893	12088.84388
718.088	12386.973
718.282	12234.88582
718.476	12222.71712
718.671	12176.068
718.865	12145.64256
719.059	12287.61385
719.254	12096.95834
719.448	11983.34454
719.642	12309.92042
719.837	12281.53009
720.031	12301.80904
720.225	11920.44047
720.419	12218.66083
720.614	12328.17062
720.808	12391.02813
721.002	12058.41354
721.196	12141.58571
721.39	11965.08287
721.585	11920.44047
721.779	12121.301
721.973	12034.06802
722.167	11948.84972
722.361	12354.53102
722.555	11963.05375
722.749	11963.05375
722.943	11983.34454
723.137	12088.84388
723.331	11731.68032
723.525	11950.87889
723.719	11920.44047
723.913	12003.63452
724.107	11597.67577
724.301	11808.81701
724.495	11544.87521
724.689	11664.68294
724.883	11471.75627
725.077	11668.74366
725.271	11849.41029
725.465	11829.11407
725.659	11609.85963
725.853	11952.90806
726.046	11940.73296
726.24	11890.00021
726.434	11561.12221
726.628	11946.82054
726.822	11585.49158
727.015	11794.60855
727.209	11660.62218
727.403	11920.44047
727.596	11607.82901
727.79	11735.74046
727.984	11656.56138
728.177	11804.75749
728.371	11684.9862
728.565	11662.65256
728.758	11760.10056
728.952	11885.94137
729.146	11774.31003
729.339	11979.28644
729.533	11961.02463
729.726	11881.88249
729.92	11814.90621
730.113	12105.07268
730.307	11741.8306
730.5	12019.86594
730.694	11956.96636
730.887	11751.98066
731.081	12027.98146
731.274	12123.3295
731.468	11910.29392
731.661	11857.52854
731.854	11737.77052
732.048	11867.67617
732.241	11425.0349
732.435	11707.31876
732.628	11776.33992
732.821	11995.51862
733.014	11733.7104
733.208	11715.43942
733.401	11751.98066
733.594	11648.43969
733.788	11463.63118
733.981	11920.44047
734.174	11977.25739
734.367	11573.30706
734.56	11910.29392
734.754	11920.44047
734.947	11593.61441
735.14	11837.23266
735.333	11861.58761
735.526	11689.04674
735.719	11605.79838
735.912	11601.7371
736.105	11835.20302
736.298	11894.05902
736.491	11654.53097
736.684	11961.02463
736.877	11595.6451
737.07	11449.4119
737.263	11288.90387
737.456	11280.77522
737.649	11488.00599
737.842	11731.68032
738.035	11447.38054
738.228	11384.40344
738.421	11510.34835
738.614	11754.01065
738.807	11583.46085
739	11418.94043
739.192	11431.12928
739.385	11530.6586
739.578	11185.25123
739.771	11609.85963
739.964	11347.83175
740.156	11664.68294
740.349	11227.93499
740.542	11646.40924
740.735	11510.34835
740.927	11349.86359
741.12	11425.0349
741.313	11396.59329
741.505	11081.57126
741.698	11268.58194
741.891	11315.32086
742.083	11561.12221
742.276	11605.79838
742.468	11715.43942
742.661	11504.25509
742.854	11605.79838
743.046	11512.37942
743.239	11804.75749
743.431	11575.33784
743.624	11630.16533
743.816	11613.92085
744.009	11640.31784
744.201	11238.09711
744.393	11211.67505
744.586	11390.49841
744.778	11319.38486
744.971	11457.53726
745.163	11311.25682
745.355	11485.9748
745.548	11219.8051
745.74	11205.5774
745.932	11362.05445
746.125	11130.36529
746.317	11236.06471
746.509	11244.19426
746.702	11260.45288
746.894	11380.34008
747.086	11435.19215
747.278	11473.78752
747.471	11353.92725
747.663	11044.97164
747.855	11303.12862
748.047	11276.71083
748.239	11130.36529
748.431	11166.95677
748.623	11179.15317
748.815	10717.44588
749.008	10994.13293
749.2	11276.71083
749.392	11333.60855
749.584	11160.85843
749.776	11268.58194
749.968	11355.95907
750.16	11238.09711
750.352	11126.29936
750.544	11187.28389
750.736	11077.50481
750.928	11120.20038
751.12	11038.87136
751.311	11069.37178
751.503	11193.38182
751.695	11262.48516
751.887	11317.35287
752.079	11311.25682
752.271	10945.32123
752.463	11197.44706
752.654	11205.5774
752.846	11020.56992
753.038	10642.13294
753.23	10798.84677
753.421	10684.88016
753.613	10672.66722
753.805	11042.93822
753.997	11093.77035
754.188	11130.36529
754.38	11136.46411
754.572	11227.93499
754.763	11339.70427
754.955	11122.23338
755.146	11325.48079
755.338	10865.98832
755.53	10806.98582
755.721	10804.95108
755.913	10485.34633
756.104	10642.13294
756.296	10762.21873
756.487	10813.08998
756.679	10813.08998
756.87	10589.20029
757.062	10623.81104
757.253	10540.33193
757.445	10619.73938
757.636	10750.00853
757.827	10593.27233
758.019	10418.12903
758.21	10574.94776
758.401	10593.27233
758.593	10576.98388
758.784	10605.48815
758.975	10629.91845
759.167	10613.63178
759.358	10633.99
759.549	10729.65723
759.74	10538.29559
759.932	10697.09267
760.123	10519.96797
760.314	10291.8035
760.505	10605.48815
760.696	10069.589
760.888	10609.55999
761.079	10157.2712
761.27	10244.92777
761.461	10283.65171
761.652	10324.40851
761.843	10251.0424
762.034	10428.31438
762.225	10173.58132
762.416	10051.23362
762.607	10147.07692
762.798	10524.04086
762.989	10183.7747
763.18	10346.82248
763.371	10324.40851
763.562	10116.492
763.753	10030.8374
763.944	10299.95507
764.135	10204.16042
764.326	10301.99293
764.517	10145.03802
764.708	10096.1003
764.899	9918.6325
765.089	10352.9351
765.28	9883.94208
765.471	10306.06861
765.662	10096.1003
765.853	10202.12191
766.043	9981.88064
766.234	9973.72037
766.425	9785.96953
766.615	10179.69739
766.806	9594.00536
766.997	9716.55134
767.187	9618.51902
767.378	9761.47099
767.569	9777.80359
767.759	9857.41123
767.95	9859.45215
768.141	10092.0218
768.331	9763.51262
768.522	9765.55423
768.712	9855.37029
768.903	10022.67851
769.093	9769.63741
769.284	9998.20047
769.474	9973.72037
769.665	9869.65655
769.855	9845.16538
770.046	9608.30527
770.236	9741.05388
770.426	9759.42935
770.617	9640.98791
770.807	9700.21508
770.998	9745.13742
771.188	9859.45215
771.378	9473.44674
771.569	9796.17661
771.759	9342.60798
771.949	9555.18742
772.139	9628.73239
772.33	9426.43423
772.52	9401.90256
772.71	9485.70947
772.9	9187.14911
773.09	9316.02316
773.281	9289.43554
773.471	9193.28748
773.661	9266.93613
773.851	9154.40852
774.041	9311.93294
774.231	9199.4257
774.421	9291.48084
774.611	9526.58108
774.802	9254.66286
774.992	9303.7523
775.182	9311.93294
775.372	9338.51819
775.562	9009.06909
775.752	9232.16032
775.942	9105.28944
776.131	9088.91422
776.321	8996.78287
776.511	9172.82564
776.701	8884.12954
776.891	8980.40026
777.081	8974.25649
777.271	8886.17827
777.461	9011.11673
777.651	9115.5234
777.84	9043.87663
778.03	9101.19574
778.22	9019.30713
778.41	9109.38308
778.599	8839.05311
778.789	8808.31418
778.979	8871.83683
779.169	8849.29852
779.358	9090.96118
779.548	8957.87232
779.738	8636.1002
779.927	8791.91841
780.117	8804.21534
780.307	9043.87663
780.496	8773.47179
780.686	8980.40026
780.875	8513.00994
781.065	8966.06455
781.254	8832.90565
781.444	8943.53525
781.633	8865.69023
781.823	9138.03659
782.012	8430.91187
782.202	8697.6201
782.391	8439.12306
782.581	8545.84064
782.77	8504.80151
782.96	8853.39655
783.149	8474.01717
783.338	8498.64498
783.528	8484.27909
783.717	8533.5297
783.906	8595.07763
784.096	8537.63342
784.285	8572.51202
784.474	8463.75477
784.663	8361.10436
784.853	8305.65301
785.042	8356.99734
785.231	8391.90455
785.42	8268.67752
785.61	8225.5314
785.799	8398.06406
785.988	8430.91187
786.177	8285.11185
786.366	8504.80151
786.555	8492.48829
786.744	8377.53167
786.933	8582.7694
787.122	8391.90455
787.312	8393.95774
787.501	8430.91187
787.69	8283.05763
787.879	8338.51478
788.068	8155.65726
788.257	8124.82312
788.445	8118.65574
788.634	8149.49079
788.823	8024.0667
789.012	8077.53532
789.201	7842.99359
789.39	8118.65574
789.579	7867.69477
789.768	7987.04193
789.957	7807.99514
790.145	7966.46975
790.334	8003.49819
790.523	7775.04992
790.712	7910.91466
790.9	8073.42283
791.089	7826.52448
791.278	8046.68971
791.467	7715.32304
791.655	7828.58319
791.844	8034.35019
792.033	7752.39697
792.221	7719.4427
792.41	7818.28943
792.599	7414.35772
792.787	8079.59153
792.976	7960.2977
793.164	7939.72287
793.353	7807.99514
793.541	7937.66528
793.73	7670.00119
793.918	7859.46137
794.107	7818.28943
794.295	7818.28943
794.484	7842.99359
794.672	7674.12178
794.861	7521.60323
795.049	7785.34587
795.238	7554.59013
795.426	7538.09736
795.614	7721.5025
795.803	7599.93815
795.991	7513.35565
796.179	7740.03975
796.368	7449.42519
796.556	7426.73519
796.744	7350.39499
796.932	7496.85945
797.121	7224.47139
797.309	7358.64942
797.497	7240.99063
797.685	7443.23727
797.874	7484.4864
798.062	7375.15724
798.25	7302.9252
798.438	7707.08346
798.626	7505.10772
798.814	7352.45863
799.002	7474.17492
799.19	7373.09384
799.378	7282.28254
799.566	7410.23173
799.755	7053.00048
799.943	7323.56566
800.131	7399.91635
800.318	7210.0159
800.506	7183.16711
800.694	7207.95074
800.882	7166.64291
801.07	7094.33282
801.258	7327.69349
801.446	7391.66366
801.634	7154.24883
801.822	7195.55932
802.01	6999.25504
802.197	7269.8959
802.385	6962.03775
802.573	7069.53449
802.761	6945.49439
802.949	7265.76684
803.136	6912.40332
803.324	7117.06179
803.512	6945.49439
803.699	6881.37518
803.887	7046.79986
804.075	7267.83138
804.262	6904.12965
804.45	7228.60133
804.638	7086.06706
804.825	7251.31443
805.013	7053.00048
805.201	7298.79685
805.388	7174.90519
805.576	7327.69349
805.763	7238.9258
805.951	7257.50845
806.138	7088.13354
806.326	7216.21124
806.513	7034.39801
806.701	7166.64291
806.888	7050.93363
807.075	7657.63891
807.263	7164.57729
807.45	7505.10772
807.638	7243.05543
807.825	7232.73119
808.012	6895.85561
808.2	7088.13354
808.387	7135.65621
808.574	7234.79608
808.761	7274.02487
808.949	7538.09736
809.136	7432.92363
809.323	7562.83599
809.51	7624.66909
809.698	7331.82123
809.885	7302.9252
810.072	7439.11188
810.259	7350.39499
810.446	7309.11757
810.633	7053.00048
810.82	7110.86324
811.008	7077.80096
811.195	7284.34691
811.382	7247.18498
811.569	7583.44916
811.756	7028.19678
811.943	7449.42519
812.13	7168.70852
812.317	7269.8959
812.504	7389.60044
812.691	7620.54748
812.878	7333.88507
813.064	7459.73796
813.251	7350.39499
813.438	7630.85134
813.625	7344.20393
813.812	7529.85047
813.999	7397.85321
814.186	7340.07645
814.372	7397.85321
814.559	7573.14284
814.746	7172.83965
814.933	7352.45863
815.12	7261.63769
815.306	7181.10166
815.493	7342.14021
815.68	7265.76684
815.866	7181.10166
816.053	7408.16869
816.24	7050.93363
816.426	7546.34392
816.613	7309.11757
816.799	7294.6684
816.986	7226.53637
817.173	7455.61291
817.359	7395.79005
817.546	7342.14021
817.732	7129.45827
817.919	7315.30974
818.105	7011.65918
818.292	7185.23253
818.478	6955.83416
818.665	7102.59821
818.851	7034.39801
819.037	7240.99063
819.224	7071.60114
819.41	7222.40639
819.597	6798.60848
819.783	7162.51164
819.969	6829.65026
820.156	6910.33493
820.342	6839.99638
820.528	7218.27631
820.714	6986.85009
820.901	6962.03775
821.087	6926.88137
821.273	7214.14615
821.459	6827.58097
821.646	7170.7741
821.832	7133.59025
822.018	7216.21124
822.204	6947.56239
822.39	7185.23253
822.576	7125.3262
822.762	7005.45721
822.948	6926.88137
823.134	6910.33493
823.32	6856.54899
823.507	7220.34136
823.693	6866.89363
823.879	6866.89363
824.065	6763.42159
824.25	6806.88679
824.436	6744.79056
824.622	7075.73437
824.808	6728.22809
824.994	6887.58121
825.18	6883.44388
825.366	6926.88137
825.552	6703.38163
825.738	6912.40332
825.923	6649.53629
826.109	6889.64985
826.295	6498.27184
826.481	6866.89363
826.667	6624.67935
826.852	6773.77136
827.038	6746.86076
827.224	6947.56239
827.409	6827.58097
827.595	6777.91111
827.781	6390.44648
827.966	6839.99638
828.152	6429.8515
828.338	6719.9463
828.523	6255.57614
828.709	6806.88679
828.894	6357.25678
829.08	6579.09968
829.266	6442.29344
829.451	6811.02581
829.637	6537.6539
829.822	6564.59471
830.008	6504.49061
830.193	6276.33186
830.378	6251.42472
830.564	6413.26094
830.749	6313.68624
830.935	6336.51019
831.12	5993.85309
831.305	6247.2732
831.491	6076.98021
831.676	6097.7561
831.861	5879.49173
832.047	6351.03305
832.232	6047.89
832.417	6164.22317
832.602	6180.83618
832.788	6429.8515
832.973	6178.75964
833.158	6137.22383
833.343	6164.22317
833.528	6417.40872
833.714	6145.53174
833.899	6241.04575
834.084	6180.83618
834.269	6361.40582
834.454	5970.98652
834.639	6286.70883
834.824	5929.40364
835.009	6226.51421
835.194	6193.29495
835.379	6170.45323
835.564	5773.38379
835.749	6072.82475
835.934	6124.76125
836.119	6029.18672
836.304	5748.4083
836.489	6145.53174
836.674	5998.01034
836.859	6195.37133
837.044	6060.3578
837.228	6473.39464
837.413	6025.03017
837.598	6255.57614
837.783	5960.59168
837.968	6089.44603
838.152	5798.35589
838.337	6031.26495
838.522	5887.81132
838.707	6155.9161
838.891	5681.79036
839.076	6124.76125
839.261	5675.54369
839.445	6010.48152
839.63	5510.97166
839.815	5833.72721
839.999	5581.81816
840.184	5848.28988
840.368	5479.70719
840.553	5762.97775
840.737	5685.95469
840.922	5744.24539
841.106	5627.6455
841.291	5623.47985
841.475	5483.87609
841.66	5575.5681
841.844	5262.79485
842.029	5525.55993
842.213	5417.16238
842.397	5448.43743
842.582	5373.36843
842.766	5542.23083
842.951	5542.23083
843.135	5627.6455
843.319	5390.05306
843.504	5723.4294
843.688	5440.09793
843.872	5527.64387
844.056	5494.29793
844.241	5656.80241
844.425	5298.26902
844.609	5356.6823
844.793	5275.31592
844.977	5394.22398
845.161	5010.10776
845.346	5143.80284
845.53	5302.442
845.714	5398.39481
845.898	5127.09615
846.082	5367.1113
846.266	5266.96864
846.45	5183.47526
846.634	5074.87816
846.818	5200.17692
847.002	4985.02938
847.186	5398.39481
847.37	5043.54042
847.554	5170.94803
847.738	4727.78575
847.922	5018.46648
848.106	5051.89766
848.29	5076.96716
848.473	5012.19747
848.657	4968.30862
848.841	4817.75568
849.025	4809.38816
849.209	4807.29622
849.392	4999.65884
849.576	4734.06408
849.76	4980.84933
849.944	4780.09896
850.127	4934.86268
850.311	4867.95318
850.495	4924.40962
850.678	4723.60008
850.862	4888.86492
851.046	4742.43487
851.229	5051.89766
851.413	4685.92501
851.596	5026.82483
851.78	4832.39798
851.964	4855.40504
852.147	4424.09296
852.331	4761.26783
852.514	4604.27071
852.698	4857.49645
852.881	4610.55302
853.065	4811.48007
853.248	4734.06408
853.431	4734.06408
853.615	4587.51691
853.798	4876.31815
853.982	4510.01204
854.165	4556.09968
854.348	4386.36075
854.532	4623.11704
854.715	4478.58252
854.898	4621.02309
855.081	4445.05223
855.265	4424.09296
855.448	4327.65219
855.631	4528.86737
855.814	4340.23403
855.997	4637.77404
856.181	4344.4278
856.364	4489.05958
856.547	4503.72654
856.73	4522.58246
856.913	4237.45972
857.096	4466.00932
857.279	4149.3267
857.462	4264.73139
857.645	3945.64063
857.828	4205.98793
858.011	4054.85734
858.194	4409.42016
858.377	4149.3267
858.56	4277.3171
858.743	4065.35602
858.926	4386.36075
859.109	4168.21549
859.292	4143.03006
859.475	3872.09847
859.658	4229.06771
859.841	3991.85446
860.023	4178.70852
860.206	4031.75843
860.389	4266.82906
860.572	4046.45803
860.755	4138.8322
860.937	4067.45569
861.12	4403.13149
861.303	4260.53599
861.486	4344.4278
861.668	4077.95375
861.851	4103.14696
862.034	3872.09847
862.216	3941.43889
862.399	3647.11958
862.581	3884.70744
862.764	3794.32731
862.947	3905.7208
863.129	3756.48295
863.312	3893.11303
863.494	3760.68819
863.677	3867.89532
863.859	3739.66121
864.042	3874.20002
864.224	3409.28995
864.406	3933.03516
864.589	3537.70499
864.771	3605.04303
864.954	3754.3803
865.136	3689.18856
865.318	3291.34266
865.501	3506.13377
865.683	3636.60115
865.865	3710.22018
866.048	3312.40866
866.23	3642.91227
866.412	3464.03244
866.594	3436.6627
866.777	3419.81829
866.959	3630.28987
867.141	3266.06122
867.323	3411.39565
867.505	3244.99149
867.687	3668.15502
867.869	3402.97274
868.052	3571.37638
868.234	3424.0295
868.416	3712.32323
868.598	3360.85392
868.78	3470.3481
868.962	3314.51516
869.144	3436.6627
869.326	3318.72812
869.508	3533.49573
869.69	3419.81829
869.872	3428.24064
870.054	3272.38181
870.236	3344.00443
870.417	3200.73962
870.599	3584.00194
870.781	3356.64165
870.963	3430.34618
871.145	3445.08448
871.327	3504.02888
871.508	3209.16911
871.69	3301.87587
871.872	3255.52656
872.054	3365.06611
872.235	3027.87814
872.417	3272.38181
872.599	3065.83246
872.78	3150.15716
872.962	3067.94089
873.144	3306.08904
873.325	3023.66069
873.507	3339.79189
873.689	2987.80985
873.87	3299.76926
874.052	3099.56539
874.233	3285.02253
874.415	3202.84702
874.596	3394.54954
874.778	3091.13254
874.959	3295.556
875.141	3074.26607
875.322	3126.97041
875.503	2819.04272
875.685	3086.91602
875.866	2932.97076
876.048	3124.86243
876.229	2981.48278
876.41	3141.72584
876.592	2941.40819
876.773	3167.01903
876.954	3175.44957
877.136	3434.55722
877.317	3150.15716
877.498	3476.6636
877.679	3137.51009
877.86	3407.18423
878.042	3143.8337
878.223	3285.02253
878.404	3143.8337
878.585	3209.16911
878.766	3044.74735
878.947	3556.64573
879.128	3063.72402
879.309	3257.63353
879.49	3011.00796
879.672	3226.0273
879.853	3084.80773
880.034	3331.36659
880.215	3285.02253
880.396	3333.47294
880.576	3107.99799
880.757	3230.24168
880.938	3004.68138
881.119	3358.74779
881.3	3167.01903
881.481	3457.71662
881.662	3152.26495
881.843	3367.17219
882.023	3110.1061
882.204	3297.66264
882.385	3021.55194
882.566	3185.98738
882.747	3078.48278
882.927	3379.80825
883.108	3183.87985
883.289	3504.02888
883.469	3110.1061
883.65	3266.06122
883.831	3320.83458
884.011	3459.82191
884.192	3202.84702
884.373	3354.53549
884.553	3244.99149
884.734	3381.9142
884.914	3188.09489
885.095	3430.34618
885.275	3339.79189
885.456	3426.13508
885.636	3223.92009
885.817	3415.60701
885.997	3207.06176
886.178	3369.27824
886.358	3002.57249
886.538	3238.67024
886.719	3118.53839
886.899	3413.50134
887.08	3217.59834
887.26	3360.85392
887.44	3072.15769
887.621	3512.44834
887.801	3013.11678
887.981	3379.80825
888.161	3350.32312
888.342	3312.40866
888.522	3335.57927
888.702	3436.6627
888.882	3006.79026
889.062	3200.73962
889.242	3169.12669
889.423	3346.11068
889.603	3135.40218
889.783	3306.08904
889.963	3331.36659
890.143	3451.40063
890.323	3213.38376
890.503	3621.87456
890.683	3272.38181
890.863	3365.06611
891.043	3036.31287
891.223	3352.42931
891.403	3107.99799
891.583	3318.72812
891.763	3141.72584
891.943	3242.88442
892.122	3040.53014
892.302	3202.84702
892.482	3131.18633
892.662	3221.81285
892.842	3124.86243
893.022	3141.72584
893.201	2973.04647
893.381	3124.86243
893.561	2966.71909
893.741	3278.70224
893.92	3000.46359
894.1	2964.60993
894.28	2964.60993
894.459	3129.07838
894.639	2882.34122
894.819	3124.86243
894.998	3029.98685
895.178	3162.80366
895.357	2964.60993
895.537	3232.34885
895.716	3065.83246
895.896	3025.76942
896.075	2880.23148
896.255	3017.33439
896.434	2918.20467
896.614	3082.69943
896.793	2831.70343
896.973	2981.48278
897.152	2721.96092
897.331	2994.13679
897.511	2717.73933
897.69	2932.97076
897.87	2686.07575
898.049	2882.34122
898.228	2713.51769
898.407	2880.23148
898.587	2690.29773
898.766	3078.48278
898.945	2648.07565
899.124	2871.79236
899.304	2660.74281
899.483	2656.52047
899.662	2534.05138
899.841	2857.02335
900.02	2607.96003
900.199	2778.94718
900.378	2487.58721
900.557	2508.70797
900.737	2498.14773
900.916	2622.73999
901.095	2544.61065
901.274	2652.29809
901.453	2396.75543
901.632	2474.91422
901.811	2257.30244
901.989	2694.51966
902.168	2593.17947
902.347	2650.18687
902.526	2474.91422
902.705	2660.74281
902.884	2407.31828
903.063	2523.49183
903.242	2322.80836
903.42	2521.37989
903.599	2090.33002
903.778	2403.09317
903.957	2170.65229
904.135	2269.9817
904.314	2026.91008
904.493	2141.06119
904.672	2014.22534
904.85	2238.28293
905.029	2024.79597
905.207	2075.53261
905.386	2003.65455
905.565	1988.85516
905.743	1921.19698
905.922	1967.71264
906.1	1787.97885
906.279	1826.0431
906.457	1756.25761
906.636	2016.33948
906.814	1779.51994
906.993	1971.94119
907.171	1694.92757
907.35	1815.46984
907.528	1494.00433
907.707	1819.69916
907.885	1580.7205
908.063	1747.79847
908.242	1529.96003
908.42	1633.59499
908.598	1301.53629
908.777	1671.66375
908.955	1688.58293
909.133	1747.79847
909.311	1546.88027
909.49	1650.51454
909.668	1603.98543
909.846	1781.63467
910.024	1432.66785
910.202	1616.67529
910.38	1341.72126
910.559	1646.28466
910.737	1417.8625
910.915	1606.10041
911.093	1527.845
911.271	1646.28466
911.449	1510.92469
911.627	1538.42016
911.805	1472.85384
911.983	1603.98543
912.161	1477.08394
912.339	1553.22534
912.517	1422.0926
912.695	1718.19102
912.872	1409.40231
913.05	1760.48716
913.228	1601.87044
913.406	1692.81269
913.584	1654.7444
913.762	1819.69916
913.939	1553.22534
914.117	1658.97426
914.295	1650.51454
914.473	1680.12336
914.65	1656.85933
914.828	1701.27219
915.006	1487.65919
915.184	1692.81269
915.361	1432.66785
915.539	1555.34036
915.716	1453.81837
915.894	1553.22534
916.072	1419.97755
916.249	1390.36692
916.427	1417.8625
916.604	1379.79173
916.782	1345.95129
916.959	1557.45538
917.137	1485.54414
917.314	1500.34947
917.492	1335.37622
917.669	1635.70994
917.847	1350.18133
918.024	1504.57956
918.201	1333.26121
918.379	1506.69461
918.556	1257.12217
918.733	1468.62374
918.911	1345.95129
919.088	1479.19899
919.265	1176.75692
919.442	1415.74745
919.62	1204.24977
919.797	1326.9162
919.974	1166.18291
920.151	1261.35204
920.328	1227.51339
920.506	1371.33159
920.683	1191.56068
920.86	1333.26121
921.037	1343.83627
921.214	1364.9865
921.391	1214.82409
921.568	1140.8057
921.745	1121.7732
921.922	1200.02006
922.099	1041.41807
922.276	1248.66247
922.453	1096.3971
922.63	1244.43263
922.807	1140.8057
922.984	1269.81181
923.161	1037.18907
923.338	1267.69687
923.514	977.98559
923.691	1130.23204
923.868	1092.16782
924.045	1159.83855
924.222	999.12912
924.399	1233.85809
924.575	903.98872
924.752	1022.38774
924.929	910.33095
925.105	1104.85572
925.282	944.15735
925.459	1026.61666
925.635	954.72848
925.812	832.11524
925.989	876.50654
926.165	961.07124
926.342	952.61424
926.518	912.44504
926.695	999.12912
926.871	1009.70113
927.048	891.30447
927.224	952.61424
927.401	726.4382
927.577	872.27863
927.754	802.52322
927.93	891.30447
928.107	865.93684
928.283	821.54645
928.459	732.77811
928.636	944.15735
928.812	711.64545
928.988	870.16469
929.165	779.27365
929.341	817.319
929.517	648.25418
929.693	791.95509
929.87	764.47908
930.046	770.81955
930.222	760.25215
930.398	844.79808
930.574	652.47994
930.751	728.55149
930.927	586.98623
931.103	707.41905
931.279	635.5772
931.455	673.60945
931.631	595.43635
931.807	496.16112
931.983	555.30016
932.159	605.99929
932.335	532.06565
932.511	591.21126
932.687	485.60176
932.863	557.41247
933.039	432.81063
933.215	542.62658
933.391	475.04277
933.566	494.04922
933.742	411.69691
933.918	472.93102
934.094	430.69919
934.27	422.25357
934.445	361.03064
934.621	500.38496
934.797	424.36495
934.973	411.69691
935.148	371.58532
935.324	386.36258
935.5	310.37423
935.675	308.26376
935.851	251.28824
936.027	399.02945
936.202	238.62888
936.378	354.69804
936.553	244.95848
936.729	234.40925
936.904	213.31227
937.08	234.40925
937.255	175.34274
937.431	217.53151
937.606	185.88917
937.782	152.14241
937.957	137.37989
938.133	225.97022
938.308	141.59765
938.483	236.51906
938.659	88.88192
938.834	86.77357
939.009	171.12431
939.185	196.43612
939.36	139.48876
939.535	118.40105
939.71	147.92445
939.886	139.48876
940.061	99.42397
940.236	114.18377
940.411	99.42397
940.586	133.16222
940.761	145.81549
940.937	74.12398
941.112	99.42397
941.287	76.23219
941.462	82.55695
941.637	78.34042
941.812	93.09867
941.987	15.10348
942.162	107.85801
942.337	103.64094
942.512	196.43612
942.687	23.53386
942.862	107.85801
943.037	118.40105
943.212	55.15113
943.386	-35.47071
943.561	80.44868
943.736	118.40105
943.911	114.18377
944.086	82.55695
944.26	53.04315
944.435	76.23219
944.61	90.99028
944.785	99.42397
944.959	57.25913
945.134	109.96657
945.309	95.20708
945.483	46.71934
945.658	82.55695
945.833	31.96461
946.007	6.67348
946.182	103.64094
946.357	65.69137
946.531	57.25913
946.706	57.25913
946.88	158.46953
947.055	103.64094
947.229	93.09867
947.404	84.66525
947.578	141.59765
947.752	107.85801
947.927	97.31551
948.101	69.90763
948.276	116.2924
948.45	86.77357
948.624	46.71934
948.799	145.81549
948.973	105.74946
949.147	15.10348
949.321	152.14241
949.496	72.0158
949.67	128.94464
949.844	74.12398
950.018	23.53386
950.193	99.42397
950.367	40.39575
950.541	53.04315
950.715	15.10348
950.889	40.39575
951.063	72.0158
951.237	-24.93558
951.411	53.04315
951.585	135.27105
951.759	112.07516
951.933	50.93519
952.107	156.36047
952.281	78.34042
952.455	74.12398
952.629	101.53244
952.803	69.90763
952.977	50.93519
953.151	95.20708
953.325	116.2924
953.499	99.42397
953.672	69.90763
953.846	23.53386
954.02	57.25913
954.194	-3.86348
954.368	107.85801
954.541	31.96461
954.715	17.21104
954.889	76.23219
955.062	93.09867
955.236	19.31862
955.41	44.61145
955.583	109.96657
955.757	59.36716
955.93	154.25143
956.104	128.94464
956.278	109.96657
956.451	116.2924
956.625	95.20708
956.798	76.23219
956.972	131.05342
957.145	86.77357
957.319	114.18377
957.492	124.72714
957.665	53.04315
957.839	84.66525
958.012	48.82725
958.185	99.42397
958.359	124.72714
958.532	107.85801
958.705	109.96657
958.879	31.96461
959.052	27.74919
959.225	150.03342
959.398	103.64094
959.572	99.42397
959.745	67.79949
959.918	25.64151
960.091	86.77357
960.264	80.44868
960.438	31.96461
960.611	59.36716
960.784	173.23352
960.957	-1.75614
961.13	65.69137
961.303	126.83588
961.476	61.47521
961.649	103.64094
961.822	107.85801
961.995	99.42397
962.168	133.16222
962.341	82.55695
962.514	97.31551
962.686	15.10348
962.859	65.69137
963.032	139.48876
963.205	36.18013
963.378	27.74919
963.551	82.55695
963.723	65.69137
963.896	40.39575
964.069	69.90763
964.242	69.90763
964.414	-10.18537
964.587	122.61842
964.76	-54.43236
964.932	145.81549
965.105	154.25143
965.278	55.15113
965.45	120.50972
965.623	109.96657
965.795	101.53244
965.968	99.42397
966.14	101.53244
966.313	118.40105
966.485	141.59765
966.658	82.55695
966.83	118.40105
967.003	61.47521
967.175	42.50359
967.348	65.69137
967.52	69.90763
967.692	-14.39983
967.865	74.12398
968.037	99.42397
968.209	61.47521
968.382	-16.50703
968.554	40.39575
968.726	27.74919
968.898	31.96461
969.071	112.07516
969.243	25.64151
969.415	80.44868
969.587	101.53244
969.759	72.0158
969.932	116.2924
970.104	90.99028
970.276	42.50359
970.448	107.85801
970.62	27.74919
970.792	31.96461
970.964	27.74919
971.136	6.67348
971.308	82.55695
971.48	61.47521
971.652	93.09867
971.824	124.72714
971.996	31.96461
972.168	59.36716
972.339	59.36716
972.511	95.20708
972.683	2.45862
972.855	78.34042
973.027	57.25913
973.199	15.10348
973.37	29.85689
973.542	74.12398
973.714	-35.47071
973.886	0.35123
974.057	63.58328
974.229	17.21104
974.401	23.53386
974.572	90.99028
974.744	124.72714
974.915	90.99028
975.087	74.12398
975.259	-3.86348
975.43	27.74919
975.602	59.36716
975.773	61.47521
975.945	-1.75614
976.116	65.69137
976.288	145.81549
976.459	74.12398
976.63	23.53386
976.802	46.71934
976.973	107.85801
977.145	-3.86348
977.316	50.93519
977.487	99.42397
977.659	-16.50703
977.83	31.96461
978.001	23.53386
978.172	34.07236
978.344	93.09867
978.515	15.10348
978.686	31.96461
978.857	97.31551
979.028	-35.47071
979.2	-10.18537
979.371	90.99028
979.542	36.18013
979.713	61.47521
979.884	59.36716
980.055	101.53244
980.226	44.61145
980.397	78.34042
980.568	19.31862
980.739	-5.9708
980.91	17.21104
981.081	76.23219
981.252	107.85801
981.423	23.53386
981.594	93.09867
981.765	15.10348
981.936	17.21104
982.106	107.85801
982.277	48.82725
982.448	27.74919
982.619	38.28793
982.79	4.56604
982.96	40.39575
983.131	-1.75614
983.302	-10.18537
983.472	-3.86348
983.643	78.34042
983.814	48.82725
983.984	12.99594
984.155	15.10348
984.326	34.07236
984.496	-5.9708
984.667	38.28793
984.837	72.0158
985.008	36.18013
985.178	65.69137
985.349	74.12398
985.519	48.82725
985.69	6.67348
985.86	-16.50703
986.031	-1.75614
986.201	17.21104
986.371	27.74919
986.542	-31.25673
986.712	72.0158
986.882	-50.21884
987.053	31.96461
987.223	93.09867
987.393	55.15113
987.563	10.88843
987.734	42.50359
987.904	19.31862
988.074	17.21104
988.244	8.78094
988.414	-50.21884
988.585	-35.47071
988.755	12.99594
988.925	0.35123
989.095	46.71934
989.265	-52.32561
989.435	40.39575
989.605	12.99594
989.775	-16.50703
989.945	36.18013
990.115	15.10348
990.285	101.53244
990.455	40.39575
990.625	23.53386
990.795	40.39575
990.965	42.50359
991.134	17.21104
991.304	15.10348
991.474	8.78094
991.644	-16.50703
991.814	-48.11204
991.984	48.82725
992.153	25.64151
992.323	34.07236
992.493	25.64151
992.662	-12.29261
992.832	31.96461
993.002	17.21104
993.171	42.50359
993.341	25.64151
993.511	65.69137
993.68	-10.18537
993.85	-52.32561
994.019	-35.47071
994.189	34.07236
994.358	-46.00521
994.528	74.12398
994.697	48.82725
994.867	23.53386
995.036	99.42397
995.206	-54.43236
995.375	31.96461
995.544	25.64151
995.714	-52.32561
995.883	48.82725
996.052	29.85689
996.222	76.23219
996.391	90.99028
996.56	0.35123
996.73	31.96461
996.899	8.78094
997.068	44.61145
997.237	103.64094
997.406	-43.89836
997.576	-1.75614
997.745	-16.50703
997.914	2.45862
998.083	31.96461
998.252	6.67348
998.421	-10.18537
998.59	-1.75614
998.759	-50.21884
998.928	6.67348
999.097	-35.47071
999.266	57.25913
999.435	-16.50703
999.604	25.64151
999.773	53.04315
999.942	48.82725
1000.111	25.64151
1000.28	36.18013
1000.448	15.10348
1000.617	78.34042
1000.786	-54.43236
1000.955	4.56604
1001.124	38.28793
1001.292	82.55695
1001.461	8.78094
1001.63	-16.50703
1001.798	-1.75614
1001.967	-1.75614
1002.136	-16.50703
1002.304	-35.47071
1002.473	15.10348
1002.642	19.31862
1002.81	44.61145
1002.979	-5.9708
1003.147	27.74919
1003.316	15.10348
1003.484	-33.36373
1003.653	19.31862
1003.821	-10.18537
1003.99	40.39575
1004.158	-46.00521
1004.327	61.47521
1004.495	17.21104
1004.663	46.71934
1004.832	23.53386
1005	40.39575
1005.168	107.85801
1005.337	55.15113
1005.505	42.50359
1005.673	42.50359
1005.842	74.12398
1006.01	0.35123
1006.178	31.96461
1006.346	31.96461
1006.514	-20.72135
1006.683	-1.75614
1006.851	48.82725
1007.019	-1.75614
1007.187	8.78094
1007.355	27.74919
1007.523	4.56604
1007.691	2.45862
1007.859	0.35123
1008.027	-3.86348
1008.195	10.88843
1008.363	12.99594
1008.531	12.99594
1008.699	36.18013
1008.867	0.35123
1009.035	19.31862
1009.203	2.45862
1009.37	-46.00521
1009.538	6.67348
1009.706	10.88843
1009.874	-3.86348
1010.042	25.64151
1010.209	4.56604
1010.377	-22.82848
1010.545	-10.18537
1010.713	27.74919
1010.88	-16.50703
1011.048	15.10348
1011.216	25.64151
1011.383	-18.61421
1011.551	-24.93558
1011.718	-1.75614
1011.886	-27.04265
1012.054	55.15113
1012.221	6.67348
1012.389	34.07236
1012.556	-75.49848
1012.724	44.61145
1012.891	-1.75614
1013.058	38.28793
1013.226	34.07236
1013.393	50.93519
1013.561	31.96461
1013.728	67.79949
1013.895	65.69137
1014.063	25.64151
1014.23	15.10348
1014.397	42.50359
1014.565	17.21104
1014.732	15.10348
1014.899	-8.0781
1015.066	-18.61421
1015.233	17.21104
1015.401	-52.32561
1015.568	6.67348
1015.735	10.88843
1015.902	53.04315
1016.069	-39.68458
1016.236	-60.75247
1016.403	48.82725
1016.57	-52.32561
1016.737	-14.39983
1016.904	19.31862
1017.071	-24.93558
1017.238	-31.25673
1017.405	17.21104
1017.572	34.07236
1017.739	-37.57766
1017.906	31.96461
1018.073	-48.11204
1018.24	31.96461
1018.407	50.93519
1018.573	57.25913
1018.74	-56.53909
1018.907	-50.21884
1019.074	31.96461
1019.241	46.71934
1019.407	27.74919
1019.574	-14.39983
1019.741	44.61145
1019.907	-71.28546
1020.074	10.88843
1020.241	-50.21884
1020.407	15.10348
1020.574	31.96461
1020.74	53.04315
1020.907	-12.29261
1021.073	82.55695
1021.24	-27.04265
1021.406	2.45862
1021.573	-10.18537
1021.739	-33.36373
1021.906	65.69137
1022.072	-111.30495
1022.239	63.58328
1022.405	-1.75614
1022.571	-10.18537
1022.738	4.56604
1022.904	23.53386
1023.07	-18.61421
1023.237	-16.50703
1023.403	40.39575
1023.569	8.78094
1023.735	-16.50703
1023.902	-16.50703
1024.068	17.21104
1024.234	-75.49848
1024.4	4.56604
1024.566	-24.93558
1024.732	48.82725
1024.898	21.42623
1025.065	-5.9708
1025.231	6.67348
1025.397	-18.61421
1025.563	-54.43236
1025.729	15.10348
1025.895	8.78094
1026.061	31.96461
1026.227	-10.18537
1026.392	-8.0781
1026.558	-1.75614
1026.724	-35.47071
1026.89	-33.36373
1027.056	40.39575
1027.222	6.67348
1027.388	0.35123
1027.553	23.53386
1027.719	-33.36373
1027.885	-52.32561
1028.051	-8.0781
1028.216	23.53386
1028.382	42.50359
1028.548	46.71934
1028.713	19.31862
1028.879	-48.11204
1029.045	44.61145
1029.21	-22.82848
1029.376	2.45862
1029.541	-18.61421
1029.707	-27.04265
1029.873	61.47521
1030.038	10.88843
1030.204	-1.75614
1030.369	-10.18537
1030.534	10.88843
1030.7	-54.43236
1030.865	59.36716
1031.031	-35.47071
1031.196	2.45862
1031.361	-1.75614
1031.527	-20.72135
1031.692	19.31862
1031.857	36.18013
1032.023	72.0158
1032.188	23.53386
1032.353	-10.18537
1032.518	-1.75614
1032.684	-8.0781
1032.849	-8.0781
1033.014	27.74919
1033.179	34.07236
1033.344	38.28793
1033.509	-8.0781
1033.674	17.21104
1033.839	34.07236
1034.004	50.93519
1034.17	12.99594
1034.335	-43.89836
1034.5	-90.24323
1034.664	17.21104
1034.829	-10.18537
1034.994	-31.25673
1035.159	-43.89836
1035.324	31.96461
1035.489	8.78094
1035.654	-10.18537
1035.819	-1.75614
1035.984	-29.1497
1036.148	-60.75247
1036.313	15.10348
1036.478	-64.96574
1036.643	8.78094
1036.807	-67.07234
1036.972	23.53386
1037.137	8.78094
1037.301	23.53386
1037.466	40.39575
1037.631	34.07236
1037.795	0.35123
1037.96	-46.00521
1038.124	23.53386
1038.289	42.50359
1038.454	57.25913
1038.618	-86.03057
1038.783	-50.21884
1038.947	15.10348
1039.111	10.88843
1039.276	-24.93558
1039.44	10.88843
1039.605	-35.47071
1039.769	10.88843
1039.933	4.56604
1040.098	65.69137
1040.262	6.67348
1040.426	90.99028
1040.591	15.10348
1040.755	-43.89836
1040.919	40.39575
1041.083	-12.29261
1041.248	17.21104
1041.412	-35.47071
1041.576	50.93519
1041.74	-69.17891
1041.904	-46.00521
1042.068	53.04315
1042.232	27.74919
1042.397	-1.75614
1042.561	44.61145
1042.725	2.45862
1042.889	44.61145
1043.053	57.25913
1043.217	46.71934
1043.381	-16.50703
1043.544	-31.25673
1043.708	-18.61421
1043.872	-1.75614
1044.036	31.96461
1044.2	-27.04265
1044.364	-60.75247
1044.528	21.42623
1044.691	4.56604
1044.855	-14.39983
1045.019	-24.93558
1045.183	-20.72135
1045.346	69.90763
1045.51	65.69137
1045.674	-60.75247
1045.837	40.39575
1046.001	-18.61421
1046.165	31.96461
1046.328	50.93519
1046.492	42.50359
1046.655	27.74919
1046.819	17.21104
1046.983	-35.47071
1047.146	40.39575
1047.31	-24.93558
1047.473	31.96461
1047.636	65.69137
1047.8	15.10348
1047.963	-14.39983
1048.127	12.99594
1048.29	-33.36373
